##NAMES=Tremolite
##RRUFFID=R040109
##IDEAL CHEMISTRY=[box]Ca_2_Mg_5_Si_8_O_22_(OH)_2_
##LOCALITY=Cassiar, British Columbia, Canada
##OWNER=RRUFF
##SOURCE=University of Arizona Mineral Museum
##DESCRIPTION=Green fine-grained massive
##STATUS=The identification of this mineral has been confirmed by X-ray diffraction and chemical analysis
##URL=rruff.info/R040109
##MEASURED CHEMISTRY=[box]Ca_1.99_(Mg_0.90_Fe_0.08_Al_0.01_)_5_Si_8.01_O_22_(OH)_2_
3.991926e+002, 0.000000e+000
4.011211e+002, 2.675050e-001
4.030496e+002, 2.687812e-001
4.049780e+002, 2.622502e-001
4.069065e+002, 2.741098e-001
4.088350e+002, 2.899378e-001
4.107634e+002, 3.027884e-001
4.126919e+002, 3.149022e-001
4.146204e+002, 3.193299e-001
4.165488e+002, 3.133554e-001
4.184773e+002, 3.008079e-001
4.204058e+002, 2.834786e-001
4.223342e+002, 2.736133e-001
4.242627e+002, 2.778572e-001
4.261912e+002, 2.923449e-001
4.281196e+002, 3.083123e-001
4.300481e+002, 3.304763e-001
4.319766e+002, 3.605646e-001
4.339050e+002, 3.904969e-001
4.358335e+002, 4.053263e-001
4.377620e+002, 4.017576e-001
4.396904e+002, 4.066388e-001
4.416189e+002, 4.048003e-001
4.435474e+002, 3.914960e-001
4.454758e+002, 3.791699e-001
4.474043e+002, 3.670050e-001
4.493328e+002, 3.593465e-001
4.512612e+002, 3.517843e-001
4.531897e+002, 3.439249e-001
4.551182e+002, 3.346123e-001
4.570466e+002, 3.279584e-001
4.589751e+002, 3.222379e-001
4.609036e+002, 3.104529e-001
4.628320e+002, 2.984107e-001
4.647605e+002, 2.873927e-001
4.666890e+002, 2.762910e-001
4.686174e+002, 2.655362e-001
4.705459e+002, 2.528054e-001
4.724744e+002, 2.431140e-001
4.744028e+002, 2.360199e-001
4.763313e+002, 2.276237e-001
4.782598e+002, 2.197183e-001
4.801882e+002, 2.103693e-001
4.821167e+002, 2.016218e-001
4.840452e+002, 1.956453e-001
4.859736e+002, 1.914156e-001
4.879021e+002, 1.895851e-001
4.898306e+002, 1.906099e-001
4.917590e+002, 1.938343e-001
4.936875e+002, 1.995905e-001
4.956160e+002, 2.082766e-001
4.975444e+002, 2.161989e-001
4.994729e+002, 2.214145e-001
5.014014e+002, 2.238019e-001
5.033298e+002, 2.257124e-001
5.052583e+002, 2.237599e-001
5.071868e+002, 2.157369e-001
5.091152e+002, 2.038321e-001
5.110437e+002, 1.902613e-001
5.129722e+002, 1.801320e-001
5.149006e+002, 1.730301e-001
5.168291e+002, 1.654194e-001
5.187576e+002, 1.592259e-001
5.206860e+002, 1.560581e-001
5.226145e+002, 1.548506e-001
5.245430e+002, 1.543842e-001
5.264714e+002, 1.523643e-001
5.283999e+002, 1.487234e-001
5.303284e+002, 1.442517e-001
5.322568e+002, 1.392381e-001
5.341853e+002, 1.337415e-001
5.361138e+002, 1.275154e-001
5.380422e+002, 1.208879e-001
5.399707e+002, 1.136026e-001
5.418992e+002, 1.063608e-001
5.438276e+002, 9.929140e-002
5.457561e+002, 9.191583e-002
5.476846e+002, 8.488724e-002
5.496130e+002, 7.866734e-002
5.515415e+002, 7.296681e-002
5.534700e+002, 6.741501e-002
5.553984e+002, 6.210826e-002
5.573269e+002, 5.757936e-002
5.592554e+002, 5.340790e-002
5.611838e+002, 4.922456e-002
5.631123e+002, 4.531617e-002
5.650408e+002, 4.215502e-002
5.669692e+002, 3.923059e-002
5.688977e+002, 3.652293e-002
5.708262e+002, 3.451945e-002
5.727546e+002, 3.217628e-002
5.746831e+002, 3.022535e-002
5.766116e+002, 2.908182e-002
5.785400e+002, 2.789591e-002
5.804685e+002, 2.670794e-002
5.823970e+002, 2.606507e-002
5.843254e+002, 2.522740e-002
5.862539e+002, 2.417410e-002
5.881824e+002, 2.370990e-002
5.901108e+002, 2.362846e-002
5.920393e+002, 2.339487e-002
5.939678e+002, 2.328268e-002
5.958962e+002, 2.316849e-002
5.978247e+002, 2.305444e-002
5.997532e+002, 2.295425e-002
6.016816e+002, 2.292178e-002
6.036101e+002, 2.274848e-002
6.055386e+002, 2.297030e-002
6.074670e+002, 2.314938e-002
6.093955e+002, 2.320269e-002
6.113240e+002, 2.366315e-002
6.132524e+002, 2.445436e-002
6.151809e+002, 2.497909e-002
6.171094e+002, 2.534546e-002
6.190378e+002, 2.608259e-002
6.209663e+002, 2.683562e-002
6.228948e+002, 2.764837e-002
6.248232e+002, 2.888334e-002
6.267517e+002, 3.061176e-002
6.286802e+002, 3.289286e-002
6.306086e+002, 3.582114e-002
6.325371e+002, 3.966134e-002
6.344656e+002, 4.482975e-002
6.363940e+002, 5.165774e-002
6.383225e+002, 5.978672e-002
6.402510e+002, 6.653209e-002
6.421794e+002, 6.800329e-002
6.441079e+002, 6.388765e-002
6.460364e+002, 5.825126e-002
6.479648e+002, 5.502821e-002
6.498933e+002, 5.530338e-002
6.518218e+002, 5.854544e-002
6.537502e+002, 6.354192e-002
6.556787e+002, 6.924358e-002
6.576072e+002, 7.436459e-002
6.595356e+002, 7.722069e-002
6.614641e+002, 7.654284e-002
6.633926e+002, 7.275031e-002
6.653210e+002, 6.789774e-002
6.672495e+002, 6.370218e-002
6.691780e+002, 6.134703e-002
6.711064e+002, 6.190595e-002
6.730349e+002, 6.594854e-002
6.749634e+002, 7.353096e-002
6.768918e+002, 8.542094e-002
6.788203e+002, 1.008233e-001
6.807488e+002, 1.174584e-001
6.826772e+002, 1.311607e-001
6.846057e+002, 1.364125e-001
6.865342e+002, 1.313470e-001
6.884626e+002, 1.189398e-001
6.903911e+002, 1.034655e-001
6.923196e+002, 8.820154e-002
6.942480e+002, 7.495724e-002
6.961765e+002, 6.404354e-002
6.981050e+002, 5.538730e-002
7.000334e+002, 4.884055e-002
7.019619e+002, 4.416399e-002
7.038904e+002, 4.062979e-002
7.058188e+002, 3.814095e-002
7.077473e+002, 3.658705e-002
7.096758e+002, 3.586188e-002
7.116042e+002, 3.603644e-002
7.135327e+002, 3.666354e-002
7.154612e+002, 3.738533e-002
7.173896e+002, 3.934051e-002
7.193181e+002, 4.278882e-002
7.212466e+002, 4.681246e-002
7.231750e+002, 4.944462e-002
7.251035e+002, 4.907449e-002
7.270320e+002, 4.670569e-002
7.289604e+002, 4.474666e-002
7.308889e+002, 4.505867e-002
7.328174e+002, 4.756947e-002
7.347458e+002, 5.167062e-002
7.366743e+002, 5.682775e-002
7.386028e+002, 6.064486e-002
7.405313e+002, 6.233427e-002
7.424597e+002, 6.505411e-002
7.443882e+002, 7.138975e-002
7.463167e+002, 8.214168e-002
7.482451e+002, 9.702463e-002
7.501736e+002, 1.175369e-001
7.521021e+002, 1.452077e-001
7.540305e+002, 1.763269e-001
7.559590e+002, 1.971115e-001
7.578875e+002, 1.931123e-001
7.598159e+002, 1.673818e-001
7.617444e+002, 1.342750e-001
7.636729e+002, 1.039888e-001
7.656013e+002, 8.021080e-002
7.675298e+002, 6.336579e-002
7.694583e+002, 5.213230e-002
7.713867e+002, 4.476966e-002
7.733152e+002, 4.012250e-002
7.752437e+002, 3.689009e-002
7.771721e+002, 3.458847e-002
7.791006e+002, 3.296096e-002
7.810291e+002, 3.174510e-002
7.829575e+002, 3.093646e-002
7.848860e+002, 3.044963e-002
7.868145e+002, 3.018922e-002
7.887429e+002, 3.001709e-002
7.906714e+002, 2.979717e-002
7.925999e+002, 2.967226e-002
7.945283e+002, 2.990335e-002
7.964568e+002, 3.035561e-002
7.983853e+002, 3.071070e-002
8.003137e+002, 3.087013e-002
8.022422e+002, 3.108523e-002
8.041707e+002, 3.128662e-002
8.060991e+002, 3.154432e-002
8.080276e+002, 3.203019e-002
8.099561e+002, 3.257033e-002
8.118845e+002, 3.329547e-002
8.138130e+002, 3.436045e-002
8.157415e+002, 3.507676e-002
8.176699e+002, 3.547375e-002
8.195984e+002, 3.606668e-002
8.215269e+002, 3.702590e-002
8.234553e+002, 3.803683e-002
8.253838e+002, 3.904070e-002
8.273123e+002, 4.012968e-002
8.292407e+002, 4.104088e-002
8.311692e+002, 4.213205e-002
8.330977e+002, 4.369954e-002
8.350261e+002, 4.553621e-002
8.369546e+002, 4.753068e-002
8.388831e+002, 4.977149e-002
8.408115e+002, 5.216243e-002
8.427400e+002, 5.476722e-002
8.446685e+002, 5.780658e-002
8.465969e+002, 6.079206e-002
8.485254e+002, 6.313300e-002
8.504539e+002, 6.527371e-002
8.523823e+002, 6.749145e-002
8.543108e+002, 6.986773e-002
8.562393e+002, 7.279602e-002
8.581677e+002, 7.615146e-002
8.600962e+002, 7.974052e-002
8.620247e+002, 8.378644e-002
8.639531e+002, 8.815105e-002
8.658816e+002, 9.251197e-002
8.678101e+002, 9.706369e-002
8.697385e+002, 1.018519e-001
8.716670e+002, 1.070613e-001
8.735955e+002, 1.129555e-001
8.755239e+002, 1.195818e-001
8.774524e+002, 1.269840e-001
8.793809e+002, 1.350515e-001
8.813093e+002, 1.440680e-001
8.832378e+002, 1.540448e-001
8.851663e+002, 1.648903e-001
8.870947e+002, 1.766630e-001
8.890232e+002, 1.896670e-001
8.909517e+002, 2.036886e-001
8.928801e+002, 2.187764e-001
8.948085e+002, 2.356797e-001
8.967370e+002, 2.549868e-001
8.986655e+002, 2.760505e-001
9.005939e+002, 2.989404e-001
9.025224e+002, 3.241586e-001
9.044509e+002, 3.513814e-001
9.063793e+002, 3.807108e-001
9.083078e+002, 4.121739e-001
9.102363e+002, 4.439406e-001
9.121647e+002, 4.741703e-001
9.140932e+002, 4.992780e-001
9.160217e+002, 5.142926e-001
9.179501e+002, 5.151858e-001
9.198786e+002, 5.023688e-001
9.218071e+002, 4.805464e-001
9.237355e+002, 4.538036e-001
9.256640e+002, 4.230637e-001
9.275925e+002, 3.934265e-001
9.295209e+002, 3.750494e-001
9.314494e+002, 3.749256e-001
9.333779e+002, 3.928529e-001
9.353063e+002, 4.242685e-001
9.372348e+002, 4.634983e-001
9.391633e+002, 5.040422e-001
9.410917e+002, 5.401317e-001
9.430202e+002, 5.669250e-001
9.449487e+002, 5.813106e-001
9.468771e+002, 5.813729e-001
9.488056e+002, 5.697712e-001
9.507341e+002, 5.498093e-001
9.526625e+002, 5.251303e-001
9.545910e+002, 5.003534e-001
9.565195e+002, 4.769147e-001
9.584479e+002, 4.547288e-001
9.603764e+002, 4.344083e-001
9.623049e+002, 4.168193e-001
9.642333e+002, 4.021581e-001
9.661618e+002, 3.892929e-001
9.680903e+002, 3.786675e-001
9.700187e+002, 3.702804e-001
9.719472e+002, 3.641003e-001
9.738757e+002, 3.603566e-001
9.758041e+002, 3.589304e-001
9.777326e+002, 3.594478e-001
9.796611e+002, 3.616738e-001
9.815895e+002, 3.647075e-001
9.835180e+002, 3.675415e-001
9.854465e+002, 3.685858e-001
9.873749e+002, 3.670613e-001
9.893034e+002, 3.626129e-001
9.912319e+002, 3.548513e-001
9.931603e+002, 3.440527e-001
9.950888e+002, 3.305762e-001
9.970173e+002, 3.150899e-001
9.989457e+002, 2.980656e-001
1.000874e+003, 2.805872e-001
1.002803e+003, 2.634607e-001
1.004731e+003, 2.468739e-001
1.006660e+003, 2.315384e-001
1.008588e+003, 2.177556e-001
1.010517e+003, 2.056669e-001
1.012445e+003, 1.954534e-001
1.014373e+003, 1.873280e-001
1.016302e+003, 1.807912e-001
1.018230e+003, 1.735550e-001
1.020159e+003, 1.646408e-001
1.022087e+003, 1.562131e-001
1.024016e+003, 1.491269e-001
1.025944e+003, 1.432220e-001
1.027873e+003, 1.390622e-001
1.029801e+003, 1.384238e-001
1.031730e+003, 1.428337e-001
1.033658e+003, 1.512597e-001
1.035587e+003, 1.606419e-001
1.037515e+003, 1.651942e-001
1.039444e+003, 1.641717e-001
1.041372e+003, 1.628682e-001
1.043301e+003, 1.640954e-001
1.045229e+003, 1.671747e-001
1.047157e+003, 1.706763e-001
1.049086e+003, 1.741423e-001
1.051014e+003, 1.769188e-001
1.052943e+003, 1.788195e-001
1.054871e+003, 1.800619e-001
1.056800e+003, 1.805527e-001
1.058728e+003, 1.803082e-001
1.060657e+003, 1.793590e-001
1.062585e+003, 1.773353e-001
1.064514e+003, 1.742873e-001
1.066442e+003, 1.707068e-001
1.068371e+003, 1.667088e-001
1.070299e+003, 1.622225e-001
1.072228e+003, 1.568760e-001
1.074156e+003, 1.510344e-001
1.076084e+003, 1.450553e-001
1.078013e+003, 1.391396e-001
1.079941e+003, 1.338942e-001
1.081870e+003, 1.292405e-001
1.083798e+003, 1.258613e-001
1.085727e+003, 1.240589e-001
1.087655e+003, 1.236325e-001
1.089584e+003, 1.247273e-001
1.091512e+003, 1.270312e-001
1.093441e+003, 1.305508e-001
1.095369e+003, 1.353502e-001
1.097298e+003, 1.408214e-001
1.099226e+003, 1.465874e-001
1.101155e+003, 1.513572e-001
1.103083e+003, 1.545626e-001
1.105011e+003, 1.561304e-001
1.106940e+003, 1.558268e-001
1.108868e+003, 1.537164e-001
1.110797e+003, 1.502064e-001
1.112725e+003, 1.450179e-001
1.114654e+003, 1.383448e-001
1.116582e+003, 1.310365e-001
1.118511e+003, 1.230677e-001
1.120439e+003, 1.146727e-001
1.122368e+003, 1.072123e-001
1.124296e+003, 1.020156e-001
1.126225e+003, 9.774394e-002
1.128153e+003, 9.151395e-002
1.130082e+003, 8.334441e-002
1.132010e+003, 7.464769e-002
1.133938e+003, 6.632825e-002
1.135867e+003, 5.892661e-002
1.137795e+003, 5.222882e-002
1.139724e+003, 4.610799e-002
1.141652e+003, 4.065960e-002
1.143581e+003, 3.617666e-002
1.145509e+003, 3.229781e-002
1.147438e+003, 2.892512e-002
1.149366e+003, 2.609673e-002
1.151295e+003, 2.364269e-002
1.153223e+003, 2.152920e-002
1.155152e+003, 1.952379e-002
1.157080e+003, 1.781930e-002
1.159009e+003, 1.657659e-002
1.160937e+003, 1.558239e-002
1.162865e+003, 1.472780e-002
1.164794e+003, 1.401493e-002
1.166722e+003, 1.336446e-002
1.168651e+003, 1.287139e-002
1.170579e+003, 1.232946e-002
1.172508e+003, 1.179460e-002
1.174436e+003, 1.141586e-002
1.176365e+003, 1.093886e-002
1.178293e+003, 1.040030e-002
1.180222e+003, 1.009157e-002
1.182150e+003, 9.959509e-003
1.184079e+003, 9.785658e-003
1.186007e+003, 9.538474e-003
1.187936e+003, 9.293214e-003
1.189864e+003, 8.967364e-003
1.191792e+003, 8.640471e-003
1.193721e+003, 8.377414e-003
1.195649e+003, 8.226981e-003
1.197578e+003, 8.004098e-003
1.199506e+003, 7.751877e-003
1.201435e+003, 7.599347e-003
1.203363e+003, 7.561700e-003
1.205292e+003, 7.285970e-003
1.207220e+003, 6.908584e-003
1.209149e+003, 6.768419e-003
1.211077e+003, 6.837506e-003
1.213006e+003, 6.643048e-003
1.214934e+003, 6.359758e-003
1.216863e+003, 6.330023e-003
1.218791e+003, 6.251493e-003
1.220719e+003, 5.945304e-003
1.222648e+003, 5.601579e-003
1.224576e+003, 5.412145e-003
1.226505e+003, 5.509681e-003
1.228433e+003, 5.576374e-003
1.230362e+003, 5.411761e-003
1.232290e+003, 5.293175e-003
1.234219e+003, 5.340446e-003
1.236147e+003, 5.303450e-003
1.238076e+003, 5.106722e-003
1.240004e+003, 4.963794e-003
1.241933e+003, 4.949127e-003
1.243861e+003, 4.901033e-003
1.245790e+003, 4.725615e-003
1.247718e+003, 4.657022e-003
1.249646e+003, 4.679863e-003
1.251575e+003, 4.577095e-003
1.253503e+003, 4.397989e-003
1.255432e+003, 4.272555e-003
1.257360e+003, 4.293408e-003
1.259289e+003, 4.258465e-003
1.261217e+003, 4.183068e-003
1.263146e+003, 4.134300e-003
1.265074e+003, 4.186193e-003
1.267003e+003, 4.048056e-003
1.268931e+003, 4.075204e-003
1.270860e+003, 4.095525e-003
1.272788e+003, 4.035913e-003
1.274717e+003, 4.048685e-003
1.276645e+003, 4.022587e-003
1.278573e+003, 4.001854e-003
1.280502e+003, 3.952269e-003
1.282430e+003, 3.885237e-003
1.284359e+003, 3.890851e-003
1.286287e+003, 3.941040e-003
1.288216e+003, 3.944329e-003
1.290144e+003, 4.048736e-003
1.292073e+003, 4.061191e-003
1.294001e+003, 3.997179e-003
1.295930e+003, 3.963309e-003
1.297858e+003, 3.871681e-003
1.299787e+003, 3.799377e-003
1.301715e+003, 3.972153e-003
1.303644e+003, 3.938331e-003
1.305572e+003, 3.732898e-003
1.307500e+003, 3.723380e-003
1.309429e+003, 3.786132e-003
1.311357e+003, 3.834897e-003
1.313286e+003, 3.671851e-003
1.315214e+003, 3.575616e-003
1.317143e+003, 3.588424e-003
1.319071e+003, 3.703321e-003
1.321000e+003, 3.678237e-003
1.322928e+003, 3.611496e-003
1.324857e+003, 3.715494e-003
1.326785e+003, 3.842712e-003
1.328714e+003, 4.006980e-003
1.330642e+003, 4.161649e-003
1.332571e+003, 4.148175e-003
1.334499e+003, 4.222544e-003
1.336427e+003, 4.276432e-003
1.338356e+003, 4.482067e-003
1.340284e+003, 4.484269e-003
1.342213e+003, 4.585660e-003
1.344141e+003, 4.694754e-003
1.346070e+003, 4.671864e-003
1.347998e+003, 4.767233e-003
1.349927e+003, 4.827580e-003
1.351855e+003, 4.836360e-003
1.353784e+003, 4.937380e-003
1.355712e+003, 4.943472e-003
1.357641e+003, 4.860170e-003
1.359569e+003, 4.798640e-003
1.361498e+003, 4.922767e-003
1.363426e+003, 5.043725e-003
1.365354e+003, 4.995269e-003
1.367283e+003, 4.916505e-003
1.369211e+003, 5.017345e-003
1.371140e+003, 5.238276e-003
1.373068e+003, 5.203609e-003
1.374997e+003, 5.164211e-003
1.376925e+003, 5.328625e-003
1.378854e+003, 5.266997e-003
1.380782e+003, 5.203943e-003
1.382711e+003, 5.312492e-003
1.384639e+003, 5.478573e-003
1.386568e+003, 5.564677e-003
1.388496e+003, 5.590881e-003
1.390424e+003, 5.756930e-003
1.392353e+003, 5.761666e-003
1.394281e+003, 5.870119e-003
1.396210e+003, 6.108603e-003
1.398138e+003, 6.282618e-003
1.400067e+003, 6.301023e-003
1.401995e+003, 6.535675e-003
1.403924e+003, 6.607499e-003
1.405852e+003, 6.826837e-003
1.407781e+003, 7.206194e-003
1.409709e+003, 7.193070e-003
1.411638e+003, 7.020094e-003
1.413566e+003, 7.033933e-003
1.415495e+003, 7.293746e-003
1.417423e+003, 7.487010e-003
1.419351e+003, 7.442993e-003
1.421280e+003, 7.620683e-003
1.423208e+003, 7.592040e-003
1.425137e+003, 7.495021e-003
1.427065e+003, 7.657468e-003
1.428994e+003, 7.884563e-003
1.430922e+003, 7.855476e-003
1.432851e+003, 7.703390e-003
1.434779e+003, 7.644339e-003
1.436708e+003, 7.453530e-003
1.438636e+003, 7.460906e-003
1.440565e+003, 7.549225e-003
1.442493e+003, 7.475712e-003
1.444422e+003, 7.335959e-003
1.446350e+003, 7.477939e-003
1.448278e+003, 7.524391e-003
1.450207e+003, 7.420549e-003
1.452135e+003, 7.227364e-003
1.454064e+003, 7.133877e-003
1.455992e+003, 6.894206e-003
1.457921e+003, 6.604890e-003
1.459849e+003, 6.717851e-003
1.461778e+003, 6.717070e-003
1.463706e+003, 6.637868e-003
1.465635e+003, 6.512648e-003
1.467563e+003, 6.594297e-003
1.469492e+003, 6.648581e-003
1.471420e+003, 6.576636e-003
1.473349e+003, 6.373373e-003
1.475277e+003, 6.457856e-003
1.477205e+003, 6.434903e-003
1.479134e+003, 6.539967e-003
1.481062e+003, 6.562771e-003
1.482991e+003, 6.527517e-003
1.484919e+003, 6.310768e-003
1.486848e+003, 6.058378e-003
1.488776e+003, 6.059692e-003
1.490705e+003, 6.076635e-003
1.492633e+003, 6.094048e-003
1.494562e+003, 6.120229e-003
1.496490e+003, 5.930521e-003
1.498419e+003, 6.040426e-003
1.500347e+003, 6.116109e-003
1.502276e+003, 6.355094e-003
1.504204e+003, 6.236049e-003
1.506132e+003, 5.691720e-003
1.508061e+003, 5.649474e-003
1.509989e+003, 5.860429e-003
1.511918e+003, 5.815228e-003
1.513846e+003, 5.812526e-003
1.515775e+003, 5.887636e-003
1.517703e+003, 5.743856e-003
1.519632e+003, 5.614478e-003
1.521560e+003, 5.394867e-003
1.523489e+003, 5.750876e-003
1.525417e+003, 5.969234e-003
1.527346e+003, 6.184597e-003
1.529274e+003, 6.066224e-003
1.531203e+003, 6.094182e-003
1.533131e+003, 6.352716e-003
1.535059e+003, 6.466108e-003
1.536988e+003, 6.476684e-003
1.538916e+003, 6.333426e-003
1.540845e+003, 6.374797e-003
1.542773e+003, 6.860611e-003
1.544702e+003, 7.352124e-003
1.546630e+003, 7.645357e-003
1.548559e+003, 8.048818e-003
1.550487e+003, 8.289146e-003
1.552416e+003, 8.289252e-003
1.554344e+003, 8.202728e-003
1.556273e+003, 8.474738e-003
1.558201e+003, 8.192146e-003
1.560130e+003, 8.115353e-003
1.562058e+003, 8.831332e-003
1.563986e+003, 9.225842e-003
1.565915e+003, 9.338191e-003
1.567843e+003, 9.467933e-003
1.569772e+003, 9.491918e-003
1.571700e+003, 9.682070e-003
1.573629e+003, 9.715747e-003
1.575557e+003, 9.616350e-003
1.577486e+003, 9.626708e-003
1.579414e+003, 9.983031e-003
1.581343e+003, 1.009673e-002
1.583271e+003, 1.037114e-002
1.585200e+003, 1.056936e-002
1.587128e+003, 1.070444e-002
1.589057e+003, 1.072309e-002
1.590985e+003, 1.070332e-002
1.592913e+003, 1.064403e-002
1.594842e+003, 1.059868e-002
1.596770e+003, 1.064631e-002
1.598699e+003, 1.082885e-002
1.600627e+003, 1.085779e-002
1.602556e+003, 1.083916e-002
1.604484e+003, 1.081749e-002
1.606413e+003, 1.058238e-002
1.608341e+003, 1.050806e-002
1.610270e+003, 1.057472e-002
1.612198e+003, 1.038045e-002
1.614127e+003, 1.018448e-002
1.616055e+003, 9.953341e-003
1.617984e+003, 9.751036e-003
1.619912e+003, 9.860411e-003
1.621840e+003, 9.703198e-003
1.623769e+003, 9.633391e-003
1.625697e+003, 9.657437e-003
1.627626e+003, 9.313058e-003
1.629554e+003, 9.046772e-003
1.631483e+003, 9.059449e-003
1.633411e+003, 8.872768e-003
1.635340e+003, 8.394486e-003
1.637268e+003, 8.355333e-003
1.639197e+003, 8.422082e-003
1.641125e+003, 8.351980e-003
1.643054e+003, 7.918583e-003
1.644982e+003, 7.484250e-003
1.646911e+003, 7.044473e-003
1.648839e+003, 6.840050e-003
1.650767e+003, 6.724047e-003
1.652696e+003, 6.304032e-003
1.654624e+003, 6.402808e-003
1.656553e+003, 6.716564e-003
1.658481e+003, 6.599191e-003
1.660410e+003, 6.492486e-003
1.662338e+003, 5.962220e-003
1.664267e+003, 5.730431e-003
1.666195e+003, 6.030262e-003
1.668124e+003, 5.910340e-003
1.670052e+003, 5.463982e-003
1.671981e+003, 5.595585e-003
1.673909e+003, 5.686515e-003
1.675838e+003, 5.404434e-003
1.677766e+003, 5.406730e-003
1.679694e+003, 5.254738e-003
1.681623e+003, 5.171730e-003
1.683551e+003, 4.712711e-003
1.685480e+003, 4.431935e-003
1.687408e+003, 5.087520e-003
1.689337e+003, 5.179913e-003
1.691265e+003, 5.054489e-003
1.693194e+003, 4.762278e-003
1.695122e+003, 4.503046e-003
1.697051e+003, 4.102216e-003
1.698979e+003, 4.027983e-003
1.700908e+003, 3.550001e-003
1.702836e+003, 4.177992e-003
1.704765e+003, 4.028287e-003
1.706693e+003, 3.637739e-003
1.708621e+003, 3.471630e-003
1.710550e+003, 3.146190e-003
1.712478e+003, 3.263577e-003
1.714407e+003, 3.391442e-003
1.716335e+003, 3.224480e-003
1.718264e+003, 2.744179e-003
1.720192e+003, 2.983443e-003
1.722121e+003, 2.931604e-003
1.724049e+003, 2.779837e-003
1.725978e+003, 2.983099e-003
1.727906e+003, 2.784095e-003
1.729835e+003, 2.430793e-003
1.731763e+003, 2.284471e-003
1.733692e+003, 2.036626e-003
1.735620e+003, 1.926320e-003
1.737548e+003, 2.110308e-003
1.739477e+003, 1.987926e-003
1.741405e+003, 1.877019e-003
1.743334e+003, 1.696917e-003
1.745262e+003, 1.815468e-003
1.747191e+003, 1.938005e-003
1.749119e+003, 1.997302e-003
1.751048e+003, 2.045925e-003
1.752976e+003, 2.024515e-003
1.754905e+003, 1.991560e-003
1.756833e+003, 2.083098e-003
1.758762e+003, 2.538784e-003
1.760690e+003, 2.660706e-003
1.762619e+003, 2.444538e-003
1.764547e+003, 2.276213e-003
1.766475e+003, 2.096582e-003
1.768404e+003, 2.088604e-003
1.770332e+003, 2.163559e-003
1.772261e+003, 2.089816e-003
1.774189e+003, 1.985220e-003
1.776118e+003, 1.953277e-003
1.778046e+003, 2.114929e-003
1.779975e+003, 2.130492e-003
1.781903e+003, 1.858287e-003
1.783832e+003, 1.883234e-003
1.785760e+003, 1.821653e-003
1.787689e+003, 1.790402e-003
1.789617e+003, 1.873351e-003
1.791546e+003, 1.668826e-003
1.793474e+003, 1.364535e-003
1.795402e+003, 1.507172e-003
1.797331e+003, 1.301281e-003
1.799259e+003, 1.290455e-003
1.801188e+003, 1.284817e-003
1.803116e+003, 1.531058e-003
1.805045e+003, 1.507733e-003
1.806973e+003, 1.445106e-003
1.808902e+003, 1.646388e-003
1.810830e+003, 1.472644e-003
1.812759e+003, 8.586330e-004
1.814687e+003, 5.893295e-004
1.816616e+003, 6.770940e-004
1.818544e+003, 9.566234e-004
1.820473e+003, 9.440488e-004
1.822401e+003, 7.621450e-004
1.824329e+003, 6.138255e-004
1.826258e+003, 7.611806e-004
1.828186e+003, 8.785167e-004
1.830115e+003, 8.446767e-004
1.832043e+003, 9.439960e-004
1.833972e+003, 5.012389e-004
1.835900e+003, 4.216493e-004
1.837829e+003, 7.937594e-004
1.839757e+003, 4.143787e-004
1.841686e+003, -7.448748e-005
1.843614e+003, 2.364641e-004
1.845543e+003, 2.176490e-004
1.847471e+003, 3.456885e-004
1.849400e+003, 4.401355e-004
1.851328e+003, 4.063919e-004
1.853256e+003, 2.891413e-004
1.855185e+003, 4.249942e-004
1.857113e+003, 4.671464e-004
1.859042e+003, 4.790598e-004
1.860970e+003, 1.233545e-004
1.862899e+003, 8.024864e-005
1.864827e+003, -3.690265e-005
1.866756e+003, -2.086384e-004
1.868684e+003, -1.736057e-004
1.870613e+003, -5.979405e-005
1.872541e+003, 3.928611e-005
1.874470e+003, -7.365845e-006
1.876398e+003, -1.141900e-004
1.878327e+003, -1.461573e-004
1.880255e+003, -3.870556e-004
1.882183e+003, -3.559639e-004
1.884112e+003, -7.581823e-004
1.886040e+003, -1.191013e-003
1.887969e+003, -1.483049e-003
1.889897e+003, -2.241043e-003
1.891826e+003, -2.202450e-003
1.893754e+003, -1.844571e-003
1.895683e+003, -1.791226e-003
1.897611e+003, -1.622046e-003
1.899540e+003, -1.707079e-003
1.901468e+003, -1.575848e-003
1.903397e+003, -1.864146e-003
1.905325e+003, -2.041286e-003
1.907254e+003, -1.928015e-003
1.909182e+003, -1.420496e-003
1.911110e+003, -2.103434e-003
1.913039e+003, -2.568206e-003
1.914967e+003, -2.048325e-003
1.916896e+003, -1.942811e-003
1.918824e+003, -2.245391e-003
1.920753e+003, -2.157015e-003
1.922681e+003, -2.540363e-003
1.924610e+003, -2.487637e-003
1.926538e+003, -2.311866e-003
1.928467e+003, -2.306812e-003
1.930395e+003, -2.541719e-003
1.932324e+003, -3.014925e-003
1.934252e+003, -3.595392e-003
1.936181e+003, -3.731960e-003
1.938109e+003, -3.807378e-003
1.940037e+003, -3.260161e-003
1.941966e+003, -2.861161e-003
1.943894e+003, -3.655797e-003
1.945823e+003, -4.665386e-003
1.947751e+003, -4.764047e-003
1.949680e+003, -4.279915e-003
1.951608e+003, -5.194094e-003
1.953537e+003, -5.467430e-003
1.955465e+003, -5.211384e-003
1.957394e+003, -5.817638e-003
1.959322e+003, -6.378300e-003
1.961251e+003, -6.104357e-003
1.963179e+003, -6.621017e-003
1.965108e+003, -7.307717e-003
1.967036e+003, -7.513402e-003
1.968964e+003, -8.376383e-003
1.970893e+003, -8.479092e-003
1.972821e+003, -7.763888e-003
1.974750e+003, -7.698875e-003
1.976678e+003, -7.627659e-003
1.978607e+003, -7.630334e-003
1.980535e+003, -7.292517e-003
1.982464e+003, -6.525376e-003
1.984392e+003, -5.585152e-003
1.986321e+003, -5.372630e-003
1.988249e+003, -4.831112e-003
1.990178e+003, -5.221921e-003
1.992106e+003, -6.248825e-003
1.994035e+003, -6.227964e-003
1.995963e+003, -4.875611e-003
1.997891e+003, -4.431152e-003
1.999820e+003, -7.006153e-003
2.001748e+003, -6.591565e-003
2.003677e+003, -6.078186e-003
2.005605e+003, -6.790009e-003
2.007534e+003, -7.211256e-003
2.009462e+003, -7.620465e-003
2.011391e+003, -6.802808e-003
2.013319e+003, -6.477641e-003
2.015248e+003, -5.527709e-003
2.017176e+003, -3.304649e-003
2.019105e+003, -3.163954e-003
2.021033e+003, -4.350177e-003
2.022962e+003, -4.895577e-003
2.024890e+003, -5.087288e-003
2.026818e+003, -5.966457e-003
2.028747e+003, -5.520581e-003
2.030675e+003, -5.087513e-003
2.032604e+003, -5.865374e-003
2.034532e+003, -4.672911e-003
2.036461e+003, -2.882278e-003
2.038389e+003, -3.343755e-003
2.040318e+003, -3.349475e-003
2.042246e+003, -2.753209e-003
2.044175e+003, -2.221050e-003
2.046103e+003, -1.930962e-003
2.048032e+003, -1.223230e-003
2.049960e+003, -7.483187e-004
2.051889e+003, -2.068345e-003
2.053817e+003, -2.143348e-003
2.055746e+003, -8.825517e-004
2.057674e+003, -1.211812e-003
2.059603e+003, -1.607310e-003
2.061531e+003, -2.406955e-003
2.063459e+003, -2.276321e-003
2.065388e+003, -1.350567e-003
2.067316e+003, -1.045443e-003
2.069245e+003, -1.686527e-003
2.071173e+003, -1.866586e-003
2.073102e+003, -1.853446e-003
2.075030e+003, -1.066935e-003
2.076959e+003, -1.068886e-003
2.078887e+003, -1.030453e-003
2.080816e+003, -5.633275e-004
2.082744e+003, -2.705499e-004
2.084673e+003, -1.108516e-003
2.086601e+003, -1.897168e-003
2.088530e+003, -1.557504e-003
2.090458e+003, -9.334952e-004
2.092386e+003, -1.589859e-003
2.094315e+003, -1.420549e-003
2.096243e+003, -1.284880e-003
2.098172e+003, -1.211912e-003
2.100100e+003, -9.924958e-004
2.102029e+003, -1.750332e-003
2.103957e+003, -2.153462e-003
2.105886e+003, -1.635346e-003
2.107814e+003, -2.316811e-003
2.109743e+003, -2.699149e-003
2.111671e+003, -2.202672e-003
2.113600e+003, -1.459829e-003
2.115528e+003, -1.832846e-003
2.117457e+003, -2.509967e-003
2.119385e+003, -2.716655e-003
2.121313e+003, -3.079763e-003
2.123242e+003, -2.673684e-003
2.125170e+003, -2.747654e-003
2.127099e+003, -3.297391e-003
2.129027e+003, -3.721055e-003
2.130956e+003, -5.579268e-003
2.132884e+003, -5.906482e-003
2.134813e+003, -4.803941e-003
2.136741e+003, -5.495527e-003
2.138670e+003, -5.848700e-003
2.140598e+003, -7.308504e-003
2.142527e+003, -8.458184e-003
2.144455e+003, -8.279536e-003
2.146384e+003, -7.376442e-003
2.148312e+003, -6.418155e-003
2.150240e+003, -6.437854e-003
2.152169e+003, -7.660457e-003
2.154097e+003, -8.769753e-003
2.156026e+003, -9.548416e-003
2.157954e+003, -8.269980e-003
2.159883e+003, -3.445938e-003
2.161811e+003, -2.626997e-003
2.163740e+003, -3.706634e-003
2.165668e+003, -2.844468e-003
2.167597e+003, -2.907861e-003
2.169525e+003, -3.590008e-003
2.171454e+003, -3.758826e-003
2.173382e+003, -3.681895e-003
2.175311e+003, -4.174833e-003
2.177239e+003, -4.973497e-003
2.179167e+003, -4.099773e-003
2.181096e+003, -3.475150e-003
2.183024e+003, -3.517857e-003
2.184953e+003, -4.412131e-003
2.186881e+003, -4.607783e-003
2.188810e+003, -3.878202e-003
2.190738e+003, -2.415755e-003
2.192667e+003, -4.417719e-003
2.194595e+003, -5.484996e-003
2.196524e+003, -4.642213e-003
2.198452e+003, -3.012251e-003
2.200381e+003, -1.217531e-003
2.202309e+003, -1.799872e-003
2.204238e+003, -3.360444e-003
2.206166e+003, -2.430844e-003
2.208094e+003, -2.316969e-003
2.210023e+003, -2.800336e-003
2.211951e+003, -1.995978e-003
2.213880e+003, -2.007352e-003
2.215808e+003, -1.917369e-003
2.217737e+003, -2.622525e-003
2.219665e+003, -4.120782e-003
2.221594e+003, -3.554160e-003
2.223522e+003, -2.617698e-003
2.225451e+003, -1.395982e-003
2.227379e+003, -2.117246e-003
2.229308e+003, -2.149416e-003
2.231236e+003, -8.664010e-004
2.233165e+003, -4.946743e-004
2.235093e+003, -1.267335e-003
2.237021e+003, -1.650619e-003
2.238950e+003, -1.558541e-003
2.240878e+003, -1.292159e-003
2.242807e+003, -1.565808e-003
2.244735e+003, -1.531948e-003
2.246664e+003, -7.322522e-004
2.248592e+003, -9.172060e-004
2.250521e+003, -1.271237e-003
2.252449e+003, -5.729162e-004
2.254378e+003, 2.588133e-004
2.256306e+003, 7.840330e-004
2.258235e+003, 6.913061e-004
2.260163e+003, 5.528016e-004
2.262092e+003, 1.122207e-003
2.264020e+003, 1.739128e-003
2.265948e+003, 1.234665e-003
2.267877e+003, 1.246986e-003
2.269805e+003, 1.753058e-003
2.271734e+003, 2.537123e-003
2.273662e+003, 3.111671e-003
2.275591e+003, 3.107983e-003
2.277519e+003, 2.594658e-003
2.279448e+003, 2.991398e-003
2.281376e+003, 3.755697e-003
2.283305e+003, 4.616045e-003
2.285233e+003, 4.156419e-003
2.287162e+003, 3.456243e-003
2.289090e+003, 3.665699e-003
2.291019e+003, 4.212250e-003
2.292947e+003, 4.225653e-003
2.294875e+003, 3.986657e-003
2.296804e+003, 4.174598e-003
2.298732e+003, 4.278493e-003
2.300661e+003, 4.183861e-003
2.302589e+003, 4.104381e-003
2.304518e+003, 3.900301e-003
2.306446e+003, 4.177759e-003
2.308375e+003, 4.202621e-003
2.310303e+003, 4.018543e-003
2.312232e+003, 4.341563e-003
2.314160e+003, 4.401383e-003
2.316089e+003, 4.542555e-003
2.318017e+003, 4.967087e-003
2.319946e+003, 4.607544e-003
2.321874e+003, 4.842478e-003
2.323802e+003, 5.419109e-003
2.325731e+003, 4.691296e-003
2.327659e+003, 4.104595e-003
2.329588e+003, 3.920901e-003
2.331516e+003, 4.100368e-003
2.333445e+003, 4.392229e-003
2.335373e+003, 4.339003e-003
2.337302e+003, 4.065208e-003
2.339230e+003, 3.741074e-003
2.341159e+003, 3.680579e-003
2.343087e+003, 3.789402e-003
2.345016e+003, 4.192180e-003
2.346944e+003, 4.248202e-003
2.348873e+003, 3.640194e-003
2.350801e+003, 3.243308e-003
2.352729e+003, 3.531249e-003
2.354658e+003, 4.112423e-003
2.356586e+003, 3.942168e-003
2.358515e+003, 3.581583e-003
2.360443e+003, 3.534188e-003
2.362372e+003, 3.374536e-003
2.364300e+003, 3.048801e-003
2.366229e+003, 2.859774e-003
2.368157e+003, 2.879354e-003
2.370086e+003, 2.942087e-003
2.372014e+003, 2.940468e-003
2.373942e+003, 2.573391e-003
2.375871e+003, 2.129403e-003
2.377799e+003, 2.673592e-003
2.379728e+003, 2.828576e-003
2.381656e+003, 2.302670e-003
2.383585e+003, 2.288905e-003
2.385513e+003, 3.090110e-003
2.387442e+003, 3.628875e-003
2.389370e+003, 3.190593e-003
2.391299e+003, 2.990129e-003
2.393227e+003, 3.857921e-003
2.395156e+003, 4.363886e-003
2.397084e+003, 3.388714e-003
2.399012e+003, 2.744141e-003
2.400941e+003, 2.788376e-003
2.402869e+003, 3.250795e-003
2.404798e+003, 3.647800e-003
2.406726e+003, 3.754606e-003
2.408655e+003, 3.928799e-003
2.410583e+003, 3.118502e-003
2.412512e+003, 2.929800e-003
2.414440e+003, 3.860519e-003
2.416369e+003, 3.972259e-003
2.418297e+003, 4.171546e-003
2.420226e+003, 4.319808e-003
2.422154e+003, 3.811571e-003
2.424083e+003, 3.902721e-003
2.426011e+003, 3.970380e-003
2.427939e+003, 4.067297e-003
2.429868e+003, 3.710768e-003
2.431796e+003, 3.446590e-003
2.433725e+003, 3.965941e-003
2.435653e+003, 4.266183e-003
2.437582e+003, 3.972316e-003
2.439510e+003, 3.436779e-003
2.441439e+003, 3.320366e-003
2.443367e+003, 2.952563e-003
2.445296e+003, 3.450794e-003
2.447224e+003, 3.852215e-003
2.449153e+003, 3.461945e-003
2.451081e+003, 3.313867e-003
2.453010e+003, 3.856195e-003
2.454938e+003, 4.021212e-003
2.456866e+003, 3.543024e-003
2.458795e+003, 3.643821e-003
2.460723e+003, 3.707882e-003
2.462652e+003, 3.673618e-003
2.464580e+003, 3.638641e-003
2.466509e+003, 3.005983e-003
2.468437e+003, 3.049922e-003
2.470366e+003, 3.508236e-003
2.472294e+003, 3.035555e-003
2.474223e+003, 2.551495e-003
2.476151e+003, 3.226098e-003
2.478080e+003, 3.858907e-003
2.480008e+003, 3.886902e-003
2.481937e+003, 3.749794e-003
2.483865e+003, 2.982605e-003
2.485793e+003, 2.597220e-003
2.487722e+003, 3.172082e-003
2.489650e+003, 3.165693e-003
2.491579e+003, 3.006041e-003
2.493507e+003, 3.177980e-003
2.495436e+003, 3.170905e-003
2.497364e+003, 3.489518e-003
2.499293e+003, 3.055059e-003
2.501221e+003, 2.986529e-003
2.503150e+003, 4.023280e-003
2.505078e+003, 4.001724e-003
2.507007e+003, 2.505024e-003
2.508935e+003, 1.940087e-003
2.510864e+003, 2.663247e-003
2.512792e+003, 3.016734e-003
2.514720e+003, 3.399792e-003
2.516649e+003, 3.740727e-003
2.518577e+003, 3.637256e-003
2.520506e+003, 3.542765e-003
2.522434e+003, 3.563088e-003
2.524363e+003, 3.471751e-003
2.526291e+003, 3.392873e-003
2.528220e+003, 3.000343e-003
2.530148e+003, 3.208108e-003
2.532077e+003, 3.816140e-003
2.534005e+003, 3.831941e-003
2.535934e+003, 3.317345e-003
2.537862e+003, 3.097816e-003
2.539791e+003, 3.534114e-003
2.541719e+003, 3.677822e-003
2.543647e+003, 3.494931e-003
2.545576e+003, 3.847008e-003
2.547504e+003, 4.333015e-003
2.549433e+003, 4.056732e-003
2.551361e+003, 3.963590e-003
2.553290e+003, 4.396801e-003
2.555218e+003, 4.133677e-003
2.557147e+003, 4.664634e-003
2.559075e+003, 5.038536e-003
2.561004e+003, 4.856694e-003
2.562932e+003, 4.309670e-003
2.564861e+003, 4.149893e-003
2.566789e+003, 4.416745e-003
2.568718e+003, 4.508171e-003
2.570646e+003, 4.145159e-003
2.572574e+003, 4.328556e-003
2.574503e+003, 4.867413e-003
2.576431e+003, 4.563725e-003
2.578360e+003, 4.030454e-003
2.580288e+003, 4.407041e-003
2.582217e+003, 4.679830e-003
2.584145e+003, 4.354152e-003
2.586074e+003, 4.730111e-003
2.588002e+003, 4.922936e-003
2.589931e+003, 4.873859e-003
2.591859e+003, 5.385461e-003
2.593788e+003, 5.141054e-003
2.595716e+003, 4.566749e-003
2.597645e+003, 5.138590e-003
2.599573e+003, 5.738401e-003
2.601501e+003, 5.377454e-003
2.603430e+003, 5.160186e-003
2.605358e+003, 5.412497e-003
2.607287e+003, 4.876101e-003
2.609215e+003, 4.909321e-003
2.611144e+003, 5.093707e-003
2.613072e+003, 5.335019e-003
2.615001e+003, 4.899942e-003
2.616929e+003, 4.641985e-003
2.618858e+003, 4.989448e-003
2.620786e+003, 5.449377e-003
2.622715e+003, 5.316308e-003
2.624643e+003, 5.276186e-003
2.626572e+003, 5.211871e-003
2.628500e+003, 5.026121e-003
2.630428e+003, 4.851503e-003
2.632357e+003, 5.143367e-003
2.634285e+003, 5.711580e-003
2.636214e+003, 6.011380e-003
2.638142e+003, 5.689729e-003
2.640071e+003, 5.446006e-003
2.641999e+003, 5.382174e-003
2.643928e+003, 5.449217e-003
2.645856e+003, 5.910011e-003
2.647785e+003, 5.797924e-003
2.649713e+003, 5.040007e-003
2.651642e+003, 5.053827e-003
2.653570e+003, 5.172228e-003
2.655499e+003, 4.574518e-003
2.657427e+003, 4.601624e-003
2.659355e+003, 5.370558e-003
2.661284e+003, 5.286666e-003
2.663212e+003, 5.377380e-003
2.665141e+003, 4.930050e-003
2.667069e+003, 4.570696e-003
2.668998e+003, 4.507773e-003
2.670926e+003, 4.168234e-003
2.672855e+003, 4.298267e-003
2.674783e+003, 4.996860e-003
2.676712e+003, 5.196445e-003
2.678640e+003, 5.339367e-003
2.680569e+003, 5.075831e-003
2.682497e+003, 4.936037e-003
2.684426e+003, 5.034367e-003
2.686354e+003, 5.057117e-003
2.688282e+003, 4.881395e-003
2.690211e+003, 4.929120e-003
2.692139e+003, 4.855980e-003
2.694068e+003, 4.279561e-003
2.695996e+003, 3.655374e-003
2.697925e+003, 4.100704e-003
2.699853e+003, 4.769304e-003
2.701782e+003, 4.610390e-003
2.703710e+003, 4.789347e-003
2.705639e+003, 5.112458e-003
2.707567e+003, 5.007985e-003
2.709496e+003, 5.244643e-003
2.711424e+003, 5.262007e-003
2.713353e+003, 4.669511e-003
2.715281e+003, 4.504567e-003
2.717209e+003, 4.647051e-003
2.719138e+003, 4.376404e-003
2.721066e+003, 4.530197e-003
2.722995e+003, 4.853532e-003
2.724923e+003, 5.083735e-003
2.726852e+003, 5.056757e-003
2.728780e+003, 4.784964e-003
2.730709e+003, 4.961242e-003
2.732637e+003, 5.127150e-003
2.734566e+003, 5.133957e-003
2.736494e+003, 5.088771e-003
2.738423e+003, 4.655132e-003
2.740351e+003, 4.638815e-003
2.742280e+003, 5.128651e-003
2.744208e+003, 5.801276e-003
2.746136e+003, 5.617564e-003
2.748065e+003, 5.015759e-003
2.749993e+003, 4.612347e-003
2.751922e+003, 4.940490e-003
2.753850e+003, 5.593203e-003
2.755779e+003, 5.939176e-003
2.757707e+003, 5.694412e-003
2.759636e+003, 5.318006e-003
2.761564e+003, 5.363361e-003
2.763493e+003, 5.340989e-003
2.765421e+003, 5.097989e-003
2.767350e+003, 5.496378e-003
2.769278e+003, 5.316606e-003
2.771207e+003, 5.260733e-003
2.773135e+003, 5.451297e-003
2.775063e+003, 5.408908e-003
2.776992e+003, 5.146694e-003
2.778920e+003, 4.906541e-003
2.780849e+003, 5.127477e-003
2.782777e+003, 5.220952e-003
2.784706e+003, 4.886843e-003
2.786634e+003, 4.782047e-003
2.788563e+003, 5.159809e-003
2.790491e+003, 5.372139e-003
2.792420e+003, 5.696526e-003
2.794348e+003, 5.506058e-003
2.796277e+003, 5.792747e-003
2.798205e+003, 5.433568e-003
2.800134e+003, 5.245534e-003
2.802062e+003, 5.745132e-003
2.803990e+003, 5.600489e-003
2.805919e+003, 4.460908e-003
2.807847e+003, 4.564269e-003
2.809776e+003, 5.360581e-003
2.811704e+003, 5.486197e-003
2.813633e+003, 5.870045e-003
2.815561e+003, 6.012067e-003
2.817490e+003, 6.255254e-003
2.819418e+003, 5.932909e-003
2.821347e+003, 5.405776e-003
2.823275e+003, 5.271642e-003
2.825204e+003, 5.050197e-003
2.827132e+003, 5.099174e-003
2.829061e+003, 4.986882e-003
2.830989e+003, 4.843931e-003
2.832917e+003, 5.327938e-003
2.834846e+003, 5.997118e-003
2.836774e+003, 5.817031e-003
2.838703e+003, 4.908042e-003
2.840631e+003, 5.205115e-003
2.842560e+003, 6.075067e-003
2.844488e+003, 5.678138e-003
2.846417e+003, 5.960489e-003
2.848345e+003, 6.144444e-003
2.850274e+003, 5.037210e-003
2.852202e+003, 4.139769e-003
2.854131e+003, 4.501768e-003
2.856059e+003, 4.973333e-003
2.857988e+003, 5.211845e-003
2.859916e+003, 5.676881e-003
2.861844e+003, 5.628989e-003
2.863773e+003, 5.906098e-003
2.865701e+003, 5.705069e-003
2.867630e+003, 5.735544e-003
2.869558e+003, 5.889188e-003
2.871487e+003, 5.651986e-003
2.873415e+003, 5.890321e-003
2.875344e+003, 6.172862e-003
2.877272e+003, 6.590202e-003
2.879201e+003, 6.505243e-003
2.881129e+003, 6.276437e-003
2.883058e+003, 6.288323e-003
2.884986e+003, 5.857204e-003
2.886915e+003, 5.995770e-003
2.888843e+003, 6.436219e-003
2.890771e+003, 5.987043e-003
2.892700e+003, 5.894352e-003
2.894628e+003, 5.353570e-003
2.896557e+003, 5.750067e-003
2.898485e+003, 6.106772e-003
2.900414e+003, 5.927369e-003
2.902342e+003, 5.919236e-003
2.904271e+003, 6.204940e-003
2.906199e+003, 5.997446e-003
2.908128e+003, 5.596796e-003
2.910056e+003, 5.596249e-003
2.911985e+003, 6.047593e-003
2.913913e+003, 6.144350e-003
2.915842e+003, 6.037165e-003
2.917770e+003, 4.941719e-003
2.919698e+003, 3.809093e-003
2.921627e+003, 3.961734e-003
2.923555e+003, 4.598468e-003
2.925484e+003, 5.373505e-003
2.927412e+003, 5.548502e-003
2.929341e+003, 5.386835e-003
2.931269e+003, 5.206638e-003
2.933198e+003, 5.838883e-003
2.935126e+003, 6.754691e-003
2.937055e+003, 6.151139e-003
2.938983e+003, 5.705533e-003
2.940912e+003, 6.662220e-003
2.942840e+003, 6.926957e-003
2.944769e+003, 6.635165e-003
2.946697e+003, 6.335300e-003
2.948625e+003, 5.941075e-003
2.950554e+003, 6.249480e-003
2.952482e+003, 7.468330e-003
2.954411e+003, 8.179100e-003
2.956339e+003, 7.520264e-003
2.958268e+003, 7.183387e-003
2.960196e+003, 7.721202e-003
2.962125e+003, 7.639347e-003
2.964053e+003, 7.654204e-003
2.965982e+003, 8.311049e-003
2.967910e+003, 8.524126e-003
2.969839e+003, 8.421304e-003
2.971767e+003, 7.526159e-003
2.973696e+003, 7.028172e-003
2.975624e+003, 7.228537e-003
2.977552e+003, 7.713205e-003
2.979481e+003, 8.068034e-003
2.981409e+003, 8.397360e-003
2.983338e+003, 8.815264e-003
2.985266e+003, 8.715902e-003
2.987195e+003, 7.818656e-003
2.989123e+003, 7.483277e-003
2.991052e+003, 7.977130e-003
2.992980e+003, 8.310596e-003
2.994909e+003, 8.243751e-003
2.996837e+003, 8.264852e-003
2.998766e+003, 8.605599e-003
3.000694e+003, 8.602830e-003
3.002623e+003, 8.330377e-003
3.004551e+003, 8.226027e-003
3.006479e+003, 8.583025e-003
3.008408e+003, 8.457197e-003
3.010336e+003, 7.762266e-003
3.012265e+003, 8.080539e-003
3.014193e+003, 8.157268e-003
3.016122e+003, 7.984006e-003
3.018050e+003, 8.483013e-003
3.019979e+003, 8.512205e-003
3.021907e+003, 8.915487e-003
3.023836e+003, 9.383473e-003
3.025764e+003, 9.533863e-003
3.027693e+003, 9.415353e-003
3.029621e+003, 9.186203e-003
3.031550e+003, 9.836955e-003
3.033478e+003, 1.002490e-002
3.035406e+003, 8.902175e-003
3.037335e+003, 8.381267e-003
3.039263e+003, 8.289507e-003
3.041192e+003, 8.446376e-003
3.043120e+003, 8.236110e-003
3.045049e+003, 8.629221e-003
3.046977e+003, 8.946192e-003
3.048906e+003, 8.453376e-003
3.050834e+003, 8.503084e-003
3.052763e+003, 9.038347e-003
3.054691e+003, 8.853201e-003
3.056620e+003, 8.856958e-003
3.058548e+003, 8.560499e-003
3.060477e+003, 8.911120e-003
3.062405e+003, 9.489838e-003
3.064333e+003, 9.114846e-003
3.066262e+003, 9.090510e-003
3.068190e+003, 8.815593e-003
3.070119e+003, 8.054781e-003
3.072047e+003, 8.049192e-003
3.073976e+003, 8.556447e-003
3.075904e+003, 9.751892e-003
3.077833e+003, 9.987217e-003
3.079761e+003, 9.635024e-003
3.081690e+003, 1.009243e-002
3.083618e+003, 9.653477e-003
3.085547e+003, 9.251379e-003
3.087475e+003, 9.467734e-003
3.089404e+003, 8.948404e-003
3.091332e+003, 8.385539e-003
3.093260e+003, 8.270111e-003
3.095189e+003, 8.088405e-003
3.097117e+003, 8.773766e-003
3.099046e+003, 1.039494e-002
3.100974e+003, 1.021888e-002
3.102903e+003, 9.858869e-003
3.104831e+003, 9.330987e-003
3.106760e+003, 9.102338e-003
3.108688e+003, 9.800480e-003
3.110617e+003, 1.073201e-002
3.112545e+003, 1.127716e-002
3.114474e+003, 1.133358e-002
3.116402e+003, 1.116661e-002
3.118331e+003, 1.072312e-002
3.120259e+003, 1.075779e-002
3.122188e+003, 1.136302e-002
3.124116e+003, 1.061960e-002
3.126044e+003, 9.962696e-003
3.127973e+003, 1.054968e-002
3.129901e+003, 1.094264e-002
3.131830e+003, 1.060683e-002
3.133758e+003, 1.021984e-002
3.135687e+003, 1.027460e-002
3.137615e+003, 1.111383e-002
3.139544e+003, 1.079296e-002
3.141472e+003, 1.081544e-002
3.143401e+003, 1.114085e-002
3.145329e+003, 1.176723e-002
3.147258e+003, 1.146513e-002
3.149186e+003, 1.128771e-002
3.151115e+003, 1.105294e-002
3.153043e+003, 1.132082e-002
3.154971e+003, 1.207306e-002
3.156900e+003, 1.150428e-002
3.158828e+003, 1.135479e-002
3.160757e+003, 1.133966e-002
3.162685e+003, 1.170113e-002
3.164614e+003, 1.151919e-002
3.166542e+003, 1.102648e-002
3.168471e+003, 1.060529e-002
3.170399e+003, 1.003005e-002
3.172328e+003, 1.127140e-002
3.174256e+003, 1.190202e-002
3.176185e+003, 1.075967e-002
3.178113e+003, 1.092572e-002
3.180042e+003, 1.193668e-002
3.181970e+003, 1.173763e-002
3.183898e+003, 1.187551e-002
3.185827e+003, 1.217692e-002
3.187755e+003, 1.119760e-002
3.189684e+003, 1.077602e-002
3.191612e+003, 1.178729e-002
3.193541e+003, 1.231221e-002
3.195469e+003, 1.200712e-002
3.197398e+003, 1.114370e-002
3.199326e+003, 1.060083e-002
3.201255e+003, 1.130920e-002
3.203183e+003, 1.137744e-002
3.205112e+003, 1.134339e-002
3.207040e+003, 1.242860e-002
3.208969e+003, 1.257459e-002
3.210897e+003, 1.204333e-002
3.212825e+003, 1.150304e-002
3.214754e+003, 1.131535e-002
3.216682e+003, 1.086158e-002
3.218611e+003, 1.121315e-002
3.220539e+003, 1.092753e-002
3.222468e+003, 1.044377e-002
3.224396e+003, 1.104701e-002
3.226325e+003, 1.283627e-002
3.228253e+003, 1.376474e-002
3.230182e+003, 1.313789e-002
3.232110e+003, 1.246702e-002
3.234039e+003, 1.134524e-002
3.235967e+003, 1.148334e-002
3.237896e+003, 1.213241e-002
3.239824e+003, 1.200267e-002
3.241752e+003, 1.193323e-002
3.243681e+003, 1.231921e-002
3.245609e+003, 1.255416e-002
3.247538e+003, 1.190429e-002
3.249466e+003, 1.214690e-002
3.251395e+003, 1.169214e-002
3.253323e+003, 1.174832e-002
3.255252e+003, 1.299223e-002
3.257180e+003, 1.275879e-002
3.259109e+003, 1.271318e-002
3.261037e+003, 1.203073e-002
3.262966e+003, 1.225507e-002
3.264894e+003, 1.334334e-002
3.266823e+003, 1.348115e-002
3.268751e+003, 1.332237e-002
3.270679e+003, 1.366808e-002
3.272608e+003, 1.422542e-002
3.274536e+003, 1.389083e-002
3.276465e+003, 1.277423e-002
3.278393e+003, 1.341125e-002
3.280322e+003, 1.442892e-002
3.282250e+003, 1.372030e-002
3.284179e+003, 1.245442e-002
3.286107e+003, 1.210854e-002
3.288036e+003, 1.255423e-002
3.289964e+003, 1.244811e-002
3.291893e+003, 1.389289e-002
3.293821e+003, 1.509030e-002
3.295750e+003, 1.489355e-002
3.297678e+003, 1.400647e-002
3.299606e+003, 1.267961e-002
3.301535e+003, 1.269155e-002
3.303463e+003, 1.281349e-002
3.305392e+003, 1.270130e-002
3.307320e+003, 1.304806e-002
3.309249e+003, 1.267564e-002
3.311177e+003, 1.239671e-002
3.313106e+003, 1.229565e-002
3.315034e+003, 1.323469e-002
3.316963e+003, 1.400029e-002
3.318891e+003, 1.420788e-002
3.320820e+003, 1.422625e-002
3.322748e+003, 1.422517e-002
3.324677e+003, 1.459638e-002
3.326605e+003, 1.476442e-002
3.328533e+003, 1.404291e-002
3.330462e+003, 1.334375e-002
3.332390e+003, 1.399631e-002
3.334319e+003, 1.373715e-002
3.336247e+003, 1.333715e-002
3.338176e+003, 1.408439e-002
3.340104e+003, 1.493740e-002
3.342033e+003, 1.430464e-002
3.343961e+003, 1.348598e-002
3.345890e+003, 1.348559e-002
3.347818e+003, 1.359156e-002
3.349747e+003, 1.460144e-002
3.351675e+003, 1.574758e-002
3.353604e+003, 1.538160e-002
3.355532e+003, 1.469269e-002
3.357460e+003, 1.486280e-002
3.359389e+003, 1.549548e-002
3.361317e+003, 1.554928e-002
3.363246e+003, 1.576679e-002
3.365174e+003, 1.595350e-002
3.367103e+003, 1.559727e-002
3.369031e+003, 1.502564e-002
3.370960e+003, 1.453537e-002
3.372888e+003, 1.377460e-002
3.374817e+003, 1.367679e-002
3.376745e+003, 1.425010e-002
3.378674e+003, 1.521423e-002
3.380602e+003, 1.559576e-002
3.382531e+003, 1.591519e-002
3.384459e+003, 1.524649e-002
3.386387e+003, 1.513880e-002
3.388316e+003, 1.523781e-002
3.390244e+003, 1.402287e-002
3.392173e+003, 1.407478e-002
3.394101e+003, 1.438089e-002
3.396030e+003, 1.397424e-002
3.397958e+003, 1.383932e-002
3.399887e+003, 1.543222e-002
3.401815e+003, 1.708088e-002
3.403744e+003, 1.680380e-002
3.405672e+003, 1.632636e-002
3.407601e+003, 1.558600e-002
3.409529e+003, 1.524137e-002
3.411458e+003, 1.522939e-002
3.413386e+003, 1.439385e-002
3.415314e+003, 1.405925e-002
3.417243e+003, 1.578844e-002
3.419171e+003, 1.745666e-002
3.421100e+003, 1.674390e-002
3.423028e+003, 1.597739e-002
3.424957e+003, 1.551473e-002
3.426885e+003, 1.413858e-002
3.428814e+003, 1.387066e-002
3.430742e+003, 1.544806e-002
3.432671e+003, 1.603620e-002
3.434599e+003, 1.530351e-002
3.436528e+003, 1.578260e-002
3.438456e+003, 1.571333e-002
3.440385e+003, 1.397572e-002
3.442313e+003, 1.301867e-002
3.444241e+003, 1.360325e-002
3.446170e+003, 1.497297e-002
3.448098e+003, 1.578241e-002
3.450027e+003, 1.509289e-002
3.451955e+003, 1.370771e-002
3.453884e+003, 1.416009e-002
3.455812e+003, 1.512737e-002
3.457741e+003, 1.594682e-002
3.459669e+003, 1.531973e-002
3.461598e+003, 1.483075e-002
3.463526e+003, 1.515788e-002
3.465455e+003, 1.479576e-002
3.467383e+003, 1.338532e-002
3.469312e+003, 1.320588e-002
3.471240e+003, 1.512999e-002
3.473168e+003, 1.600965e-002
3.475097e+003, 1.561859e-002
3.477025e+003, 1.568327e-002
3.478954e+003, 1.566695e-002
3.480882e+003, 1.488357e-002
3.482811e+003, 1.399308e-002
3.484739e+003, 1.487227e-002
3.486668e+003, 1.672076e-002
3.488596e+003, 1.685156e-002
3.490525e+003, 1.540786e-002
3.492453e+003, 1.500218e-002
3.494382e+003, 1.507052e-002
3.496310e+003, 1.529310e-002
3.498239e+003, 1.528855e-002
3.500167e+003, 1.541432e-002
3.502095e+003, 1.563683e-002
3.504024e+003, 1.557423e-002
3.505952e+003, 1.492482e-002
3.507881e+003, 1.518288e-002
3.509809e+003, 1.644978e-002
3.511738e+003, 1.682427e-002
3.513666e+003, 1.656466e-002
3.515595e+003, 1.608618e-002
3.517523e+003, 1.489729e-002
3.519452e+003, 1.423530e-002
3.521380e+003, 1.478894e-002
3.523309e+003, 1.528755e-002
3.525237e+003, 1.410859e-002
3.527166e+003, 1.463751e-002
3.529094e+003, 1.595560e-002
3.531022e+003, 1.533211e-002
3.532951e+003, 1.493365e-002
3.534879e+003, 1.533575e-002
3.536808e+003, 1.556883e-002
3.538736e+003, 1.577458e-002
3.540665e+003, 1.582030e-002
3.542593e+003, 1.545376e-002
3.544522e+003, 1.468629e-002
3.546450e+003, 1.565168e-002
3.548379e+003, 1.614727e-002
3.550307e+003, 1.500077e-002
3.552236e+003, 1.566601e-002
3.554164e+003, 1.616631e-002
3.556093e+003, 1.347256e-002
3.558021e+003, 1.159646e-002
3.559949e+003, 1.344595e-002
3.561878e+003, 1.561572e-002
3.563806e+003, 1.649445e-002
3.565735e+003, 1.587624e-002
3.567663e+003, 1.486156e-002
3.569592e+003, 1.432907e-002
3.571520e+003, 1.515920e-002
3.573449e+003, 1.408876e-002
3.575377e+003, 1.280839e-002
3.577306e+003, 1.333868e-002
3.579234e+003, 1.311947e-002
3.581163e+003, 1.366409e-002
3.583091e+003, 1.426712e-002
3.585020e+003, 1.374400e-002
3.586948e+003, 1.281086e-002
3.588876e+003, 1.125966e-002
3.590805e+003, 1.153294e-002
3.592733e+003, 1.321176e-002
3.594662e+003, 1.416927e-002
3.596590e+003, 1.391625e-002
3.598519e+003, 1.306936e-002
3.600447e+003, 1.309039e-002
3.602376e+003, 1.272700e-002
3.604304e+003, 1.178516e-002
3.606233e+003, 1.162856e-002
3.608161e+003, 1.225172e-002
3.610090e+003, 1.283238e-002
3.612018e+003, 1.051115e-002
3.613947e+003, 1.085543e-002
3.615875e+003, 1.230534e-002
3.617803e+003, 1.280818e-002
3.619732e+003, 1.305285e-002
3.621660e+003, 1.325730e-002
3.623589e+003, 1.219492e-002
3.625517e+003, 1.086825e-002
3.627446e+003, 1.130487e-002
3.629374e+003, 1.236589e-002
3.631303e+003, 1.064213e-002
3.633231e+003, 8.708063e-003
3.635160e+003, 8.060231e-003
3.637088e+003, 9.116379e-003
3.639017e+003, 1.013446e-002
3.640945e+003, 1.026271e-002
3.642874e+003, 1.110120e-002
3.644802e+003, 9.674729e-003
3.646730e+003, 8.601246e-003
3.648659e+003, 1.064332e-002
3.650587e+003, 1.255429e-002
3.652516e+003, 1.180266e-002
3.654444e+003, 1.219002e-002
3.656373e+003, 1.697626e-002
3.658301e+003, 1.984997e-002
3.660230e+003, 2.310048e-002
3.662158e+003, 1.933910e-002
3.664087e+003, 1.255578e-002
3.666015e+003, 9.953864e-003
3.667944e+003, 1.139468e-002
3.669872e+003, 1.703950e-002
3.671801e+003, 3.457363e-002
3.673729e+003, 5.146646e-002
3.675657e+003, 3.935153e-002
3.677586e+003, 1.691792e-002
3.679514e+003, 1.061923e-002
3.681443e+003, 9.348528e-003
3.683371e+003, 8.608271e-003
3.685300e+003, 6.858617e-003
3.687228e+003, 6.072572e-003
3.689157e+003, 7.722188e-003
3.691085e+003, 7.313135e-003
3.693014e+003, 8.299715e-003
3.694942e+003, 7.877973e-003
3.696871e+003, 7.223651e-003
3.698799e+003, 8.056557e-003
3.700728e+003, 9.577038e-003
3.702656e+003, 8.650786e-003
3.704584e+003, 6.817481e-003
3.706513e+003, 7.195351e-003
3.708441e+003, 6.859992e-003
3.710370e+003, 8.564235e-003
3.712298e+003, 1.118970e-002
3.714227e+003, 9.207402e-003
3.716155e+003, 5.731894e-003
3.718084e+003, 2.823347e-003
3.720012e+003, 2.852880e-003
3.721941e+003, 5.557137e-003
3.723869e+003, 8.485360e-003
3.725798e+003, 8.503621e-003
3.727726e+003, 7.053614e-003
3.729655e+003, 6.624902e-003
3.731583e+003, 7.830478e-003
3.733511e+003, 8.193118e-003
3.735440e+003, 7.100454e-003
3.737368e+003, 6.474703e-003
3.739297e+003, 8.504109e-003
3.741225e+003, 8.941819e-003
3.743154e+003, 7.394791e-003
3.745082e+003, 8.589385e-003
3.747011e+003, 6.334099e-003
3.748939e+003, 5.752196e-003
3.750868e+003, 7.467261e-003
3.752796e+003, 8.555914e-003
3.754725e+003, 7.179637e-003
3.756653e+003, 8.094640e-003
3.758582e+003, 7.764136e-003
3.760510e+003, 6.850863e-003
3.762438e+003, 6.218216e-003
3.764367e+003, 6.291082e-003
3.766295e+003, 7.499512e-003
3.768224e+003, 8.539994e-003
3.770152e+003, 9.861780e-003
3.772081e+003, 8.716037e-003
3.774009e+003, 8.032531e-003
3.775938e+003, 7.947445e-003
3.777866e+003, 6.932792e-003
3.779795e+003, 6.015224e-003
3.781723e+003, 6.291773e-003
3.783652e+003, 8.693792e-003
3.785580e+003, 8.867875e-003
3.787509e+003, 8.010276e-003
3.789437e+003, 7.641410e-003
3.791365e+003, 6.536465e-003
3.793294e+003, 5.988193e-003
3.795222e+003, 5.724204e-003
3.797151e+003, 6.629053e-003
3.799079e+003, 7.289249e-003
3.801008e+003, 9.845822e-003
3.802936e+003, 1.066854e-002
3.804865e+003, 1.100534e-002
3.806793e+003, 1.010570e-002
3.808722e+003, 8.128479e-003
3.810650e+003, 5.977220e-003
3.812579e+003, 5.497482e-003
3.814507e+003, 5.567042e-003
3.816436e+003, 6.657290e-003
3.818364e+003, 6.470547e-003
3.820292e+003, 7.683828e-003
3.822221e+003, 8.661206e-003
3.824149e+003, 7.066989e-003
3.826078e+003, 8.615262e-003
3.828006e+003, 9.383469e-003
3.829935e+003, 8.229828e-003
3.831863e+003, 7.171064e-003
3.833792e+003, 6.384689e-003
3.835720e+003, 6.917774e-003
3.837649e+003, 7.977338e-003
3.839577e+003, 8.359241e-003
3.841506e+003, 7.823137e-003
3.843434e+003, 7.473335e-003
3.845363e+003, 7.169567e-003
3.847291e+003, 7.830239e-003
3.849219e+003, 8.167679e-003
3.851148e+003, 9.611522e-003
3.853076e+003, 1.043033e-002
3.855005e+003, 1.050306e-002
3.856933e+003, 9.072714e-003
3.858862e+003, 9.899052e-003
3.860790e+003, 9.960908e-003
3.862719e+003, 9.425282e-003
3.864647e+003, 7.565164e-003
3.866576e+003, 7.946112e-003
3.868504e+003, 8.245858e-003
3.870433e+003, 8.809983e-003
3.872361e+003, 7.545266e-003
3.874290e+003, 7.975142e-003
3.876218e+003, 8.436261e-003
3.878146e+003, 8.303793e-003
3.880075e+003, 8.416318e-003
3.882003e+003, 9.785371e-003
3.883932e+003, 9.283942e-003
3.885860e+003, 8.103056e-003
3.887789e+003, 7.445399e-003
3.889717e+003, 7.240735e-003
3.891646e+003, 8.239356e-003
3.893574e+003, 8.177321e-003
3.895503e+003, 8.060466e-003
3.897431e+003, 7.977902e-003
3.899360e+003, 9.205583e-003
3.901288e+003, 1.022037e-002
3.903217e+003, 9.401239e-003
3.905145e+003, 8.620069e-003
3.907073e+003, 6.768042e-003
3.909002e+003, 7.967057e-003
3.910930e+003, 7.446312e-003
3.912859e+003, 6.471177e-003
3.914787e+003, 6.411354e-003
3.916716e+003, 5.868565e-003
3.918644e+003, 4.662014e-003
3.920573e+003, 6.372537e-003
3.922501e+003, 7.971981e-003
3.924430e+003, 7.865995e-003
3.926358e+003, 7.567432e-003
3.928287e+003, 8.996910e-003
3.930215e+003, 9.951748e-003
3.932144e+003, 1.095811e-002
3.934072e+003, 1.054607e-002
3.936000e+003, 8.262107e-003
3.937929e+003, 4.244901e-003
3.939857e+003, 4.142840e-003
3.941786e+003, 6.304913e-003
3.943714e+003, 7.796417e-003
3.945643e+003, 8.079239e-003
3.947571e+003, 1.001877e-002
3.949500e+003, 1.073517e-002
3.951428e+003, 8.284034e-003
3.953357e+003, 8.351125e-003
3.955285e+003, 1.058598e-002
3.957214e+003, 1.089391e-002
3.959142e+003, 9.353045e-003
3.961071e+003, 6.983879e-003
3.962999e+003, 6.099543e-003
3.964927e+003, 6.767181e-003
3.966856e+003, 9.032252e-003
3.968784e+003, 1.072466e-002
3.970713e+003, 9.552944e-003
3.972641e+003, 8.675821e-003
3.974570e+003, 8.547901e-003
3.976498e+003, 1.032917e-002
3.978427e+003, 1.033964e-002
3.980355e+003, 8.609267e-003
3.982284e+003, 8.689878e-003
3.984212e+003, 9.277851e-003
3.986141e+003, 1.008451e-002
3.988069e+003, 9.107724e-003
3.989998e+003, 8.148115e-003
3.991926e+003, 9.217981e-003
3.993854e+003, 8.804644e-003
3.995783e+003, 8.645372e-003
3.997711e+003, 1.040014e-002
3.999640e+003, 1.040177e-002
##END=



