##NAMES=Tremolite
##RRUFFID=R050173
##IDEAL CHEMISTRY=[box]Ca_2_Mg_5_Si_8_O_22_(OH)_2_
##LOCALITY=Fort Dauphin, Madagascar
##OWNER=RRUFF
##SOURCE=Marcus Origlieri
##DESCRIPTION=Mass of colorless acicular crystals
##STATUS=The identification of this mineral has been confirmed by X-ray diffraction and chemical analysis
##URL=rruff.info/R050173
##MEASURED CHEMISTRY=[box]Ca_2.00_Mg_5.00_Si_8.00_O_22_(OH)_2_
3.741225e+002, 2.009421e-001
3.760510e+002, 2.120653e-001
3.779795e+002, 2.062154e-001
3.799079e+002, 1.969987e-001
3.818364e+002, 1.878775e-001
3.837649e+002, 2.108359e-001
3.856933e+002, 2.421365e-001
3.876218e+002, 2.711085e-001
3.895503e+002, 2.842852e-001
3.914787e+002, 2.744373e-001
3.934072e+002, 2.541318e-001
3.953357e+002, 2.662704e-001
3.972641e+002, 2.632249e-001
3.991926e+002, 2.415847e-001
4.011211e+002, 2.186663e-001
4.030495e+002, 2.085543e-001
4.049780e+002, 2.108210e-001
4.069065e+002, 2.213203e-001
4.088349e+002, 2.418049e-001
4.107634e+002, 2.632713e-001
4.126919e+002, 2.734144e-001
4.146203e+002, 2.795679e-001
4.165488e+002, 2.782158e-001
4.184773e+002, 2.743409e-001
4.204057e+002, 2.606328e-001
4.223342e+002, 2.376622e-001
4.242627e+002, 2.242808e-001
4.261911e+002, 2.247575e-001
4.281196e+002, 2.363926e-001
4.300481e+002, 2.598286e-001
4.319765e+002, 2.864035e-001
4.339050e+002, 3.122709e-001
4.358335e+002, 3.297215e-001
4.377619e+002, 3.379468e-001
4.396904e+002, 3.444556e-001
4.416189e+002, 3.436957e-001
4.435473e+002, 3.320925e-001
4.454758e+002, 3.231589e-001
4.474043e+002, 3.134422e-001
4.493327e+002, 3.017727e-001
4.512612e+002, 2.923256e-001
4.531897e+002, 2.873136e-001
4.551181e+002, 2.811280e-001
4.570466e+002, 2.770386e-001
4.589751e+002, 2.728920e-001
4.609035e+002, 2.674238e-001
4.628320e+002, 2.623929e-001
4.647605e+002, 2.605111e-001
4.666889e+002, 2.563486e-001
4.686174e+002, 2.472961e-001
4.705459e+002, 2.379650e-001
4.724743e+002, 2.281654e-001
4.744028e+002, 2.193827e-001
4.763313e+002, 2.138416e-001
4.782597e+002, 2.063646e-001
4.801882e+002, 1.973228e-001
4.821167e+002, 1.902756e-001
4.840451e+002, 1.854142e-001
4.859736e+002, 1.808420e-001
4.879021e+002, 1.790752e-001
4.898305e+002, 1.809798e-001
4.917590e+002, 1.837742e-001
4.936875e+002, 1.867404e-001
4.956159e+002, 1.894396e-001
4.975444e+002, 1.909796e-001
4.994729e+002, 1.919229e-001
5.014013e+002, 1.946487e-001
5.033298e+002, 1.991986e-001
5.052583e+002, 2.031018e-001
5.071867e+002, 2.018912e-001
5.091152e+002, 1.922577e-001
5.110437e+002, 1.790471e-001
5.129721e+002, 1.670958e-001
5.149006e+002, 1.580947e-001
5.168290e+002, 1.516469e-001
5.187575e+002, 1.463026e-001
5.206860e+002, 1.423682e-001
5.226144e+002, 1.408330e-001
5.245429e+002, 1.413915e-001
5.264714e+002, 1.417608e-001
5.283998e+002, 1.407436e-001
5.303283e+002, 1.382182e-001
5.322568e+002, 1.341516e-001
5.341852e+002, 1.297888e-001
5.361137e+002, 1.252618e-001
5.380422e+002, 1.200939e-001
5.399706e+002, 1.143030e-001
5.418991e+002, 1.075734e-001
5.438276e+002, 9.961900e-002
5.457560e+002, 9.162168e-002
5.476845e+002, 8.478650e-002
5.496130e+002, 7.792979e-002
5.515414e+002, 7.085600e-002
5.534699e+002, 6.439630e-002
5.553984e+002, 5.901518e-002
5.573268e+002, 5.464635e-002
5.592553e+002, 5.066210e-002
5.611838e+002, 4.660948e-002
5.631122e+002, 4.297213e-002
5.650407e+002, 3.998714e-002
5.669692e+002, 3.724214e-002
5.688976e+002, 3.436337e-002
5.708261e+002, 3.192356e-002
5.727546e+002, 2.967159e-002
5.746830e+002, 2.767350e-002
5.766115e+002, 2.598700e-002
5.785400e+002, 2.482852e-002
5.804684e+002, 2.390656e-002
5.823969e+002, 2.283264e-002
5.843254e+002, 2.144578e-002
5.862538e+002, 2.094138e-002
5.881823e+002, 2.050593e-002
5.901108e+002, 1.983573e-002
5.920392e+002, 1.982952e-002
5.939677e+002, 1.976951e-002
5.958962e+002, 1.961663e-002
5.978246e+002, 1.940217e-002
5.997531e+002, 1.931987e-002
6.016816e+002, 1.960583e-002
6.036100e+002, 1.998898e-002
6.055385e+002, 2.010380e-002
6.074670e+002, 2.028632e-002
6.093954e+002, 2.018762e-002
6.113239e+002, 1.993598e-002
6.132524e+002, 1.983372e-002
6.151808e+002, 1.985961e-002
6.171093e+002, 1.995781e-002
6.190378e+002, 2.027308e-002
6.209662e+002, 2.036220e-002
6.228947e+002, 2.092547e-002
6.248232e+002, 2.183572e-002
6.267516e+002, 2.266348e-002
6.286801e+002, 2.376611e-002
6.306086e+002, 2.566820e-002
6.325370e+002, 2.778813e-002
6.344655e+002, 3.069457e-002
6.363940e+002, 3.537950e-002
6.383224e+002, 4.223457e-002
6.402509e+002, 5.014281e-002
6.421794e+002, 5.531711e-002
6.441078e+002, 5.423697e-002
6.460363e+002, 4.877410e-002
6.479648e+002, 4.351690e-002
6.498932e+002, 4.093441e-002
6.518217e+002, 4.107854e-002
6.537502e+002, 4.375076e-002
6.556786e+002, 4.840305e-002
6.576071e+002, 5.448503e-002
6.595356e+002, 6.107727e-002
6.614641e+002, 6.609492e-002
6.633925e+002, 6.716119e-002
6.653210e+002, 6.394069e-002
6.672495e+002, 5.921984e-002
6.691779e+002, 5.559372e-002
6.711064e+002, 5.448190e-002
6.730349e+002, 5.702589e-002
6.749633e+002, 6.356031e-002
6.768918e+002, 7.417546e-002
6.788203e+002, 8.849993e-002
6.807487e+002, 1.044832e-001
6.826772e+002, 1.173082e-001
6.846057e+002, 1.221169e-001
6.865341e+002, 1.171507e-001
6.884626e+002, 1.044882e-001
6.903911e+002, 8.860254e-002
6.923195e+002, 7.377012e-002
6.942480e+002, 6.177283e-002
6.961765e+002, 5.243057e-002
6.981049e+002, 4.499136e-002
7.000334e+002, 3.970480e-002
7.019619e+002, 3.621039e-002
7.038903e+002, 3.430391e-002
7.058188e+002, 3.301371e-002
7.077473e+002, 3.170760e-002
7.096757e+002, 3.091116e-002
7.116042e+002, 3.083165e-002
7.135327e+002, 3.083636e-002
7.154611e+002, 3.136184e-002
7.173896e+002, 3.285488e-002
7.193181e+002, 3.557045e-002
7.212465e+002, 3.956361e-002
7.231750e+002, 4.381546e-002
7.251035e+002, 4.544653e-002
7.270319e+002, 4.358854e-002
7.289604e+002, 4.101423e-002
7.308889e+002, 3.990650e-002
7.328173e+002, 4.079849e-002
7.347458e+002, 4.401105e-002
7.366743e+002, 4.914761e-002
7.386027e+002, 5.429410e-002
7.405312e+002, 5.715249e-002
7.424597e+002, 5.808963e-002
7.443881e+002, 6.073691e-002
7.463166e+002, 6.736714e-002
7.482451e+002, 7.808501e-002
7.501735e+002, 9.331104e-002
7.521020e+002, 1.135096e-001
7.540305e+002, 1.375322e-001
7.559589e+002, 1.590482e-001
7.578874e+002, 1.666811e-001
7.598159e+002, 1.558051e-001
7.617443e+002, 1.328980e-001
7.636728e+002, 1.075883e-001
7.656013e+002, 8.584649e-002
7.675297e+002, 6.959853e-002
7.694582e+002, 5.868189e-002
7.713867e+002, 5.244142e-002
7.733151e+002, 4.937301e-002
7.752436e+002, 4.815031e-002
7.771721e+002, 4.764538e-002
7.791005e+002, 4.711688e-002
7.810290e+002, 4.589832e-002
7.829575e+002, 4.426562e-002
7.848859e+002, 4.291080e-002
7.868144e+002, 4.224824e-002
7.887429e+002, 4.237104e-002
7.906713e+002, 4.349611e-002
7.925998e+002, 4.522501e-002
7.945283e+002, 4.729674e-002
7.964567e+002, 4.946785e-002
7.983852e+002, 5.057348e-002
8.003137e+002, 4.983396e-002
8.022421e+002, 4.719983e-002
8.041706e+002, 4.383491e-002
8.060991e+002, 4.039611e-002
8.080275e+002, 3.730618e-002
8.099560e+002, 3.508211e-002
8.118845e+002, 3.361899e-002
8.138129e+002, 3.253714e-002
8.157414e+002, 3.208103e-002
8.176699e+002, 3.203003e-002
8.195983e+002, 3.207031e-002
8.215268e+002, 3.243389e-002
8.234553e+002, 3.296161e-002
8.253837e+002, 3.364969e-002
8.273122e+002, 3.458254e-002
8.292407e+002, 3.570551e-002
8.311691e+002, 3.706660e-002
8.330976e+002, 3.811736e-002
8.350261e+002, 3.942822e-002
8.369545e+002, 4.095818e-002
8.388830e+002, 4.269861e-002
8.408115e+002, 4.473416e-002
8.427399e+002, 4.711734e-002
8.446684e+002, 4.969186e-002
8.465969e+002, 5.234451e-002
8.485253e+002, 5.469282e-002
8.504538e+002, 5.692746e-002
8.523823e+002, 5.945993e-002
8.543107e+002, 6.216710e-002
8.562392e+002, 6.527498e-002
8.581677e+002, 6.892872e-002
8.600961e+002, 7.278770e-002
8.620246e+002, 7.708425e-002
8.639531e+002, 8.184808e-002
8.658815e+002, 8.758616e-002
8.678100e+002, 9.421352e-002
8.697385e+002, 1.019686e-001
8.716669e+002, 1.098276e-001
8.735954e+002, 1.166584e-001
8.755239e+002, 1.224519e-001
8.774523e+002, 1.279692e-001
8.793808e+002, 1.331689e-001
8.813093e+002, 1.387132e-001
8.832377e+002, 1.454121e-001
8.851662e+002, 1.539378e-001
8.870947e+002, 1.643458e-001
8.890231e+002, 1.761389e-001
8.909516e+002, 1.889621e-001
8.928801e+002, 2.026196e-001
8.948085e+002, 2.170762e-001
8.967370e+002, 2.325806e-001
8.986655e+002, 2.492285e-001
9.005939e+002, 2.668496e-001
9.025224e+002, 2.851142e-001
9.044509e+002, 3.041391e-001
9.063793e+002, 3.240396e-001
9.083078e+002, 3.442354e-001
9.102363e+002, 3.637196e-001
9.121647e+002, 3.817149e-001
9.140932e+002, 3.962802e-001
9.160217e+002, 4.036922e-001
9.179501e+002, 4.016028e-001
9.198786e+002, 3.896616e-001
9.218071e+002, 3.706800e-001
9.237355e+002, 3.491963e-001
9.256640e+002, 3.277669e-001
9.275925e+002, 3.054586e-001
9.295209e+002, 2.856247e-001
9.314494e+002, 2.750462e-001
9.333779e+002, 2.774565e-001
9.353063e+002, 2.910619e-001
9.372348e+002, 3.119422e-001
9.391633e+002, 3.363919e-001
9.410917e+002, 3.613391e-001
9.430202e+002, 3.838658e-001
9.449487e+002, 4.019511e-001
9.468771e+002, 4.136749e-001
9.488056e+002, 4.187551e-001
9.507341e+002, 4.181648e-001
9.526625e+002, 4.132919e-001
9.545910e+002, 4.054099e-001
9.565195e+002, 3.958680e-001
9.584479e+002, 3.857203e-001
9.603764e+002, 3.754302e-001
9.623049e+002, 3.651292e-001
9.642333e+002, 3.556442e-001
9.661618e+002, 3.473104e-001
9.680903e+002, 3.400729e-001
9.700187e+002, 3.340747e-001
9.719472e+002, 3.296463e-001
9.738757e+002, 3.263057e-001
9.758041e+002, 3.240437e-001
9.777326e+002, 3.232814e-001
9.796611e+002, 3.233506e-001
9.815895e+002, 3.241117e-001
9.835180e+002, 3.254298e-001
9.854465e+002, 3.257136e-001
9.873749e+002, 3.244969e-001
9.893034e+002, 3.213289e-001
9.912319e+002, 3.160098e-001
9.931603e+002, 3.085796e-001
9.950888e+002, 2.990627e-001
9.970173e+002, 2.876408e-001
9.989457e+002, 2.748346e-001
1.000874e+003, 2.614830e-001
1.002803e+003, 2.478662e-001
1.004731e+003, 2.344706e-001
1.006660e+003, 2.215326e-001
1.008588e+003, 2.090950e-001
1.010517e+003, 1.974771e-001
1.012445e+003, 1.870265e-001
1.014373e+003, 1.779348e-001
1.016302e+003, 1.701619e-001
1.018230e+003, 1.633302e-001
1.020159e+003, 1.566877e-001
1.022087e+003, 1.501041e-001
1.024016e+003, 1.440590e-001
1.025944e+003, 1.391206e-001
1.027873e+003, 1.359466e-001
1.029801e+003, 1.356751e-001
1.031730e+003, 1.397976e-001
1.033658e+003, 1.494502e-001
1.035587e+003, 1.630773e-001
1.037515e+003, 1.734150e-001
1.039443e+003, 1.736922e-001
1.041372e+003, 1.685106e-001
1.043300e+003, 1.657325e-001
1.045229e+003, 1.664972e-001
1.047157e+003, 1.683775e-001
1.049086e+003, 1.698977e-001
1.051014e+003, 1.710866e-001
1.052943e+003, 1.716504e-001
1.054871e+003, 1.713616e-001
1.056800e+003, 1.707099e-001
1.058728e+003, 1.696820e-001
1.060657e+003, 1.680558e-001
1.062585e+003, 1.657618e-001
1.064514e+003, 1.628525e-001
1.066442e+003, 1.595648e-001
1.068370e+003, 1.559335e-001
1.070299e+003, 1.519942e-001
1.072227e+003, 1.478454e-001
1.074156e+003, 1.434777e-001
1.076084e+003, 1.395322e-001
1.078013e+003, 1.362047e-001
1.079941e+003, 1.331802e-001
1.081870e+003, 1.308941e-001
1.083798e+003, 1.300428e-001
1.085727e+003, 1.303205e-001
1.087655e+003, 1.316167e-001
1.089584e+003, 1.340042e-001
1.091512e+003, 1.372745e-001
1.093441e+003, 1.405724e-001
1.095369e+003, 1.436746e-001
1.097297e+003, 1.461567e-001
1.099226e+003, 1.479193e-001
1.101154e+003, 1.486576e-001
1.103083e+003, 1.482205e-001
1.105011e+003, 1.467367e-001
1.106940e+003, 1.441203e-001
1.108868e+003, 1.403634e-001
1.110797e+003, 1.357182e-001
1.112725e+003, 1.303687e-001
1.114654e+003, 1.243350e-001
1.116582e+003, 1.180239e-001
1.118511e+003, 1.115831e-001
1.120439e+003, 1.047840e-001
1.122368e+003, 9.826170e-002
1.124296e+003, 9.343727e-002
1.126224e+003, 9.033734e-002
1.128153e+003, 8.664406e-002
1.130081e+003, 8.103533e-002
1.132010e+003, 7.455273e-002
1.133938e+003, 6.830026e-002
1.135867e+003, 6.256104e-002
1.137795e+003, 5.726834e-002
1.139724e+003, 5.244049e-002
1.141652e+003, 4.801872e-002
1.143581e+003, 4.407233e-002
1.145509e+003, 4.056113e-002
1.147438e+003, 3.739877e-002
1.149366e+003, 3.464901e-002
1.151295e+003, 3.231957e-002
1.153223e+003, 3.019820e-002
1.155151e+003, 2.843220e-002
1.157080e+003, 2.741057e-002
1.159008e+003, 2.712058e-002
1.160937e+003, 2.720930e-002
1.162865e+003, 2.711185e-002
1.164794e+003, 2.640658e-002
1.166722e+003, 2.560580e-002
1.168651e+003, 2.479234e-002
1.170579e+003, 2.371890e-002
1.172508e+003, 2.280419e-002
1.174436e+003, 2.225943e-002
1.176365e+003, 2.167620e-002
1.178293e+003, 2.104467e-002
1.180222e+003, 2.062648e-002
1.182150e+003, 2.031114e-002
1.184078e+003, 1.989894e-002
1.186007e+003, 1.937407e-002
1.187935e+003, 1.884172e-002
1.189864e+003, 1.831533e-002
1.191792e+003, 1.786475e-002
1.193721e+003, 1.752307e-002
1.195649e+003, 1.710846e-002
1.197578e+003, 1.654929e-002
1.199506e+003, 1.588256e-002
1.201435e+003, 1.517830e-002
1.203363e+003, 1.452686e-002
1.205292e+003, 1.390079e-002
1.207220e+003, 1.309626e-002
1.209149e+003, 1.229395e-002
1.211077e+003, 1.178055e-002
1.213005e+003, 1.119197e-002
1.214934e+003, 1.045733e-002
1.216862e+003, 9.819103e-003
1.218791e+003, 9.363478e-003
1.220719e+003, 9.169498e-003
1.222648e+003, 8.737767e-003
1.224576e+003, 8.371776e-003
1.226505e+003, 8.240744e-003
1.228433e+003, 7.984684e-003
1.230362e+003, 7.818365e-003
1.232290e+003, 7.694336e-003
1.234219e+003, 7.517199e-003
1.236147e+003, 7.400576e-003
1.238076e+003, 7.295861e-003
1.240004e+003, 7.238437e-003
1.241932e+003, 7.155033e-003
1.243861e+003, 7.079584e-003
1.245789e+003, 6.993045e-003
1.247718e+003, 6.759706e-003
1.249646e+003, 6.468270e-003
1.251575e+003, 6.301744e-003
1.253503e+003, 6.210593e-003
1.255432e+003, 6.147165e-003
1.257360e+003, 6.049614e-003
1.259289e+003, 5.874864e-003
1.261217e+003, 5.968816e-003
1.263146e+003, 6.107298e-003
1.265074e+003, 5.866754e-003
1.267003e+003, 5.711577e-003
1.268931e+003, 5.780181e-003
1.270859e+003, 5.876545e-003
1.272788e+003, 5.786561e-003
1.274716e+003, 5.717074e-003
1.276645e+003, 5.821090e-003
1.278573e+003, 5.898859e-003
1.280502e+003, 5.778372e-003
1.282430e+003, 5.675689e-003
1.284359e+003, 5.712140e-003
1.286287e+003, 5.749235e-003
1.288216e+003, 5.650844e-003
1.290144e+003, 5.551211e-003
1.292073e+003, 5.526705e-003
1.294001e+003, 5.572121e-003
1.295930e+003, 5.577054e-003
1.297858e+003, 5.475985e-003
1.299786e+003, 5.389047e-003
1.301715e+003, 5.401460e-003
1.303643e+003, 5.321751e-003
1.305572e+003, 5.220836e-003
1.307500e+003, 5.218775e-003
1.309429e+003, 5.249343e-003
1.311357e+003, 5.191456e-003
1.313286e+003, 5.291682e-003
1.315214e+003, 5.364440e-003
1.317143e+003, 5.291413e-003
1.319071e+003, 5.231693e-003
1.321000e+003, 5.234022e-003
1.322928e+003, 5.333345e-003
1.324857e+003, 5.407244e-003
1.326785e+003, 5.422456e-003
1.328714e+003, 5.455522e-003
1.330642e+003, 5.407304e-003
1.332570e+003, 5.497168e-003
1.334499e+003, 5.795756e-003
1.336427e+003, 5.998516e-003
1.338356e+003, 6.052895e-003
1.340284e+003, 6.033244e-003
1.342213e+003, 6.123200e-003
1.344141e+003, 6.263449e-003
1.346070e+003, 6.223422e-003
1.347998e+003, 6.294621e-003
1.349927e+003, 6.530562e-003
1.351855e+003, 6.724645e-003
1.353784e+003, 6.771792e-003
1.355712e+003, 6.844174e-003
1.357641e+003, 6.960075e-003
1.359569e+003, 7.174140e-003
1.361497e+003, 7.355741e-003
1.363426e+003, 7.453241e-003
1.365354e+003, 7.539771e-003
1.367283e+003, 7.690271e-003
1.369211e+003, 7.854852e-003
1.371140e+003, 7.962530e-003
1.373068e+003, 8.121692e-003
1.374997e+003, 8.254282e-003
1.376925e+003, 8.393900e-003
1.378854e+003, 8.772784e-003
1.380782e+003, 8.971320e-003
1.382711e+003, 9.214542e-003
1.384639e+003, 9.343299e-003
1.386568e+003, 9.661396e-003
1.388496e+003, 1.002956e-002
1.390424e+003, 1.038181e-002
1.392353e+003, 1.081343e-002
1.394281e+003, 1.129324e-002
1.396210e+003, 1.163315e-002
1.398138e+003, 1.192518e-002
1.400067e+003, 1.229157e-002
1.401995e+003, 1.267411e-002
1.403924e+003, 1.323453e-002
1.405852e+003, 1.367494e-002
1.407781e+003, 1.405522e-002
1.409709e+003, 1.466711e-002
1.411638e+003, 1.531231e-002
1.413566e+003, 1.603496e-002
1.415495e+003, 1.667487e-002
1.417423e+003, 1.744274e-002
1.419351e+003, 1.817373e-002
1.421280e+003, 1.852278e-002
1.423208e+003, 1.899556e-002
1.425137e+003, 1.960553e-002
1.427065e+003, 2.009465e-002
1.428994e+003, 2.061747e-002
1.430922e+003, 2.103413e-002
1.432851e+003, 2.127855e-002
1.434779e+003, 2.158563e-002
1.436708e+003, 2.196503e-002
1.438636e+003, 2.189143e-002
1.440565e+003, 2.199953e-002
1.442493e+003, 2.232158e-002
1.444422e+003, 2.270488e-002
1.446350e+003, 2.300043e-002
1.448278e+003, 2.320704e-002
1.450207e+003, 2.331463e-002
1.452135e+003, 2.348016e-002
1.454064e+003, 2.393003e-002
1.455992e+003, 2.455819e-002
1.457921e+003, 2.445892e-002
1.459849e+003, 2.410491e-002
1.461778e+003, 2.410637e-002
1.463706e+003, 2.409119e-002
1.465635e+003, 2.411275e-002
1.467563e+003, 2.386226e-002
1.469492e+003, 2.350192e-002
1.471420e+003, 2.361041e-002
1.473349e+003, 2.359664e-002
1.475277e+003, 2.322241e-002
1.477205e+003, 2.294306e-002
1.479134e+003, 2.281234e-002
1.481062e+003, 2.266077e-002
1.482991e+003, 2.232067e-002
1.484919e+003, 2.217931e-002
1.486848e+003, 2.214369e-002
1.488776e+003, 2.186917e-002
1.490705e+003, 2.143459e-002
1.492633e+003, 2.098894e-002
1.494562e+003, 2.076703e-002
1.496490e+003, 2.057313e-002
1.498419e+003, 1.999005e-002
1.500347e+003, 1.946317e-002
1.502276e+003, 1.905660e-002
1.504204e+003, 1.896697e-002
1.506132e+003, 1.894851e-002
1.508061e+003, 1.811834e-002
1.509989e+003, 1.717853e-002
1.511918e+003, 1.659335e-002
1.513846e+003, 1.605340e-002
1.515775e+003, 1.568739e-002
1.517703e+003, 1.520540e-002
1.519632e+003, 1.492133e-002
1.521560e+003, 1.473266e-002
1.523489e+003, 1.393257e-002
1.525417e+003, 1.331219e-002
1.527346e+003, 1.282545e-002
1.529274e+003, 1.242688e-002
1.531203e+003, 1.230235e-002
1.533131e+003, 1.218790e-002
1.535059e+003, 1.169444e-002
1.536988e+003, 1.170786e-002
1.538916e+003, 1.206925e-002
1.540845e+003, 1.183945e-002
1.542773e+003, 1.137272e-002
1.544702e+003, 1.093699e-002
1.546630e+003, 1.052795e-002
1.548559e+003, 1.040961e-002
1.550487e+003, 1.022953e-002
1.552416e+003, 1.014416e-002
1.554344e+003, 1.035967e-002
1.556273e+003, 1.059869e-002
1.558201e+003, 1.110054e-002
1.560130e+003, 1.100595e-002
1.562058e+003, 1.024844e-002
1.563986e+003, 9.973257e-003
1.565915e+003, 9.981212e-003
1.567843e+003, 9.985258e-003
1.569772e+003, 9.956614e-003
1.571700e+003, 9.785544e-003
1.573629e+003, 1.002890e-002
1.575557e+003, 1.049388e-002
1.577486e+003, 1.034878e-002
1.579414e+003, 1.010028e-002
1.581343e+003, 1.013540e-002
1.583271e+003, 1.012815e-002
1.585200e+003, 1.003212e-002
1.587128e+003, 9.863119e-003
1.589057e+003, 9.758383e-003
1.590985e+003, 9.952812e-003
1.592913e+003, 1.017676e-002
1.594842e+003, 1.021416e-002
1.596770e+003, 1.026322e-002
1.598699e+003, 1.022012e-002
1.600627e+003, 1.010526e-002
1.602556e+003, 1.022872e-002
1.604484e+003, 1.038356e-002
1.606413e+003, 1.021658e-002
1.608341e+003, 1.010511e-002
1.610270e+003, 1.023864e-002
1.612198e+003, 1.023961e-002
1.614127e+003, 1.041749e-002
1.616055e+003, 1.081158e-002
1.617984e+003, 1.050002e-002
1.619912e+003, 9.978862e-003
1.621840e+003, 9.977919e-003
1.623769e+003, 9.852379e-003
1.625697e+003, 9.698743e-003
1.627626e+003, 9.770148e-003
1.629554e+003, 9.711696e-003
1.631483e+003, 9.530076e-003
1.633411e+003, 9.670408e-003
1.635340e+003, 9.799587e-003
1.637268e+003, 9.420562e-003
1.639197e+003, 9.008873e-003
1.641125e+003, 9.004909e-003
1.643054e+003, 8.993194e-003
1.644982e+003, 9.125783e-003
1.646911e+003, 9.169964e-003
1.648839e+003, 8.913134e-003
1.650767e+003, 9.225491e-003
1.652696e+003, 9.898410e-003
1.654624e+003, 9.064275e-003
1.656553e+003, 8.147070e-003
1.658481e+003, 7.856382e-003
1.660410e+003, 7.807945e-003
1.662338e+003, 7.934885e-003
1.664267e+003, 7.822718e-003
1.666195e+003, 7.663591e-003
1.668124e+003, 7.979002e-003
1.670052e+003, 8.050770e-003
1.671981e+003, 7.871867e-003
1.673909e+003, 7.895404e-003
1.675838e+003, 7.765354e-003
1.677766e+003, 7.446285e-003
1.679694e+003, 7.547614e-003
1.681623e+003, 7.568983e-003
1.683551e+003, 7.916193e-003
1.685480e+003, 7.831718e-003
1.687408e+003, 7.324233e-003
1.689337e+003, 7.112369e-003
1.691265e+003, 6.999687e-003
1.693194e+003, 7.208757e-003
1.695122e+003, 7.901347e-003
1.697051e+003, 7.678422e-003
1.698979e+003, 7.658304e-003
1.700908e+003, 7.631858e-003
1.702836e+003, 6.955378e-003
1.704765e+003, 6.743079e-003
1.706693e+003, 6.368632e-003
1.708621e+003, 6.152981e-003
1.710550e+003, 6.175696e-003
1.712478e+003, 6.239013e-003
1.714407e+003, 6.439333e-003
1.716335e+003, 6.835991e-003
1.718264e+003, 6.662819e-003
1.720192e+003, 5.781824e-003
1.722121e+003, 5.541991e-003
1.724049e+003, 5.505035e-003
1.725978e+003, 5.337519e-003
1.727906e+003, 5.223096e-003
1.729835e+003, 5.248259e-003
1.731763e+003, 5.382974e-003
1.733692e+003, 5.714071e-003
1.735620e+003, 5.101295e-003
1.737548e+003, 4.589065e-003
1.739477e+003, 4.683753e-003
1.741405e+003, 4.607728e-003
1.743334e+003, 4.633115e-003
1.745262e+003, 4.502400e-003
1.747191e+003, 4.400813e-003
1.749119e+003, 4.974097e-003
1.751048e+003, 5.259310e-003
1.752976e+003, 4.793684e-003
1.754905e+003, 4.654855e-003
1.756833e+003, 4.885781e-003
1.758762e+003, 4.930795e-003
1.760690e+003, 4.985175e-003
1.762619e+003, 4.899341e-003
1.764547e+003, 4.972317e-003
1.766475e+003, 5.183852e-003
1.768404e+003, 5.073371e-003
1.770332e+003, 5.028662e-003
1.772261e+003, 5.455690e-003
1.774189e+003, 5.215030e-003
1.776118e+003, 4.643233e-003
1.778046e+003, 4.613846e-003
1.779975e+003, 4.923934e-003
1.781903e+003, 4.970096e-003
1.783832e+003, 4.948177e-003
1.785760e+003, 4.782233e-003
1.787689e+003, 4.627267e-003
1.789617e+003, 4.504564e-003
1.791546e+003, 4.767694e-003
1.793474e+003, 5.200505e-003
1.795402e+003, 5.069517e-003
1.797331e+003, 4.789046e-003
1.799259e+003, 4.701345e-003
1.801188e+003, 4.941232e-003
1.803116e+003, 4.995773e-003
1.805045e+003, 4.665696e-003
1.806973e+003, 4.528382e-003
1.808902e+003, 4.576026e-003
1.810830e+003, 4.523403e-003
1.812759e+003, 4.329930e-003
1.814687e+003, 4.041606e-003
1.816616e+003, 3.927399e-003
1.818544e+003, 4.270339e-003
1.820473e+003, 4.551352e-003
1.822401e+003, 4.522601e-003
1.824329e+003, 4.484358e-003
1.826258e+003, 4.226081e-003
1.828186e+003, 4.106747e-003
1.830115e+003, 4.287387e-003
1.832043e+003, 4.527348e-003
1.833972e+003, 4.725744e-003
1.835900e+003, 4.506243e-003
1.837829e+003, 4.185570e-003
1.839757e+003, 3.884684e-003
1.841686e+003, 3.855093e-003
1.843614e+003, 4.084996e-003
1.845543e+003, 4.043126e-003
1.847471e+003, 3.780830e-003
1.849400e+003, 4.005416e-003
1.851328e+003, 4.146046e-003
1.853256e+003, 4.016269e-003
1.855185e+003, 4.253753e-003
1.857113e+003, 4.722698e-003
1.859042e+003, 4.593364e-003
1.860970e+003, 4.541097e-003
1.862899e+003, 4.903871e-003
1.864827e+003, 4.984497e-003
1.866756e+003, 4.817982e-003
1.868684e+003, 4.754889e-003
1.870613e+003, 4.794229e-003
1.872541e+003, 4.470970e-003
1.874470e+003, 4.472158e-003
1.876398e+003, 4.829419e-003
1.878327e+003, 4.756372e-003
1.880255e+003, 4.382453e-003
1.882183e+003, 4.230325e-003
1.884112e+003, 4.176087e-003
1.886040e+003, 3.870886e-003
1.887969e+003, 3.521555e-003
1.889897e+003, 3.938689e-003
1.891826e+003, 4.161511e-003
1.893754e+003, 3.991393e-003
1.895683e+003, 3.811929e-003
1.897611e+003, 3.507280e-003
1.899540e+003, 3.804074e-003
1.901468e+003, 3.889443e-003
1.903397e+003, 3.735562e-003
1.905325e+003, 3.969188e-003
1.907254e+003, 3.893623e-003
1.909182e+003, 3.424433e-003
1.911110e+003, 3.595720e-003
1.913039e+003, 3.187606e-003
1.914967e+003, 3.226370e-003
1.916896e+003, 3.577224e-003
1.918824e+003, 3.580499e-003
1.920753e+003, 3.142920e-003
1.922681e+003, 2.811969e-003
1.924610e+003, 2.619093e-003
1.926538e+003, 2.841584e-003
1.928467e+003, 2.639077e-003
1.930395e+003, 2.703623e-003
1.932324e+003, 2.691136e-003
1.934252e+003, 2.747526e-003
1.936181e+003, 3.189990e-003
1.938109e+003, 3.232856e-003
1.940037e+003, 2.816737e-003
1.941966e+003, 3.403853e-003
1.943894e+003, 3.733891e-003
1.945823e+003, 3.167695e-003
1.947751e+003, 2.912698e-003
1.949680e+003, 3.110404e-003
1.951608e+003, 3.665856e-003
1.953537e+003, 3.122164e-003
1.955465e+003, 2.179879e-003
1.957394e+003, 2.332333e-003
1.959322e+003, 2.344499e-003
1.961251e+003, 2.081544e-003
1.963179e+003, 2.302528e-003
1.965108e+003, 2.559077e-003
1.967036e+003, 1.598916e-003
1.968964e+003, 1.381906e-003
1.970893e+003, 1.796418e-003
1.972821e+003, 1.892730e-003
1.974750e+003, 2.083798e-003
1.976678e+003, 2.658010e-003
1.978607e+003, 4.010213e-003
1.980535e+003, 4.060812e-003
1.982464e+003, 3.652096e-003
1.984392e+003, 4.191403e-003
1.986321e+003, 3.938528e-003
1.988249e+003, 3.002350e-003
1.990178e+003, 2.678478e-003
1.992106e+003, 3.721282e-003
1.994035e+003, 4.527061e-003
1.995963e+003, 3.804427e-003
1.997891e+003, 3.087850e-003
1.999820e+003, 3.279406e-003
2.001748e+003, 2.858147e-003
2.003677e+003, 2.440136e-003
2.005605e+003, 3.754274e-003
2.007534e+003, 5.167927e-003
2.009462e+003, 4.578745e-003
2.011391e+003, 4.725479e-003
2.013319e+003, 5.266702e-003
2.015248e+003, 5.052639e-003
2.017176e+003, 4.751333e-003
2.019105e+003, 4.360048e-003
2.021033e+003, 2.834589e-003
2.022962e+003, 3.130035e-003
2.024890e+003, 4.454053e-003
2.026818e+003, 4.873625e-003
2.028747e+003, 5.093265e-003
2.030675e+003, 5.687433e-003
2.032604e+003, 5.481339e-003
2.034532e+003, 4.993539e-003
2.036461e+003, 4.146694e-003
2.038389e+003, 4.269597e-003
2.040318e+003, 4.631363e-003
2.042246e+003, 4.956699e-003
2.044175e+003, 5.954915e-003
2.046103e+003, 7.489135e-003
2.048031e+003, 6.878857e-003
2.049960e+003, 6.802214e-003
2.051888e+003, 6.732804e-003
2.053817e+003, 5.988464e-003
2.055745e+003, 5.546411e-003
2.057674e+003, 6.031571e-003
2.059602e+003, 5.716739e-003
2.061531e+003, 5.348926e-003
2.063459e+003, 5.564094e-003
2.065388e+003, 5.193208e-003
2.067316e+003, 4.810403e-003
2.069245e+003, 5.199538e-003
2.071173e+003, 5.113094e-003
2.073102e+003, 5.036019e-003
2.075030e+003, 5.237258e-003
2.076958e+003, 4.578813e-003
2.078887e+003, 4.362095e-003
2.080815e+003, 4.692070e-003
2.082744e+003, 5.035789e-003
2.084672e+003, 5.247826e-003
2.086601e+003, 4.568057e-003
2.088529e+003, 4.516374e-003
2.090458e+003, 4.206606e-003
2.092386e+003, 4.013275e-003
2.094315e+003, 4.571994e-003
2.096243e+003, 5.136224e-003
2.098172e+003, 5.586932e-003
2.100100e+003, 5.374369e-003
2.102029e+003, 5.242913e-003
2.103957e+003, 4.925092e-003
2.105885e+003, 5.126390e-003
2.107814e+003, 5.161368e-003
2.109742e+003, 4.944542e-003
2.111671e+003, 4.808303e-003
2.113599e+003, 4.386351e-003
2.115528e+003, 4.179853e-003
2.117456e+003, 4.025287e-003
2.119385e+003, 4.800580e-003
2.121313e+003, 5.143290e-003
2.123242e+003, 5.325147e-003
2.125170e+003, 5.154297e-003
2.127099e+003, 4.239437e-003
2.129027e+003, 3.737834e-003
2.130956e+003, 3.852233e-003
2.132884e+003, 3.824271e-003
2.134813e+003, 4.077922e-003
2.136741e+003, 4.015217e-003
2.138669e+003, 3.907262e-003
2.140598e+003, 3.831225e-003
2.142526e+003, 3.337652e-003
2.144455e+003, 2.911264e-003
2.146383e+003, 3.486102e-003
2.148312e+003, 4.380044e-003
2.150240e+003, 4.289747e-003
2.152169e+003, 3.812417e-003
2.154097e+003, 4.991612e-003
2.156026e+003, 4.775151e-003
2.157954e+003, 4.209463e-003
2.159883e+003, 6.760998e-003
2.161811e+003, 8.179562e-003
2.163740e+003, 7.891051e-003
2.165668e+003, 7.819422e-003
2.167596e+003, 7.196764e-003
2.169525e+003, 6.808990e-003
2.171453e+003, 5.591095e-003
2.173382e+003, 3.928406e-003
2.175310e+003, 2.347889e-003
2.177239e+003, 2.623560e-003
2.179167e+003, 4.268543e-003
2.181096e+003, 5.020307e-003
2.183024e+003, 5.815474e-003
2.184953e+003, 6.902355e-003
2.186881e+003, 5.518587e-003
2.188810e+003, 4.283676e-003
2.190738e+003, 4.814244e-003
2.192667e+003, 4.839004e-003
2.194595e+003, 4.872543e-003
2.196523e+003, 4.881392e-003
2.198452e+003, 4.253258e-003
2.200380e+003, 4.108544e-003
2.202309e+003, 4.479801e-003
2.204237e+003, 4.995691e-003
2.206166e+003, 4.884250e-003
2.208094e+003, 4.243635e-003
2.210023e+003, 4.095174e-003
2.211951e+003, 4.135931e-003
2.213880e+003, 3.995959e-003
2.215808e+003, 3.053207e-003
2.217737e+003, 3.233371e-003
2.219665e+003, 3.174774e-003
2.221594e+003, 3.836886e-003
2.223522e+003, 4.909015e-003
2.225450e+003, 5.224822e-003
2.227379e+003, 5.395973e-003
2.229307e+003, 4.989526e-003
2.231236e+003, 4.586549e-003
2.233164e+003, 4.322934e-003
2.235093e+003, 4.372357e-003
2.237021e+003, 4.841074e-003
2.238950e+003, 5.303062e-003
2.240878e+003, 4.363073e-003
2.242807e+003, 3.942670e-003
2.244735e+003, 4.522339e-003
2.246664e+003, 5.038264e-003
2.248592e+003, 5.046193e-003
2.250521e+003, 5.156433e-003
2.252449e+003, 4.655736e-003
2.254377e+003, 3.952648e-003
2.256306e+003, 3.962778e-003
2.258234e+003, 4.354419e-003
2.260163e+003, 4.472317e-003
2.262091e+003, 4.614405e-003
2.264020e+003, 4.679730e-003
2.265948e+003, 4.645142e-003
2.267877e+003, 4.745701e-003
2.269805e+003, 5.461617e-003
2.271734e+003, 5.669199e-003
2.273662e+003, 5.619597e-003
2.275591e+003, 5.324742e-003
2.277519e+003, 5.687261e-003
2.279448e+003, 6.154097e-003
2.281376e+003, 6.086886e-003
2.283304e+003, 6.024925e-003
2.285233e+003, 5.966491e-003
2.287161e+003, 5.854637e-003
2.289090e+003, 5.870001e-003
2.291018e+003, 5.881392e-003
2.292947e+003, 5.974932e-003
2.294875e+003, 5.962171e-003
2.296804e+003, 5.541865e-003
2.298732e+003, 5.566835e-003
2.300661e+003, 5.887002e-003
2.302589e+003, 5.824894e-003
2.304518e+003, 5.798064e-003
2.306446e+003, 5.554147e-003
2.308375e+003, 5.284524e-003
2.310303e+003, 5.708391e-003
2.312231e+003, 5.949991e-003
2.314160e+003, 5.902215e-003
2.316088e+003, 5.802912e-003
2.318017e+003, 6.028074e-003
2.319945e+003, 6.467253e-003
2.321874e+003, 6.504695e-003
2.323802e+003, 6.521571e-003
2.325731e+003, 6.006349e-003
2.327659e+003, 5.546852e-003
2.329588e+003, 5.680453e-003
2.331516e+003, 5.603942e-003
2.333445e+003, 5.523682e-003
2.335373e+003, 5.682339e-003
2.337302e+003, 5.669559e-003
2.339230e+003, 5.711217e-003
2.341158e+003, 5.990698e-003
2.343087e+003, 6.132061e-003
2.345015e+003, 5.601140e-003
2.346944e+003, 5.242320e-003
2.348872e+003, 4.979744e-003
2.350801e+003, 5.264590e-003
2.352729e+003, 5.700998e-003
2.354658e+003, 6.006067e-003
2.356586e+003, 5.953075e-003
2.358515e+003, 5.495238e-003
2.360443e+003, 5.611466e-003
2.362372e+003, 6.036355e-003
2.364300e+003, 6.253820e-003
2.366229e+003, 6.086057e-003
2.368157e+003, 5.953897e-003
2.370085e+003, 5.862454e-003
2.372014e+003, 5.615399e-003
2.373942e+003, 5.548943e-003
2.375871e+003, 5.544401e-003
2.377799e+003, 5.418706e-003
2.379728e+003, 5.225766e-003
2.381656e+003, 5.227836e-003
2.383585e+003, 5.032026e-003
2.385513e+003, 5.199603e-003
2.387442e+003, 5.267762e-003
2.389370e+003, 5.363476e-003
2.391299e+003, 5.178399e-003
2.393227e+003, 5.231178e-003
2.395156e+003, 5.166240e-003
2.397084e+003, 4.842909e-003
2.399012e+003, 4.919147e-003
2.400941e+003, 5.257358e-003
2.402869e+003, 5.160620e-003
2.404798e+003, 5.316249e-003
2.406726e+003, 5.575027e-003
2.408655e+003, 5.314644e-003
2.410583e+003, 5.207713e-003
2.412512e+003, 5.554926e-003
2.414440e+003, 5.598363e-003
2.416369e+003, 5.501197e-003
2.418297e+003, 5.232903e-003
2.420226e+003, 5.425671e-003
2.422154e+003, 5.513554e-003
2.424083e+003, 5.589978e-003
2.426011e+003, 5.414422e-003
2.427939e+003, 5.535881e-003
2.429868e+003, 5.663758e-003
2.431796e+003, 5.702763e-003
2.433725e+003, 5.471854e-003
2.435653e+003, 5.314295e-003
2.437582e+003, 5.341258e-003
2.439510e+003, 6.056147e-003
2.441439e+003, 6.026689e-003
2.443367e+003, 6.040177e-003
2.445296e+003, 6.090661e-003
2.447224e+003, 5.966642e-003
2.449153e+003, 5.898981e-003
2.451081e+003, 5.740646e-003
2.453010e+003, 5.706367e-003
2.454938e+003, 5.833609e-003
2.456866e+003, 5.969666e-003
2.458795e+003, 6.017286e-003
2.460723e+003, 5.784112e-003
2.462652e+003, 5.804591e-003
2.464580e+003, 6.138586e-003
2.466509e+003, 6.188203e-003
2.468437e+003, 6.286251e-003
2.470366e+003, 6.306412e-003
2.472294e+003, 5.870695e-003
2.474223e+003, 5.351187e-003
2.476151e+003, 5.551544e-003
2.478080e+003, 5.765273e-003
2.480008e+003, 5.464825e-003
2.481937e+003, 5.327427e-003
2.483865e+003, 5.884274e-003
2.485793e+003, 6.215010e-003
2.487722e+003, 5.893604e-003
2.489650e+003, 5.466176e-003
2.491579e+003, 5.223358e-003
2.493507e+003, 5.550401e-003
2.495436e+003, 5.464619e-003
2.497364e+003, 5.533232e-003
2.499293e+003, 5.526859e-003
2.501221e+003, 5.368481e-003
2.503150e+003, 5.095048e-003
2.505078e+003, 5.208895e-003
2.507007e+003, 5.268762e-003
2.508935e+003, 5.077630e-003
2.510864e+003, 5.100024e-003
2.512792e+003, 5.534308e-003
2.514720e+003, 5.425207e-003
2.516649e+003, 5.661857e-003
2.518577e+003, 5.809913e-003
2.520506e+003, 5.503204e-003
2.522434e+003, 5.197775e-003
2.524363e+003, 4.691452e-003
2.526291e+003, 4.820892e-003
2.528220e+003, 4.888623e-003
2.530148e+003, 4.810012e-003
2.532077e+003, 5.169597e-003
2.534005e+003, 5.264325e-003
2.535934e+003, 5.425299e-003
2.537862e+003, 5.450065e-003
2.539791e+003, 5.453976e-003
2.541719e+003, 5.451369e-003
2.543647e+003, 5.202730e-003
2.545576e+003, 4.910487e-003
2.547504e+003, 5.441440e-003
2.549433e+003, 5.573925e-003
2.551361e+003, 5.387616e-003
2.553290e+003, 5.150043e-003
2.555218e+003, 5.338967e-003
2.557147e+003, 5.054102e-003
2.559075e+003, 4.950451e-003
2.561004e+003, 5.804032e-003
2.562932e+003, 5.879180e-003
2.564861e+003, 5.485593e-003
2.566789e+003, 5.450001e-003
2.568718e+003, 5.357224e-003
2.570646e+003, 5.407816e-003
2.572574e+003, 5.439134e-003
2.574503e+003, 5.411166e-003
2.576431e+003, 5.251591e-003
2.578360e+003, 5.638842e-003
2.580288e+003, 5.784682e-003
2.582217e+003, 5.318632e-003
2.584145e+003, 4.745528e-003
2.586074e+003, 4.857604e-003
2.588002e+003, 5.279093e-003
2.589931e+003, 5.539055e-003
2.591859e+003, 5.543722e-003
2.593788e+003, 5.512538e-003
2.595716e+003, 5.521588e-003
2.597645e+003, 5.298519e-003
2.599573e+003, 5.257049e-003
2.601501e+003, 5.316472e-003
2.603430e+003, 5.560181e-003
2.605358e+003, 5.775317e-003
2.607287e+003, 5.570281e-003
2.609215e+003, 5.382621e-003
2.611144e+003, 5.528064e-003
2.613072e+003, 5.407160e-003
2.615001e+003, 4.968485e-003
2.616929e+003, 5.069108e-003
2.618858e+003, 5.456079e-003
2.620786e+003, 5.669272e-003
2.622715e+003, 5.614611e-003
2.624643e+003, 5.486802e-003
2.626572e+003, 5.623872e-003
2.628500e+003, 5.914430e-003
2.630428e+003, 5.666332e-003
2.632357e+003, 5.725123e-003
2.634285e+003, 5.773105e-003
2.636214e+003, 5.671845e-003
2.638142e+003, 5.631398e-003
2.640071e+003, 5.773913e-003
2.641999e+003, 6.132150e-003
2.643928e+003, 5.892627e-003
2.645856e+003, 5.557659e-003
2.647785e+003, 5.363851e-003
2.649713e+003, 5.395218e-003
2.651642e+003, 5.753615e-003
2.653570e+003, 5.762069e-003
2.655499e+003, 5.699073e-003
2.657427e+003, 5.592288e-003
2.659355e+003, 5.338754e-003
2.661284e+003, 5.398718e-003
2.663212e+003, 5.357637e-003
2.665141e+003, 5.212506e-003
2.667069e+003, 5.016157e-003
2.668998e+003, 5.090145e-003
2.670926e+003, 5.108075e-003
2.672855e+003, 5.139991e-003
2.674783e+003, 5.056395e-003
2.676712e+003, 4.893783e-003
2.678640e+003, 5.089675e-003
2.680569e+003, 5.431412e-003
2.682497e+003, 5.618673e-003
2.684426e+003, 5.624352e-003
2.686354e+003, 5.361575e-003
2.688282e+003, 5.088546e-003
2.690211e+003, 5.126426e-003
2.692139e+003, 5.256717e-003
2.694068e+003, 5.423266e-003
2.695996e+003, 5.358696e-003
2.697925e+003, 4.854047e-003
2.699853e+003, 4.731800e-003
2.701782e+003, 4.989316e-003
2.703710e+003, 5.240694e-003
2.705639e+003, 5.566771e-003
2.707567e+003, 5.505965e-003
2.709496e+003, 5.223755e-003
2.711424e+003, 5.056249e-003
2.713353e+003, 5.240377e-003
2.715281e+003, 5.307933e-003
2.717209e+003, 5.025635e-003
2.719138e+003, 5.111016e-003
2.721066e+003, 5.529998e-003
2.722995e+003, 5.441213e-003
2.724923e+003, 5.496256e-003
2.726852e+003, 5.416299e-003
2.728780e+003, 5.290107e-003
2.730709e+003, 5.553372e-003
2.732637e+003, 5.718060e-003
2.734566e+003, 5.770928e-003
2.736494e+003, 5.503089e-003
2.738423e+003, 5.503810e-003
2.740351e+003, 5.498782e-003
2.742280e+003, 5.421632e-003
2.744208e+003, 5.443016e-003
2.746136e+003, 5.517245e-003
2.748065e+003, 5.423648e-003
2.749993e+003, 5.098837e-003
2.751922e+003, 5.020862e-003
2.753850e+003, 5.430562e-003
2.755779e+003, 5.919433e-003
2.757707e+003, 5.701969e-003
2.759636e+003, 5.492859e-003
2.761564e+003, 5.709358e-003
2.763493e+003, 5.968878e-003
2.765421e+003, 5.901452e-003
2.767350e+003, 5.869288e-003
2.769278e+003, 5.994205e-003
2.771207e+003, 6.048338e-003
2.773135e+003, 5.655923e-003
2.775063e+003, 5.416130e-003
2.776992e+003, 5.850690e-003
2.778920e+003, 6.379868e-003
2.780849e+003, 6.406643e-003
2.782777e+003, 6.001865e-003
2.784706e+003, 5.830083e-003
2.786634e+003, 5.866245e-003
2.788563e+003, 5.969315e-003
2.790491e+003, 5.912344e-003
2.792420e+003, 5.740575e-003
2.794348e+003, 5.799077e-003
2.796277e+003, 5.857298e-003
2.798205e+003, 6.092981e-003
2.800134e+003, 6.098337e-003
2.802062e+003, 5.986133e-003
2.803990e+003, 5.977580e-003
2.805919e+003, 6.158970e-003
2.807847e+003, 6.292550e-003
2.809776e+003, 6.667814e-003
2.811704e+003, 6.511126e-003
2.813633e+003, 6.125434e-003
2.815561e+003, 6.086075e-003
2.817490e+003, 6.208592e-003
2.819418e+003, 6.397576e-003
2.821347e+003, 6.366834e-003
2.823275e+003, 6.426703e-003
2.825204e+003, 6.655579e-003
2.827132e+003, 6.846074e-003
2.829061e+003, 6.804597e-003
2.830989e+003, 6.514926e-003
2.832917e+003, 6.461844e-003
2.834846e+003, 6.672219e-003
2.836774e+003, 7.014308e-003
2.838703e+003, 7.423087e-003
2.840631e+003, 7.416511e-003
2.842560e+003, 7.130844e-003
2.844488e+003, 7.379823e-003
2.846417e+003, 7.437048e-003
2.848345e+003, 7.572764e-003
2.850274e+003, 8.066323e-003
2.852202e+003, 8.348173e-003
2.854131e+003, 8.281397e-003
2.856059e+003, 7.851277e-003
2.857988e+003, 7.706528e-003
2.859916e+003, 8.055448e-003
2.861844e+003, 8.042775e-003
2.863773e+003, 7.928197e-003
2.865701e+003, 7.790238e-003
2.867630e+003, 7.453491e-003
2.869558e+003, 7.360031e-003
2.871487e+003, 7.390847e-003
2.873415e+003, 7.333507e-003
2.875344e+003, 7.045540e-003
2.877272e+003, 7.111379e-003
2.879201e+003, 7.262877e-003
2.881129e+003, 6.982840e-003
2.883058e+003, 7.065270e-003
2.884986e+003, 7.229032e-003
2.886915e+003, 7.470978e-003
2.888843e+003, 7.570268e-003
2.890771e+003, 7.627689e-003
2.892700e+003, 7.614968e-003
2.894628e+003, 7.781636e-003
2.896557e+003, 8.002709e-003
2.898485e+003, 8.069827e-003
2.900414e+003, 8.285035e-003
2.902342e+003, 8.254567e-003
2.904271e+003, 8.279370e-003
2.906199e+003, 8.466258e-003
2.908128e+003, 8.432633e-003
2.910056e+003, 8.354991e-003
2.911985e+003, 8.684406e-003
2.913913e+003, 9.316983e-003
2.915842e+003, 9.700465e-003
2.917770e+003, 9.947778e-003
2.919698e+003, 9.722743e-003
2.921627e+003, 1.017947e-002
2.923555e+003, 1.056750e-002
2.925484e+003, 1.038002e-002
2.927412e+003, 1.007714e-002
2.929341e+003, 9.875746e-003
2.931269e+003, 9.471759e-003
2.933198e+003, 9.311290e-003
2.935126e+003, 8.857704e-003
2.937055e+003, 8.504074e-003
2.938983e+003, 8.345823e-003
2.940912e+003, 8.536533e-003
2.942840e+003, 8.320932e-003
2.944769e+003, 8.087419e-003
2.946697e+003, 7.655503e-003
2.948625e+003, 7.928997e-003
2.950554e+003, 8.075677e-003
2.952482e+003, 7.397989e-003
2.954411e+003, 6.760512e-003
2.956339e+003, 6.699871e-003
2.958268e+003, 6.935359e-003
2.960196e+003, 7.362136e-003
2.962125e+003, 7.302030e-003
2.964053e+003, 6.678913e-003
2.965982e+003, 6.730042e-003
2.967910e+003, 6.927832e-003
2.969839e+003, 6.524048e-003
2.971767e+003, 6.590284e-003
2.973696e+003, 6.615886e-003
2.975624e+003, 6.213493e-003
2.977552e+003, 6.123878e-003
2.979481e+003, 6.570940e-003
2.981409e+003, 6.910175e-003
2.983338e+003, 6.974406e-003
2.985266e+003, 6.811109e-003
2.987195e+003, 6.662230e-003
2.989123e+003, 6.790223e-003
2.991052e+003, 6.571020e-003
2.992980e+003, 6.148291e-003
2.994909e+003, 6.121793e-003
2.996837e+003, 5.908804e-003
2.998766e+003, 6.360280e-003
3.000694e+003, 6.292973e-003
3.002623e+003, 5.815112e-003
3.004551e+003, 5.725603e-003
3.006479e+003, 5.855785e-003
3.008408e+003, 5.987144e-003
3.010336e+003, 6.350996e-003
3.012265e+003, 6.304869e-003
3.014193e+003, 6.152101e-003
3.016122e+003, 6.129792e-003
3.018050e+003, 6.229496e-003
3.019979e+003, 5.948734e-003
3.021907e+003, 6.137649e-003
3.023836e+003, 6.760609e-003
3.025764e+003, 6.710253e-003
3.027693e+003, 6.183098e-003
3.029621e+003, 5.932556e-003
3.031550e+003, 6.126880e-003
3.033478e+003, 6.316233e-003
3.035406e+003, 6.305140e-003
3.037335e+003, 5.877074e-003
3.039263e+003, 5.888341e-003
3.041192e+003, 6.114603e-003
3.043120e+003, 6.269278e-003
3.045049e+003, 6.540532e-003
3.046977e+003, 6.252360e-003
3.048906e+003, 6.442021e-003
3.050834e+003, 6.778939e-003
3.052763e+003, 6.709875e-003
3.054691e+003, 6.375044e-003
3.056620e+003, 6.118226e-003
3.058548e+003, 5.923820e-003
3.060477e+003, 5.971200e-003
3.062405e+003, 6.730890e-003
3.064333e+003, 7.119324e-003
3.066262e+003, 6.965140e-003
3.068190e+003, 6.917865e-003
3.070119e+003, 6.517613e-003
3.072047e+003, 6.315351e-003
3.073976e+003, 6.562124e-003
3.075904e+003, 6.550624e-003
3.077833e+003, 6.473097e-003
3.079761e+003, 7.237119e-003
3.081690e+003, 7.614705e-003
3.083618e+003, 7.492731e-003
3.085547e+003, 7.605204e-003
3.087475e+003, 7.767734e-003
3.089404e+003, 7.348823e-003
3.091332e+003, 7.084498e-003
3.093260e+003, 7.036219e-003
3.095189e+003, 7.701008e-003
3.097117e+003, 7.515146e-003
3.099046e+003, 6.669099e-003
3.100974e+003, 6.802893e-003
3.102903e+003, 6.777199e-003
3.104831e+003, 7.041416e-003
3.106760e+003, 7.683920e-003
3.108688e+003, 7.978292e-003
3.110617e+003, 7.725997e-003
3.112545e+003, 7.183611e-003
3.114474e+003, 7.047242e-003
3.116402e+003, 7.134478e-003
3.118331e+003, 6.961050e-003
3.120259e+003, 6.551260e-003
3.122188e+003, 7.005005e-003
3.124116e+003, 7.411277e-003
3.126044e+003, 7.787944e-003
3.127973e+003, 8.312413e-003
3.129901e+003, 8.331561e-003
3.131830e+003, 7.839246e-003
3.133758e+003, 8.031803e-003
3.135687e+003, 8.108798e-003
3.137615e+003, 7.579334e-003
3.139544e+003, 7.939104e-003
3.141472e+003, 8.547943e-003
3.143401e+003, 8.981441e-003
3.145329e+003, 8.694046e-003
3.147258e+003, 8.130006e-003
3.149186e+003, 8.394541e-003
3.151115e+003, 8.317487e-003
3.153043e+003, 8.576583e-003
3.154971e+003, 8.768295e-003
3.156900e+003, 8.582227e-003
3.158828e+003, 8.386803e-003
3.160757e+003, 8.278069e-003
3.162685e+003, 8.278749e-003
3.164614e+003, 7.991578e-003
3.166542e+003, 8.089150e-003
3.168471e+003, 7.912102e-003
3.170399e+003, 7.361139e-003
3.172328e+003, 7.137441e-003
3.174256e+003, 7.910405e-003
3.176185e+003, 8.627348e-003
3.178113e+003, 8.436418e-003
3.180042e+003, 8.631884e-003
3.181970e+003, 8.521225e-003
3.183898e+003, 8.318618e-003
3.185827e+003, 8.259257e-003
3.187755e+003, 8.677154e-003
3.189684e+003, 9.102283e-003
3.191612e+003, 8.923493e-003
3.193541e+003, 8.635460e-003
3.195469e+003, 8.156193e-003
3.197398e+003, 8.435057e-003
3.199326e+003, 8.790058e-003
3.201255e+003, 8.766049e-003
3.203183e+003, 8.404996e-003
3.205112e+003, 8.090064e-003
3.207040e+003, 7.652035e-003
3.208969e+003, 7.955966e-003
3.210897e+003, 8.512896e-003
3.212825e+003, 8.742145e-003
3.214754e+003, 9.012758e-003
3.216682e+003, 8.732154e-003
3.218611e+003, 8.562005e-003
3.220539e+003, 8.540140e-003
3.222468e+003, 8.529521e-003
3.224396e+003, 8.067180e-003
3.226325e+003, 8.257865e-003
3.228253e+003, 8.761099e-003
3.230182e+003, 8.652238e-003
3.232110e+003, 7.927307e-003
3.234039e+003, 7.867106e-003
3.235967e+003, 8.353141e-003
3.237896e+003, 8.073498e-003
3.239824e+003, 7.957994e-003
3.241752e+003, 7.997777e-003
3.243681e+003, 8.151125e-003
3.245609e+003, 9.166945e-003
3.247538e+003, 8.977615e-003
3.249466e+003, 8.381887e-003
3.251395e+003, 8.690706e-003
3.253323e+003, 9.434391e-003
3.255252e+003, 9.223541e-003
3.257180e+003, 8.621211e-003
3.259109e+003, 8.592481e-003
3.261037e+003, 9.028808e-003
3.262966e+003, 9.314299e-003
3.264894e+003, 8.719127e-003
3.266823e+003, 8.444800e-003
3.268751e+003, 8.934869e-003
3.270679e+003, 8.913811e-003
3.272608e+003, 8.692177e-003
3.274536e+003, 8.767989e-003
3.276465e+003, 8.432783e-003
3.278393e+003, 7.993249e-003
3.280322e+003, 8.135409e-003
3.282250e+003, 8.212650e-003
3.284179e+003, 8.801103e-003
3.286107e+003, 8.953677e-003
3.288036e+003, 9.209409e-003
3.289964e+003, 9.333916e-003
3.291893e+003, 8.429055e-003
3.293821e+003, 7.909964e-003
3.295750e+003, 8.482886e-003
3.297678e+003, 8.782837e-003
3.299606e+003, 8.748865e-003
3.301535e+003, 8.334222e-003
3.303463e+003, 8.135607e-003
3.305392e+003, 8.340218e-003
3.307320e+003, 8.725460e-003
3.309249e+003, 9.076032e-003
3.311177e+003, 8.678465e-003
3.313106e+003, 8.327119e-003
3.315034e+003, 8.857989e-003
3.316963e+003, 8.670036e-003
3.318891e+003, 8.748699e-003
3.320820e+003, 9.180446e-003
3.322748e+003, 9.085895e-003
3.324677e+003, 8.342393e-003
3.326605e+003, 8.106960e-003
3.328533e+003, 8.639398e-003
3.330462e+003, 8.645356e-003
3.332390e+003, 8.845253e-003
3.334319e+003, 8.653708e-003
3.336247e+003, 8.654095e-003
3.338176e+003, 8.863019e-003
3.340104e+003, 9.011724e-003
3.342033e+003, 9.537318e-003
3.343961e+003, 9.758483e-003
3.345890e+003, 9.437092e-003
3.347818e+003, 8.881344e-003
3.349747e+003, 8.968592e-003
3.351675e+003, 9.231065e-003
3.353604e+003, 8.610918e-003
3.355532e+003, 7.838975e-003
3.357460e+003, 7.540035e-003
3.359389e+003, 7.854260e-003
3.361317e+003, 7.999927e-003
3.363246e+003, 8.979148e-003
3.365174e+003, 9.944660e-003
3.367103e+003, 9.199491e-003
3.369031e+003, 8.190377e-003
3.370960e+003, 8.043186e-003
3.372888e+003, 8.265294e-003
3.374817e+003, 7.803038e-003
3.376745e+003, 8.205447e-003
3.378674e+003, 8.104834e-003
3.380602e+003, 8.239609e-003
3.382531e+003, 8.416149e-003
3.384459e+003, 7.830931e-003
3.386387e+003, 7.539724e-003
3.388316e+003, 7.277574e-003
3.390244e+003, 7.229506e-003
3.392173e+003, 7.637187e-003
3.394101e+003, 8.559772e-003
3.396030e+003, 9.279363e-003
3.397958e+003, 8.931031e-003
3.399887e+003, 8.202519e-003
3.401815e+003, 8.204520e-003
3.403744e+003, 8.742440e-003
3.405672e+003, 8.648257e-003
3.407601e+003, 8.581664e-003
3.409529e+003, 9.016725e-003
3.411458e+003, 8.998127e-003
3.413386e+003, 8.320373e-003
3.415314e+003, 8.302610e-003
3.417243e+003, 7.493821e-003
3.419171e+003, 7.144165e-003
3.421100e+003, 7.926510e-003
3.423028e+003, 7.799699e-003
3.424957e+003, 7.675476e-003
3.426885e+003, 7.840117e-003
3.428814e+003, 8.167041e-003
3.430742e+003, 7.625453e-003
3.432671e+003, 6.777461e-003
3.434599e+003, 6.799159e-003
3.436528e+003, 6.991677e-003
3.438456e+003, 7.403312e-003
3.440385e+003, 7.602067e-003
3.442313e+003, 7.975460e-003
3.444241e+003, 8.224149e-003
3.446170e+003, 7.990161e-003
3.448098e+003, 7.587573e-003
3.450027e+003, 7.508708e-003
3.451955e+003, 7.362387e-003
3.453884e+003, 7.406706e-003
3.455812e+003, 7.104171e-003
3.457741e+003, 7.232862e-003
3.459669e+003, 7.395813e-003
3.461598e+003, 7.261573e-003
3.463526e+003, 7.350218e-003
3.465455e+003, 7.118886e-003
3.467383e+003, 7.025615e-003
3.469312e+003, 6.815842e-003
3.471240e+003, 6.695276e-003
3.473168e+003, 6.332230e-003
3.475097e+003, 6.779758e-003
3.477025e+003, 7.392191e-003
3.478954e+003, 7.383724e-003
3.480882e+003, 6.697178e-003
3.482811e+003, 6.450141e-003
3.484739e+003, 6.600937e-003
3.486668e+003, 6.969272e-003
3.488596e+003, 7.288374e-003
3.490525e+003, 6.987919e-003
3.492453e+003, 5.931302e-003
3.494382e+003, 4.916782e-003
3.496310e+003, 5.541356e-003
3.498239e+003, 6.223434e-003
3.500167e+003, 5.882756e-003
3.502095e+003, 5.382688e-003
3.504024e+003, 5.703252e-003
3.505952e+003, 5.479332e-003
3.507881e+003, 5.363793e-003
3.509809e+003, 5.395524e-003
3.511738e+003, 5.399833e-003
3.513666e+003, 6.116300e-003
3.515595e+003, 6.735472e-003
3.517523e+003, 5.892997e-003
3.519452e+003, 5.301613e-003
3.521380e+003, 5.414430e-003
3.523309e+003, 5.374813e-003
3.525237e+003, 5.400334e-003
3.527166e+003, 5.186645e-003
3.529094e+003, 5.448622e-003
3.531022e+003, 5.877935e-003
3.532951e+003, 5.061456e-003
3.534879e+003, 4.606780e-003
3.536808e+003, 4.983760e-003
3.538736e+003, 5.089953e-003
3.540665e+003, 5.149183e-003
3.542593e+003, 6.226383e-003
3.544522e+003, 5.844304e-003
3.546450e+003, 5.002175e-003
3.548379e+003, 4.972664e-003
3.550307e+003, 5.619092e-003
3.552236e+003, 5.360354e-003
3.554164e+003, 4.380940e-003
3.556093e+003, 3.861909e-003
3.558021e+003, 4.065833e-003
3.559949e+003, 4.430029e-003
3.561878e+003, 4.454163e-003
3.563806e+003, 4.263741e-003
3.565735e+003, 4.849227e-003
3.567663e+003, 5.397606e-003
3.569592e+003, 5.589189e-003
3.571520e+003, 5.318320e-003
3.573449e+003, 4.772239e-003
3.575377e+003, 4.479035e-003
3.577306e+003, 4.221804e-003
3.579234e+003, 3.726221e-003
3.581163e+003, 3.309452e-003
3.583091e+003, 3.295832e-003
3.585020e+003, 3.656616e-003
3.586948e+003, 3.623624e-003
3.588876e+003, 3.382166e-003
3.590805e+003, 2.869162e-003
3.592733e+003, 2.979427e-003
3.594662e+003, 3.037058e-003
3.596590e+003, 3.227785e-003
3.598519e+003, 3.722886e-003
3.600447e+003, 3.788803e-003
3.602376e+003, 3.660618e-003
3.604304e+003, 3.811200e-003
3.606233e+003, 2.702890e-003
3.608161e+003, 3.380934e-003
3.610090e+003, 3.959753e-003
3.612018e+003, 2.602311e-003
3.613947e+003, 2.226357e-003
3.615875e+003, 2.544512e-003
3.617803e+003, 3.275134e-003
3.619732e+003, 4.026244e-003
3.621660e+003, 3.077487e-003
3.623589e+003, 2.375036e-003
3.625517e+003, 2.798953e-003
3.627446e+003, 2.626173e-003
3.629374e+003, 1.090681e-003
3.631303e+003, 1.501954e-004
3.633231e+003, 5.821406e-004
3.635160e+003, 3.640832e-004
3.637088e+003, -2.420697e-004
3.639017e+003, 5.332356e-004
3.640945e+003, 3.984314e-004
3.642874e+003, 3.926847e-004
3.644802e+003, 2.186687e-003
3.646730e+003, 3.001948e-003
3.648659e+003, 2.821943e-003
3.650587e+003, 2.496383e-003
3.652516e+003, 1.505375e-003
3.654444e+003, 1.843569e-003
3.656373e+003, 2.250263e-003
3.658301e+003, 1.837410e-003
3.660230e+003, 1.537496e-003
3.662158e+003, 1.828804e-003
3.664087e+003, 2.422116e-003
3.666015e+003, 2.939848e-003
3.667944e+003, 4.318143e-003
3.669872e+003, 9.882668e-003
3.671801e+003, 2.584670e-002
3.673729e+003, 3.987635e-002
3.675657e+003, 2.375339e-002
3.677586e+003, 4.028736e-003
3.679514e+003, -6.331204e-004
3.681443e+003, -6.549658e-004
3.683371e+003, -1.121782e-003
3.685300e+003, -4.993852e-004
3.687228e+003, 1.286026e-003
3.689157e+003, 8.405605e-004
3.691085e+003, -8.557984e-004
3.693014e+003, -1.328772e-003
3.694942e+003, -9.621367e-004
3.696871e+003, -1.587617e-003
3.698799e+003, -1.973858e-003
3.700728e+003, -1.283453e-003
3.702656e+003, -1.322298e-003
3.704584e+003, -1.180386e-003
3.706513e+003, -1.153687e-003
3.708441e+003, -9.993665e-004
3.710370e+003, -2.606264e-004
3.712298e+003, -2.219528e-004
3.714227e+003, -9.834737e-004
3.716155e+003, -8.694707e-004
3.718084e+003, -1.505540e-003
3.720012e+003, -1.837948e-003
3.721941e+003, -1.081834e-003
3.723869e+003, -7.553929e-004
3.725798e+003, -6.735338e-004
3.727726e+003, -1.012664e-003
3.729655e+003, -2.225794e-003
3.731583e+003, -1.430159e-003
3.733511e+003, -1.222805e-003
3.735440e+003, -8.269278e-004
3.737368e+003, -1.032371e-003
3.739297e+003, -6.746189e-004
3.741225e+003, -2.529484e-004
3.743154e+003, -1.285294e-004
3.745082e+003, -1.537542e-005
3.747011e+003, -6.221957e-004
3.748939e+003, 6.744128e-005
3.750868e+003, 7.884475e-005
3.752796e+003, -3.897847e-004
3.754725e+003, -7.594089e-004
3.756653e+003, -1.419381e-003
3.758582e+003, -1.307937e-003
3.760510e+003, -1.486870e-004
3.762438e+003, 1.991133e-004
3.764367e+003, -1.446000e-004
3.766295e+003, -9.584844e-004
3.768224e+003, -8.196502e-004
3.770152e+003, -1.477805e-004
3.772081e+003, -8.354896e-004
3.774009e+003, -1.698644e-003
3.775938e+003, -1.843294e-003
3.777866e+003, -8.292073e-004
3.779795e+003, -1.258177e-004
3.781723e+003, -7.048158e-004
3.783652e+003, -1.002210e-003
3.785580e+003, -1.793808e-003
3.787509e+003, -2.685965e-003
3.789437e+003, -2.336114e-003
3.791365e+003, -3.202067e-003
3.793294e+003, -4.847860e-003
3.795222e+003, -3.650809e-003
3.797151e+003, -2.652415e-003
3.799079e+003, -2.941590e-003
3.801008e+003, -1.206586e-003
3.802936e+003, -1.145805e-003
3.804865e+003, -1.993075e-003
3.806793e+003, -1.766235e-003
3.808722e+003, -2.628848e-003
3.810650e+003, -2.754158e-003
3.812579e+003, -2.296482e-003
3.814507e+003, -1.237551e-003
3.816436e+003, -3.695387e-004
3.818364e+003, -1.789118e-003
3.820292e+003, -1.596614e-003
3.822221e+003, -5.290202e-004
3.824149e+003, -8.153418e-004
3.826078e+003, -1.843613e-003
3.828006e+003, -2.824561e-003
3.829935e+003, -2.156875e-003
3.831863e+003, -1.556362e-003
3.833792e+003, -1.559363e-003
3.835720e+003, -1.486803e-003
3.837649e+003, -1.008336e-003
3.839577e+003, -1.803090e-003
3.841506e+003, -2.090110e-003
3.843434e+003, -2.523718e-003
3.845363e+003, -2.011887e-003
3.847291e+003, -1.264245e-003
3.849219e+003, -1.531896e-003
3.851148e+003, -7.580462e-004
3.853076e+003, 7.614152e-004
3.855005e+003, -2.762287e-004
3.856933e+003, -1.196516e-003
3.858862e+003, -6.340006e-004
3.860790e+003, -1.078666e-003
3.862719e+003, -2.313332e-003
3.864647e+003, -2.688021e-003
3.866576e+003, -1.975002e-003
3.868504e+003, -1.448992e-003
3.870433e+003, -1.770056e-003
3.872361e+003, -2.802201e-003
3.874290e+003, -3.054934e-003
3.876218e+003, -3.296727e-003
3.878146e+003, -2.586624e-003
3.880075e+003, -1.719461e-003
3.882003e+003, -2.960020e-003
3.883932e+003, -3.187739e-003
3.885860e+003, -2.704287e-003
3.887789e+003, -2.553383e-003
3.889717e+003, -2.138845e-003
3.891646e+003, -2.312901e-003
3.893574e+003, -3.036428e-003
3.895503e+003, -4.083857e-003
3.897431e+003, -3.956439e-003
3.899360e+003, -2.727772e-003
3.901288e+003, -2.720508e-003
3.903217e+003, -3.339882e-003
3.905145e+003, -3.153800e-003
3.907073e+003, -3.035731e-003
3.909002e+003, -3.563274e-003
3.910930e+003, -4.296564e-003
3.912859e+003, -3.531417e-003
3.914787e+003, -2.030455e-003
3.916716e+003, -8.982077e-004
3.918644e+003, -1.637705e-003
3.920573e+003, -2.750524e-003
3.922501e+003, -2.676787e-003
3.924430e+003, -2.018084e-003
3.926358e+003, -1.258910e-003
3.928287e+003, -1.511474e-003
3.930215e+003, -2.671646e-003
3.932144e+003, -2.314185e-003
3.934072e+003, -1.916831e-003
3.936000e+003, -2.931404e-003
3.937929e+003, -2.714673e-003
3.939857e+003, -2.493801e-003
3.941786e+003, -3.307881e-003
3.943714e+003, -3.829953e-003
3.945643e+003, -3.858343e-003
3.947571e+003, -3.166343e-003
3.949500e+003, -1.909045e-003
3.951428e+003, -2.962203e-003
3.953357e+003, -4.128546e-003
3.955285e+003, -4.223538e-003
3.957214e+003, -3.263475e-003
3.959142e+003, -2.640415e-003
3.961071e+003, -3.067177e-003
3.962999e+003, -2.927659e-003
3.964927e+003, -2.807653e-003
3.966856e+003, -2.191788e-003
3.968784e+003, -1.330698e-003
3.970713e+003, -1.730198e-003
3.972641e+003, -2.711106e-003
3.974570e+003, -3.388160e-003
3.976498e+003, -3.581815e-003
3.978427e+003, -3.310057e-003
3.980355e+003, -3.150037e-003
3.982284e+003, -3.273540e-003
3.984212e+003, -2.528531e-003
3.986141e+003, -2.701214e-003
3.988069e+003, -3.711296e-003
3.989998e+003, -3.551241e-003
3.991926e+003, -4.273674e-003
3.993854e+003, -4.301904e-003
3.995783e+003, -3.165835e-003
3.997711e+003, -2.740263e-003
3.999640e+003, -3.527651e-003
##END=



