##NAMES=Tremolite
##RRUFFID=R050210
##IDEAL CHEMISTRY=[box]Ca_2_Mg_5_Si_8_O_22_(OH)_2_
##LOCALITY=Sugar Lake, Cherryville, British Columbia, Canada
##OWNER=RRUFF
##SOURCE=Lloyd Twaites
##DESCRIPTION=Green bladed crystal fragment
##STATUS=The identification of this mineral has been confirmed by X-ray diffraction and chemical analysis
##URL=rruff.info/R050210
##MEASURED CHEMISTRY=(Na_0.34_K_0.06_)(Ca_1.96_Mg_0.01_)Mg_4.94_(Si_7.50_Al_0.46_)O_22_(OH)_2_
3.741225e+002, 1.282654e-001
3.760510e+002, 1.313072e-001
3.779795e+002, 1.164647e-001
3.799079e+002, 1.078393e-001
3.818364e+002, 1.155179e-001
3.837649e+002, 1.235960e-001
3.856933e+002, 1.310458e-001
3.876218e+002, 1.321666e-001
3.895503e+002, 1.336275e-001
3.914787e+002, 1.375154e-001
3.934072e+002, 1.422343e-001
3.953357e+002, 1.425443e-001
3.972641e+002, 1.411833e-001
3.991926e+002, 1.394353e-001
4.011211e+002, 1.365401e-001
4.030495e+002, 1.351079e-001
4.049780e+002, 1.344996e-001
4.069065e+002, 1.328020e-001
4.088349e+002, 1.345750e-001
4.107634e+002, 1.357791e-001
4.126919e+002, 1.396809e-001
4.146203e+002, 1.417040e-001
4.165488e+002, 1.396944e-001
4.184773e+002, 1.371535e-001
4.204057e+002, 1.346076e-001
4.223342e+002, 1.306221e-001
4.242627e+002, 1.296456e-001
4.261911e+002, 1.320908e-001
4.281196e+002, 1.356810e-001
4.300481e+002, 1.407824e-001
4.319765e+002, 1.470736e-001
4.339050e+002, 1.563500e-001
4.358335e+002, 1.653145e-001
4.377619e+002, 1.729836e-001
4.396904e+002, 1.787957e-001
4.416189e+002, 1.820987e-001
4.435473e+002, 1.847735e-001
4.454758e+002, 1.854464e-001
4.474043e+002, 1.843718e-001
4.493327e+002, 1.826096e-001
4.512612e+002, 1.823713e-001
4.531897e+002, 1.805869e-001
4.551181e+002, 1.787734e-001
4.570466e+002, 1.776084e-001
4.589751e+002, 1.753471e-001
4.609035e+002, 1.729268e-001
4.628320e+002, 1.717501e-001
4.647605e+002, 1.701307e-001
4.666889e+002, 1.672707e-001
4.686174e+002, 1.632273e-001
4.705459e+002, 1.587155e-001
4.724743e+002, 1.554578e-001
4.744028e+002, 1.520910e-001
4.763313e+002, 1.476230e-001
4.782597e+002, 1.430619e-001
4.801882e+002, 1.379341e-001
4.821167e+002, 1.326541e-001
4.840451e+002, 1.276726e-001
4.859736e+002, 1.239537e-001
4.879021e+002, 1.211447e-001
4.898305e+002, 1.198096e-001
4.917590e+002, 1.199239e-001
4.936875e+002, 1.209337e-001
4.956159e+002, 1.221902e-001
4.975444e+002, 1.249582e-001
4.994729e+002, 1.282413e-001
5.014013e+002, 1.316600e-001
5.033298e+002, 1.346825e-001
5.052583e+002, 1.372280e-001
5.071867e+002, 1.389050e-001
5.091152e+002, 1.367943e-001
5.110437e+002, 1.322560e-001
5.129721e+002, 1.268758e-001
5.149006e+002, 1.209194e-001
5.168290e+002, 1.147663e-001
5.187575e+002, 1.104332e-001
5.206860e+002, 1.069579e-001
5.226144e+002, 1.035830e-001
5.245429e+002, 1.014138e-001
5.264714e+002, 9.996517e-002
5.283998e+002, 9.894827e-002
5.303283e+002, 9.792317e-002
5.322568e+002, 9.592629e-002
5.341852e+002, 9.401801e-002
5.361137e+002, 9.221874e-002
5.380422e+002, 8.970482e-002
5.399706e+002, 8.655015e-002
5.418991e+002, 8.301523e-002
5.438276e+002, 7.830339e-002
5.457560e+002, 7.271359e-002
5.476845e+002, 6.727486e-002
5.496130e+002, 6.189791e-002
5.515414e+002, 5.700633e-002
5.534699e+002, 5.326562e-002
5.553984e+002, 4.958138e-002
5.573268e+002, 4.622832e-002
5.592553e+002, 4.337532e-002
5.611838e+002, 4.049387e-002
5.631122e+002, 3.766371e-002
5.650407e+002, 3.493816e-002
5.669692e+002, 3.232438e-002
5.688976e+002, 2.975900e-002
5.708261e+002, 2.739069e-002
5.727546e+002, 2.509883e-002
5.746830e+002, 2.319902e-002
5.766115e+002, 2.092693e-002
5.785400e+002, 1.909798e-002
5.804684e+002, 1.792928e-002
5.823969e+002, 1.692508e-002
5.843254e+002, 1.610066e-002
5.862538e+002, 1.580531e-002
5.881823e+002, 1.499667e-002
5.901108e+002, 1.434863e-002
5.920392e+002, 1.401291e-002
5.939677e+002, 1.371371e-002
5.958962e+002, 1.361798e-002
5.978246e+002, 1.361331e-002
5.997531e+002, 1.386931e-002
6.016816e+002, 1.406726e-002
6.036100e+002, 1.426226e-002
6.055385e+002, 1.495539e-002
6.074670e+002, 1.557902e-002
6.093954e+002, 1.592322e-002
6.113239e+002, 1.658841e-002
6.132524e+002, 1.713608e-002
6.151808e+002, 1.791581e-002
6.171093e+002, 1.903059e-002
6.190378e+002, 2.025152e-002
6.209662e+002, 2.144126e-002
6.228947e+002, 2.274074e-002
6.248232e+002, 2.433608e-002
6.267516e+002, 2.606366e-002
6.286801e+002, 2.776702e-002
6.306086e+002, 2.968629e-002
6.325370e+002, 3.127067e-002
6.344655e+002, 3.229789e-002
6.363940e+002, 3.298210e-002
6.383224e+002, 3.329972e-002
6.402509e+002, 3.333282e-002
6.421794e+002, 3.313201e-002
6.441078e+002, 3.305743e-002
6.460363e+002, 3.281411e-002
6.479648e+002, 3.223905e-002
6.498932e+002, 3.143324e-002
6.518217e+002, 3.141618e-002
6.537502e+002, 3.240836e-002
6.556786e+002, 3.393834e-002
6.576071e+002, 3.586064e-002
6.595356e+002, 3.816196e-002
6.614641e+002, 4.043264e-002
6.633925e+002, 4.218387e-002
6.653210e+002, 4.337640e-002
6.672495e+002, 4.395837e-002
6.691779e+002, 4.398131e-002
6.711064e+002, 4.343475e-002
6.730349e+002, 4.253447e-002
6.749633e+002, 4.128512e-002
6.768918e+002, 4.040960e-002
6.788203e+002, 4.062104e-002
6.807487e+002, 4.167558e-002
6.826772e+002, 4.255452e-002
6.846057e+002, 4.286385e-002
6.865341e+002, 4.219267e-002
6.884626e+002, 4.034007e-002
6.903911e+002, 3.773391e-002
6.923195e+002, 3.478719e-002
6.942480e+002, 3.189663e-002
6.961765e+002, 2.950455e-002
6.981049e+002, 2.765166e-002
7.000334e+002, 2.677158e-002
7.019619e+002, 2.627652e-002
7.038903e+002, 2.624446e-002
7.058188e+002, 2.653144e-002
7.077473e+002, 2.767561e-002
7.096757e+002, 3.076339e-002
7.116042e+002, 3.493189e-002
7.135327e+002, 3.515654e-002
7.154611e+002, 3.103255e-002
7.173896e+002, 2.739941e-002
7.193181e+002, 2.578754e-002
7.212465e+002, 2.574659e-002
7.231750e+002, 2.636232e-002
7.251035e+002, 2.695407e-002
7.270319e+002, 2.713016e-002
7.289604e+002, 2.744735e-002
7.308889e+002, 2.800083e-002
7.328173e+002, 2.899517e-002
7.347458e+002, 3.058296e-002
7.366743e+002, 3.269014e-002
7.386027e+002, 3.482675e-002
7.405312e+002, 3.685274e-002
7.424597e+002, 3.894653e-002
7.443881e+002, 4.157596e-002
7.463166e+002, 4.489385e-002
7.482451e+002, 4.838328e-002
7.501735e+002, 5.167516e-002
7.521020e+002, 5.458056e-002
7.540305e+002, 5.708533e-002
7.559589e+002, 5.878709e-002
7.578874e+002, 5.813131e-002
7.598159e+002, 5.517779e-002
7.617443e+002, 5.063734e-002
7.636728e+002, 4.547757e-002
7.656013e+002, 4.084945e-002
7.675297e+002, 3.731786e-002
7.694582e+002, 3.472650e-002
7.713867e+002, 3.307419e-002
7.733151e+002, 3.197845e-002
7.752436e+002, 3.163059e-002
7.771721e+002, 3.185115e-002
7.791005e+002, 3.228524e-002
7.810290e+002, 3.258683e-002
7.829575e+002, 3.296567e-002
7.848859e+002, 3.330312e-002
7.868144e+002, 3.377848e-002
7.887429e+002, 3.458875e-002
7.906713e+002, 3.579124e-002
7.925998e+002, 3.687244e-002
7.945283e+002, 3.777652e-002
7.964567e+002, 3.887285e-002
7.983852e+002, 3.998496e-002
8.003137e+002, 4.089483e-002
8.022421e+002, 4.155730e-002
8.041706e+002, 4.243638e-002
8.060991e+002, 4.346328e-002
8.080275e+002, 4.450764e-002
8.099560e+002, 4.582855e-002
8.118845e+002, 4.717113e-002
8.138129e+002, 4.841726e-002
8.157414e+002, 4.966196e-002
8.176699e+002, 5.102644e-002
8.195983e+002, 5.248738e-002
8.215268e+002, 5.411946e-002
8.234553e+002, 5.589245e-002
8.253837e+002, 5.787183e-002
8.273122e+002, 6.014452e-002
8.292407e+002, 6.250656e-002
8.311691e+002, 6.497113e-002
8.330976e+002, 6.737917e-002
8.350261e+002, 7.032359e-002
8.369545e+002, 7.349658e-002
8.388830e+002, 7.686435e-002
8.408115e+002, 8.045238e-002
8.427399e+002, 8.430093e-002
8.446684e+002, 8.858927e-002
8.465969e+002, 9.339917e-002
8.485253e+002, 9.677263e-002
8.504538e+002, 9.870742e-002
8.523823e+002, 1.014445e-001
8.543107e+002, 1.048808e-001
8.562392e+002, 1.084252e-001
8.581677e+002, 1.122218e-001
8.600961e+002, 1.163318e-001
8.620246e+002, 1.211001e-001
8.639531e+002, 1.269507e-001
8.658815e+002, 1.340209e-001
8.678100e+002, 1.432679e-001
8.697385e+002, 1.550822e-001
8.716669e+002, 1.668869e-001
8.735954e+002, 1.740572e-001
8.755239e+002, 1.750318e-001
8.774523e+002, 1.705283e-001
8.793808e+002, 1.620458e-001
8.813093e+002, 1.532135e-001
8.832377e+002, 1.460559e-001
8.851662e+002, 1.392931e-001
8.870947e+002, 1.349147e-001
8.890231e+002, 1.350434e-001
8.909516e+002, 1.373638e-001
8.928801e+002, 1.398248e-001
8.948085e+002, 1.427237e-001
8.967370e+002, 1.460267e-001
8.986655e+002, 1.497313e-001
9.005939e+002, 1.539469e-001
9.025224e+002, 1.585088e-001
9.044509e+002, 1.633059e-001
9.063793e+002, 1.681064e-001
9.083078e+002, 1.732440e-001
9.102363e+002, 1.786057e-001
9.121647e+002, 1.831406e-001
9.140932e+002, 1.867157e-001
9.160217e+002, 1.890953e-001
9.179501e+002, 1.891339e-001
9.198786e+002, 1.867089e-001
9.218071e+002, 1.824414e-001
9.237355e+002, 1.768872e-001
9.256640e+002, 1.704761e-001
9.275925e+002, 1.641110e-001
9.295209e+002, 1.586413e-001
9.314494e+002, 1.548756e-001
9.333779e+002, 1.535667e-001
9.353063e+002, 1.550440e-001
9.372348e+002, 1.587433e-001
9.391633e+002, 1.637511e-001
9.410917e+002, 1.699044e-001
9.430202e+002, 1.764726e-001
9.449487e+002, 1.826887e-001
9.468771e+002, 1.878758e-001
9.488056e+002, 1.912715e-001
9.507341e+002, 1.930515e-001
9.526625e+002, 1.937772e-001
9.545910e+002, 1.937417e-001
9.565195e+002, 1.931552e-001
9.584479e+002, 1.919974e-001
9.603764e+002, 1.905780e-001
9.623049e+002, 1.889380e-001
9.642333e+002, 1.871649e-001
9.661618e+002, 1.853695e-001
9.680903e+002, 1.834495e-001
9.700187e+002, 1.814190e-001
9.719472e+002, 1.794317e-001
9.738757e+002, 1.772334e-001
9.758041e+002, 1.751276e-001
9.777326e+002, 1.730996e-001
9.796611e+002, 1.713781e-001
9.815895e+002, 1.697952e-001
9.835180e+002, 1.683790e-001
9.854465e+002, 1.672141e-001
9.873749e+002, 1.657556e-001
9.893034e+002, 1.640590e-001
9.912319e+002, 1.617979e-001
9.931603e+002, 1.588713e-001
9.950888e+002, 1.553749e-001
9.970173e+002, 1.512946e-001
9.989457e+002, 1.466984e-001
1.000874e+003, 1.415874e-001
1.002803e+003, 1.362514e-001
1.004731e+003, 1.309035e-001
1.006660e+003, 1.257183e-001
1.008588e+003, 1.208871e-001
1.010517e+003, 1.162406e-001
1.012445e+003, 1.118722e-001
1.014373e+003, 1.077978e-001
1.016302e+003, 1.038373e-001
1.018230e+003, 1.000095e-001
1.020159e+003, 9.656509e-002
1.022087e+003, 9.342892e-002
1.024016e+003, 9.084492e-002
1.025944e+003, 8.900426e-002
1.027873e+003, 8.809478e-002
1.029801e+003, 8.791773e-002
1.031730e+003, 8.874940e-002
1.033658e+003, 9.110352e-002
1.035587e+003, 9.452648e-002
1.037515e+003, 9.785347e-002
1.039443e+003, 9.969649e-002
1.041372e+003, 1.000199e-001
1.043300e+003, 1.002543e-001
1.045229e+003, 1.011133e-001
1.047157e+003, 1.025418e-001
1.049086e+003, 1.042468e-001
1.051014e+003, 1.059619e-001
1.052943e+003, 1.077320e-001
1.054871e+003, 1.092990e-001
1.056800e+003, 1.103323e-001
1.058728e+003, 1.110809e-001
1.060657e+003, 1.117204e-001
1.062585e+003, 1.121032e-001
1.064514e+003, 1.119126e-001
1.066442e+003, 1.113661e-001
1.068370e+003, 1.103373e-001
1.070299e+003, 1.090224e-001
1.072227e+003, 1.074603e-001
1.074156e+003, 1.050386e-001
1.076084e+003, 1.021399e-001
1.078013e+003, 9.954997e-002
1.079941e+003, 9.699331e-002
1.081870e+003, 9.435465e-002
1.083798e+003, 9.190854e-002
1.085727e+003, 8.976568e-002
1.087655e+003, 8.767913e-002
1.089584e+003, 8.583537e-002
1.091512e+003, 8.433954e-002
1.093441e+003, 8.295338e-002
1.095369e+003, 8.153027e-002
1.097297e+003, 7.999281e-002
1.099226e+003, 7.829323e-002
1.101154e+003, 7.670885e-002
1.103083e+003, 7.512245e-002
1.105011e+003, 7.331658e-002
1.106940e+003, 7.114997e-002
1.108868e+003, 6.901035e-002
1.110797e+003, 6.691084e-002
1.112725e+003, 6.447398e-002
1.114654e+003, 6.185767e-002
1.116582e+003, 5.899160e-002
1.118511e+003, 5.585730e-002
1.120439e+003, 5.255378e-002
1.122368e+003, 4.916364e-002
1.124296e+003, 4.613180e-002
1.126224e+003, 4.363483e-002
1.128153e+003, 4.126791e-002
1.130081e+003, 3.870234e-002
1.132010e+003, 3.599903e-002
1.133938e+003, 3.338101e-002
1.135867e+003, 3.083748e-002
1.137795e+003, 2.836973e-002
1.139724e+003, 2.616561e-002
1.141652e+003, 2.402899e-002
1.143581e+003, 2.200616e-002
1.145509e+003, 2.028540e-002
1.147438e+003, 1.881600e-002
1.149366e+003, 1.734457e-002
1.151295e+003, 1.604401e-002
1.153223e+003, 1.500162e-002
1.155151e+003, 1.412678e-002
1.157080e+003, 1.358371e-002
1.159008e+003, 1.324466e-002
1.160937e+003, 1.297231e-002
1.162865e+003, 1.268288e-002
1.164794e+003, 1.231822e-002
1.166722e+003, 1.193683e-002
1.168651e+003, 1.172843e-002
1.170579e+003, 1.162689e-002
1.172508e+003, 1.142391e-002
1.174436e+003, 1.117182e-002
1.176365e+003, 1.101398e-002
1.178293e+003, 1.099087e-002
1.180222e+003, 1.092156e-002
1.182150e+003, 1.073276e-002
1.184078e+003, 1.075358e-002
1.186007e+003, 1.067050e-002
1.187935e+003, 1.055254e-002
1.189864e+003, 1.053719e-002
1.191792e+003, 1.052844e-002
1.193721e+003, 1.042928e-002
1.195649e+003, 1.029034e-002
1.197578e+003, 1.026059e-002
1.199506e+003, 1.035507e-002
1.201435e+003, 1.038869e-002
1.203363e+003, 1.029113e-002
1.205292e+003, 1.031088e-002
1.207220e+003, 1.041003e-002
1.209149e+003, 1.033942e-002
1.211077e+003, 1.037519e-002
1.213005e+003, 1.042090e-002
1.214934e+003, 1.039864e-002
1.216862e+003, 1.040087e-002
1.218791e+003, 1.047263e-002
1.220719e+003, 1.049767e-002
1.222648e+003, 1.049471e-002
1.224576e+003, 1.054409e-002
1.226505e+003, 1.068423e-002
1.228433e+003, 1.074755e-002
1.230362e+003, 1.084895e-002
1.232290e+003, 1.102931e-002
1.234219e+003, 1.119837e-002
1.236147e+003, 1.122742e-002
1.238076e+003, 1.129254e-002
1.240004e+003, 1.134082e-002
1.241932e+003, 1.148521e-002
1.243861e+003, 1.161299e-002
1.245789e+003, 1.168524e-002
1.247718e+003, 1.176506e-002
1.249646e+003, 1.187419e-002
1.251575e+003, 1.196819e-002
1.253503e+003, 1.210375e-002
1.255432e+003, 1.214502e-002
1.257360e+003, 1.236103e-002
1.259289e+003, 1.265470e-002
1.261217e+003, 1.285096e-002
1.263146e+003, 1.300499e-002
1.265074e+003, 1.315609e-002
1.267003e+003, 1.328040e-002
1.268931e+003, 1.349474e-002
1.270859e+003, 1.381765e-002
1.272788e+003, 1.413412e-002
1.274716e+003, 1.452882e-002
1.276645e+003, 1.483158e-002
1.278573e+003, 1.503394e-002
1.280502e+003, 1.537667e-002
1.282430e+003, 1.571409e-002
1.284359e+003, 1.600801e-002
1.286287e+003, 1.628124e-002
1.288216e+003, 1.658192e-002
1.290144e+003, 1.701125e-002
1.292073e+003, 1.742768e-002
1.294001e+003, 1.769551e-002
1.295930e+003, 1.798752e-002
1.297858e+003, 1.846685e-002
1.299786e+003, 1.883262e-002
1.301715e+003, 1.913208e-002
1.303643e+003, 1.945886e-002
1.305572e+003, 1.991582e-002
1.307500e+003, 2.042929e-002
1.309429e+003, 2.088285e-002
1.311357e+003, 2.115362e-002
1.313286e+003, 2.157086e-002
1.315214e+003, 2.207020e-002
1.317143e+003, 2.254870e-002
1.319071e+003, 2.316516e-002
1.321000e+003, 2.363678e-002
1.322928e+003, 2.413036e-002
1.324857e+003, 2.474390e-002
1.326785e+003, 2.537991e-002
1.328714e+003, 2.599819e-002
1.330642e+003, 2.664939e-002
1.332570e+003, 2.739549e-002
1.334499e+003, 2.821168e-002
1.336427e+003, 2.894240e-002
1.338356e+003, 2.966542e-002
1.340284e+003, 3.040947e-002
1.342213e+003, 3.131792e-002
1.344141e+003, 3.228251e-002
1.346070e+003, 3.318668e-002
1.347998e+003, 3.413964e-002
1.349927e+003, 3.512343e-002
1.351855e+003, 3.620107e-002
1.353784e+003, 3.756108e-002
1.355712e+003, 3.885815e-002
1.357641e+003, 4.005265e-002
1.359569e+003, 4.154312e-002
1.361497e+003, 4.304945e-002
1.363426e+003, 4.446832e-002
1.365354e+003, 4.613140e-002
1.367283e+003, 4.791182e-002
1.369211e+003, 4.978260e-002
1.371140e+003, 5.166285e-002
1.373068e+003, 5.361922e-002
1.374997e+003, 5.575084e-002
1.376925e+003, 5.785519e-002
1.378854e+003, 6.016655e-002
1.380782e+003, 6.268790e-002
1.382711e+003, 6.525642e-002
1.384639e+003, 6.792177e-002
1.386568e+003, 7.088986e-002
1.388496e+003, 7.411800e-002
1.390424e+003, 7.746664e-002
1.392353e+003, 8.080985e-002
1.394281e+003, 8.390411e-002
1.396210e+003, 8.671258e-002
1.398138e+003, 8.906084e-002
1.400067e+003, 9.094290e-002
1.401995e+003, 9.278202e-002
1.403924e+003, 9.497885e-002
1.405852e+003, 9.727909e-002
1.407781e+003, 9.942778e-002
1.409709e+003, 1.014023e-001
1.411638e+003, 1.029648e-001
1.413566e+003, 1.040705e-001
1.415495e+003, 1.048014e-001
1.417423e+003, 1.052609e-001
1.419351e+003, 1.054931e-001
1.421280e+003, 1.054835e-001
1.423208e+003, 1.053043e-001
1.425137e+003, 1.050366e-001
1.427065e+003, 1.047712e-001
1.428994e+003, 1.043566e-001
1.430922e+003, 1.037228e-001
1.432851e+003, 1.030169e-001
1.434779e+003, 1.022635e-001
1.436708e+003, 1.014272e-001
1.438636e+003, 1.003483e-001
1.440565e+003, 9.931716e-002
1.442493e+003, 9.846451e-002
1.444422e+003, 9.751724e-002
1.446350e+003, 9.641947e-002
1.448278e+003, 9.527561e-002
1.450207e+003, 9.395959e-002
1.452135e+003, 9.241389e-002
1.454064e+003, 9.085788e-002
1.455992e+003, 8.932699e-002
1.457921e+003, 8.771740e-002
1.459849e+003, 8.605888e-002
1.461778e+003, 8.430599e-002
1.463706e+003, 8.244966e-002
1.465635e+003, 8.065552e-002
1.467563e+003, 7.885534e-002
1.469492e+003, 7.718330e-002
1.471420e+003, 7.556590e-002
1.473349e+003, 7.388303e-002
1.475277e+003, 7.211687e-002
1.477205e+003, 7.030989e-002
1.479134e+003, 6.855070e-002
1.481062e+003, 6.680038e-002
1.482991e+003, 6.492431e-002
1.484919e+003, 6.316088e-002
1.486848e+003, 6.154758e-002
1.488776e+003, 5.980480e-002
1.490705e+003, 5.786223e-002
1.492633e+003, 5.578522e-002
1.494562e+003, 5.398228e-002
1.496490e+003, 5.239969e-002
1.498419e+003, 5.062763e-002
1.500347e+003, 4.864211e-002
1.502276e+003, 4.669359e-002
1.504204e+003, 4.485028e-002
1.506132e+003, 4.306332e-002
1.508061e+003, 4.129272e-002
1.509989e+003, 3.947303e-002
1.511918e+003, 3.755067e-002
1.513846e+003, 3.569941e-002
1.515775e+003, 3.407427e-002
1.517703e+003, 3.253701e-002
1.519632e+003, 3.086397e-002
1.521560e+003, 2.924001e-002
1.523489e+003, 2.773883e-002
1.525417e+003, 2.624374e-002
1.527346e+003, 2.479984e-002
1.529274e+003, 2.349065e-002
1.531203e+003, 2.213967e-002
1.533131e+003, 2.067823e-002
1.535059e+003, 1.938159e-002
1.536988e+003, 1.815318e-002
1.538916e+003, 1.689939e-002
1.540845e+003, 1.563899e-002
1.542773e+003, 1.432580e-002
1.544702e+003, 1.309624e-002
1.546630e+003, 1.193580e-002
1.548559e+003, 1.089066e-002
1.550487e+003, 9.899294e-003
1.552416e+003, 9.008937e-003
1.554344e+003, 8.352242e-003
1.556273e+003, 7.791982e-003
1.558201e+003, 7.300663e-003
1.560130e+003, 7.006848e-003
1.562058e+003, 6.821427e-003
1.563986e+003, 6.532296e-003
1.565915e+003, 6.226957e-003
1.567843e+003, 5.886250e-003
1.569772e+003, 5.756371e-003
1.571700e+003, 5.686620e-003
1.573629e+003, 5.498142e-003
1.575557e+003, 5.330142e-003
1.577486e+003, 5.162654e-003
1.579414e+003, 5.108812e-003
1.581343e+003, 5.047229e-003
1.583271e+003, 4.852607e-003
1.585200e+003, 4.752427e-003
1.587128e+003, 4.646129e-003
1.589057e+003, 4.469025e-003
1.590985e+003, 4.298226e-003
1.592913e+003, 4.239505e-003
1.594842e+003, 4.168942e-003
1.596770e+003, 4.067176e-003
1.598699e+003, 3.852401e-003
1.600627e+003, 3.647135e-003
1.602556e+003, 3.590944e-003
1.604484e+003, 3.585228e-003
1.606413e+003, 3.403019e-003
1.608341e+003, 3.155853e-003
1.610270e+003, 3.111414e-003
1.612198e+003, 3.140638e-003
1.614127e+003, 3.132212e-003
1.616055e+003, 2.946064e-003
1.617984e+003, 2.891022e-003
1.619912e+003, 2.821782e-003
1.621840e+003, 2.717311e-003
1.623769e+003, 2.686748e-003
1.625697e+003, 2.726558e-003
1.627626e+003, 2.753341e-003
1.629554e+003, 2.793964e-003
1.631483e+003, 2.811341e-003
1.633411e+003, 2.735898e-003
1.635340e+003, 2.533623e-003
1.637268e+003, 2.491060e-003
1.639197e+003, 2.489268e-003
1.641125e+003, 2.525211e-003
1.643054e+003, 2.481690e-003
1.644982e+003, 2.474939e-003
1.646911e+003, 2.366164e-003
1.648839e+003, 2.255226e-003
1.650767e+003, 2.270831e-003
1.652696e+003, 2.173313e-003
1.654624e+003, 2.053458e-003
1.656553e+003, 1.989491e-003
1.658481e+003, 1.939315e-003
1.660410e+003, 1.944128e-003
1.662338e+003, 1.993019e-003
1.664267e+003, 1.950565e-003
1.666195e+003, 1.880168e-003
1.668124e+003, 1.872709e-003
1.670052e+003, 1.852594e-003
1.671981e+003, 1.854256e-003
1.673909e+003, 1.892060e-003
1.675838e+003, 1.828852e-003
1.677766e+003, 1.843018e-003
1.679694e+003, 1.817932e-003
1.681623e+003, 1.851421e-003
1.683551e+003, 1.844845e-003
1.685480e+003, 1.930743e-003
1.687408e+003, 2.102064e-003
1.689337e+003, 2.112518e-003
1.691265e+003, 1.941323e-003
1.693194e+003, 1.890296e-003
1.695122e+003, 1.878158e-003
1.697051e+003, 1.993244e-003
1.698979e+003, 1.975894e-003
1.700908e+003, 1.778211e-003
1.702836e+003, 1.791566e-003
1.704765e+003, 1.858401e-003
1.706693e+003, 1.995637e-003
1.708621e+003, 2.026572e-003
1.710550e+003, 1.868245e-003
1.712478e+003, 1.708908e-003
1.714407e+003, 1.619773e-003
1.716335e+003, 1.444061e-003
1.718264e+003, 1.355992e-003
1.720192e+003, 1.360457e-003
1.722121e+003, 1.288090e-003
1.724049e+003, 1.347532e-003
1.725978e+003, 1.446757e-003
1.727906e+003, 1.231668e-003
1.729835e+003, 8.902477e-004
1.731763e+003, 8.922497e-004
1.733692e+003, 1.028152e-003
1.735620e+003, 9.564724e-004
1.737548e+003, 7.483361e-004
1.739477e+003, 5.384245e-004
1.741405e+003, 5.129582e-004
1.743334e+003, 6.232188e-004
1.745262e+003, 5.463964e-004
1.747191e+003, 2.922936e-004
1.749119e+003, 2.887527e-004
1.751048e+003, 5.622932e-004
1.752976e+003, 7.017060e-004
1.754905e+003, 6.812725e-004
1.756833e+003, 7.251735e-004
1.758762e+003, 8.241815e-004
1.760690e+003, 8.253570e-004
1.762619e+003, 8.742269e-004
1.764547e+003, 9.901295e-004
1.766475e+003, 9.562644e-004
1.768404e+003, 9.797588e-004
1.770332e+003, 1.091526e-003
1.772261e+003, 1.021194e-003
1.774189e+003, 1.041358e-003
1.776118e+003, 1.236415e-003
1.778046e+003, 1.275860e-003
1.779975e+003, 1.269428e-003
1.781903e+003, 1.431066e-003
1.783832e+003, 1.621336e-003
1.785760e+003, 1.949782e-003
1.787689e+003, 2.266760e-003
1.789617e+003, 2.737832e-003
1.791546e+003, 3.151966e-003
1.793474e+003, 3.505896e-003
1.795402e+003, 3.754750e-003
1.797331e+003, 3.853619e-003
1.799259e+003, 3.412550e-003
1.801188e+003, 2.790946e-003
1.803116e+003, 2.294037e-003
1.805045e+003, 1.816161e-003
1.806973e+003, 1.413903e-003
1.808902e+003, 1.220042e-003
1.810830e+003, 1.241581e-003
1.812759e+003, 1.126193e-003
1.814687e+003, 8.107661e-004
1.816616e+003, 5.156487e-004
1.818544e+003, 5.354784e-004
1.820473e+003, 7.737061e-004
1.822401e+003, 7.259205e-004
1.824329e+003, 7.214743e-004
1.826258e+003, 8.061138e-004
1.828186e+003, 7.587352e-004
1.830115e+003, 6.681827e-004
1.832043e+003, 4.569976e-004
1.833972e+003, 3.730665e-004
1.835900e+003, 5.040012e-004
1.837829e+003, 3.050536e-004
1.839757e+003, 2.319467e-004
1.841686e+003, 2.634798e-004
1.843614e+003, -4.954178e-005
1.845543e+003, -8.720570e-005
1.847471e+003, 2.061740e-004
1.849400e+003, 1.729773e-004
1.851328e+003, 9.388415e-005
1.853256e+003, 2.707387e-004
1.855185e+003, 3.623159e-004
1.857113e+003, 3.642248e-004
1.859042e+003, 4.248678e-004
1.860970e+003, 1.988582e-004
1.862899e+003, 1.636822e-004
1.864827e+003, 3.070517e-004
1.866756e+003, 2.714147e-004
1.868684e+003, 2.820805e-004
1.870613e+003, 1.054947e-004
1.872541e+003, 4.547242e-005
1.874470e+003, 5.489378e-005
1.876398e+003, 1.319250e-004
1.878327e+003, -9.645804e-005
1.880255e+003, -2.314977e-004
1.882183e+003, -2.057589e-004
1.884112e+003, -2.518610e-004
1.886040e+003, 8.342745e-005
1.887969e+003, 8.097193e-005
1.889897e+003, -2.476303e-004
1.891826e+003, -6.327074e-005
1.893754e+003, 7.108031e-005
1.895683e+003, -1.137085e-004
1.897611e+003, -5.079791e-005
1.899540e+003, -4.555169e-005
1.901468e+003, -2.245258e-004
1.903397e+003, -3.996023e-004
1.905325e+003, -1.991229e-004
1.907254e+003, -9.289221e-005
1.909182e+003, -1.944068e-004
1.911110e+003, -1.721550e-004
1.913039e+003, -4.142775e-004
1.914967e+003, -6.937192e-004
1.916896e+003, -6.723702e-004
1.918824e+003, -4.665990e-004
1.920753e+003, -6.741457e-004
1.922681e+003, -7.218617e-004
1.924610e+003, -9.623043e-004
1.926538e+003, -5.092002e-004
1.928467e+003, -1.330356e-004
1.930395e+003, -2.451944e-004
1.932324e+003, -6.921373e-004
1.934252e+003, -9.242904e-004
1.936181e+003, -8.774548e-004
1.938109e+003, -9.509354e-004
1.940037e+003, -6.136640e-004
1.941966e+003, -4.573106e-004
1.943894e+003, -5.685904e-004
1.945823e+003, -3.607427e-004
1.947751e+003, 2.486540e-004
1.949680e+003, 5.777534e-004
1.951608e+003, 4.079060e-004
1.953537e+003, -1.292606e-005
1.955465e+003, -1.045087e-003
1.957394e+003, -1.559120e-003
1.959322e+003, -1.240218e-003
1.961251e+003, -3.051390e-004
1.963179e+003, -4.103058e-004
1.965108e+003, -4.338855e-004
1.967036e+003, -7.520085e-004
1.968964e+003, -1.285942e-003
1.970893e+003, -1.525801e-003
1.972821e+003, -1.237070e-003
1.974750e+003, -1.001515e-003
1.976678e+003, -7.868093e-005
1.978607e+003, 9.957794e-004
1.980535e+003, 1.429772e-003
1.982464e+003, 1.520074e-003
1.984392e+003, 3.519803e-004
1.986321e+003, -8.273916e-005
1.988249e+003, 1.269202e-004
1.990178e+003, 2.581803e-004
1.992106e+003, 8.259912e-004
1.994035e+003, 9.017170e-004
1.995963e+003, 4.417454e-004
1.997891e+003, 7.228917e-004
1.999820e+003, 1.326883e-003
2.001748e+003, 7.155729e-004
2.003677e+003, 5.747848e-004
2.005605e+003, 1.127972e-003
2.007534e+003, 2.033894e-003
2.009462e+003, 2.381977e-003
2.011391e+003, 1.814764e-003
2.013319e+003, 1.112360e-003
2.015248e+003, 9.878017e-004
2.017176e+003, 9.083701e-004
2.019105e+003, 6.453353e-004
2.021033e+003, 6.111879e-004
2.022962e+003, 7.574707e-004
2.024890e+003, 1.094127e-003
2.026818e+003, 1.168483e-003
2.028747e+003, 2.022211e-003
2.030675e+003, 2.553266e-003
2.032604e+003, 2.895023e-003
2.034532e+003, 2.019347e-003
2.036461e+003, 1.339143e-003
2.038389e+003, 1.522489e-003
2.040318e+003, 2.289106e-003
2.042246e+003, 3.118500e-003
2.044175e+003, 3.143399e-003
2.046103e+003, 2.075535e-003
2.048031e+003, 1.808131e-003
2.049960e+003, 2.703174e-003
2.051888e+003, 2.649922e-003
2.053817e+003, 2.476087e-003
2.055745e+003, 2.523676e-003
2.057674e+003, 2.559260e-003
2.059602e+003, 2.359439e-003
2.061531e+003, 2.076618e-003
2.063459e+003, 2.164970e-003
2.065388e+003, 1.773359e-003
2.067316e+003, 1.623842e-003
2.069245e+003, 2.028120e-003
2.071173e+003, 2.363621e-003
2.073102e+003, 2.565213e-003
2.075030e+003, 2.226241e-003
2.076958e+003, 1.501658e-003
2.078887e+003, 1.534263e-003
2.080815e+003, 1.900156e-003
2.082744e+003, 1.778544e-003
2.084672e+003, 1.441282e-003
2.086601e+003, 1.000742e-003
2.088529e+003, 1.026369e-003
2.090458e+003, 9.892407e-004
2.092386e+003, 8.332373e-004
2.094315e+003, 1.049022e-003
2.096243e+003, 1.672711e-003
2.098172e+003, 2.092915e-003
2.100100e+003, 2.452942e-003
2.102029e+003, 2.299491e-003
2.103957e+003, 2.544445e-003
2.105885e+003, 2.432655e-003
2.107814e+003, 2.083394e-003
2.109742e+003, 1.098113e-003
2.111671e+003, 5.540141e-004
2.113599e+003, 1.434125e-003
2.115528e+003, 2.271695e-003
2.117456e+003, 1.674750e-003
2.119385e+003, 8.938628e-004
2.121313e+003, 9.086500e-004
2.123242e+003, 1.115201e-003
2.125170e+003, 8.096413e-004
2.127099e+003, 4.094869e-004
2.129027e+003, -1.956206e-004
2.130956e+003, -2.398056e-004
2.132884e+003, 2.050535e-004
2.134813e+003, 6.305575e-004
2.136741e+003, 3.913799e-004
2.138669e+003, 8.110278e-004
2.140598e+003, 6.106165e-004
2.142526e+003, -1.593060e-004
2.144455e+003, -3.504287e-004
2.146383e+003, 6.616348e-005
2.148312e+003, 4.190076e-004
2.150240e+003, 8.891700e-004
2.152169e+003, 9.408686e-006
2.154097e+003, -5.470235e-004
2.156026e+003, -6.195977e-004
2.157954e+003, -2.147667e-004
2.159883e+003, 2.215959e-003
2.161811e+003, 3.392902e-003
2.163740e+003, 2.859901e-003
2.165668e+003, 2.585439e-003
2.167596e+003, 1.883525e-003
2.169525e+003, 2.078648e-003
2.171453e+003, 2.053479e-003
2.173382e+003, 1.651685e-003
2.175310e+003, 2.065335e-003
2.177239e+003, 2.561445e-003
2.179167e+003, 1.524080e-003
2.181096e+003, 6.909301e-004
2.183024e+003, 1.861590e-003
2.184953e+003, 2.804053e-003
2.186881e+003, 1.856982e-003
2.188810e+003, 1.772863e-003
2.190738e+003, 1.598714e-003
2.192667e+003, 1.258903e-003
2.194595e+003, 2.244649e-003
2.196523e+003, 3.041800e-003
2.198452e+003, 2.544440e-003
2.200380e+003, 2.444711e-003
2.202309e+003, 2.441016e-003
2.204237e+003, 2.363035e-003
2.206166e+003, 1.912898e-003
2.208094e+003, 1.279412e-003
2.210023e+003, 2.002670e-003
2.211951e+003, 3.144773e-003
2.213880e+003, 2.925511e-003
2.215808e+003, 2.223024e-003
2.217737e+003, 1.890666e-003
2.219665e+003, 2.484258e-003
2.221594e+003, 2.542259e-003
2.223522e+003, 2.212379e-003
2.225450e+003, 2.096565e-003
2.227379e+003, 2.312777e-003
2.229307e+003, 2.854371e-003
2.231236e+003, 3.117165e-003
2.233164e+003, 2.562610e-003
2.235093e+003, 2.302788e-003
2.237021e+003, 3.322053e-003
2.238950e+003, 4.003012e-003
2.240878e+003, 3.250098e-003
2.242807e+003, 2.353904e-003
2.244735e+003, 2.282359e-003
2.246664e+003, 3.095384e-003
2.248592e+003, 3.445904e-003
2.250521e+003, 3.870757e-003
2.252449e+003, 3.961128e-003
2.254377e+003, 3.570892e-003
2.256306e+003, 2.754338e-003
2.258234e+003, 3.089253e-003
2.260163e+003, 3.335105e-003
2.262091e+003, 2.847240e-003
2.264020e+003, 3.011957e-003
2.265948e+003, 3.687937e-003
2.267877e+003, 3.608738e-003
2.269805e+003, 4.258458e-003
2.271734e+003, 4.890037e-003
2.273662e+003, 4.827390e-003
2.275591e+003, 4.427585e-003
2.277519e+003, 4.310618e-003
2.279448e+003, 4.170746e-003
2.281376e+003, 4.529249e-003
2.283304e+003, 4.988111e-003
2.285233e+003, 4.923795e-003
2.287161e+003, 4.260015e-003
2.289090e+003, 4.071100e-003
2.291018e+003, 4.138725e-003
2.292947e+003, 4.300358e-003
2.294875e+003, 3.937836e-003
2.296804e+003, 3.571004e-003
2.298732e+003, 3.363339e-003
2.300661e+003, 3.890626e-003
2.302589e+003, 4.132894e-003
2.304518e+003, 4.035993e-003
2.306446e+003, 3.854284e-003
2.308375e+003, 3.745602e-003
2.310303e+003, 3.639623e-003
2.312231e+003, 3.853758e-003
2.314160e+003, 4.022236e-003
2.316088e+003, 4.120978e-003
2.318017e+003, 4.269903e-003
2.319945e+003, 4.437828e-003
2.321874e+003, 4.797921e-003
2.323802e+003, 4.777860e-003
2.325731e+003, 3.983893e-003
2.327659e+003, 3.644654e-003
2.329588e+003, 3.589559e-003
2.331516e+003, 3.441762e-003
2.333445e+003, 3.330925e-003
2.335373e+003, 3.345833e-003
2.337302e+003, 3.343648e-003
2.339230e+003, 3.082222e-003
2.341158e+003, 2.977113e-003
2.343087e+003, 3.244934e-003
2.345015e+003, 3.194611e-003
2.346944e+003, 3.274374e-003
2.348872e+003, 3.320245e-003
2.350801e+003, 3.487683e-003
2.352729e+003, 3.311669e-003
2.354658e+003, 3.087950e-003
2.356586e+003, 2.935287e-003
2.358515e+003, 2.759515e-003
2.360443e+003, 2.856081e-003
2.362372e+003, 2.919427e-003
2.364300e+003, 2.950038e-003
2.366229e+003, 2.936877e-003
2.368157e+003, 2.756266e-003
2.370085e+003, 2.700295e-003
2.372014e+003, 2.885210e-003
2.373942e+003, 2.966082e-003
2.375871e+003, 2.721620e-003
2.377799e+003, 2.616879e-003
2.379728e+003, 3.124333e-003
2.381656e+003, 3.340965e-003
2.383585e+003, 3.295582e-003
2.385513e+003, 3.322811e-003
2.387442e+003, 3.125276e-003
2.389370e+003, 3.230746e-003
2.391299e+003, 3.373577e-003
2.393227e+003, 3.297237e-003
2.395156e+003, 3.174652e-003
2.397084e+003, 3.185731e-003
2.399012e+003, 3.313706e-003
2.400941e+003, 3.292941e-003
2.402869e+003, 2.902134e-003
2.404798e+003, 3.010162e-003
2.406726e+003, 3.367692e-003
2.408655e+003, 3.373275e-003
2.410583e+003, 3.584143e-003
2.412512e+003, 3.966319e-003
2.414440e+003, 4.313835e-003
2.416369e+003, 4.134555e-003
2.418297e+003, 3.543065e-003
2.420226e+003, 3.279589e-003
2.422154e+003, 3.488704e-003
2.424083e+003, 3.802358e-003
2.426011e+003, 3.956888e-003
2.427939e+003, 3.878526e-003
2.429868e+003, 3.814849e-003
2.431796e+003, 4.065496e-003
2.433725e+003, 3.615572e-003
2.435653e+003, 3.385971e-003
2.437582e+003, 3.461673e-003
2.439510e+003, 3.785178e-003
2.441439e+003, 3.880058e-003
2.443367e+003, 4.007122e-003
2.445296e+003, 4.087291e-003
2.447224e+003, 3.813569e-003
2.449153e+003, 3.669675e-003
2.451081e+003, 3.825277e-003
2.453010e+003, 3.945426e-003
2.454938e+003, 3.859697e-003
2.456866e+003, 3.834794e-003
2.458795e+003, 3.788821e-003
2.460723e+003, 3.746307e-003
2.462652e+003, 3.842692e-003
2.464580e+003, 3.807994e-003
2.466509e+003, 3.792526e-003
2.468437e+003, 3.979673e-003
2.470366e+003, 3.929389e-003
2.472294e+003, 3.972732e-003
2.474223e+003, 3.811124e-003
2.476151e+003, 3.653483e-003
2.478080e+003, 3.741754e-003
2.480008e+003, 3.710042e-003
2.481937e+003, 3.622567e-003
2.483865e+003, 3.685668e-003
2.485793e+003, 3.776042e-003
2.487722e+003, 3.974693e-003
2.489650e+003, 4.199038e-003
2.491579e+003, 4.448028e-003
2.493507e+003, 4.441689e-003
2.495436e+003, 4.388747e-003
2.497364e+003, 4.750026e-003
2.499293e+003, 4.874208e-003
2.501221e+003, 5.181360e-003
2.503150e+003, 5.335036e-003
2.505078e+003, 5.391853e-003
2.507007e+003, 5.478322e-003
2.508935e+003, 5.455293e-003
2.510864e+003, 5.544276e-003
2.512792e+003, 5.570117e-003
2.514720e+003, 5.566460e-003
2.516649e+003, 5.303239e-003
2.518577e+003, 5.450875e-003
2.520506e+003, 5.463030e-003
2.522434e+003, 5.387163e-003
2.524363e+003, 5.401628e-003
2.526291e+003, 5.175887e-003
2.528220e+003, 4.725971e-003
2.530148e+003, 4.284459e-003
2.532077e+003, 4.059770e-003
2.534005e+003, 4.018885e-003
2.535934e+003, 4.177198e-003
2.537862e+003, 4.347940e-003
2.539791e+003, 4.149615e-003
2.541719e+003, 4.172471e-003
2.543647e+003, 4.344160e-003
2.545576e+003, 4.237055e-003
2.547504e+003, 3.871005e-003
2.549433e+003, 3.614921e-003
2.551361e+003, 3.638190e-003
2.553290e+003, 3.865706e-003
2.555218e+003, 4.332677e-003
2.557147e+003, 4.081061e-003
2.559075e+003, 3.732316e-003
2.561004e+003, 3.941958e-003
2.562932e+003, 4.002190e-003
2.564861e+003, 3.939460e-003
2.566789e+003, 3.990143e-003
2.568718e+003, 3.955144e-003
2.570646e+003, 4.215245e-003
2.572574e+003, 4.211660e-003
2.574503e+003, 3.853294e-003
2.576431e+003, 3.958301e-003
2.578360e+003, 3.907611e-003
2.580288e+003, 3.886339e-003
2.582217e+003, 3.909860e-003
2.584145e+003, 4.083939e-003
2.586074e+003, 4.440495e-003
2.588002e+003, 4.477307e-003
2.589931e+003, 4.474023e-003
2.591859e+003, 4.585057e-003
2.593788e+003, 4.711091e-003
2.595716e+003, 4.611927e-003
2.597645e+003, 4.499470e-003
2.599573e+003, 4.155769e-003
2.601501e+003, 4.145529e-003
2.603430e+003, 4.486308e-003
2.605358e+003, 4.691159e-003
2.607287e+003, 4.496610e-003
2.609215e+003, 4.594993e-003
2.611144e+003, 5.053493e-003
2.613072e+003, 4.933845e-003
2.615001e+003, 4.796264e-003
2.616929e+003, 4.791370e-003
2.618858e+003, 4.807114e-003
2.620786e+003, 4.756853e-003
2.622715e+003, 4.760193e-003
2.624643e+003, 4.630444e-003
2.626572e+003, 4.689436e-003
2.628500e+003, 4.673394e-003
2.630428e+003, 4.662910e-003
2.632357e+003, 4.961153e-003
2.634285e+003, 5.204124e-003
2.636214e+003, 5.169959e-003
2.638142e+003, 4.918803e-003
2.640071e+003, 4.784327e-003
2.641999e+003, 4.759270e-003
2.643928e+003, 4.737148e-003
2.645856e+003, 4.818950e-003
2.647785e+003, 4.760726e-003
2.649713e+003, 4.851664e-003
2.651642e+003, 5.266671e-003
2.653570e+003, 5.145814e-003
2.655499e+003, 4.731079e-003
2.657427e+003, 4.810301e-003
2.659355e+003, 4.804077e-003
2.661284e+003, 4.529750e-003
2.663212e+003, 4.539444e-003
2.665141e+003, 4.658871e-003
2.667069e+003, 4.607342e-003
2.668998e+003, 4.421141e-003
2.670926e+003, 4.227428e-003
2.672855e+003, 4.427833e-003
2.674783e+003, 4.423736e-003
2.676712e+003, 4.413769e-003
2.678640e+003, 4.332500e-003
2.680569e+003, 4.087039e-003
2.682497e+003, 4.115670e-003
2.684426e+003, 4.149620e-003
2.686354e+003, 4.113855e-003
2.688282e+003, 4.080002e-003
2.690211e+003, 4.011751e-003
2.692139e+003, 3.997089e-003
2.694068e+003, 4.085242e-003
2.695996e+003, 4.149126e-003
2.697925e+003, 4.060528e-003
2.699853e+003, 4.059231e-003
2.701782e+003, 4.149181e-003
2.703710e+003, 4.120700e-003
2.705639e+003, 4.264888e-003
2.707567e+003, 4.475947e-003
2.709496e+003, 4.255858e-003
2.711424e+003, 4.362869e-003
2.713353e+003, 4.486009e-003
2.715281e+003, 4.359816e-003
2.717209e+003, 4.306007e-003
2.719138e+003, 4.025362e-003
2.721066e+003, 4.151637e-003
2.722995e+003, 4.411739e-003
2.724923e+003, 4.294093e-003
2.726852e+003, 4.509248e-003
2.728780e+003, 4.678009e-003
2.730709e+003, 4.437113e-003
2.732637e+003, 4.312303e-003
2.734566e+003, 4.288362e-003
2.736494e+003, 4.206224e-003
2.738423e+003, 4.212125e-003
2.740351e+003, 4.224590e-003
2.742280e+003, 4.364913e-003
2.744208e+003, 4.425224e-003
2.746136e+003, 4.435830e-003
2.748065e+003, 4.515555e-003
2.749993e+003, 4.323025e-003
2.751922e+003, 4.247750e-003
2.753850e+003, 4.237825e-003
2.755779e+003, 4.176859e-003
2.757707e+003, 4.149823e-003
2.759636e+003, 4.046858e-003
2.761564e+003, 4.416443e-003
2.763493e+003, 4.432586e-003
2.765421e+003, 4.254102e-003
2.767350e+003, 4.125504e-003
2.769278e+003, 3.966189e-003
2.771207e+003, 4.071509e-003
2.773135e+003, 4.274887e-003
2.775063e+003, 4.080070e-003
2.776992e+003, 4.128614e-003
2.778920e+003, 4.309367e-003
2.780849e+003, 4.194663e-003
2.782777e+003, 3.865398e-003
2.784706e+003, 3.873471e-003
2.786634e+003, 3.996396e-003
2.788563e+003, 4.246437e-003
2.790491e+003, 4.013203e-003
2.792420e+003, 3.658856e-003
2.794348e+003, 3.594626e-003
2.796277e+003, 3.913111e-003
2.798205e+003, 4.046229e-003
2.800134e+003, 4.002315e-003
2.802062e+003, 3.969423e-003
2.803990e+003, 3.593992e-003
2.805919e+003, 3.594345e-003
2.807847e+003, 3.771788e-003
2.809776e+003, 3.989766e-003
2.811704e+003, 3.951580e-003
2.813633e+003, 3.734833e-003
2.815561e+003, 3.685676e-003
2.817490e+003, 3.735793e-003
2.819418e+003, 3.721792e-003
2.821347e+003, 3.713474e-003
2.823275e+003, 3.868798e-003
2.825204e+003, 4.059193e-003
2.827132e+003, 3.928907e-003
2.829061e+003, 3.852063e-003
2.830989e+003, 4.121766e-003
2.832917e+003, 4.259753e-003
2.834846e+003, 4.049864e-003
2.836774e+003, 3.897723e-003
2.838703e+003, 3.895589e-003
2.840631e+003, 4.075385e-003
2.842560e+003, 4.206523e-003
2.844488e+003, 4.232371e-003
2.846417e+003, 3.663250e-003
2.848345e+003, 2.938928e-003
2.850274e+003, 2.881974e-003
2.852202e+003, 3.129968e-003
2.854131e+003, 3.062325e-003
2.856059e+003, 3.316784e-003
2.857988e+003, 3.572949e-003
2.859916e+003, 3.824012e-003
2.861844e+003, 4.162970e-003
2.863773e+003, 4.391551e-003
2.865701e+003, 4.322395e-003
2.867630e+003, 4.179006e-003
2.869558e+003, 4.558907e-003
2.871487e+003, 4.636851e-003
2.873415e+003, 4.392333e-003
2.875344e+003, 4.395774e-003
2.877272e+003, 4.648854e-003
2.879201e+003, 4.721885e-003
2.881129e+003, 4.636735e-003
2.883058e+003, 4.283254e-003
2.884986e+003, 4.117720e-003
2.886915e+003, 4.293158e-003
2.888843e+003, 4.308240e-003
2.890771e+003, 4.442726e-003
2.892700e+003, 4.272878e-003
2.894628e+003, 4.265380e-003
2.896557e+003, 4.225498e-003
2.898485e+003, 4.257139e-003
2.900414e+003, 4.409373e-003
2.902342e+003, 4.155369e-003
2.904271e+003, 4.229994e-003
2.906199e+003, 4.532840e-003
2.908128e+003, 4.378945e-003
2.910056e+003, 4.057898e-003
2.911985e+003, 3.885519e-003
2.913913e+003, 3.272838e-003
2.915842e+003, 2.789943e-003
2.917770e+003, 2.747269e-003
2.919698e+003, 2.918675e-003
2.921627e+003, 3.200776e-003
2.923555e+003, 3.541881e-003
2.925484e+003, 3.707250e-003
2.927412e+003, 4.088968e-003
2.929341e+003, 4.830540e-003
2.931269e+003, 4.863879e-003
2.933198e+003, 4.639713e-003
2.935126e+003, 4.390712e-003
2.937055e+003, 4.108026e-003
2.938983e+003, 4.441498e-003
2.940912e+003, 4.727356e-003
2.942840e+003, 4.859468e-003
2.944769e+003, 5.097569e-003
2.946697e+003, 4.635700e-003
2.948625e+003, 4.434546e-003
2.950554e+003, 4.781839e-003
2.952482e+003, 5.249422e-003
2.954411e+003, 5.287189e-003
2.956339e+003, 5.042237e-003
2.958268e+003, 4.773412e-003
2.960196e+003, 4.596009e-003
2.962125e+003, 4.995837e-003
2.964053e+003, 5.260695e-003
2.965982e+003, 5.273837e-003
2.967910e+003, 4.910048e-003
2.969839e+003, 4.580629e-003
2.971767e+003, 4.678504e-003
2.973696e+003, 4.933840e-003
2.975624e+003, 5.097413e-003
2.977552e+003, 5.081820e-003
2.979481e+003, 4.959487e-003
2.981409e+003, 4.632270e-003
2.983338e+003, 4.389492e-003
2.985266e+003, 4.240529e-003
2.987195e+003, 4.243291e-003
2.989123e+003, 4.552635e-003
2.991052e+003, 4.930590e-003
2.992980e+003, 4.943860e-003
2.994909e+003, 4.737425e-003
2.996837e+003, 4.492678e-003
2.998766e+003, 4.189560e-003
3.000694e+003, 4.157068e-003
3.002623e+003, 4.471300e-003
3.004551e+003, 4.579599e-003
3.006479e+003, 4.593057e-003
3.008408e+003, 4.579921e-003
3.010336e+003, 4.299068e-003
3.012265e+003, 4.242883e-003
3.014193e+003, 4.253838e-003
3.016122e+003, 4.195457e-003
3.018050e+003, 4.457107e-003
3.019979e+003, 5.050084e-003
3.021907e+003, 5.380937e-003
3.023836e+003, 5.234324e-003
3.025764e+003, 5.162918e-003
3.027693e+003, 5.140451e-003
3.029621e+003, 4.868481e-003
3.031550e+003, 4.758695e-003
3.033478e+003, 4.908335e-003
3.035406e+003, 4.938550e-003
3.037335e+003, 4.721622e-003
3.039263e+003, 5.438845e-003
3.041192e+003, 6.049738e-003
3.043120e+003, 5.608130e-003
3.045049e+003, 5.242145e-003
3.046977e+003, 5.261215e-003
3.048906e+003, 5.315094e-003
3.050834e+003, 5.378361e-003
3.052763e+003, 5.304213e-003
3.054691e+003, 5.077652e-003
3.056620e+003, 4.704799e-003
3.058548e+003, 4.868181e-003
3.060477e+003, 5.370690e-003
3.062405e+003, 5.665312e-003
3.064333e+003, 5.360400e-003
3.066262e+003, 5.332398e-003
3.068190e+003, 5.618851e-003
3.070119e+003, 5.916244e-003
3.072047e+003, 5.795773e-003
3.073976e+003, 5.821446e-003
3.075904e+003, 5.776828e-003
3.077833e+003, 5.613134e-003
3.079761e+003, 5.746017e-003
3.081690e+003, 5.701652e-003
3.083618e+003, 5.627079e-003
3.085547e+003, 5.403861e-003
3.087475e+003, 5.134510e-003
3.089404e+003, 5.224369e-003
3.091332e+003, 5.602328e-003
3.093260e+003, 6.177383e-003
3.095189e+003, 5.452145e-003
3.097117e+003, 5.204516e-003
3.099046e+003, 5.199641e-003
3.100974e+003, 5.947088e-003
3.102903e+003, 6.363723e-003
3.104831e+003, 6.200601e-003
3.106760e+003, 6.310288e-003
3.108688e+003, 6.568410e-003
3.110617e+003, 6.326167e-003
3.112545e+003, 6.009789e-003
3.114474e+003, 6.130584e-003
3.116402e+003, 6.515546e-003
3.118331e+003, 6.774637e-003
3.120259e+003, 6.513013e-003
3.122188e+003, 6.038172e-003
3.124116e+003, 5.856678e-003
3.126044e+003, 6.297186e-003
3.127973e+003, 6.614866e-003
3.129901e+003, 6.579167e-003
3.131830e+003, 6.594214e-003
3.133758e+003, 6.642349e-003
3.135687e+003, 6.924311e-003
3.137615e+003, 6.927047e-003
3.139544e+003, 6.619909e-003
3.141472e+003, 6.489835e-003
3.143401e+003, 6.597573e-003
3.145329e+003, 6.544282e-003
3.147258e+003, 6.461360e-003
3.149186e+003, 6.516003e-003
3.151115e+003, 6.735948e-003
3.153043e+003, 7.259245e-003
3.154971e+003, 7.134163e-003
3.156900e+003, 6.923554e-003
3.158828e+003, 6.714729e-003
3.160757e+003, 6.255466e-003
3.162685e+003, 6.413870e-003
3.164614e+003, 7.129187e-003
3.166542e+003, 7.421716e-003
3.168471e+003, 7.052390e-003
3.170399e+003, 7.264731e-003
3.172328e+003, 7.347497e-003
3.174256e+003, 6.775756e-003
3.176185e+003, 6.940358e-003
3.178113e+003, 7.296448e-003
3.180042e+003, 7.366687e-003
3.181970e+003, 7.500625e-003
3.183898e+003, 7.573829e-003
3.185827e+003, 7.463100e-003
3.187755e+003, 7.075118e-003
3.189684e+003, 6.831539e-003
3.191612e+003, 6.995982e-003
3.193541e+003, 6.726959e-003
3.195469e+003, 6.569274e-003
3.197398e+003, 7.143598e-003
3.199326e+003, 7.078379e-003
3.201255e+003, 7.021700e-003
3.203183e+003, 7.399582e-003
3.205112e+003, 7.570643e-003
3.207040e+003, 7.735284e-003
3.208969e+003, 8.102045e-003
3.210897e+003, 7.639834e-003
3.212825e+003, 6.779896e-003
3.214754e+003, 7.038456e-003
3.216682e+003, 7.333458e-003
3.218611e+003, 7.309066e-003
3.220539e+003, 7.501115e-003
3.222468e+003, 7.772539e-003
3.224396e+003, 7.920436e-003
3.226325e+003, 7.696150e-003
3.228253e+003, 7.232372e-003
3.230182e+003, 7.024183e-003
3.232110e+003, 7.416799e-003
3.234039e+003, 7.781955e-003
3.235967e+003, 7.726811e-003
3.237896e+003, 7.749466e-003
3.239824e+003, 7.581226e-003
3.241752e+003, 7.383958e-003
3.243681e+003, 7.269038e-003
3.245609e+003, 7.528642e-003
3.247538e+003, 7.549378e-003
3.249466e+003, 7.426300e-003
3.251395e+003, 7.534496e-003
3.253323e+003, 7.527745e-003
3.255252e+003, 7.768755e-003
3.257180e+003, 7.853386e-003
3.259109e+003, 7.778497e-003
3.261037e+003, 7.911775e-003
3.262966e+003, 8.577554e-003
3.264894e+003, 8.264253e-003
3.266823e+003, 7.530353e-003
3.268751e+003, 7.360872e-003
3.270679e+003, 7.366573e-003
3.272608e+003, 7.505134e-003
3.274536e+003, 7.772817e-003
3.276465e+003, 7.974594e-003
3.278393e+003, 8.047489e-003
3.280322e+003, 7.950846e-003
3.282250e+003, 7.662395e-003
3.284179e+003, 7.750645e-003
3.286107e+003, 7.709256e-003
3.288036e+003, 7.806063e-003
3.289964e+003, 8.016217e-003
3.291893e+003, 7.756092e-003
3.293821e+003, 7.781223e-003
3.295750e+003, 7.789661e-003
3.297678e+003, 7.748572e-003
3.299606e+003, 7.971787e-003
3.301535e+003, 7.990800e-003
3.303463e+003, 7.582616e-003
3.305392e+003, 7.531263e-003
3.307320e+003, 7.541880e-003
3.309249e+003, 7.328533e-003
3.311177e+003, 7.551760e-003
3.313106e+003, 7.898549e-003
3.315034e+003, 7.849418e-003
3.316963e+003, 7.738015e-003
3.318891e+003, 8.026050e-003
3.320820e+003, 7.933863e-003
3.322748e+003, 7.823277e-003
3.324677e+003, 7.704386e-003
3.326605e+003, 7.944940e-003
3.328533e+003, 8.056837e-003
3.330462e+003, 7.922973e-003
3.332390e+003, 7.816364e-003
3.334319e+003, 7.940575e-003
3.336247e+003, 8.135394e-003
3.338176e+003, 7.825638e-003
3.340104e+003, 7.951041e-003
3.342033e+003, 8.478748e-003
3.343961e+003, 8.336484e-003
3.345890e+003, 7.673742e-003
3.347818e+003, 7.255545e-003
3.349747e+003, 7.587180e-003
3.351675e+003, 8.274505e-003
3.353604e+003, 8.133930e-003
3.355532e+003, 7.861534e-003
3.357460e+003, 7.968786e-003
3.359389e+003, 7.727768e-003
3.361317e+003, 8.046797e-003
3.363246e+003, 8.362317e-003
3.365174e+003, 8.462041e-003
3.367103e+003, 8.655122e-003
3.369031e+003, 8.404701e-003
3.370960e+003, 7.894289e-003
3.372888e+003, 7.606520e-003
3.374817e+003, 8.071503e-003
3.376745e+003, 8.334705e-003
3.378674e+003, 7.905688e-003
3.380602e+003, 7.851798e-003
3.382531e+003, 7.800337e-003
3.384459e+003, 8.070228e-003
3.386387e+003, 8.429631e-003
3.388316e+003, 8.022649e-003
3.390244e+003, 7.749896e-003
3.392173e+003, 8.123422e-003
3.394101e+003, 8.401986e-003
3.396030e+003, 8.243307e-003
3.397958e+003, 8.158495e-003
3.399887e+003, 8.151857e-003
3.401815e+003, 7.895209e-003
3.403744e+003, 7.867755e-003
3.405672e+003, 8.087602e-003
3.407601e+003, 8.083939e-003
3.409529e+003, 7.929788e-003
3.411458e+003, 7.961605e-003
3.413386e+003, 7.747739e-003
3.415314e+003, 7.565177e-003
3.417243e+003, 7.739411e-003
3.419171e+003, 7.419202e-003
3.421100e+003, 7.453977e-003
3.423028e+003, 8.198991e-003
3.424957e+003, 8.308522e-003
3.426885e+003, 8.265535e-003
3.428814e+003, 8.198620e-003
3.430742e+003, 7.570539e-003
3.432671e+003, 8.034470e-003
3.434599e+003, 8.736202e-003
3.436528e+003, 8.075658e-003
3.438456e+003, 7.439724e-003
3.440385e+003, 7.412339e-003
3.442313e+003, 7.923268e-003
3.444241e+003, 8.271394e-003
3.446170e+003, 8.043619e-003
3.448098e+003, 8.133741e-003
3.450027e+003, 8.048706e-003
3.451955e+003, 8.039339e-003
3.453884e+003, 8.448472e-003
3.455812e+003, 8.675851e-003
3.457741e+003, 8.249380e-003
3.459669e+003, 8.075629e-003
3.461598e+003, 8.800702e-003
3.463526e+003, 9.152347e-003
3.465455e+003, 8.787864e-003
3.467383e+003, 8.442718e-003
3.469312e+003, 8.067214e-003
3.471240e+003, 7.404374e-003
3.473168e+003, 7.708328e-003
3.475097e+003, 7.918786e-003
3.477025e+003, 7.684345e-003
3.478954e+003, 7.439003e-003
3.480882e+003, 8.038115e-003
3.482811e+003, 8.592032e-003
3.484739e+003, 7.915856e-003
3.486668e+003, 7.540836e-003
3.488596e+003, 7.630206e-003
3.490525e+003, 7.319288e-003
3.492453e+003, 7.336869e-003
3.494382e+003, 7.696331e-003
3.496310e+003, 7.701225e-003
3.498239e+003, 7.316719e-003
3.500167e+003, 7.565086e-003
3.502095e+003, 8.044348e-003
3.504024e+003, 8.191708e-003
3.505952e+003, 7.843716e-003
3.507881e+003, 7.799963e-003
3.509809e+003, 8.248671e-003
3.511738e+003, 8.203768e-003
3.513666e+003, 7.934005e-003
3.515595e+003, 7.737964e-003
3.517523e+003, 8.385618e-003
3.519452e+003, 9.086787e-003
3.521380e+003, 9.071424e-003
3.523309e+003, 9.083253e-003
3.525237e+003, 8.666061e-003
3.527166e+003, 8.324547e-003
3.529094e+003, 8.036434e-003
3.531022e+003, 7.353738e-003
3.532951e+003, 7.849655e-003
3.534879e+003, 8.488425e-003
3.536808e+003, 8.408385e-003
3.538736e+003, 7.950257e-003
3.540665e+003, 7.799832e-003
3.542593e+003, 8.015792e-003
3.544522e+003, 7.857786e-003
3.546450e+003, 7.986601e-003
3.548379e+003, 8.558869e-003
3.550307e+003, 8.346648e-003
3.552236e+003, 7.821430e-003
3.554164e+003, 7.865040e-003
3.556093e+003, 8.056484e-003
3.558021e+003, 8.073363e-003
3.559949e+003, 8.003093e-003
3.561878e+003, 8.100741e-003
3.563806e+003, 7.894975e-003
3.565735e+003, 7.301769e-003
3.567663e+003, 7.194505e-003
3.569592e+003, 7.554836e-003
3.571520e+003, 7.679449e-003
3.573449e+003, 7.463076e-003
3.575377e+003, 7.142359e-003
3.577306e+003, 7.323933e-003
3.579234e+003, 8.129690e-003
3.581163e+003, 8.233620e-003
3.583091e+003, 7.632645e-003
3.585020e+003, 7.153220e-003
3.586948e+003, 7.486326e-003
3.588876e+003, 7.800749e-003
3.590805e+003, 7.013272e-003
3.592733e+003, 6.797940e-003
3.594662e+003, 7.638628e-003
3.596590e+003, 7.818959e-003
3.598519e+003, 7.155571e-003
3.600447e+003, 7.495533e-003
3.602376e+003, 7.953503e-003
3.604304e+003, 7.851351e-003
3.606233e+003, 7.489879e-003
3.608161e+003, 7.436521e-003
3.610090e+003, 7.997712e-003
3.612018e+003, 7.773279e-003
3.613947e+003, 7.670268e-003
3.615875e+003, 7.306795e-003
3.617803e+003, 6.844155e-003
3.619732e+003, 7.050856e-003
3.621660e+003, 7.599346e-003
3.623589e+003, 7.625917e-003
3.625517e+003, 7.808100e-003
3.627446e+003, 7.836347e-003
3.629374e+003, 7.789584e-003
3.631303e+003, 8.234567e-003
3.633231e+003, 8.478267e-003
3.635160e+003, 8.812353e-003
3.637088e+003, 8.850425e-003
3.639017e+003, 8.308566e-003
3.640945e+003, 7.835892e-003
3.642874e+003, 7.839142e-003
3.644802e+003, 7.905852e-003
3.646730e+003, 7.966209e-003
3.648659e+003, 8.270752e-003
3.650587e+003, 8.115678e-003
3.652516e+003, 7.967872e-003
3.654444e+003, 8.160893e-003
3.656373e+003, 8.300686e-003
3.658301e+003, 7.839249e-003
3.660230e+003, 7.822612e-003
3.662158e+003, 8.148128e-003
3.664087e+003, 8.872001e-003
3.666015e+003, 9.732362e-003
3.667944e+003, 1.133074e-002
3.669872e+003, 1.429834e-002
3.671801e+003, 1.826759e-002
3.673729e+003, 1.938911e-002
3.675657e+003, 1.544439e-002
3.677586e+003, 1.116637e-002
3.679514e+003, 9.275898e-003
3.681443e+003, 8.257802e-003
3.683371e+003, 7.601247e-003
3.685300e+003, 7.233093e-003
3.687228e+003, 6.750428e-003
3.689157e+003, 6.747756e-003
3.691085e+003, 6.406164e-003
3.693014e+003, 6.237355e-003
3.694942e+003, 6.833293e-003
3.696871e+003, 6.945926e-003
3.698799e+003, 6.816943e-003
3.700728e+003, 7.217003e-003
3.702656e+003, 7.891227e-003
3.704584e+003, 7.605321e-003
3.706513e+003, 7.363317e-003
3.708441e+003, 6.843814e-003
3.710370e+003, 6.412309e-003
3.712298e+003, 6.732610e-003
3.714227e+003, 6.842834e-003
3.716155e+003, 6.496426e-003
3.718084e+003, 6.894241e-003
3.720012e+003, 7.659835e-003
3.721941e+003, 7.661636e-003
3.723869e+003, 7.567638e-003
3.725798e+003, 8.151919e-003
3.727726e+003, 8.160682e-003
3.729655e+003, 6.963400e-003
3.731583e+003, 6.765681e-003
3.733511e+003, 7.731614e-003
3.735440e+003, 7.562337e-003
3.737368e+003, 6.625321e-003
3.739297e+003, 6.801622e-003
3.741225e+003, 7.127782e-003
3.743154e+003, 7.439498e-003
3.745082e+003, 7.465491e-003
3.747011e+003, 7.282843e-003
3.748939e+003, 7.502307e-003
3.750868e+003, 8.036726e-003
3.752796e+003, 7.916252e-003
3.754725e+003, 7.367083e-003
3.756653e+003, 7.086897e-003
3.758582e+003, 6.239584e-003
3.760510e+003, 6.257379e-003
3.762438e+003, 7.093840e-003
3.764367e+003, 7.208945e-003
3.766295e+003, 6.978603e-003
3.768224e+003, 7.299792e-003
3.770152e+003, 7.557601e-003
3.772081e+003, 7.651852e-003
3.774009e+003, 8.632051e-003
3.775938e+003, 8.935802e-003
3.777866e+003, 8.063854e-003
3.779795e+003, 7.857518e-003
3.781723e+003, 8.065989e-003
3.783652e+003, 7.765847e-003
3.785580e+003, 7.516640e-003
3.787509e+003, 7.314327e-003
3.789437e+003, 7.288775e-003
3.791365e+003, 7.446919e-003
3.793294e+003, 7.922306e-003
3.795222e+003, 8.166033e-003
3.797151e+003, 8.694828e-003
3.799079e+003, 9.170669e-003
3.801008e+003, 8.878470e-003
3.802936e+003, 8.164309e-003
3.804865e+003, 7.476073e-003
3.806793e+003, 7.430547e-003
3.808722e+003, 7.536096e-003
3.810650e+003, 7.813750e-003
3.812579e+003, 7.614122e-003
3.814507e+003, 7.007963e-003
3.816436e+003, 7.448522e-003
3.818364e+003, 8.232661e-003
3.820292e+003, 8.511973e-003
3.822221e+003, 8.175399e-003
3.824149e+003, 8.267619e-003
3.826078e+003, 8.136483e-003
3.828006e+003, 8.100414e-003
3.829935e+003, 8.470384e-003
3.831863e+003, 8.731165e-003
3.833792e+003, 7.940435e-003
3.835720e+003, 7.345238e-003
3.837649e+003, 7.177396e-003
3.839577e+003, 7.486395e-003
3.841506e+003, 7.980157e-003
3.843434e+003, 7.791721e-003
3.845363e+003, 7.202403e-003
3.847291e+003, 8.463067e-003
3.849219e+003, 9.112986e-003
3.851148e+003, 8.403067e-003
3.853076e+003, 8.381485e-003
3.855005e+003, 8.189394e-003
3.856933e+003, 7.465369e-003
3.858862e+003, 7.314337e-003
3.860790e+003, 6.800417e-003
3.862719e+003, 6.920762e-003
3.864647e+003, 7.579580e-003
3.866576e+003, 8.181389e-003
3.868504e+003, 8.194089e-003
3.870433e+003, 7.623517e-003
3.872361e+003, 7.348024e-003
3.874290e+003, 7.844673e-003
3.876218e+003, 8.235346e-003
3.878146e+003, 8.450574e-003
3.880075e+003, 8.103630e-003
3.882003e+003, 7.924776e-003
3.883932e+003, 7.966864e-003
3.885860e+003, 7.433536e-003
3.887789e+003, 7.377847e-003
3.889717e+003, 8.282187e-003
3.891646e+003, 8.973463e-003
3.893574e+003, 8.780793e-003
3.895503e+003, 8.075706e-003
3.897431e+003, 8.074395e-003
3.899360e+003, 8.181598e-003
3.901288e+003, 7.748757e-003
3.903217e+003, 7.556169e-003
3.905145e+003, 7.967153e-003
3.907073e+003, 8.542063e-003
3.909002e+003, 8.903518e-003
3.910930e+003, 8.740412e-003
3.912859e+003, 8.416482e-003
3.914787e+003, 7.756866e-003
3.916716e+003, 8.372254e-003
3.918644e+003, 8.591834e-003
3.920573e+003, 8.529886e-003
3.922501e+003, 8.908750e-003
3.924430e+003, 8.506414e-003
3.926358e+003, 8.370311e-003
3.928287e+003, 8.817394e-003
3.930215e+003, 8.546614e-003
3.932144e+003, 8.222048e-003
3.934072e+003, 8.364687e-003
3.936000e+003, 8.320959e-003
3.937929e+003, 7.972521e-003
3.939857e+003, 7.545513e-003
3.941786e+003, 7.518270e-003
3.943714e+003, 7.840934e-003
3.945643e+003, 8.639155e-003
3.947571e+003, 8.670614e-003
3.949500e+003, 8.830992e-003
3.951428e+003, 8.557684e-003
3.953357e+003, 8.414038e-003
3.955285e+003, 8.436608e-003
3.957214e+003, 8.446795e-003
3.959142e+003, 8.072365e-003
3.961071e+003, 8.291939e-003
3.962999e+003, 8.752059e-003
3.964927e+003, 8.711848e-003
3.966856e+003, 8.705797e-003
3.968784e+003, 8.414157e-003
3.970713e+003, 8.805949e-003
3.972641e+003, 8.724131e-003
3.974570e+003, 8.424385e-003
3.976498e+003, 8.323233e-003
3.978427e+003, 8.700881e-003
3.980355e+003, 8.936306e-003
3.982284e+003, 8.825282e-003
3.984212e+003, 8.604162e-003
3.986141e+003, 8.160166e-003
3.988069e+003, 7.999660e-003
3.989998e+003, 8.594296e-003
3.991926e+003, 9.351691e-003
3.993854e+003, 9.786704e-003
3.995783e+003, 9.713579e-003
3.997711e+003, 9.439244e-003
3.999640e+003, 8.945290e-003
##END=



