##NAMES=Tremolite
##RRUFFID=R040045
##IDEAL CHEMISTRY=[box]Ca_2_Mg_5_Si_8_O_22_(OH)_2_
##LOCALITY=Gouverneur, New York, USA
##OWNER=RRUFF
##SOURCE=University of Arizona Mineral Museum
##DESCRIPTION=Group of colorless acicular single crystals
##STATUS=The identification of this mineral has been confirmed by X-ray diffraction and chemical analysis
##URL=rruff.info/R040045
##MEASURED CHEMISTRY=Ca_2.01_(Mg_0.99_Fe_0.01_)_5_(Si_0.99_Fe_0.01_)_8_O_22_(OH)_2_
3.991926e+002, 0.000000e+000
4.011211e+002, 2.168518e-001
4.030496e+002, 2.179222e-001
4.049780e+002, 2.070388e-001
4.069065e+002, 2.134372e-001
4.088350e+002, 2.293148e-001
4.107634e+002, 2.485325e-001
4.126919e+002, 2.593754e-001
4.146204e+002, 2.703735e-001
4.165488e+002, 2.801183e-001
4.184773e+002, 2.640569e-001
4.204058e+002, 2.393427e-001
4.223342e+002, 2.233603e-001
4.242627e+002, 2.115709e-001
4.261912e+002, 2.133622e-001
4.281196e+002, 2.273976e-001
4.300481e+002, 2.483662e-001
4.319766e+002, 2.711207e-001
4.339050e+002, 2.972680e-001
4.358335e+002, 3.195047e-001
4.377620e+002, 3.310861e-001
4.396904e+002, 3.330665e-001
4.416189e+002, 3.287099e-001
4.435474e+002, 3.218310e-001
4.454758e+002, 3.130541e-001
4.474043e+002, 3.083331e-001
4.493328e+002, 2.999811e-001
4.512612e+002, 2.882995e-001
4.531897e+002, 2.798553e-001
4.551182e+002, 2.751099e-001
4.570466e+002, 2.735787e-001
4.589751e+002, 2.706708e-001
4.609036e+002, 2.644375e-001
4.628320e+002, 2.590970e-001
4.647605e+002, 2.545790e-001
4.666890e+002, 2.486296e-001
4.686174e+002, 2.396168e-001
4.705459e+002, 2.290061e-001
4.724744e+002, 2.198799e-001
4.744028e+002, 2.112995e-001
4.763313e+002, 2.031737e-001
4.782598e+002, 1.953170e-001
4.801882e+002, 1.889437e-001
4.821167e+002, 1.818643e-001
4.840452e+002, 1.741679e-001
4.859736e+002, 1.693982e-001
4.879021e+002, 1.690686e-001
4.898306e+002, 1.722990e-001
4.917590e+002, 1.744868e-001
4.936875e+002, 1.764112e-001
4.956160e+002, 1.798015e-001
4.975444e+002, 1.836699e-001
4.994729e+002, 1.865046e-001
5.014014e+002, 1.889188e-001
5.033298e+002, 1.915695e-001
5.052583e+002, 1.952038e-001
5.071868e+002, 1.939668e-001
5.091152e+002, 1.847501e-001
5.110437e+002, 1.721974e-001
5.129722e+002, 1.607950e-001
5.149006e+002, 1.524621e-001
5.168291e+002, 1.458901e-001
5.187576e+002, 1.399645e-001
5.206860e+002, 1.361613e-001
5.226145e+002, 1.360055e-001
5.245430e+002, 1.370268e-001
5.264714e+002, 1.366022e-001
5.283999e+002, 1.343375e-001
5.303284e+002, 1.319477e-001
5.322568e+002, 1.301003e-001
5.341853e+002, 1.271526e-001
5.361138e+002, 1.234232e-001
5.380422e+002, 1.182141e-001
5.399707e+002, 1.111612e-001
5.418992e+002, 1.036376e-001
5.438276e+002, 9.566633e-002
5.457561e+002, 8.712714e-002
5.476846e+002, 7.958935e-002
5.496130e+002, 7.299954e-002
5.515415e+002, 6.636836e-002
5.534700e+002, 6.009928e-002
5.553984e+002, 5.506659e-002
5.573269e+002, 5.132984e-002
5.592554e+002, 4.846521e-002
5.611838e+002, 4.469432e-002
5.631123e+002, 4.083703e-002
5.650408e+002, 3.780874e-002
5.669692e+002, 3.498981e-002
5.688977e+002, 3.239395e-002
5.708262e+002, 3.007874e-002
5.727546e+002, 2.751728e-002
5.746831e+002, 2.475835e-002
5.766116e+002, 2.296384e-002
5.785400e+002, 2.168655e-002
5.804685e+002, 2.033448e-002
5.823970e+002, 1.949459e-002
5.843254e+002, 1.861653e-002
5.862539e+002, 1.764657e-002
5.881824e+002, 1.676460e-002
5.901108e+002, 1.646900e-002
5.920393e+002, 1.628565e-002
5.939678e+002, 1.613116e-002
5.958962e+002, 1.625818e-002
5.978247e+002, 1.599796e-002
5.997532e+002, 1.614152e-002
6.016816e+002, 1.592558e-002
6.036101e+002, 1.576546e-002
6.055386e+002, 1.580837e-002
6.074670e+002, 1.573467e-002
6.093955e+002, 1.587221e-002
6.113240e+002, 1.606449e-002
6.132524e+002, 1.634952e-002
6.151809e+002, 1.688572e-002
6.171094e+002, 1.749538e-002
6.190378e+002, 1.814793e-002
6.209663e+002, 1.875238e-002
6.228948e+002, 1.943065e-002
6.248232e+002, 2.053408e-002
6.267517e+002, 2.201487e-002
6.286802e+002, 2.375156e-002
6.306086e+002, 2.607171e-002
6.325371e+002, 2.882411e-002
6.344656e+002, 3.241270e-002
6.363940e+002, 3.702060e-002
6.383225e+002, 4.327123e-002
6.402510e+002, 4.973577e-002
6.421794e+002, 5.204215e-002
6.441079e+002, 4.814065e-002
6.460364e+002, 4.160970e-002
6.479648e+002, 3.672504e-002
6.498933e+002, 3.471761e-002
6.518218e+002, 3.571796e-002
6.537502e+002, 3.914459e-002
6.556787e+002, 4.410664e-002
6.576072e+002, 4.967805e-002
6.595356e+002, 5.544537e-002
6.614641e+002, 5.902187e-002
6.633926e+002, 5.904341e-002
6.653210e+002, 5.611840e-002
6.672495e+002, 5.262706e-002
6.691780e+002, 5.107208e-002
6.711064e+002, 5.199956e-002
6.730349e+002, 5.503622e-002
6.749634e+002, 6.049159e-002
6.768918e+002, 6.915789e-002
6.788203e+002, 8.062415e-002
6.807488e+002, 9.286460e-002
6.826772e+002, 1.018818e-001
6.846057e+002, 1.042679e-001
6.865342e+002, 9.893135e-002
6.884626e+002, 8.781042e-002
6.903911e+002, 7.462750e-002
6.923196e+002, 6.222437e-002
6.942480e+002, 5.169057e-002
6.961765e+002, 4.321866e-002
6.981050e+002, 3.680057e-002
7.000334e+002, 3.188696e-002
7.019619e+002, 2.858939e-002
7.038904e+002, 2.680337e-002
7.058188e+002, 2.571487e-002
7.077473e+002, 2.491845e-002
7.096758e+002, 2.455478e-002
7.116042e+002, 2.464638e-002
7.135327e+002, 2.508818e-002
7.154612e+002, 2.602482e-002
7.173896e+002, 2.780043e-002
7.193181e+002, 3.030981e-002
7.212466e+002, 3.368171e-002
7.231750e+002, 3.683812e-002
7.251035e+002, 3.745616e-002
7.270320e+002, 3.590212e-002
7.289604e+002, 3.464495e-002
7.308889e+002, 3.458972e-002
7.328174e+002, 3.634970e-002
7.347458e+002, 4.025001e-002
7.366743e+002, 4.512011e-002
7.386028e+002, 4.891895e-002
7.405313e+002, 5.011258e-002
7.424597e+002, 5.071924e-002
7.443882e+002, 5.399279e-002
7.463167e+002, 6.051780e-002
7.482451e+002, 6.981936e-002
7.501736e+002, 8.225331e-002
7.521021e+002, 9.844330e-002
7.540305e+002, 1.175796e-001
7.559590e+002, 1.341784e-001
7.578875e+002, 1.398978e-001
7.598159e+002, 1.306436e-001
7.617444e+002, 1.121399e-001
7.636729e+002, 9.202443e-002
7.656013e+002, 7.397187e-002
7.675298e+002, 5.946630e-002
7.694583e+002, 4.953212e-002
7.713867e+002, 4.323369e-002
7.733152e+002, 3.928299e-002
7.752437e+002, 3.729030e-002
7.771721e+002, 3.650726e-002
7.791006e+002, 3.573323e-002
7.810291e+002, 3.480592e-002
7.829575e+002, 3.379853e-002
7.848860e+002, 3.303676e-002
7.868145e+002, 3.291560e-002
7.887429e+002, 3.316696e-002
7.906714e+002, 3.366382e-002
7.925999e+002, 3.459368e-002
7.945283e+002, 3.585102e-002
7.964568e+002, 3.707391e-002
7.983853e+002, 3.764792e-002
8.003137e+002, 3.784011e-002
8.022422e+002, 3.737677e-002
8.041707e+002, 3.645779e-002
8.060991e+002, 3.515878e-002
8.080276e+002, 3.385486e-002
8.099561e+002, 3.325361e-002
8.118845e+002, 3.325070e-002
8.138130e+002, 3.375271e-002
8.157415e+002, 3.455184e-002
8.176699e+002, 3.536837e-002
8.195984e+002, 3.627354e-002
8.215269e+002, 3.740958e-002
8.234553e+002, 3.884901e-002
8.253838e+002, 4.004189e-002
8.273123e+002, 4.122848e-002
8.292407e+002, 4.262116e-002
8.311692e+002, 4.433594e-002
8.330977e+002, 4.610665e-002
8.350261e+002, 4.816463e-002
8.369546e+002, 5.056492e-002
8.388831e+002, 5.326968e-002
8.408115e+002, 5.591884e-002
8.427400e+002, 5.853627e-002
8.446685e+002, 6.168706e-002
8.465969e+002, 6.502161e-002
8.485254e+002, 6.871236e-002
8.504539e+002, 7.257587e-002
8.523823e+002, 7.626918e-002
8.543108e+002, 8.015534e-002
8.562393e+002, 8.427520e-002
8.581677e+002, 8.853973e-002
8.600962e+002, 9.279829e-002
8.620247e+002, 9.716848e-002
8.639531e+002, 1.016245e-001
8.658816e+002, 1.060112e-001
8.678101e+002, 1.107287e-001
8.697385e+002, 1.158013e-001
8.716670e+002, 1.211589e-001
8.735955e+002, 1.267348e-001
8.755239e+002, 1.320303e-001
8.774524e+002, 1.371789e-001
8.793809e+002, 1.423042e-001
8.813093e+002, 1.478366e-001
8.832378e+002, 1.540142e-001
8.851663e+002, 1.607999e-001
8.870947e+002, 1.680763e-001
8.890232e+002, 1.762392e-001
8.909517e+002, 1.848361e-001
8.928801e+002, 1.940929e-001
8.948085e+002, 2.039654e-001
8.967370e+002, 2.146466e-001
8.986655e+002, 2.265419e-001
9.005939e+002, 2.392439e-001
9.025224e+002, 2.524396e-001
9.044509e+002, 2.666763e-001
9.063793e+002, 2.817517e-001
9.083078e+002, 2.973753e-001
9.102363e+002, 3.132991e-001
9.121647e+002, 3.283022e-001
9.140932e+002, 3.404143e-001
9.160217e+002, 3.478541e-001
9.179501e+002, 3.476823e-001
9.198786e+002, 3.383477e-001
9.218071e+002, 3.220616e-001
9.237355e+002, 3.037737e-001
9.256640e+002, 2.850008e-001
9.275925e+002, 2.646467e-001
9.295209e+002, 2.465471e-001
9.314494e+002, 2.368345e-001
9.333779e+002, 2.380414e-001
9.353063e+002, 2.491753e-001
9.372348e+002, 2.668667e-001
9.391633e+002, 2.880257e-001
9.410917e+002, 3.103876e-001
9.430202e+002, 3.308731e-001
9.449487e+002, 3.474956e-001
9.468771e+002, 3.577677e-001
9.488056e+002, 3.618441e-001
9.507341e+002, 3.618568e-001
9.526625e+002, 3.584037e-001
9.545910e+002, 3.521501e-001
9.565195e+002, 3.449447e-001
9.584479e+002, 3.375035e-001
9.603764e+002, 3.298478e-001
9.623049e+002, 3.223648e-001
9.642333e+002, 3.156883e-001
9.661618e+002, 3.099314e-001
9.680903e+002, 3.049447e-001
9.700187e+002, 3.006027e-001
9.719472e+002, 2.971033e-001
9.738757e+002, 2.946770e-001
9.758041e+002, 2.930336e-001
9.777326e+002, 2.923878e-001
9.796611e+002, 2.923820e-001
9.815895e+002, 2.927576e-001
9.835180e+002, 2.928042e-001
9.854465e+002, 2.919520e-001
9.873749e+002, 2.901312e-001
9.893034e+002, 2.865373e-001
9.912319e+002, 2.812017e-001
9.931603e+002, 2.740659e-001
9.950888e+002, 2.653686e-001
9.970173e+002, 2.556131e-001
9.989457e+002, 2.447607e-001
1.000874e+003, 2.328512e-001
1.002803e+003, 2.205908e-001
1.004731e+003, 2.084659e-001
1.006660e+003, 1.969848e-001
1.008588e+003, 1.863640e-001
1.010517e+003, 1.760598e-001
1.012445e+003, 1.659027e-001
1.014373e+003, 1.564258e-001
1.016302e+003, 1.479139e-001
1.018230e+003, 1.400238e-001
1.020159e+003, 1.326135e-001
1.022087e+003, 1.262428e-001
1.024016e+003, 1.212714e-001
1.025944e+003, 1.173199e-001
1.027873e+003, 1.147280e-001
1.029801e+003, 1.143078e-001
1.031730e+003, 1.174518e-001
1.033658e+003, 1.251660e-001
1.035587e+003, 1.359603e-001
1.037515e+003, 1.434158e-001
1.039444e+003, 1.423495e-001
1.041372e+003, 1.378574e-001
1.043301e+003, 1.358891e-001
1.045229e+003, 1.365596e-001
1.047157e+003, 1.382265e-001
1.049086e+003, 1.398024e-001
1.051014e+003, 1.413378e-001
1.052943e+003, 1.427433e-001
1.054871e+003, 1.437856e-001
1.056800e+003, 1.441587e-001
1.058728e+003, 1.441157e-001
1.060657e+003, 1.439207e-001
1.062585e+003, 1.435515e-001
1.064514e+003, 1.426454e-001
1.066442e+003, 1.412525e-001
1.068371e+003, 1.393496e-001
1.070299e+003, 1.369322e-001
1.072228e+003, 1.339258e-001
1.074156e+003, 1.306232e-001
1.076084e+003, 1.273724e-001
1.078013e+003, 1.243792e-001
1.079941e+003, 1.218264e-001
1.081870e+003, 1.197277e-001
1.083798e+003, 1.182804e-001
1.085727e+003, 1.175251e-001
1.087655e+003, 1.174992e-001
1.089584e+003, 1.181676e-001
1.091512e+003, 1.190574e-001
1.093441e+003, 1.201677e-001
1.095369e+003, 1.211839e-001
1.097298e+003, 1.219553e-001
1.099226e+003, 1.222956e-001
1.101155e+003, 1.220541e-001
1.103083e+003, 1.215248e-001
1.105011e+003, 1.204354e-001
1.106940e+003, 1.185304e-001
1.108868e+003, 1.156472e-001
1.110797e+003, 1.118146e-001
1.112725e+003, 1.074807e-001
1.114654e+003, 1.027650e-001
1.116582e+003, 9.741578e-002
1.118511e+003, 9.182929e-002
1.120439e+003, 8.630254e-002
1.122368e+003, 8.090799e-002
1.124296e+003, 7.658510e-002
1.126225e+003, 7.294536e-002
1.128153e+003, 6.838551e-002
1.130082e+003, 6.272154e-002
1.132010e+003, 5.675327e-002
1.133938e+003, 5.141395e-002
1.135867e+003, 4.659168e-002
1.137795e+003, 4.211045e-002
1.139724e+003, 3.799325e-002
1.141652e+003, 3.441039e-002
1.143581e+003, 3.127825e-002
1.145509e+003, 2.827282e-002
1.147438e+003, 2.570556e-002
1.149366e+003, 2.358798e-002
1.151295e+003, 2.179898e-002
1.153223e+003, 2.012298e-002
1.155152e+003, 1.864836e-002
1.157080e+003, 1.763614e-002
1.159009e+003, 1.697830e-002
1.160937e+003, 1.672250e-002
1.162865e+003, 1.655422e-002
1.164794e+003, 1.612050e-002
1.166722e+003, 1.546145e-002
1.168651e+003, 1.477097e-002
1.170579e+003, 1.428978e-002
1.172508e+003, 1.387612e-002
1.174436e+003, 1.342511e-002
1.176365e+003, 1.290292e-002
1.178293e+003, 1.233950e-002
1.180222e+003, 1.192083e-002
1.182150e+003, 1.152631e-002
1.184079e+003, 1.097987e-002
1.186007e+003, 1.060626e-002
1.187936e+003, 1.047366e-002
1.189864e+003, 1.027351e-002
1.191792e+003, 1.008451e-002
1.193721e+003, 9.746085e-003
1.195649e+003, 9.426574e-003
1.197578e+003, 9.100114e-003
1.199506e+003, 8.667684e-003
1.201435e+003, 8.313296e-003
1.203363e+003, 7.859698e-003
1.205292e+003, 7.551655e-003
1.207220e+003, 7.202720e-003
1.209149e+003, 6.651018e-003
1.211077e+003, 6.203183e-003
1.213006e+003, 5.828953e-003
1.214934e+003, 5.583643e-003
1.216863e+003, 5.320073e-003
1.218791e+003, 4.973583e-003
1.220719e+003, 4.741182e-003
1.222648e+003, 4.446105e-003
1.224576e+003, 4.344689e-003
1.226505e+003, 4.325031e-003
1.228433e+003, 4.307115e-003
1.230362e+003, 4.233195e-003
1.232290e+003, 4.074994e-003
1.234219e+003, 3.992621e-003
1.236147e+003, 3.869172e-003
1.238076e+003, 3.727780e-003
1.240004e+003, 3.563298e-003
1.241933e+003, 3.416696e-003
1.243861e+003, 3.447243e-003
1.245790e+003, 3.531043e-003
1.247718e+003, 3.409688e-003
1.249646e+003, 3.055530e-003
1.251575e+003, 3.049810e-003
1.253503e+003, 3.101829e-003
1.255432e+003, 2.821019e-003
1.257360e+003, 2.662740e-003
1.259289e+003, 2.630188e-003
1.261217e+003, 2.456323e-003
1.263146e+003, 2.480057e-003
1.265074e+003, 2.417235e-003
1.267003e+003, 2.283169e-003
1.268931e+003, 2.425521e-003
1.270860e+003, 2.612002e-003
1.272788e+003, 2.530015e-003
1.274717e+003, 2.484857e-003
1.276645e+003, 2.651372e-003
1.278573e+003, 2.642578e-003
1.280502e+003, 2.498751e-003
1.282430e+003, 2.365681e-003
1.284359e+003, 2.227135e-003
1.286287e+003, 2.336251e-003
1.288216e+003, 2.415701e-003
1.290144e+003, 2.503374e-003
1.292073e+003, 2.487670e-003
1.294001e+003, 2.339716e-003
1.295930e+003, 2.295396e-003
1.297858e+003, 2.264371e-003
1.299787e+003, 2.261046e-003
1.301715e+003, 2.330033e-003
1.303644e+003, 2.307039e-003
1.305572e+003, 2.171536e-003
1.307500e+003, 2.149484e-003
1.309429e+003, 2.146528e-003
1.311357e+003, 2.003125e-003
1.313286e+003, 2.240090e-003
1.315214e+003, 2.295340e-003
1.317143e+003, 2.042492e-003
1.319071e+003, 2.024804e-003
1.321000e+003, 2.153962e-003
1.322928e+003, 2.196837e-003
1.324857e+003, 2.178869e-003
1.326785e+003, 2.175557e-003
1.328714e+003, 2.165727e-003
1.330642e+003, 2.256742e-003
1.332571e+003, 2.445245e-003
1.334499e+003, 2.496749e-003
1.336427e+003, 2.493375e-003
1.338356e+003, 2.620944e-003
1.340284e+003, 2.741542e-003
1.342213e+003, 2.739039e-003
1.344141e+003, 2.679378e-003
1.346070e+003, 2.903560e-003
1.347998e+003, 3.106709e-003
1.349927e+003, 3.088201e-003
1.351855e+003, 2.872267e-003
1.353784e+003, 2.999109e-003
1.355712e+003, 3.186619e-003
1.357641e+003, 3.178266e-003
1.359569e+003, 3.331530e-003
1.361498e+003, 3.381016e-003
1.363426e+003, 3.361363e-003
1.365354e+003, 3.426802e-003
1.367283e+003, 3.407640e-003
1.369211e+003, 3.592961e-003
1.371140e+003, 3.583348e-003
1.373068e+003, 3.571869e-003
1.374997e+003, 3.797511e-003
1.376925e+003, 4.120219e-003
1.378854e+003, 4.208334e-003
1.380782e+003, 4.185632e-003
1.382711e+003, 4.235912e-003
1.384639e+003, 4.436174e-003
1.386568e+003, 4.628656e-003
1.388496e+003, 4.614130e-003
1.390424e+003, 4.800573e-003
1.392353e+003, 5.142446e-003
1.394281e+003, 5.422481e-003
1.396210e+003, 5.576474e-003
1.398138e+003, 5.905169e-003
1.400067e+003, 6.132189e-003
1.401995e+003, 6.315196e-003
1.403924e+003, 6.461677e-003
1.405852e+003, 6.682844e-003
1.407781e+003, 6.884985e-003
1.409709e+003, 7.047387e-003
1.411638e+003, 7.378074e-003
1.413566e+003, 7.761856e-003
1.415495e+003, 7.862894e-003
1.417423e+003, 7.992787e-003
1.419351e+003, 8.251928e-003
1.421280e+003, 8.481625e-003
1.423208e+003, 8.841311e-003
1.425137e+003, 9.032628e-003
1.427065e+003, 9.055820e-003
1.428994e+003, 9.199697e-003
1.430922e+003, 9.331504e-003
1.432851e+003, 9.325820e-003
1.434779e+003, 9.496420e-003
1.436708e+003, 9.730238e-003
1.438636e+003, 9.744964e-003
1.440565e+003, 9.588536e-003
1.442493e+003, 9.547192e-003
1.444422e+003, 9.645732e-003
1.446350e+003, 9.721796e-003
1.448278e+003, 9.695287e-003
1.450207e+003, 9.859868e-003
1.452135e+003, 9.806629e-003
1.454064e+003, 9.715402e-003
1.455992e+003, 9.600397e-003
1.457921e+003, 9.319140e-003
1.459849e+003, 9.514600e-003
1.461778e+003, 9.503322e-003
1.463706e+003, 9.244330e-003
1.465635e+003, 8.935490e-003
1.467563e+003, 9.099926e-003
1.469492e+003, 9.095906e-003
1.471420e+003, 8.616202e-003
1.473349e+003, 8.069055e-003
1.475277e+003, 8.132868e-003
1.477205e+003, 8.072602e-003
1.479134e+003, 7.981513e-003
1.481062e+003, 7.803162e-003
1.482991e+003, 7.725126e-003
1.484919e+003, 7.669574e-003
1.486848e+003, 7.556025e-003
1.488776e+003, 7.298868e-003
1.490705e+003, 7.056854e-003
1.492633e+003, 7.054297e-003
1.494562e+003, 6.894416e-003
1.496490e+003, 6.644358e-003
1.498419e+003, 6.493170e-003
1.500347e+003, 6.291821e-003
1.502276e+003, 6.189857e-003
1.504204e+003, 6.033775e-003
1.506132e+003, 5.717148e-003
1.508061e+003, 5.518709e-003
1.509989e+003, 5.459386e-003
1.511918e+003, 5.332858e-003
1.513846e+003, 5.259313e-003
1.515775e+003, 5.138512e-003
1.517703e+003, 4.847661e-003
1.519632e+003, 4.736111e-003
1.521560e+003, 4.603802e-003
1.523489e+003, 4.820046e-003
1.525417e+003, 4.884360e-003
1.527346e+003, 4.667429e-003
1.529274e+003, 4.520039e-003
1.531203e+003, 4.405197e-003
1.533131e+003, 4.504333e-003
1.535059e+003, 4.557102e-003
1.536988e+003, 4.509774e-003
1.538916e+003, 4.317054e-003
1.540845e+003, 4.329287e-003
1.542773e+003, 4.470389e-003
1.544702e+003, 4.632985e-003
1.546630e+003, 4.695851e-003
1.548559e+003, 4.887002e-003
1.550487e+003, 4.709228e-003
1.552416e+003, 4.741593e-003
1.554344e+003, 4.965353e-003
1.556273e+003, 5.173967e-003
1.558201e+003, 5.095670e-003
1.560130e+003, 4.780589e-003
1.562058e+003, 4.899230e-003
1.563986e+003, 5.116348e-003
1.565915e+003, 5.340678e-003
1.567843e+003, 5.494030e-003
1.569772e+003, 5.367034e-003
1.571700e+003, 5.468790e-003
1.573629e+003, 5.463341e-003
1.575557e+003, 5.425762e-003
1.577486e+003, 5.474335e-003
1.579414e+003, 5.826520e-003
1.581343e+003, 5.965325e-003
1.583271e+003, 5.973296e-003
1.585200e+003, 6.119421e-003
1.587128e+003, 6.223963e-003
1.589057e+003, 6.298626e-003
1.590985e+003, 6.425810e-003
1.592913e+003, 6.324578e-003
1.594842e+003, 6.214535e-003
1.596770e+003, 6.089214e-003
1.598699e+003, 6.171505e-003
1.600627e+003, 6.210510e-003
1.602556e+003, 6.221735e-003
1.604484e+003, 6.414037e-003
1.606413e+003, 6.542401e-003
1.608341e+003, 6.420871e-003
1.610270e+003, 6.437671e-003
1.612198e+003, 6.568471e-003
1.614127e+003, 6.519690e-003
1.616055e+003, 6.312579e-003
1.617984e+003, 6.149566e-003
1.619912e+003, 6.101684e-003
1.621840e+003, 5.729925e-003
1.623769e+003, 5.512368e-003
1.625697e+003, 5.740677e-003
1.627626e+003, 6.069497e-003
1.629554e+003, 6.143980e-003
1.631483e+003, 6.083278e-003
1.633411e+003, 5.973110e-003
1.635340e+003, 5.511726e-003
1.637268e+003, 5.278105e-003
1.639197e+003, 5.600032e-003
1.641125e+003, 5.647119e-003
1.643054e+003, 5.461347e-003
1.644982e+003, 5.172851e-003
1.646911e+003, 5.013785e-003
1.648839e+003, 5.149365e-003
1.650767e+003, 5.042217e-003
1.652696e+003, 4.437393e-003
1.654624e+003, 4.332512e-003
1.656553e+003, 4.737792e-003
1.658481e+003, 4.860037e-003
1.660410e+003, 4.944456e-003
1.662338e+003, 4.861209e-003
1.664267e+003, 4.705283e-003
1.666195e+003, 4.548046e-003
1.668124e+003, 4.592707e-003
1.670052e+003, 4.546178e-003
1.671981e+003, 4.414350e-003
1.673909e+003, 4.357137e-003
1.675838e+003, 4.383460e-003
1.677766e+003, 4.734231e-003
1.679694e+003, 4.820422e-003
1.681623e+003, 4.526225e-003
1.683551e+003, 4.477606e-003
1.685480e+003, 4.607046e-003
1.687408e+003, 4.893445e-003
1.689337e+003, 4.566248e-003
1.691265e+003, 4.382207e-003
1.693194e+003, 4.469164e-003
1.695122e+003, 4.446906e-003
1.697051e+003, 4.149305e-003
1.698979e+003, 4.316681e-003
1.700908e+003, 3.951055e-003
1.702836e+003, 4.255415e-003
1.704765e+003, 4.279573e-003
1.706693e+003, 4.120100e-003
1.708621e+003, 4.021056e-003
1.710550e+003, 4.307750e-003
1.712478e+003, 4.557344e-003
1.714407e+003, 4.424918e-003
1.716335e+003, 4.202195e-003
1.718264e+003, 3.557006e-003
1.720192e+003, 3.611611e-003
1.722121e+003, 4.030379e-003
1.724049e+003, 4.142596e-003
1.725978e+003, 3.934476e-003
1.727906e+003, 3.583424e-003
1.729835e+003, 3.478429e-003
1.731763e+003, 3.540096e-003
1.733692e+003, 3.607304e-003
1.735620e+003, 3.326076e-003
1.737548e+003, 3.243691e-003
1.739477e+003, 3.275120e-003
1.741405e+003, 2.864152e-003
1.743334e+003, 2.496402e-003
1.745262e+003, 2.420507e-003
1.747191e+003, 2.441867e-003
1.749119e+003, 2.443119e-003
1.751048e+003, 2.441040e-003
1.752976e+003, 2.353793e-003
1.754905e+003, 2.195188e-003
1.756833e+003, 2.236476e-003
1.758762e+003, 2.663655e-003
1.760690e+003, 3.028283e-003
1.762619e+003, 2.530290e-003
1.764547e+003, 2.388361e-003
1.766475e+003, 2.596812e-003
1.768404e+003, 2.556214e-003
1.770332e+003, 2.700279e-003
1.772261e+003, 2.734980e-003
1.774189e+003, 2.551687e-003
1.776118e+003, 2.516053e-003
1.778046e+003, 2.814103e-003
1.779975e+003, 3.137114e-003
1.781903e+003, 3.090262e-003
1.783832e+003, 2.977839e-003
1.785760e+003, 2.731967e-003
1.787689e+003, 2.711542e-003
1.789617e+003, 2.916371e-003
1.791546e+003, 2.972233e-003
1.793474e+003, 2.560232e-003
1.795402e+003, 2.476096e-003
1.797331e+003, 2.242746e-003
1.799259e+003, 2.499756e-003
1.801188e+003, 2.852886e-003
1.803116e+003, 2.633999e-003
1.805045e+003, 2.288308e-003
1.806973e+003, 2.399000e-003
1.808902e+003, 2.220127e-003
1.810830e+003, 2.214245e-003
1.812759e+003, 2.543804e-003
1.814687e+003, 2.243283e-003
1.816616e+003, 2.076009e-003
1.818544e+003, 2.102608e-003
1.820473e+003, 2.160766e-003
1.822401e+003, 2.040668e-003
1.824329e+003, 2.055053e-003
1.826258e+003, 2.193637e-003
1.828186e+003, 2.189730e-003
1.830115e+003, 2.004943e-003
1.832043e+003, 1.908547e-003
1.833972e+003, 1.870370e-003
1.835900e+003, 1.811033e-003
1.837829e+003, 1.653549e-003
1.839757e+003, 1.611044e-003
1.841686e+003, 1.653398e-003
1.843614e+003, 1.536669e-003
1.845543e+003, 1.619130e-003
1.847471e+003, 1.702141e-003
1.849400e+003, 1.305519e-003
1.851328e+003, 1.579537e-003
1.853256e+003, 2.069177e-003
1.855185e+003, 2.494391e-003
1.857113e+003, 2.419223e-003
1.859042e+003, 2.088304e-003
1.860970e+003, 1.723550e-003
1.862899e+003, 2.003395e-003
1.864827e+003, 2.125733e-003
1.866756e+003, 2.259089e-003
1.868684e+003, 2.433139e-003
1.870613e+003, 2.432643e-003
1.872541e+003, 2.069000e-003
1.874470e+003, 1.756505e-003
1.876398e+003, 1.730989e-003
1.878327e+003, 1.249089e-003
1.880255e+003, 1.057615e-003
1.882183e+003, 8.667466e-004
1.884112e+003, 6.704929e-004
1.886040e+003, 1.139397e-003
1.887969e+003, 1.741255e-003
1.889897e+003, 1.340703e-003
1.891826e+003, 9.965642e-004
1.893754e+003, 7.165186e-004
1.895683e+003, 2.827036e-004
1.897611e+003, 4.698016e-004
1.899540e+003, 1.182360e-003
1.901468e+003, 9.744506e-004
1.903397e+003, 4.703969e-004
1.905325e+003, -9.969280e-005
1.907254e+003, 6.058604e-005
1.909182e+003, -4.809140e-005
1.911110e+003, -1.157537e-003
1.913039e+003, -1.087445e-003
1.914967e+003, -4.018639e-004
1.916896e+003, 2.062604e-005
1.918824e+003, -2.663024e-005
1.920753e+003, -5.137975e-004
1.922681e+003, -6.425205e-004
1.924610e+003, -9.637483e-004
1.926538e+003, -7.365650e-004
1.928467e+003, -1.862839e-004
1.930395e+003, -3.303821e-004
1.932324e+003, -7.641253e-004
1.934252e+003, -7.987247e-004
1.936181e+003, -9.935182e-004
1.938109e+003, -2.000428e-003
1.940037e+003, -2.488730e-003
1.941966e+003, -1.482321e-003
1.943894e+003, -1.109231e-003
1.945823e+003, -1.316889e-003
1.947751e+003, -2.287932e-003
1.949680e+003, -2.693443e-003
1.951608e+003, -2.154134e-003
1.953537e+003, -1.586995e-003
1.955465e+003, -2.651889e-003
1.957394e+003, -3.180782e-003
1.959322e+003, -3.178725e-003
1.961251e+003, -3.765974e-003
1.963179e+003, -4.579336e-003
1.965108e+003, -4.276161e-003
1.967036e+003, -3.700525e-003
1.968964e+003, -3.488598e-003
1.970893e+003, -4.350332e-003
1.972821e+003, -4.802104e-003
1.974750e+003, -3.321699e-003
1.976678e+003, -3.571353e-003
1.978607e+003, -3.141023e-003
1.980535e+003, -1.784378e-003
1.982464e+003, -1.048845e-003
1.984392e+003, -7.374856e-004
1.986321e+003, -2.063079e-003
1.988249e+003, -3.454605e-003
1.990178e+003, -4.330185e-003
1.992106e+003, -3.996467e-003
1.994035e+003, -3.144503e-003
1.995963e+003, -2.517882e-003
1.997891e+003, -1.817008e-003
1.999820e+003, -1.552990e-003
2.001748e+003, -2.129711e-003
2.003677e+003, -2.766719e-003
2.005605e+003, -3.810775e-003
2.007534e+003, -3.006879e-003
2.009462e+003, -2.286295e-003
2.011391e+003, -8.526852e-004
2.013319e+003, -7.071067e-004
2.015248e+003, -2.437080e-003
2.017176e+003, -2.419295e-003
2.019105e+003, -1.513155e-003
2.021033e+003, -1.996272e-003
2.022962e+003, -3.456285e-003
2.024890e+003, -1.874608e-003
2.026818e+003, -8.196058e-004
2.028747e+003, -1.693015e-003
2.030675e+003, -1.819188e-003
2.032604e+003, -1.251157e-003
2.034532e+003, -1.289929e-003
2.036461e+003, -1.084725e-003
2.038389e+003, -2.795840e-004
2.040318e+003, 1.606306e-004
2.042246e+003, 5.396392e-004
2.044175e+003, 6.286146e-004
2.046103e+003, 7.014037e-004
2.048032e+003, 1.633830e-003
2.049960e+003, 2.401478e-003
2.051889e+003, 2.991583e-003
2.053817e+003, 1.726061e-003
2.055746e+003, 7.596345e-004
2.057674e+003, 2.110810e-003
2.059603e+003, 2.715029e-003
2.061531e+003, 2.927315e-003
2.063459e+003, 1.930781e-003
2.065388e+003, 8.971398e-004
2.067316e+003, 5.559286e-004
2.069245e+003, 9.636845e-004
2.071173e+003, 2.131414e-003
2.073102e+003, 2.911661e-003
2.075030e+003, 2.419780e-003
2.076959e+003, 2.430040e-003
2.078887e+003, 3.128573e-003
2.080816e+003, 3.405438e-003
2.082744e+003, 2.668552e-003
2.084673e+003, 1.753362e-003
2.086601e+003, 2.130964e-003
2.088530e+003, 2.196557e-003
2.090458e+003, 1.020913e-003
2.092386e+003, -3.023765e-004
2.094315e+003, 2.432909e-004
2.096243e+003, 1.630054e-003
2.098172e+003, 2.727024e-003
2.100100e+003, 3.964692e-003
2.102029e+003, 3.893703e-003
2.103957e+003, 3.824856e-003
2.105886e+003, 3.149666e-003
2.107814e+003, 2.276736e-003
2.109743e+003, 1.911909e-003
2.111671e+003, 2.316674e-003
2.113600e+003, 1.438395e-003
2.115528e+003, 1.243814e-003
2.117457e+003, 1.164534e-003
2.119385e+003, 3.247373e-004
2.121313e+003, 1.937708e-004
2.123242e+003, 2.000649e-004
2.125170e+003, 1.840404e-004
2.127099e+003, 5.770397e-004
2.129027e+003, 1.010905e-003
2.130956e+003, 4.000760e-004
2.132884e+003, -8.329132e-004
2.134813e+003, -1.001462e-003
2.136741e+003, -4.739839e-004
2.138670e+003, -2.572569e-004
2.140598e+003, -7.043200e-004
2.142527e+003, -9.204337e-004
2.144455e+003, -1.606486e-004
2.146384e+003, -1.159143e-003
2.148312e+003, -1.618806e-003
2.150240e+003, -1.633490e-003
2.152169e+003, -2.996238e-003
2.154097e+003, -3.245237e-003
2.156026e+003, -4.183672e-003
2.157954e+003, -5.104790e-003
2.159883e+003, -1.940613e-003
2.161811e+003, -6.852646e-004
2.163740e+003, -1.934677e-003
2.165668e+003, -1.666647e-003
2.167597e+003, 2.886497e-004
2.169525e+003, 2.932485e-004
2.171454e+003, -8.407571e-004
2.173382e+003, 3.787855e-004
2.175311e+003, 1.694655e-003
2.177239e+003, 1.205573e-003
2.179167e+003, -8.210652e-004
2.181096e+003, -1.421721e-003
2.183024e+003, -6.578605e-004
2.184953e+003, -2.230006e-004
2.186881e+003, 2.289476e-004
2.188810e+003, -3.722896e-004
2.190738e+003, -1.389879e-004
2.192667e+003, 2.046576e-003
2.194595e+003, 2.654769e-003
2.196524e+003, 1.969752e-003
2.198452e+003, 2.471992e-003
2.200381e+003, 2.662301e-003
2.202309e+003, 2.392111e-003
2.204238e+003, 2.406236e-003
2.206166e+003, 1.789757e-003
2.208094e+003, 8.818459e-004
2.210023e+003, -2.139014e-004
2.211951e+003, -7.814515e-004
2.213880e+003, 1.143316e-005
2.215808e+003, 2.215987e-003
2.217737e+003, 4.471925e-003
2.219665e+003, 4.948138e-003
2.221594e+003, 4.877273e-003
2.223522e+003, 3.463229e-003
2.225451e+003, 2.325391e-003
2.227379e+003, 1.551496e-003
2.229308e+003, 1.806924e-003
2.231236e+003, 3.229741e-003
2.233165e+003, 4.430376e-003
2.235093e+003, 4.604022e-003
2.237021e+003, 3.281481e-003
2.238950e+003, 2.669877e-003
2.240878e+003, 2.985357e-003
2.242807e+003, 3.858017e-003
2.244735e+003, 5.108375e-003
2.246664e+003, 5.086404e-003
2.248592e+003, 3.495524e-003
2.250521e+003, 2.690566e-003
2.252449e+003, 3.037785e-003
2.254378e+003, 2.686834e-003
2.256306e+003, 3.101785e-003
2.258235e+003, 3.707717e-003
2.260163e+003, 4.508635e-003
2.262092e+003, 5.115850e-003
2.264020e+003, 3.900710e-003
2.265948e+003, 3.543830e-003
2.267877e+003, 4.744449e-003
2.269805e+003, 5.275807e-003
2.271734e+003, 4.570004e-003
2.273662e+003, 4.640331e-003
2.275591e+003, 5.645790e-003
2.277519e+003, 6.209864e-003
2.279448e+003, 5.222429e-003
2.281376e+003, 4.735059e-003
2.283305e+003, 5.027446e-003
2.285233e+003, 5.990713e-003
2.287162e+003, 6.027183e-003
2.289090e+003, 5.637219e-003
2.291019e+003, 5.480413e-003
2.292947e+003, 5.165804e-003
2.294875e+003, 4.420496e-003
2.296804e+003, 5.003584e-003
2.298732e+003, 5.651332e-003
2.300661e+003, 5.976691e-003
2.302589e+003, 5.926582e-003
2.304518e+003, 6.028229e-003
2.306446e+003, 6.280154e-003
2.308375e+003, 6.377930e-003
2.310303e+003, 6.561111e-003
2.312232e+003, 6.460004e-003
2.314160e+003, 6.260782e-003
2.316089e+003, 6.748958e-003
2.318017e+003, 7.060988e-003
2.319946e+003, 6.385851e-003
2.321874e+003, 6.440361e-003
2.323802e+003, 6.360345e-003
2.325731e+003, 5.378271e-003
2.327659e+003, 5.247096e-003
2.329588e+003, 5.238531e-003
2.331516e+003, 5.149957e-003
2.333445e+003, 5.013368e-003
2.335373e+003, 5.048161e-003
2.337302e+003, 5.460880e-003
2.339230e+003, 5.650485e-003
2.341159e+003, 5.173258e-003
2.343087e+003, 5.187888e-003
2.345016e+003, 5.329103e-003
2.346944e+003, 5.522158e-003
2.348873e+003, 5.485578e-003
2.350801e+003, 5.212103e-003
2.352729e+003, 5.009112e-003
2.354658e+003, 4.611809e-003
2.356586e+003, 4.636452e-003
2.358515e+003, 5.084292e-003
2.360443e+003, 4.949570e-003
2.362372e+003, 5.041678e-003
2.364300e+003, 4.682868e-003
2.366229e+003, 4.900758e-003
2.368157e+003, 5.354373e-003
2.370086e+003, 5.350917e-003
2.372014e+003, 5.206015e-003
2.373942e+003, 5.139074e-003
2.375871e+003, 4.909464e-003
2.377799e+003, 4.758795e-003
2.379728e+003, 4.723282e-003
2.381656e+003, 4.866969e-003
2.383585e+003, 5.286992e-003
2.385513e+003, 5.072472e-003
2.387442e+003, 4.562215e-003
2.389370e+003, 4.532032e-003
2.391299e+003, 5.000663e-003
2.393227e+003, 5.405348e-003
2.395156e+003, 5.086216e-003
2.397084e+003, 4.907739e-003
2.399012e+003, 5.019729e-003
2.400941e+003, 5.265842e-003
2.402869e+003, 5.436982e-003
2.404798e+003, 5.908865e-003
2.406726e+003, 6.371865e-003
2.408655e+003, 6.386307e-003
2.410583e+003, 5.627369e-003
2.412512e+003, 5.553084e-003
2.414440e+003, 6.175872e-003
2.416369e+003, 6.047738e-003
2.418297e+003, 5.921853e-003
2.420226e+003, 5.914947e-003
2.422154e+003, 5.418681e-003
2.424083e+003, 5.189082e-003
2.426011e+003, 5.574683e-003
2.427939e+003, 5.783882e-003
2.429868e+003, 5.117492e-003
2.431796e+003, 5.129202e-003
2.433725e+003, 5.962448e-003
2.435653e+003, 6.045139e-003
2.437582e+003, 6.095817e-003
2.439510e+003, 5.981076e-003
2.441439e+003, 5.469787e-003
2.443367e+003, 5.340375e-003
2.445296e+003, 5.801360e-003
2.447224e+003, 5.991137e-003
2.449153e+003, 6.265499e-003
2.451081e+003, 6.435280e-003
2.453010e+003, 5.985141e-003
2.454938e+003, 6.402329e-003
2.456866e+003, 6.866300e-003
2.458795e+003, 6.626164e-003
2.460723e+003, 5.845090e-003
2.462652e+003, 5.575683e-003
2.464580e+003, 6.181172e-003
2.466509e+003, 6.403908e-003
2.468437e+003, 6.240831e-003
2.470366e+003, 5.369810e-003
2.472294e+003, 5.084615e-003
2.474223e+003, 4.906485e-003
2.476151e+003, 4.934959e-003
2.478080e+003, 5.556258e-003
2.480008e+003, 5.982394e-003
2.481937e+003, 5.369408e-003
2.483865e+003, 5.039773e-003
2.485793e+003, 5.623867e-003
2.487722e+003, 5.614127e-003
2.489650e+003, 5.562244e-003
2.491579e+003, 5.722431e-003
2.493507e+003, 5.505408e-003
2.495436e+003, 5.377228e-003
2.497364e+003, 6.298686e-003
2.499293e+003, 6.731855e-003
2.501221e+003, 6.696917e-003
2.503150e+003, 6.399342e-003
2.505078e+003, 5.389574e-003
2.507007e+003, 5.372915e-003
2.508935e+003, 6.196729e-003
2.510864e+003, 6.479989e-003
2.512792e+003, 5.535397e-003
2.514720e+003, 5.361575e-003
2.516649e+003, 6.025868e-003
2.518577e+003, 5.920196e-003
2.520506e+003, 5.231143e-003
2.522434e+003, 4.945999e-003
2.524363e+003, 5.421292e-003
2.526291e+003, 5.461179e-003
2.528220e+003, 5.602011e-003
2.530148e+003, 6.051035e-003
2.532077e+003, 6.885388e-003
2.534005e+003, 6.051960e-003
2.535934e+003, 5.334855e-003
2.537862e+003, 5.317317e-003
2.539791e+003, 5.953403e-003
2.541719e+003, 5.870489e-003
2.543647e+003, 5.508926e-003
2.545576e+003, 5.610297e-003
2.547504e+003, 5.747438e-003
2.549433e+003, 6.054643e-003
2.551361e+003, 5.819086e-003
2.553290e+003, 5.041472e-003
2.555218e+003, 4.858438e-003
2.557147e+003, 5.348061e-003
2.559075e+003, 5.948630e-003
2.561004e+003, 6.476474e-003
2.562932e+003, 6.075033e-003
2.564861e+003, 5.341493e-003
2.566789e+003, 5.032515e-003
2.568718e+003, 5.722739e-003
2.570646e+003, 5.939835e-003
2.572574e+003, 6.146152e-003
2.574503e+003, 6.604330e-003
2.576431e+003, 6.559229e-003
2.578360e+003, 6.690305e-003
2.580288e+003, 6.674645e-003
2.582217e+003, 6.421885e-003
2.584145e+003, 6.629373e-003
2.586074e+003, 6.503238e-003
2.588002e+003, 5.536351e-003
2.589931e+003, 5.278260e-003
2.591859e+003, 6.209061e-003
2.593788e+003, 6.525472e-003
2.595716e+003, 5.429660e-003
2.597645e+003, 5.231316e-003
2.599573e+003, 5.903001e-003
2.601501e+003, 6.502080e-003
2.603430e+003, 6.828632e-003
2.605358e+003, 6.734884e-003
2.607287e+003, 7.111263e-003
2.609215e+003, 6.806096e-003
2.611144e+003, 5.738331e-003
2.613072e+003, 5.732080e-003
2.615001e+003, 6.248199e-003
2.616929e+003, 6.832778e-003
2.618858e+003, 6.910574e-003
2.620786e+003, 5.969433e-003
2.622715e+003, 5.473251e-003
2.624643e+003, 5.840286e-003
2.626572e+003, 6.189280e-003
2.628500e+003, 6.229800e-003
2.630428e+003, 6.562509e-003
2.632357e+003, 6.545070e-003
2.634285e+003, 6.546792e-003
2.636214e+003, 6.627006e-003
2.638142e+003, 6.556021e-003
2.640071e+003, 6.964767e-003
2.641999e+003, 6.575291e-003
2.643928e+003, 6.630588e-003
2.645856e+003, 7.009177e-003
2.647785e+003, 6.707623e-003
2.649713e+003, 6.717607e-003
2.651642e+003, 7.273384e-003
2.653570e+003, 7.417672e-003
2.655499e+003, 7.399815e-003
2.657427e+003, 7.209081e-003
2.659355e+003, 6.437123e-003
2.661284e+003, 6.048445e-003
2.663212e+003, 6.321969e-003
2.665141e+003, 6.751362e-003
2.667069e+003, 6.798038e-003
2.668998e+003, 6.353646e-003
2.670926e+003, 6.205969e-003
2.672855e+003, 5.973401e-003
2.674783e+003, 5.540752e-003
2.676712e+003, 5.728675e-003
2.678640e+003, 5.776308e-003
2.680569e+003, 5.504992e-003
2.682497e+003, 5.722936e-003
2.684426e+003, 5.917191e-003
2.686354e+003, 5.948424e-003
2.688282e+003, 6.033580e-003
2.690211e+003, 6.292836e-003
2.692139e+003, 5.900012e-003
2.694068e+003, 5.439626e-003
2.695996e+003, 5.642700e-003
2.697925e+003, 6.209862e-003
2.699853e+003, 6.267827e-003
2.701782e+003, 6.309793e-003
2.703710e+003, 6.303519e-003
2.705639e+003, 6.239162e-003
2.707567e+003, 6.573682e-003
2.709496e+003, 6.640598e-003
2.711424e+003, 5.935110e-003
2.713353e+003, 5.719448e-003
2.715281e+003, 6.378093e-003
2.717209e+003, 6.077826e-003
2.719138e+003, 5.645296e-003
2.721066e+003, 5.841844e-003
2.722995e+003, 5.883124e-003
2.724923e+003, 6.102242e-003
2.726852e+003, 6.313800e-003
2.728780e+003, 6.306957e-003
2.730709e+003, 6.575892e-003
2.732637e+003, 6.360717e-003
2.734566e+003, 6.161567e-003
2.736494e+003, 6.139280e-003
2.738423e+003, 6.489973e-003
2.740351e+003, 6.609429e-003
2.742280e+003, 6.483265e-003
2.744208e+003, 6.582133e-003
2.746136e+003, 6.509077e-003
2.748065e+003, 6.391023e-003
2.749993e+003, 6.251891e-003
2.751922e+003, 6.403736e-003
2.753850e+003, 6.666942e-003
2.755779e+003, 6.426053e-003
2.757707e+003, 6.341075e-003
2.759636e+003, 6.610773e-003
2.761564e+003, 6.882101e-003
2.763493e+003, 6.484711e-003
2.765421e+003, 6.557079e-003
2.767350e+003, 7.645921e-003
2.769278e+003, 7.398950e-003
2.771207e+003, 6.534890e-003
2.773135e+003, 6.070336e-003
2.775063e+003, 6.709865e-003
2.776992e+003, 7.211228e-003
2.778920e+003, 7.021534e-003
2.780849e+003, 6.965098e-003
2.782777e+003, 6.808576e-003
2.784706e+003, 6.601996e-003
2.786634e+003, 6.574305e-003
2.788563e+003, 6.293562e-003
2.790491e+003, 6.169085e-003
2.792420e+003, 6.329325e-003
2.794348e+003, 6.826642e-003
2.796277e+003, 6.663020e-003
2.798205e+003, 6.126584e-003
2.800134e+003, 6.255761e-003
2.802062e+003, 6.618769e-003
2.803990e+003, 6.866686e-003
2.805919e+003, 6.560012e-003
2.807847e+003, 6.711148e-003
2.809776e+003, 6.301552e-003
2.811704e+003, 6.473050e-003
2.813633e+003, 6.607258e-003
2.815561e+003, 6.403598e-003
2.817490e+003, 6.510851e-003
2.819418e+003, 6.576382e-003
2.821347e+003, 6.193771e-003
2.823275e+003, 6.187581e-003
2.825204e+003, 6.917989e-003
2.827132e+003, 6.941605e-003
2.829061e+003, 7.347432e-003
2.830989e+003, 7.533269e-003
2.832917e+003, 7.359992e-003
2.834846e+003, 7.466825e-003
2.836774e+003, 7.317322e-003
2.838703e+003, 6.762677e-003
2.840631e+003, 7.000774e-003
2.842560e+003, 7.167215e-003
2.844488e+003, 7.512315e-003
2.846417e+003, 6.856387e-003
2.848345e+003, 6.327632e-003
2.850274e+003, 6.963552e-003
2.852202e+003, 7.914682e-003
2.854131e+003, 8.057574e-003
2.856059e+003, 7.290649e-003
2.857988e+003, 7.355958e-003
2.859916e+003, 7.512486e-003
2.861844e+003, 8.029373e-003
2.863773e+003, 8.170424e-003
2.865701e+003, 7.974668e-003
2.867630e+003, 7.667167e-003
2.869558e+003, 8.215552e-003
2.871487e+003, 8.517702e-003
2.873415e+003, 7.879951e-003
2.875344e+003, 7.105996e-003
2.877272e+003, 7.230836e-003
2.879201e+003, 8.016158e-003
2.881129e+003, 7.638499e-003
2.883058e+003, 7.557533e-003
2.884986e+003, 7.776769e-003
2.886915e+003, 7.068415e-003
2.888843e+003, 7.208669e-003
2.890771e+003, 7.712290e-003
2.892700e+003, 7.992737e-003
2.894628e+003, 7.741430e-003
2.896557e+003, 7.495128e-003
2.898485e+003, 7.752195e-003
2.900414e+003, 7.690365e-003
2.902342e+003, 7.944784e-003
2.904271e+003, 8.030370e-003
2.906199e+003, 7.969862e-003
2.908128e+003, 8.140920e-003
2.910056e+003, 8.961607e-003
2.911985e+003, 8.969584e-003
2.913913e+003, 8.466444e-003
2.915842e+003, 8.205023e-003
2.917770e+003, 7.892229e-003
2.919698e+003, 8.313568e-003
2.921627e+003, 8.189479e-003
2.923555e+003, 8.657817e-003
2.925484e+003, 9.092062e-003
2.927412e+003, 9.019602e-003
2.929341e+003, 8.722468e-003
2.931269e+003, 8.642711e-003
2.933198e+003, 8.311709e-003
2.935126e+003, 8.164264e-003
2.937055e+003, 8.182872e-003
2.938983e+003, 7.778933e-003
2.940912e+003, 7.431291e-003
2.942840e+003, 7.575091e-003
2.944769e+003, 7.766106e-003
2.946697e+003, 7.945133e-003
2.948625e+003, 8.072597e-003
2.950554e+003, 7.870403e-003
2.952482e+003, 7.630872e-003
2.954411e+003, 8.249702e-003
2.956339e+003, 8.632663e-003
2.958268e+003, 8.252642e-003
2.960196e+003, 7.616328e-003
2.962125e+003, 7.960970e-003
2.964053e+003, 8.108837e-003
2.965982e+003, 8.152216e-003
2.967910e+003, 7.716458e-003
2.969839e+003, 7.775402e-003
2.971767e+003, 8.377735e-003
2.973696e+003, 7.770448e-003
2.975624e+003, 7.247323e-003
2.977552e+003, 7.504912e-003
2.979481e+003, 8.272300e-003
2.981409e+003, 8.545421e-003
2.983338e+003, 8.372037e-003
2.985266e+003, 8.284919e-003
2.987195e+003, 7.823044e-003
2.989123e+003, 7.657155e-003
2.991052e+003, 7.012488e-003
2.992980e+003, 7.173070e-003
2.994909e+003, 7.625530e-003
2.996837e+003, 7.302129e-003
2.998766e+003, 6.934986e-003
3.000694e+003, 7.306663e-003
3.002623e+003, 7.680591e-003
3.004551e+003, 7.500457e-003
3.006479e+003, 8.108808e-003
3.008408e+003, 8.552609e-003
3.010336e+003, 7.689456e-003
3.012265e+003, 6.692376e-003
3.014193e+003, 6.828809e-003
3.016122e+003, 7.505495e-003
3.018050e+003, 8.030356e-003
3.019979e+003, 7.938028e-003
3.021907e+003, 7.156705e-003
3.023836e+003, 7.278427e-003
3.025764e+003, 7.708009e-003
3.027693e+003, 8.109445e-003
3.029621e+003, 8.487775e-003
3.031550e+003, 7.734105e-003
3.033478e+003, 7.307289e-003
3.035406e+003, 7.161262e-003
3.037335e+003, 6.716077e-003
3.039263e+003, 6.738484e-003
3.041192e+003, 7.024257e-003
3.043120e+003, 6.363927e-003
3.045049e+003, 6.656800e-003
3.046977e+003, 7.867496e-003
3.048906e+003, 8.082435e-003
3.050834e+003, 7.894614e-003
3.052763e+003, 8.392734e-003
3.054691e+003, 7.986749e-003
3.056620e+003, 7.867097e-003
3.058548e+003, 8.917953e-003
3.060477e+003, 9.364760e-003
3.062405e+003, 8.312810e-003
3.064333e+003, 8.427705e-003
3.066262e+003, 8.902235e-003
3.068190e+003, 9.175844e-003
3.070119e+003, 8.998845e-003
3.072047e+003, 8.365909e-003
3.073976e+003, 8.480925e-003
3.075904e+003, 8.164489e-003
3.077833e+003, 8.195849e-003
3.079761e+003, 7.750473e-003
3.081690e+003, 7.073289e-003
3.083618e+003, 7.963594e-003
3.085547e+003, 8.485259e-003
3.087475e+003, 8.197568e-003
3.089404e+003, 8.957790e-003
3.091332e+003, 9.158934e-003
3.093260e+003, 9.106592e-003
3.095189e+003, 9.511204e-003
3.097117e+003, 8.571421e-003
3.099046e+003, 7.479057e-003
3.100974e+003, 7.293602e-003
3.102903e+003, 8.153213e-003
3.104831e+003, 8.378396e-003
3.106760e+003, 8.640309e-003
3.108688e+003, 8.990629e-003
3.110617e+003, 8.296092e-003
3.112545e+003, 7.872752e-003
3.114474e+003, 7.937853e-003
3.116402e+003, 7.678616e-003
3.118331e+003, 7.615949e-003
3.120259e+003, 7.754351e-003
3.122188e+003, 8.135123e-003
3.124116e+003, 8.264462e-003
3.126044e+003, 8.017752e-003
3.127973e+003, 7.848755e-003
3.129901e+003, 7.879450e-003
3.131830e+003, 8.446771e-003
3.133758e+003, 8.443406e-003
3.135687e+003, 8.163301e-003
3.137615e+003, 8.489193e-003
3.139544e+003, 8.697456e-003
3.141472e+003, 9.431317e-003
3.143401e+003, 9.253966e-003
3.145329e+003, 8.767564e-003
3.147258e+003, 8.024146e-003
3.149186e+003, 8.256997e-003
3.151115e+003, 8.578815e-003
3.153043e+003, 8.369185e-003
3.154971e+003, 8.789351e-003
3.156900e+003, 8.907080e-003
3.158828e+003, 1.020037e-002
3.160757e+003, 1.062898e-002
3.162685e+003, 9.163328e-003
3.164614e+003, 8.086998e-003
3.166542e+003, 8.423505e-003
3.168471e+003, 9.445640e-003
3.170399e+003, 9.566187e-003
3.172328e+003, 9.430191e-003
3.174256e+003, 9.561991e-003
3.176185e+003, 9.545424e-003
3.178113e+003, 9.387423e-003
3.180042e+003, 8.561929e-003
3.181970e+003, 8.856290e-003
3.183898e+003, 1.024019e-002
3.185827e+003, 9.863163e-003
3.187755e+003, 8.859291e-003
3.189684e+003, 8.742342e-003
3.191612e+003, 8.774891e-003
3.193541e+003, 9.869614e-003
3.195469e+003, 1.126439e-002
3.197398e+003, 1.047105e-002
3.199326e+003, 9.264734e-003
3.201255e+003, 9.632789e-003
3.203183e+003, 8.974575e-003
3.205112e+003, 8.515317e-003
3.207040e+003, 8.853757e-003
3.208969e+003, 9.929177e-003
3.210897e+003, 9.807047e-003
3.212825e+003, 9.122216e-003
3.214754e+003, 8.758826e-003
3.216682e+003, 9.047196e-003
3.218611e+003, 8.658607e-003
3.220539e+003, 8.429294e-003
3.222468e+003, 8.957773e-003
3.224396e+003, 7.908355e-003
3.226325e+003, 8.028409e-003
3.228253e+003, 9.576898e-003
3.230182e+003, 9.942060e-003
3.232110e+003, 9.682884e-003
3.234039e+003, 9.735590e-003
3.235967e+003, 9.651037e-003
3.237896e+003, 9.524247e-003
3.239824e+003, 1.066106e-002
3.241752e+003, 9.961025e-003
3.243681e+003, 8.250345e-003
3.245609e+003, 8.441880e-003
3.247538e+003, 9.686890e-003
3.249466e+003, 9.992566e-003
3.251395e+003, 9.314743e-003
3.253323e+003, 9.029500e-003
3.255252e+003, 9.508825e-003
3.257180e+003, 8.555420e-003
3.259109e+003, 8.929312e-003
3.261037e+003, 9.747888e-003
3.262966e+003, 1.000943e-002
3.264894e+003, 9.574955e-003
3.266823e+003, 8.258613e-003
3.268751e+003, 7.709248e-003
3.270679e+003, 7.776189e-003
3.272608e+003, 8.459210e-003
3.274536e+003, 9.191141e-003
3.276465e+003, 9.393091e-003
3.278393e+003, 8.698742e-003
3.280322e+003, 9.390639e-003
3.282250e+003, 9.524295e-003
3.284179e+003, 8.377505e-003
3.286107e+003, 9.065146e-003
3.288036e+003, 1.099524e-002
3.289964e+003, 1.025549e-002
3.291893e+003, 9.274038e-003
3.293821e+003, 9.295591e-003
3.295750e+003, 8.868606e-003
3.297678e+003, 8.746992e-003
3.299606e+003, 8.579815e-003
3.301535e+003, 8.632561e-003
3.303463e+003, 9.352571e-003
3.305392e+003, 9.318363e-003
3.307320e+003, 9.918422e-003
3.309249e+003, 9.577587e-003
3.311177e+003, 8.017782e-003
3.313106e+003, 8.943259e-003
3.315034e+003, 9.878592e-003
3.316963e+003, 9.354846e-003
3.318891e+003, 8.814979e-003
3.320820e+003, 9.554257e-003
3.322748e+003, 9.681616e-003
3.324677e+003, 8.794404e-003
3.326605e+003, 8.571663e-003
3.328533e+003, 8.814803e-003
3.330462e+003, 9.319425e-003
3.332390e+003, 9.871344e-003
3.334319e+003, 1.110732e-002
3.336247e+003, 1.055224e-002
3.338176e+003, 9.929048e-003
3.340104e+003, 1.018835e-002
3.342033e+003, 1.010074e-002
3.343961e+003, 9.983857e-003
3.345890e+003, 9.697382e-003
3.347818e+003, 9.535136e-003
3.349747e+003, 9.319203e-003
3.351675e+003, 9.089546e-003
3.353604e+003, 9.275037e-003
3.355532e+003, 9.232680e-003
3.357460e+003, 9.247327e-003
3.359389e+003, 9.216227e-003
3.361317e+003, 1.116884e-002
3.363246e+003, 1.231108e-002
3.365174e+003, 1.134756e-002
3.367103e+003, 1.073072e-002
3.369031e+003, 1.103108e-002
3.370960e+003, 1.073024e-002
3.372888e+003, 9.574159e-003
3.374817e+003, 9.526461e-003
3.376745e+003, 1.074534e-002
3.378674e+003, 1.021233e-002
3.380602e+003, 8.989832e-003
3.382531e+003, 8.634011e-003
3.384459e+003, 9.093874e-003
3.386387e+003, 1.071979e-002
3.388316e+003, 1.086217e-002
3.390244e+003, 1.147259e-002
3.392173e+003, 1.182115e-002
3.394101e+003, 1.042638e-002
3.396030e+003, 9.561644e-003
3.397958e+003, 9.677514e-003
3.399887e+003, 9.197397e-003
3.401815e+003, 9.563155e-003
3.403744e+003, 9.841745e-003
3.405672e+003, 9.611308e-003
3.407601e+003, 8.861767e-003
3.409529e+003, 8.567214e-003
3.411458e+003, 9.443776e-003
3.413386e+003, 1.058640e-002
3.415314e+003, 1.039469e-002
3.417243e+003, 1.022650e-002
3.419171e+003, 1.089247e-002
3.421100e+003, 9.893834e-003
3.423028e+003, 9.609068e-003
3.424957e+003, 1.069419e-002
3.426885e+003, 1.069717e-002
3.428814e+003, 9.341334e-003
3.430742e+003, 8.132219e-003
3.432671e+003, 8.575436e-003
3.434599e+003, 9.333675e-003
3.436528e+003, 1.124202e-002
3.438456e+003, 1.112851e-002
3.440385e+003, 8.775084e-003
3.442313e+003, 9.076063e-003
3.444241e+003, 1.001751e-002
3.446170e+003, 1.040192e-002
3.448098e+003, 1.014221e-002
3.450027e+003, 9.154711e-003
3.451955e+003, 8.337734e-003
3.453884e+003, 9.672158e-003
3.455812e+003, 9.775859e-003
3.457741e+003, 9.315295e-003
3.459669e+003, 9.293530e-003
3.461598e+003, 9.469445e-003
3.463526e+003, 1.104978e-002
3.465455e+003, 1.107344e-002
3.467383e+003, 1.061075e-002
3.469312e+003, 1.092672e-002
3.471240e+003, 9.220626e-003
3.473168e+003, 8.273964e-003
3.475097e+003, 9.668153e-003
3.477025e+003, 1.017423e-002
3.478954e+003, 8.731742e-003
3.480882e+003, 7.579576e-003
3.482811e+003, 8.886768e-003
3.484739e+003, 1.025119e-002
3.486668e+003, 9.608670e-003
3.488596e+003, 9.655346e-003
3.490525e+003, 1.015731e-002
3.492453e+003, 9.971431e-003
3.494382e+003, 9.189014e-003
3.496310e+003, 8.922996e-003
3.498239e+003, 1.045682e-002
3.500167e+003, 1.088215e-002
3.502095e+003, 8.251506e-003
3.504024e+003, 6.398750e-003
3.505952e+003, 7.891345e-003
3.507881e+003, 9.468417e-003
3.509809e+003, 9.675207e-003
3.511738e+003, 9.402248e-003
3.513666e+003, 8.982442e-003
3.515595e+003, 1.010227e-002
3.517523e+003, 1.172267e-002
3.519452e+003, 1.038050e-002
3.521380e+003, 8.197701e-003
3.523309e+003, 8.344803e-003
3.525237e+003, 9.274092e-003
3.527166e+003, 9.416348e-003
3.529094e+003, 9.137672e-003
3.531022e+003, 9.295586e-003
3.532951e+003, 9.050457e-003
3.534879e+003, 9.058394e-003
3.536808e+003, 1.026006e-002
3.538736e+003, 1.033985e-002
3.540665e+003, 9.108795e-003
3.542593e+003, 7.974463e-003
3.544522e+003, 9.393129e-003
3.546450e+003, 9.778999e-003
3.548379e+003, 1.091596e-002
3.550307e+003, 1.021152e-002
3.552236e+003, 8.142937e-003
3.554164e+003, 7.136385e-003
3.556093e+003, 7.549480e-003
3.558021e+003, 8.483635e-003
3.559949e+003, 7.939247e-003
3.561878e+003, 7.159875e-003
3.563806e+003, 7.648673e-003
3.565735e+003, 7.180667e-003
3.567663e+003, 7.609162e-003
3.569592e+003, 8.907067e-003
3.571520e+003, 8.442987e-003
3.573449e+003, 8.372138e-003
3.575377e+003, 6.985999e-003
3.577306e+003, 7.146297e-003
3.579234e+003, 7.590447e-003
3.581163e+003, 8.153483e-003
3.583091e+003, 7.642911e-003
3.585020e+003, 7.002850e-003
3.586948e+003, 6.883052e-003
3.588876e+003, 7.180735e-003
3.590805e+003, 8.791749e-003
3.592733e+003, 8.961024e-003
3.594662e+003, 8.257559e-003
3.596590e+003, 8.746982e-003
3.598519e+003, 9.139553e-003
3.600447e+003, 8.374915e-003
3.602376e+003, 7.642684e-003
3.604304e+003, 5.768256e-003
3.606233e+003, 7.296791e-003
3.608161e+003, 9.364327e-003
3.610090e+003, 8.618748e-003
3.612018e+003, 7.716999e-003
3.613947e+003, 7.160144e-003
3.615875e+003, 7.464680e-003
3.617803e+003, 8.986940e-003
3.619732e+003, 8.301705e-003
3.621660e+003, 6.477555e-003
3.623589e+003, 6.016873e-003
3.625517e+003, 5.958244e-003
3.627446e+003, 4.717883e-003
3.629374e+003, 6.923235e-003
3.631303e+003, 9.984726e-003
3.633231e+003, 8.343247e-003
3.635160e+003, 7.645828e-003
3.637088e+003, 9.614091e-003
3.639017e+003, 8.908061e-003
3.640945e+003, 7.497198e-003
3.642874e+003, 9.050063e-003
3.644802e+003, 9.044915e-003
3.646730e+003, 6.577140e-003
3.648659e+003, 7.840860e-003
3.650587e+003, 9.622400e-003
3.652516e+003, 8.932127e-003
3.654444e+003, 8.091018e-003
3.656373e+003, 8.404968e-003
3.658301e+003, 9.426923e-003
3.660230e+003, 9.693697e-003
3.662158e+003, 9.400529e-003
3.664087e+003, 1.003355e-002
3.666015e+003, 8.387592e-003
3.667944e+003, 7.470009e-003
3.669872e+003, 1.233937e-002
3.671801e+003, 2.705833e-002
3.673729e+003, 4.016977e-002
3.675657e+003, 2.641840e-002
3.677586e+003, 9.848270e-003
3.679514e+003, 5.228921e-003
3.681443e+003, 3.945052e-003
3.683371e+003, 5.773811e-003
3.685300e+003, 6.377660e-003
3.687228e+003, 3.817382e-003
3.689157e+003, 2.957180e-003
3.691085e+003, 5.985505e-003
3.693014e+003, 9.100139e-003
3.694942e+003, 8.708760e-003
3.696871e+003, 6.947442e-003
3.698799e+003, 6.146221e-003
3.700728e+003, 6.052574e-003
3.702656e+003, 7.189577e-003
3.704584e+003, 6.880780e-003
3.706513e+003, 7.290612e-003
3.708441e+003, 6.652886e-003
3.710370e+003, 5.812873e-003
3.712298e+003, 5.466118e-003
3.714227e+003, 7.857600e-003
3.716155e+003, 8.439212e-003
3.718084e+003, 6.636332e-003
3.720012e+003, 5.643662e-003
3.721941e+003, 6.699252e-003
3.723869e+003, 5.183463e-003
3.725798e+003, 4.282991e-003
3.727726e+003, 5.613851e-003
3.729655e+003, 7.103401e-003
3.731583e+003, 7.011974e-003
3.733511e+003, 4.844601e-003
3.735440e+003, 5.244692e-003
3.737368e+003, 5.652270e-003
3.739297e+003, 5.026081e-003
3.741225e+003, 5.781776e-003
3.743154e+003, 5.584469e-003
3.745082e+003, 4.861221e-003
3.747011e+003, 4.350735e-003
3.748939e+003, 3.592013e-003
3.750868e+003, 2.382131e-003
3.752796e+003, 2.763672e-003
3.754725e+003, 4.641249e-003
3.756653e+003, 6.700140e-003
3.758582e+003, 7.574054e-003
3.760510e+003, 7.328401e-003
3.762438e+003, 7.476368e-003
3.764367e+003, 6.472088e-003
3.766295e+003, 6.760253e-003
3.768224e+003, 6.441032e-003
3.770152e+003, 5.671016e-003
3.772081e+003, 5.116302e-003
3.774009e+003, 4.207375e-003
3.775938e+003, 3.784181e-003
3.777866e+003, 4.720931e-003
3.779795e+003, 4.566659e-003
3.781723e+003, 5.574401e-003
3.783652e+003, 7.276880e-003
3.785580e+003, 7.255473e-003
3.787509e+003, 7.279480e-003
3.789437e+003, 7.650047e-003
3.791365e+003, 6.837856e-003
3.793294e+003, 4.615080e-003
3.795222e+003, 3.528330e-003
3.797151e+003, 5.227622e-003
3.799079e+003, 6.393459e-003
3.801008e+003, 6.582337e-003
3.802936e+003, 7.630344e-003
3.804865e+003, 4.439665e-003
3.806793e+003, 2.173862e-003
3.808722e+003, 3.497666e-003
3.810650e+003, 8.239157e-003
3.812579e+003, 1.012031e-002
3.814507e+003, 6.900062e-003
3.816436e+003, 4.376939e-003
3.818364e+003, 6.923571e-003
3.820292e+003, 6.753658e-003
3.822221e+003, 5.812887e-003
3.824149e+003, 8.111193e-003
3.826078e+003, 6.317629e-003
3.828006e+003, 3.316709e-003
3.829935e+003, 3.245726e-003
3.831863e+003, 5.692223e-003
3.833792e+003, 7.739228e-003
3.835720e+003, 8.578909e-003
3.837649e+003, 7.019865e-003
3.839577e+003, 3.567194e-003
3.841506e+003, 3.157760e-003
3.843434e+003, 5.143276e-003
3.845363e+003, 6.201376e-003
3.847291e+003, 7.255783e-003
3.849219e+003, 8.668724e-003
3.851148e+003, 7.462707e-003
3.853076e+003, 3.600731e-003
3.855005e+003, 2.682459e-003
3.856933e+003, 4.332128e-003
3.858862e+003, 7.005383e-003
3.860790e+003, 7.939727e-003
3.862719e+003, 5.830985e-003
3.864647e+003, 6.038929e-003
3.866576e+003, 5.114782e-003
3.868504e+003, 4.219240e-003
3.870433e+003, 3.751219e-003
3.872361e+003, 4.667505e-003
3.874290e+003, 5.475398e-003
3.876218e+003, 6.169532e-003
3.878146e+003, 4.764346e-003
3.880075e+003, 4.320242e-003
3.882003e+003, 5.629849e-003
3.883932e+003, 5.068555e-003
3.885860e+003, 5.295977e-003
3.887789e+003, 7.080783e-003
3.889717e+003, 6.936730e-003
3.891646e+003, 4.911961e-003
3.893574e+003, 4.320795e-003
3.895503e+003, 5.395046e-003
3.897431e+003, 5.918888e-003
3.899360e+003, 5.406436e-003
3.901288e+003, 7.211140e-003
3.903217e+003, 7.354132e-003
3.905145e+003, 5.617654e-003
3.907073e+003, 4.847296e-003
3.909002e+003, 4.129566e-003
3.910930e+003, 4.962177e-003
3.912859e+003, 5.926925e-003
3.914787e+003, 8.420819e-003
3.916716e+003, 1.032773e-002
3.918644e+003, 8.431193e-003
3.920573e+003, 4.442843e-003
3.922501e+003, 3.163374e-003
3.924430e+003, 4.138687e-003
3.926358e+003, 5.886903e-003
3.928287e+003, 6.429872e-003
3.930215e+003, 5.558542e-003
3.932144e+003, 5.762114e-003
3.934072e+003, 4.949953e-003
3.936000e+003, 4.167889e-003
3.937929e+003, 4.481662e-003
3.939857e+003, 4.634253e-003
3.941786e+003, 3.799591e-003
3.943714e+003, 4.669996e-003
3.945643e+003, 6.741733e-003
3.947571e+003, 6.119931e-003
3.949500e+003, 4.144830e-003
3.951428e+003, 4.563440e-003
3.953357e+003, 6.335206e-003
3.955285e+003, 8.064580e-003
3.957214e+003, 7.225107e-003
3.959142e+003, 6.811427e-003
3.961071e+003, 6.762055e-003
3.962999e+003, 6.487520e-003
3.964927e+003, 5.487504e-003
3.966856e+003, 4.293475e-003
3.968784e+003, 3.029485e-003
3.970713e+003, 3.690965e-003
3.972641e+003, 5.456377e-003
3.974570e+003, 4.920598e-003
3.976498e+003, 5.953984e-003
3.978427e+003, 6.343209e-003
3.980355e+003, 4.621368e-003
3.982284e+003, 3.434779e-003
3.984212e+003, 4.034094e-003
3.986141e+003, 7.244708e-003
3.988069e+003, 9.153389e-003
3.989998e+003, 7.110319e-003
3.991926e+003, 6.584771e-003
3.993854e+003, 5.968879e-003
3.995783e+003, 6.355289e-003
3.997711e+003, 7.658930e-003
3.999640e+003, 7.662859e-003
##END=



