##NAMES=Triplite
##RRUFFID=R050226
##IDEAL CHEMISTRY=Mn^2+^_2_(PO_4_)F
##LOCALITY=Fremont County, Colorado, USA
##OWNER=RRUFF
##SOURCE=Marcus Origlieri
##DESCRIPTION=Reddish brown massive
##STATUS=The identification of this mineral has been confirmed by X-ray diffraction and chemical analysis
##URL=rruff.info/R050226
##MEASURED CHEMISTRY=(Mn^2+^_1.20_Mg_0.49_Fe^2+^_0.27_Ca_0.04_)_Σ=2_(P_1.00_O_4_)(F_0.95_(OH)_0.05_)_Σ=1_
3.741225e+002, 2.010778e-001
3.760510e+002, 1.824281e-001
3.779795e+002, 1.697486e-001
3.799079e+002, 1.644579e-001
3.818364e+002, 1.556088e-001
3.837649e+002, 1.505855e-001
3.856933e+002, 1.525621e-001
3.876218e+002, 1.424294e-001
3.895503e+002, 1.328335e-001
3.914787e+002, 1.336424e-001
3.934072e+002, 1.324892e-001
3.953357e+002, 1.274377e-001
3.972641e+002, 1.215624e-001
3.991926e+002, 1.189240e-001
4.011211e+002, 1.164567e-001
4.030495e+002, 1.124528e-001
4.049780e+002, 1.076725e-001
4.069065e+002, 1.024192e-001
4.088349e+002, 9.628225e-002
4.107634e+002, 9.441774e-002
4.126919e+002, 9.255874e-002
4.146203e+002, 8.912259e-002
4.165488e+002, 8.707913e-002
4.184773e+002, 8.536492e-002
4.204057e+002, 8.319305e-002
4.223342e+002, 8.113988e-002
4.242627e+002, 7.844799e-002
4.261911e+002, 7.599412e-002
4.281196e+002, 7.488409e-002
4.300481e+002, 7.442765e-002
4.319765e+002, 7.517860e-002
4.339050e+002, 7.639003e-002
4.358335e+002, 7.778669e-002
4.377619e+002, 7.849985e-002
4.396904e+002, 8.024676e-002
4.416189e+002, 8.372661e-002
4.435473e+002, 8.723247e-002
4.454758e+002, 9.043976e-002
4.474043e+002, 9.315275e-002
4.493327e+002, 9.567245e-002
4.512612e+002, 9.793179e-002
4.531897e+002, 9.904915e-002
4.551181e+002, 9.802981e-002
4.570466e+002, 9.530932e-002
4.589751e+002, 9.219904e-002
4.609035e+002, 8.922166e-002
4.628320e+002, 8.618573e-002
4.647605e+002, 8.304384e-002
4.666889e+002, 8.056165e-002
4.686174e+002, 7.806420e-002
4.705459e+002, 7.607754e-002
4.724743e+002, 7.411082e-002
4.744028e+002, 7.196715e-002
4.763313e+002, 6.980104e-002
4.782597e+002, 6.784648e-002
4.801882e+002, 6.511610e-002
4.821167e+002, 6.244162e-002
4.840451e+002, 6.065602e-002
4.859736e+002, 5.942985e-002
4.879021e+002, 5.800496e-002
4.898305e+002, 5.696496e-002
4.917590e+002, 5.598805e-002
4.936875e+002, 5.434804e-002
4.956159e+002, 5.232291e-002
4.975444e+002, 5.091181e-002
4.994729e+002, 4.939967e-002
5.014013e+002, 4.818160e-002
5.033298e+002, 4.753649e-002
5.052583e+002, 4.677637e-002
5.071867e+002, 4.641007e-002
5.091152e+002, 4.594938e-002
5.110437e+002, 4.523296e-002
5.129721e+002, 4.484579e-002
5.149006e+002, 4.461513e-002
5.168290e+002, 4.459224e-002
5.187575e+002, 4.531797e-002
5.206860e+002, 4.603850e-002
5.226144e+002, 4.665902e-002
5.245429e+002, 4.769211e-002
5.264714e+002, 4.865095e-002
5.283998e+002, 5.006602e-002
5.303283e+002, 5.219938e-002
5.322568e+002, 5.400971e-002
5.341852e+002, 5.649060e-002
5.361137e+002, 6.009040e-002
5.380422e+002, 6.373249e-002
5.399706e+002, 6.744469e-002
5.418991e+002, 7.244709e-002
5.438276e+002, 7.774836e-002
5.457560e+002, 8.334321e-002
5.476845e+002, 9.069354e-002
5.496130e+002, 9.978798e-002
5.515414e+002, 1.104528e-001
5.534699e+002, 1.232439e-001
5.553984e+002, 1.377340e-001
5.573268e+002, 1.543820e-001
5.592553e+002, 1.729631e-001
5.611838e+002, 1.917627e-001
5.631122e+002, 2.099591e-001
5.650407e+002, 2.271363e-001
5.669692e+002, 2.412025e-001
5.688976e+002, 2.524900e-001
5.708261e+002, 2.613497e-001
5.727546e+002, 2.659300e-001
5.746830e+002, 2.672608e-001
5.766115e+002, 2.644746e-001
5.785400e+002, 2.575169e-001
5.804684e+002, 2.477185e-001
5.823969e+002, 2.365183e-001
5.843254e+002, 2.242019e-001
5.862538e+002, 2.127997e-001
5.881823e+002, 2.013544e-001
5.901108e+002, 1.899613e-001
5.920392e+002, 1.793015e-001
5.939677e+002, 1.690967e-001
5.958962e+002, 1.597698e-001
5.978246e+002, 1.516517e-001
5.997531e+002, 1.448720e-001
6.016816e+002, 1.386152e-001
6.036100e+002, 1.325797e-001
6.055385e+002, 1.265861e-001
6.074670e+002, 1.202867e-001
6.093954e+002, 1.135034e-001
6.113239e+002, 1.067262e-001
6.132524e+002, 1.004517e-001
6.151808e+002, 9.523871e-002
6.171093e+002, 9.097449e-002
6.190378e+002, 8.772863e-002
6.209662e+002, 8.521352e-002
6.228947e+002, 8.255084e-002
6.248232e+002, 7.928717e-002
6.267516e+002, 7.518137e-002
6.286801e+002, 7.034715e-002
6.306086e+002, 6.567714e-002
6.325370e+002, 6.104401e-002
6.344655e+002, 5.658396e-002
6.363940e+002, 5.248713e-002
6.383224e+002, 4.896478e-002
6.402509e+002, 4.609229e-002
6.421794e+002, 4.354696e-002
6.441078e+002, 4.148531e-002
6.460363e+002, 3.987289e-002
6.479648e+002, 3.866514e-002
6.498932e+002, 3.750950e-002
6.518217e+002, 3.661142e-002
6.537502e+002, 3.590763e-002
6.556786e+002, 3.522254e-002
6.576071e+002, 3.433282e-002
6.595356e+002, 3.313366e-002
6.614641e+002, 3.195539e-002
6.633925e+002, 3.071244e-002
6.653210e+002, 2.914193e-002
6.672495e+002, 2.771047e-002
6.691779e+002, 2.659992e-002
6.711064e+002, 2.559931e-002
6.730349e+002, 2.476912e-002
6.749633e+002, 2.415465e-002
6.768918e+002, 2.359417e-002
6.788203e+002, 2.329444e-002
6.807487e+002, 2.299643e-002
6.826772e+002, 2.249062e-002
6.846057e+002, 2.213758e-002
6.865341e+002, 2.197390e-002
6.884626e+002, 2.170417e-002
6.903911e+002, 2.149733e-002
6.923195e+002, 2.133674e-002
6.942480e+002, 2.118649e-002
6.961765e+002, 2.101453e-002
6.981049e+002, 2.091427e-002
7.000334e+002, 2.093188e-002
7.019619e+002, 2.079999e-002
7.038903e+002, 2.075711e-002
7.058188e+002, 2.070247e-002
7.077473e+002, 2.054980e-002
7.096757e+002, 2.031994e-002
7.116042e+002, 2.017867e-002
7.135327e+002, 2.018960e-002
7.154611e+002, 2.014722e-002
7.173896e+002, 2.020057e-002
7.193181e+002, 2.027416e-002
7.212465e+002, 2.039083e-002
7.231750e+002, 2.064453e-002
7.251035e+002, 2.092870e-002
7.270319e+002, 2.085645e-002
7.289604e+002, 2.055480e-002
7.308889e+002, 2.026699e-002
7.328173e+002, 2.000775e-002
7.347458e+002, 1.985500e-002
7.366743e+002, 1.983606e-002
7.386027e+002, 1.992908e-002
7.405312e+002, 1.997899e-002
7.424597e+002, 1.994837e-002
7.443881e+002, 2.003765e-002
7.463166e+002, 2.007762e-002
7.482451e+002, 1.999008e-002
7.501735e+002, 1.995721e-002
7.521020e+002, 2.001302e-002
7.540305e+002, 2.013207e-002
7.559589e+002, 2.038053e-002
7.578874e+002, 2.053377e-002
7.598159e+002, 2.078322e-002
7.617443e+002, 2.100827e-002
7.636728e+002, 2.114431e-002
7.656013e+002, 2.139552e-002
7.675297e+002, 2.168342e-002
7.694582e+002, 2.183517e-002
7.713867e+002, 2.207251e-002
7.733151e+002, 2.221191e-002
7.752436e+002, 2.236883e-002
7.771721e+002, 2.272935e-002
7.791005e+002, 2.329307e-002
7.810290e+002, 2.354570e-002
7.829575e+002, 2.367903e-002
7.848859e+002, 2.394464e-002
7.868144e+002, 2.431587e-002
7.887429e+002, 2.471925e-002
7.906713e+002, 2.518876e-002
7.925998e+002, 2.556111e-002
7.945283e+002, 2.581230e-002
7.964567e+002, 2.603201e-002
7.983852e+002, 2.629181e-002
8.003137e+002, 2.663638e-002
8.022421e+002, 2.697706e-002
8.041706e+002, 2.729220e-002
8.060991e+002, 2.758444e-002
8.080275e+002, 2.779202e-002
8.099560e+002, 2.814902e-002
8.118845e+002, 2.842305e-002
8.138129e+002, 2.855614e-002
8.157414e+002, 2.879512e-002
8.176699e+002, 2.908103e-002
8.195983e+002, 2.918034e-002
8.215268e+002, 2.924751e-002
8.234553e+002, 2.943112e-002
8.253837e+002, 2.977988e-002
8.273122e+002, 3.003723e-002
8.292407e+002, 3.023617e-002
8.311691e+002, 3.052907e-002
8.330976e+002, 3.078785e-002
8.350261e+002, 3.115408e-002
8.369545e+002, 3.160034e-002
8.388830e+002, 3.191355e-002
8.408115e+002, 3.228877e-002
8.427399e+002, 3.273448e-002
8.446684e+002, 3.337598e-002
8.465969e+002, 3.416950e-002
8.485253e+002, 3.473066e-002
8.504538e+002, 3.536349e-002
8.523823e+002, 3.625985e-002
8.543107e+002, 3.752089e-002
8.562392e+002, 3.877005e-002
8.581677e+002, 4.024866e-002
8.600961e+002, 4.183981e-002
8.620246e+002, 4.352478e-002
8.639531e+002, 4.530020e-002
8.658815e+002, 4.653313e-002
8.678100e+002, 4.693548e-002
8.697385e+002, 4.660020e-002
8.716669e+002, 4.629986e-002
8.735954e+002, 4.658347e-002
8.755239e+002, 4.737419e-002
8.774523e+002, 4.848010e-002
8.793808e+002, 4.969520e-002
8.813093e+002, 5.119180e-002
8.832377e+002, 5.287324e-002
8.851662e+002, 5.451580e-002
8.870947e+002, 5.629346e-002
8.890231e+002, 5.818701e-002
8.909516e+002, 6.014566e-002
8.928801e+002, 6.214854e-002
8.948085e+002, 6.421035e-002
8.967370e+002, 6.625807e-002
8.986655e+002, 6.845009e-002
9.005939e+002, 7.087233e-002
9.025224e+002, 7.330560e-002
9.044509e+002, 7.557140e-002
9.063793e+002, 7.791527e-002
9.083078e+002, 8.042499e-002
9.102363e+002, 8.312231e-002
9.121647e+002, 8.572165e-002
9.140932e+002, 8.837245e-002
9.160217e+002, 9.132758e-002
9.179501e+002, 9.425646e-002
9.198786e+002, 9.727014e-002
9.218071e+002, 1.005977e-001
9.237355e+002, 1.041099e-001
9.256640e+002, 1.076362e-001
9.275925e+002, 1.113337e-001
9.295209e+002, 1.153339e-001
9.314494e+002, 1.194792e-001
9.333779e+002, 1.238243e-001
9.353063e+002, 1.283563e-001
9.372348e+002, 1.329883e-001
9.391633e+002, 1.379436e-001
9.410917e+002, 1.433856e-001
9.430202e+002, 1.491602e-001
9.449487e+002, 1.552165e-001
9.468771e+002, 1.616852e-001
9.488056e+002, 1.684346e-001
9.507341e+002, 1.753609e-001
9.526625e+002, 1.819568e-001
9.545910e+002, 1.873497e-001
9.565195e+002, 1.924010e-001
9.584479e+002, 1.981795e-001
9.603764e+002, 2.050273e-001
9.623049e+002, 2.129169e-001
9.642333e+002, 2.210943e-001
9.661618e+002, 2.288472e-001
9.680903e+002, 2.363627e-001
9.700187e+002, 2.444487e-001
9.719472e+002, 2.525068e-001
9.738757e+002, 2.590876e-001
9.758041e+002, 2.636519e-001
9.777326e+002, 2.667861e-001
9.796611e+002, 2.697737e-001
9.815895e+002, 2.744825e-001
9.835180e+002, 2.819327e-001
9.854465e+002, 2.923001e-001
9.873749e+002, 3.049771e-001
9.893034e+002, 3.197308e-001
9.912319e+002, 3.357695e-001
9.931603e+002, 3.521658e-001
9.950888e+002, 3.680203e-001
9.970173e+002, 3.825441e-001
9.989457e+002, 3.958176e-001
1.000874e+003, 4.075803e-001
1.002803e+003, 4.177520e-001
1.004731e+003, 4.261962e-001
1.006660e+003, 4.332303e-001
1.008588e+003, 4.388601e-001
1.010517e+003, 4.428636e-001
1.012445e+003, 4.454464e-001
1.014373e+003, 4.472982e-001
1.016302e+003, 4.483497e-001
1.018230e+003, 4.484453e-001
1.020159e+003, 4.476786e-001
1.022087e+003, 4.461978e-001
1.024016e+003, 4.442371e-001
1.025944e+003, 4.418753e-001
1.027873e+003, 4.393287e-001
1.029801e+003, 4.360767e-001
1.031730e+003, 4.316829e-001
1.033658e+003, 4.267385e-001
1.035587e+003, 4.212390e-001
1.037515e+003, 4.145891e-001
1.039443e+003, 4.068431e-001
1.041372e+003, 3.977826e-001
1.043300e+003, 3.879777e-001
1.045229e+003, 3.776280e-001
1.047157e+003, 3.670776e-001
1.049086e+003, 3.563495e-001
1.051014e+003, 3.457043e-001
1.052943e+003, 3.352806e-001
1.054871e+003, 3.255326e-001
1.056800e+003, 3.164715e-001
1.058728e+003, 3.080784e-001
1.060657e+003, 3.006427e-001
1.062585e+003, 2.935503e-001
1.064514e+003, 2.865154e-001
1.066442e+003, 2.794364e-001
1.068370e+003, 2.716784e-001
1.070299e+003, 2.631154e-001
1.072227e+003, 2.541203e-001
1.074156e+003, 2.445596e-001
1.076084e+003, 2.344697e-001
1.078013e+003, 2.242841e-001
1.079941e+003, 2.143985e-001
1.081870e+003, 2.047221e-001
1.083798e+003, 1.954143e-001
1.085727e+003, 1.869636e-001
1.087655e+003, 1.792555e-001
1.089584e+003, 1.720687e-001
1.091512e+003, 1.650243e-001
1.093441e+003, 1.578569e-001
1.095369e+003, 1.503321e-001
1.097297e+003, 1.428161e-001
1.099226e+003, 1.355212e-001
1.101154e+003, 1.282110e-001
1.103083e+003, 1.211772e-001
1.105011e+003, 1.141922e-001
1.106940e+003, 1.072399e-001
1.108868e+003, 1.005666e-001
1.110797e+003, 9.431721e-002
1.112725e+003, 8.842133e-002
1.114654e+003, 8.288110e-002
1.116582e+003, 7.772002e-002
1.118511e+003, 7.289798e-002
1.120439e+003, 6.843036e-002
1.122368e+003, 6.438010e-002
1.124296e+003, 6.080783e-002
1.126224e+003, 5.747741e-002
1.128153e+003, 5.417345e-002
1.130081e+003, 5.063169e-002
1.132010e+003, 4.706338e-002
1.133938e+003, 4.387852e-002
1.135867e+003, 4.068921e-002
1.137795e+003, 3.749377e-002
1.139724e+003, 3.449555e-002
1.141652e+003, 3.156070e-002
1.143581e+003, 2.876323e-002
1.145509e+003, 2.624431e-002
1.147438e+003, 2.403003e-002
1.149366e+003, 2.201027e-002
1.151295e+003, 2.032246e-002
1.153223e+003, 1.890320e-002
1.155151e+003, 1.760898e-002
1.157080e+003, 1.667488e-002
1.159008e+003, 1.590249e-002
1.160937e+003, 1.520453e-002
1.162865e+003, 1.454213e-002
1.164794e+003, 1.382852e-002
1.166722e+003, 1.320238e-002
1.168651e+003, 1.266419e-002
1.170579e+003, 1.222730e-002
1.172508e+003, 1.173621e-002
1.174436e+003, 1.120329e-002
1.176365e+003, 1.084004e-002
1.178293e+003, 1.063312e-002
1.180222e+003, 1.028196e-002
1.182150e+003, 9.904033e-003
1.184078e+003, 9.559763e-003
1.186007e+003, 9.136771e-003
1.187935e+003, 8.873673e-003
1.189864e+003, 8.570777e-003
1.191792e+003, 8.299959e-003
1.193721e+003, 8.048893e-003
1.195649e+003, 7.761082e-003
1.197578e+003, 7.529432e-003
1.199506e+003, 7.273902e-003
1.201435e+003, 7.109724e-003
1.203363e+003, 6.902412e-003
1.205292e+003, 6.693445e-003
1.207220e+003, 6.547893e-003
1.209149e+003, 6.334896e-003
1.211077e+003, 6.182790e-003
1.213005e+003, 5.998674e-003
1.214934e+003, 5.725091e-003
1.216862e+003, 5.621712e-003
1.218791e+003, 5.633004e-003
1.220719e+003, 5.437255e-003
1.222648e+003, 5.184972e-003
1.224576e+003, 5.039875e-003
1.226505e+003, 4.939988e-003
1.228433e+003, 4.806065e-003
1.230362e+003, 4.724247e-003
1.232290e+003, 4.656914e-003
1.234219e+003, 4.615048e-003
1.236147e+003, 4.496622e-003
1.238076e+003, 4.415683e-003
1.240004e+003, 4.359249e-003
1.241932e+003, 4.297311e-003
1.243861e+003, 4.159667e-003
1.245789e+003, 4.070015e-003
1.247718e+003, 3.957140e-003
1.249646e+003, 3.907472e-003
1.251575e+003, 3.922295e-003
1.253503e+003, 3.899078e-003
1.255432e+003, 3.747264e-003
1.257360e+003, 3.735299e-003
1.259289e+003, 3.749365e-003
1.261217e+003, 3.786393e-003
1.263146e+003, 3.764178e-003
1.265074e+003, 3.677826e-003
1.267003e+003, 3.537169e-003
1.268931e+003, 3.533734e-003
1.270859e+003, 3.710315e-003
1.272788e+003, 3.853289e-003
1.274716e+003, 3.958001e-003
1.276645e+003, 3.907443e-003
1.278573e+003, 3.798278e-003
1.280502e+003, 3.783525e-003
1.282430e+003, 3.697922e-003
1.284359e+003, 3.672026e-003
1.286287e+003, 3.671819e-003
1.288216e+003, 3.706048e-003
1.290144e+003, 3.721263e-003
1.292073e+003, 3.728704e-003
1.294001e+003, 3.729335e-003
1.295930e+003, 3.737858e-003
1.297858e+003, 3.867354e-003
1.299786e+003, 3.868447e-003
1.301715e+003, 3.835613e-003
1.303643e+003, 3.889034e-003
1.305572e+003, 3.943293e-003
1.307500e+003, 3.951026e-003
1.309429e+003, 3.964221e-003
1.311357e+003, 4.023210e-003
1.313286e+003, 4.050676e-003
1.315214e+003, 4.054507e-003
1.317143e+003, 4.053761e-003
1.319071e+003, 4.081690e-003
1.321000e+003, 4.101577e-003
1.322928e+003, 4.166494e-003
1.324857e+003, 4.187543e-003
1.326785e+003, 4.241673e-003
1.328714e+003, 4.287349e-003
1.330642e+003, 4.323679e-003
1.332570e+003, 4.480750e-003
1.334499e+003, 4.547514e-003
1.336427e+003, 4.503249e-003
1.338356e+003, 4.485425e-003
1.340284e+003, 4.517345e-003
1.342213e+003, 4.634952e-003
1.344141e+003, 4.745755e-003
1.346070e+003, 4.794870e-003
1.347998e+003, 4.917204e-003
1.349927e+003, 4.955987e-003
1.351855e+003, 4.943048e-003
1.353784e+003, 5.040477e-003
1.355712e+003, 5.207462e-003
1.357641e+003, 5.301551e-003
1.359569e+003, 5.432723e-003
1.361497e+003, 5.477394e-003
1.363426e+003, 5.471835e-003
1.365354e+003, 5.643730e-003
1.367283e+003, 5.737687e-003
1.369211e+003, 5.820262e-003
1.371140e+003, 5.873230e-003
1.373068e+003, 5.988686e-003
1.374997e+003, 6.178523e-003
1.376925e+003, 6.219501e-003
1.378854e+003, 6.311028e-003
1.380782e+003, 6.376766e-003
1.382711e+003, 6.432531e-003
1.384639e+003, 6.565184e-003
1.386568e+003, 6.850693e-003
1.388496e+003, 7.026826e-003
1.390424e+003, 7.095917e-003
1.392353e+003, 7.299924e-003
1.394281e+003, 7.616844e-003
1.396210e+003, 7.927175e-003
1.398138e+003, 8.192039e-003
1.400067e+003, 8.357110e-003
1.401995e+003, 8.458724e-003
1.403924e+003, 8.716522e-003
1.405852e+003, 9.075275e-003
1.407781e+003, 9.359959e-003
1.409709e+003, 9.709523e-003
1.411638e+003, 9.988020e-003
1.413566e+003, 1.009608e-002
1.415495e+003, 1.028605e-002
1.417423e+003, 1.062188e-002
1.419351e+003, 1.096995e-002
1.421280e+003, 1.129946e-002
1.423208e+003, 1.164439e-002
1.425137e+003, 1.190759e-002
1.427065e+003, 1.218140e-002
1.428994e+003, 1.252823e-002
1.430922e+003, 1.266295e-002
1.432851e+003, 1.274670e-002
1.434779e+003, 1.282413e-002
1.436708e+003, 1.288593e-002
1.438636e+003, 1.288800e-002
1.440565e+003, 1.290041e-002
1.442493e+003, 1.316037e-002
1.444422e+003, 1.336093e-002
1.446350e+003, 1.332845e-002
1.448278e+003, 1.337569e-002
1.450207e+003, 1.338026e-002
1.452135e+003, 1.334179e-002
1.454064e+003, 1.331956e-002
1.455992e+003, 1.329161e-002
1.457921e+003, 1.322319e-002
1.459849e+003, 1.302599e-002
1.461778e+003, 1.271131e-002
1.463706e+003, 1.247407e-002
1.465635e+003, 1.233310e-002
1.467563e+003, 1.212945e-002
1.469492e+003, 1.193210e-002
1.471420e+003, 1.182310e-002
1.473349e+003, 1.169168e-002
1.475277e+003, 1.145575e-002
1.477205e+003, 1.121656e-002
1.479134e+003, 1.097791e-002
1.481062e+003, 1.084324e-002
1.482991e+003, 1.067046e-002
1.484919e+003, 1.046779e-002
1.486848e+003, 1.041175e-002
1.488776e+003, 1.032512e-002
1.490705e+003, 1.006062e-002
1.492633e+003, 9.612403e-003
1.494562e+003, 9.416847e-003
1.496490e+003, 9.393546e-003
1.498419e+003, 9.292842e-003
1.500347e+003, 9.129810e-003
1.502276e+003, 8.933373e-003
1.504204e+003, 8.756270e-003
1.506132e+003, 8.585613e-003
1.508061e+003, 8.357191e-003
1.509989e+003, 8.169892e-003
1.511918e+003, 7.990313e-003
1.513846e+003, 7.912232e-003
1.515775e+003, 7.927462e-003
1.517703e+003, 7.899750e-003
1.519632e+003, 7.769992e-003
1.521560e+003, 7.646276e-003
1.523489e+003, 7.597160e-003
1.525417e+003, 7.612571e-003
1.527346e+003, 7.599177e-003
1.529274e+003, 7.590595e-003
1.531203e+003, 7.579607e-003
1.533131e+003, 7.537435e-003
1.535059e+003, 7.587618e-003
1.536988e+003, 7.643631e-003
1.538916e+003, 7.582533e-003
1.540845e+003, 7.522246e-003
1.542773e+003, 7.563931e-003
1.544702e+003, 7.626368e-003
1.546630e+003, 7.716502e-003
1.548559e+003, 7.786293e-003
1.550487e+003, 7.864252e-003
1.552416e+003, 7.862292e-003
1.554344e+003, 7.936172e-003
1.556273e+003, 7.938839e-003
1.558201e+003, 7.970534e-003
1.560130e+003, 8.125836e-003
1.562058e+003, 8.220764e-003
1.563986e+003, 8.311085e-003
1.565915e+003, 8.359593e-003
1.567843e+003, 8.366388e-003
1.569772e+003, 8.567550e-003
1.571700e+003, 8.777675e-003
1.573629e+003, 8.870485e-003
1.575557e+003, 8.768637e-003
1.577486e+003, 8.774206e-003
1.579414e+003, 8.939486e-003
1.581343e+003, 9.043963e-003
1.583271e+003, 9.106951e-003
1.585200e+003, 9.095129e-003
1.587128e+003, 9.057038e-003
1.589057e+003, 9.013381e-003
1.590985e+003, 9.027549e-003
1.592913e+003, 9.147289e-003
1.594842e+003, 9.275880e-003
1.596770e+003, 9.335489e-003
1.598699e+003, 9.312859e-003
1.600627e+003, 9.266878e-003
1.602556e+003, 9.325794e-003
1.604484e+003, 9.446588e-003
1.606413e+003, 9.305894e-003
1.608341e+003, 9.135930e-003
1.610270e+003, 9.059510e-003
1.612198e+003, 9.213804e-003
1.614127e+003, 9.312701e-003
1.616055e+003, 9.229493e-003
1.617984e+003, 9.214301e-003
1.619912e+003, 9.084641e-003
1.621840e+003, 8.953149e-003
1.623769e+003, 9.086437e-003
1.625697e+003, 9.214688e-003
1.627626e+003, 9.242688e-003
1.629554e+003, 9.197108e-003
1.631483e+003, 9.199807e-003
1.633411e+003, 9.326300e-003
1.635340e+003, 9.266961e-003
1.637268e+003, 9.139926e-003
1.639197e+003, 9.112049e-003
1.641125e+003, 9.210975e-003
1.643054e+003, 9.253589e-003
1.644982e+003, 9.301643e-003
1.646911e+003, 9.301414e-003
1.648839e+003, 9.231092e-003
1.650767e+003, 9.063816e-003
1.652696e+003, 9.077376e-003
1.654624e+003, 9.142628e-003
1.656553e+003, 9.024248e-003
1.658481e+003, 8.955275e-003
1.660410e+003, 8.943050e-003
1.662338e+003, 8.999368e-003
1.664267e+003, 9.031283e-003
1.666195e+003, 8.971574e-003
1.668124e+003, 8.968161e-003
1.670052e+003, 8.828156e-003
1.671981e+003, 8.676397e-003
1.673909e+003, 8.566108e-003
1.675838e+003, 8.479269e-003
1.677766e+003, 8.444013e-003
1.679694e+003, 8.321737e-003
1.681623e+003, 8.255690e-003
1.683551e+003, 8.297072e-003
1.685480e+003, 8.375525e-003
1.687408e+003, 8.481347e-003
1.689337e+003, 8.476071e-003
1.691265e+003, 8.228236e-003
1.693194e+003, 8.008714e-003
1.695122e+003, 8.071071e-003
1.697051e+003, 8.222199e-003
1.698979e+003, 8.160030e-003
1.700908e+003, 7.886003e-003
1.702836e+003, 7.834308e-003
1.704765e+003, 7.911897e-003
1.706693e+003, 8.029949e-003
1.708621e+003, 8.147797e-003
1.710550e+003, 8.121047e-003
1.712478e+003, 7.967403e-003
1.714407e+003, 7.828928e-003
1.716335e+003, 7.826567e-003
1.718264e+003, 7.849266e-003
1.720192e+003, 7.900798e-003
1.722121e+003, 7.799784e-003
1.724049e+003, 7.745239e-003
1.725978e+003, 7.778154e-003
1.727906e+003, 7.736154e-003
1.729835e+003, 7.576331e-003
1.731763e+003, 7.637739e-003
1.733692e+003, 7.745466e-003
1.735620e+003, 7.612243e-003
1.737548e+003, 7.430358e-003
1.739477e+003, 7.384517e-003
1.741405e+003, 7.340193e-003
1.743334e+003, 7.371986e-003
1.745262e+003, 7.230130e-003
1.747191e+003, 6.908307e-003
1.749119e+003, 6.765326e-003
1.751048e+003, 6.931599e-003
1.752976e+003, 7.103709e-003
1.754905e+003, 7.092316e-003
1.756833e+003, 7.137229e-003
1.758762e+003, 7.246230e-003
1.760690e+003, 7.327370e-003
1.762619e+003, 7.429250e-003
1.764547e+003, 7.374434e-003
1.766475e+003, 7.197178e-003
1.768404e+003, 7.130974e-003
1.770332e+003, 7.253484e-003
1.772261e+003, 7.215433e-003
1.774189e+003, 7.167790e-003
1.776118e+003, 7.292824e-003
1.778046e+003, 7.369720e-003
1.779975e+003, 7.540210e-003
1.781903e+003, 7.616812e-003
1.783832e+003, 7.535991e-003
1.785760e+003, 7.536061e-003
1.787689e+003, 7.489991e-003
1.789617e+003, 7.439088e-003
1.791546e+003, 7.280560e-003
1.793474e+003, 7.242200e-003
1.795402e+003, 7.341789e-003
1.797331e+003, 7.436475e-003
1.799259e+003, 7.397619e-003
1.801188e+003, 7.419144e-003
1.803116e+003, 7.523523e-003
1.805045e+003, 7.555411e-003
1.806973e+003, 7.610565e-003
1.808902e+003, 7.578674e-003
1.810830e+003, 7.545125e-003
1.812759e+003, 7.485536e-003
1.814687e+003, 7.375000e-003
1.816616e+003, 7.178284e-003
1.818544e+003, 7.257041e-003
1.820473e+003, 7.512408e-003
1.822401e+003, 7.602717e-003
1.824329e+003, 7.688509e-003
1.826258e+003, 7.708847e-003
1.828186e+003, 7.764804e-003
1.830115e+003, 7.726999e-003
1.832043e+003, 7.527613e-003
1.833972e+003, 7.442651e-003
1.835900e+003, 7.710669e-003
1.837829e+003, 7.555100e-003
1.839757e+003, 7.262771e-003
1.841686e+003, 7.297894e-003
1.843614e+003, 7.526929e-003
1.845543e+003, 7.684867e-003
1.847471e+003, 7.677561e-003
1.849400e+003, 7.620982e-003
1.851328e+003, 7.571703e-003
1.853256e+003, 7.366749e-003
1.855185e+003, 7.443881e-003
1.857113e+003, 7.689133e-003
1.859042e+003, 7.952492e-003
1.860970e+003, 7.799717e-003
1.862899e+003, 7.699108e-003
1.864827e+003, 7.953633e-003
1.866756e+003, 7.904262e-003
1.868684e+003, 7.632920e-003
1.870613e+003, 7.516231e-003
1.872541e+003, 7.346086e-003
1.874470e+003, 7.258578e-003
1.876398e+003, 7.565368e-003
1.878327e+003, 7.659963e-003
1.880255e+003, 7.551016e-003
1.882183e+003, 7.592558e-003
1.884112e+003, 7.699652e-003
1.886040e+003, 7.711638e-003
1.887969e+003, 7.788506e-003
1.889897e+003, 7.599336e-003
1.891826e+003, 7.498934e-003
1.893754e+003, 7.785518e-003
1.895683e+003, 7.930350e-003
1.897611e+003, 7.842193e-003
1.899540e+003, 7.736986e-003
1.901468e+003, 7.380837e-003
1.903397e+003, 7.098400e-003
1.905325e+003, 7.353464e-003
1.907254e+003, 7.554294e-003
1.909182e+003, 7.588685e-003
1.911110e+003, 7.543926e-003
1.913039e+003, 7.353324e-003
1.914967e+003, 7.177599e-003
1.916896e+003, 7.355982e-003
1.918824e+003, 7.905653e-003
1.920753e+003, 8.035035e-003
1.922681e+003, 7.623228e-003
1.924610e+003, 7.212588e-003
1.926538e+003, 7.305120e-003
1.928467e+003, 7.174266e-003
1.930395e+003, 7.483641e-003
1.932324e+003, 7.376164e-003
1.934252e+003, 6.895141e-003
1.936181e+003, 7.014276e-003
1.938109e+003, 7.230847e-003
1.940037e+003, 7.433735e-003
1.941966e+003, 7.073672e-003
1.943894e+003, 6.583094e-003
1.945823e+003, 6.739251e-003
1.947751e+003, 6.928306e-003
1.949680e+003, 6.861813e-003
1.951608e+003, 6.511773e-003
1.953537e+003, 6.680322e-003
1.955465e+003, 6.964762e-003
1.957394e+003, 6.577889e-003
1.959322e+003, 6.014115e-003
1.961251e+003, 6.432207e-003
1.963179e+003, 5.902358e-003
1.965108e+003, 5.719041e-003
1.967036e+003, 5.875398e-003
1.968964e+003, 5.952001e-003
1.970893e+003, 6.182279e-003
1.972821e+003, 5.601282e-003
1.974750e+003, 5.030827e-003
1.976678e+003, 6.514320e-003
1.978607e+003, 7.988236e-003
1.980535e+003, 7.816841e-003
1.982464e+003, 7.088333e-003
1.984392e+003, 6.426664e-003
1.986321e+003, 6.982523e-003
1.988249e+003, 8.300782e-003
1.990178e+003, 8.145414e-003
1.992106e+003, 7.194567e-003
1.994035e+003, 6.992146e-003
1.995963e+003, 6.975379e-003
1.997891e+003, 6.881341e-003
1.999820e+003, 7.489290e-003
2.001748e+003, 7.173951e-003
2.003677e+003, 6.125953e-003
2.005605e+003, 5.628587e-003
2.007534e+003, 6.450005e-003
2.009462e+003, 7.000062e-003
2.011391e+003, 6.346900e-003
2.013319e+003, 6.000161e-003
2.015248e+003, 5.385602e-003
2.017176e+003, 5.291326e-003
2.019105e+003, 5.741809e-003
2.021033e+003, 5.401895e-003
2.022962e+003, 5.261701e-003
2.024890e+003, 5.529095e-003
2.026818e+003, 6.162378e-003
2.028747e+003, 6.881835e-003
2.030675e+003, 6.349215e-003
2.032604e+003, 5.918654e-003
2.034532e+003, 5.786389e-003
2.036461e+003, 6.470248e-003
2.038389e+003, 6.770577e-003
2.040318e+003, 7.022129e-003
2.042246e+003, 7.476638e-003
2.044175e+003, 7.187065e-003
2.046103e+003, 7.004452e-003
2.048031e+003, 7.761730e-003
2.049960e+003, 8.538974e-003
2.051888e+003, 7.987496e-003
2.053817e+003, 7.669368e-003
2.055745e+003, 7.941874e-003
2.057674e+003, 8.714528e-003
2.059602e+003, 8.881603e-003
2.061531e+003, 8.313016e-003
2.063459e+003, 8.056599e-003
2.065388e+003, 7.791616e-003
2.067316e+003, 8.018764e-003
2.069245e+003, 8.836752e-003
2.071173e+003, 8.818845e-003
2.073102e+003, 8.641081e-003
2.075030e+003, 8.791211e-003
2.076958e+003, 8.632365e-003
2.078887e+003, 8.878648e-003
2.080815e+003, 9.440033e-003
2.082744e+003, 9.020032e-003
2.084672e+003, 8.307694e-003
2.086601e+003, 7.899409e-003
2.088529e+003, 7.804150e-003
2.090458e+003, 8.246065e-003
2.092386e+003, 8.426080e-003
2.094315e+003, 8.388565e-003
2.096243e+003, 8.757886e-003
2.098172e+003, 8.922018e-003
2.100100e+003, 9.341747e-003
2.102029e+003, 9.364384e-003
2.103957e+003, 9.216988e-003
2.105885e+003, 9.242984e-003
2.107814e+003, 9.159883e-003
2.109742e+003, 8.691086e-003
2.111671e+003, 8.584293e-003
2.113599e+003, 8.659931e-003
2.115528e+003, 8.692952e-003
2.117456e+003, 8.347761e-003
2.119385e+003, 7.840401e-003
2.121313e+003, 7.988888e-003
2.123242e+003, 8.009919e-003
2.125170e+003, 7.451948e-003
2.127099e+003, 7.254459e-003
2.129027e+003, 6.418414e-003
2.130956e+003, 5.968530e-003
2.132884e+003, 5.980733e-003
2.134813e+003, 6.019133e-003
2.136741e+003, 6.332405e-003
2.138669e+003, 6.367732e-003
2.140598e+003, 5.633789e-003
2.142526e+003, 5.956698e-003
2.144455e+003, 6.545911e-003
2.146383e+003, 6.331368e-003
2.148312e+003, 6.550397e-003
2.150240e+003, 6.672122e-003
2.152169e+003, 5.674862e-003
2.154097e+003, 4.516405e-003
2.156026e+003, 4.140456e-003
2.157954e+003, 5.622270e-003
2.159883e+003, 8.390209e-003
2.161811e+003, 9.656622e-003
2.163740e+003, 9.682987e-003
2.165668e+003, 9.767666e-003
2.167596e+003, 9.274227e-003
2.169525e+003, 9.438097e-003
2.171453e+003, 9.560481e-003
2.173382e+003, 8.737057e-003
2.175310e+003, 8.706907e-003
2.177239e+003, 8.585231e-003
2.179167e+003, 7.942989e-003
2.181096e+003, 7.887067e-003
2.183024e+003, 8.887075e-003
2.184953e+003, 9.953067e-003
2.186881e+003, 9.436795e-003
2.188810e+003, 9.235739e-003
2.190738e+003, 9.703057e-003
2.192667e+003, 9.906131e-003
2.194595e+003, 1.000757e-002
2.196523e+003, 1.026233e-002
2.198452e+003, 1.064933e-002
2.200380e+003, 1.077194e-002
2.202309e+003, 1.054482e-002
2.204237e+003, 1.049510e-002
2.206166e+003, 1.069966e-002
2.208094e+003, 1.040357e-002
2.210023e+003, 1.065638e-002
2.211951e+003, 1.160657e-002
2.213880e+003, 1.233660e-002
2.215808e+003, 1.139849e-002
2.217737e+003, 1.089811e-002
2.219665e+003, 1.122024e-002
2.221594e+003, 1.115289e-002
2.223522e+003, 1.114829e-002
2.225450e+003, 1.070935e-002
2.227379e+003, 1.061048e-002
2.229307e+003, 1.135351e-002
2.231236e+003, 1.133351e-002
2.233164e+003, 1.105375e-002
2.235093e+003, 1.156900e-002
2.237021e+003, 1.212055e-002
2.238950e+003, 1.216289e-002
2.240878e+003, 1.187439e-002
2.242807e+003, 1.174041e-002
2.244735e+003, 1.192568e-002
2.246664e+003, 1.209810e-002
2.248592e+003, 1.242005e-002
2.250521e+003, 1.237951e-002
2.252449e+003, 1.201235e-002
2.254377e+003, 1.217913e-002
2.256306e+003, 1.219798e-002
2.258234e+003, 1.232923e-002
2.260163e+003, 1.230222e-002
2.262091e+003, 1.213779e-002
2.264020e+003, 1.231177e-002
2.265948e+003, 1.227878e-002
2.267877e+003, 1.230236e-002
2.269805e+003, 1.260801e-002
2.271734e+003, 1.303272e-002
2.273662e+003, 1.304353e-002
2.275591e+003, 1.310171e-002
2.277519e+003, 1.354477e-002
2.279448e+003, 1.363885e-002
2.281376e+003, 1.413903e-002
2.283304e+003, 1.441663e-002
2.285233e+003, 1.459068e-002
2.287161e+003, 1.397890e-002
2.289090e+003, 1.351051e-002
2.291018e+003, 1.335636e-002
2.292947e+003, 1.367490e-002
2.294875e+003, 1.347441e-002
2.296804e+003, 1.307436e-002
2.298732e+003, 1.313357e-002
2.300661e+003, 1.354311e-002
2.302589e+003, 1.346960e-002
2.304518e+003, 1.333522e-002
2.306446e+003, 1.334122e-002
2.308375e+003, 1.338147e-002
2.310303e+003, 1.337863e-002
2.312231e+003, 1.350317e-002
2.314160e+003, 1.356742e-002
2.316088e+003, 1.353557e-002
2.318017e+003, 1.386859e-002
2.319945e+003, 1.420072e-002
2.321874e+003, 1.442078e-002
2.323802e+003, 1.439644e-002
2.325731e+003, 1.344549e-002
2.327659e+003, 1.280943e-002
2.329588e+003, 1.272758e-002
2.331516e+003, 1.265905e-002
2.333445e+003, 1.248374e-002
2.335373e+003, 1.244842e-002
2.337302e+003, 1.251687e-002
2.339230e+003, 1.236982e-002
2.341158e+003, 1.245190e-002
2.343087e+003, 1.260597e-002
2.345015e+003, 1.255997e-002
2.346944e+003, 1.267926e-002
2.348872e+003, 1.259964e-002
2.350801e+003, 1.268850e-002
2.352729e+003, 1.276282e-002
2.354658e+003, 1.247660e-002
2.356586e+003, 1.219543e-002
2.358515e+003, 1.199065e-002
2.360443e+003, 1.210416e-002
2.362372e+003, 1.225419e-002
2.364300e+003, 1.225843e-002
2.366229e+003, 1.215232e-002
2.368157e+003, 1.198387e-002
2.370085e+003, 1.195749e-002
2.372014e+003, 1.227883e-002
2.373942e+003, 1.249729e-002
2.375871e+003, 1.231794e-002
2.377799e+003, 1.227416e-002
2.379728e+003, 1.270050e-002
2.381656e+003, 1.269351e-002
2.383585e+003, 1.263392e-002
2.385513e+003, 1.284800e-002
2.387442e+003, 1.266883e-002
2.389370e+003, 1.263935e-002
2.391299e+003, 1.281719e-002
2.393227e+003, 1.278066e-002
2.395156e+003, 1.277338e-002
2.397084e+003, 1.286143e-002
2.399012e+003, 1.281973e-002
2.400941e+003, 1.295281e-002
2.402869e+003, 1.279464e-002
2.404798e+003, 1.282037e-002
2.406726e+003, 1.314151e-002
2.408655e+003, 1.324951e-002
2.410583e+003, 1.356193e-002
2.412512e+003, 1.372911e-002
2.414440e+003, 1.348758e-002
2.416369e+003, 1.348549e-002
2.418297e+003, 1.361744e-002
2.420226e+003, 1.354943e-002
2.422154e+003, 1.344083e-002
2.424083e+003, 1.353455e-002
2.426011e+003, 1.371352e-002
2.427939e+003, 1.358125e-002
2.429868e+003, 1.366810e-002
2.431796e+003, 1.396138e-002
2.433725e+003, 1.342916e-002
2.435653e+003, 1.330139e-002
2.437582e+003, 1.376246e-002
2.439510e+003, 1.413007e-002
2.441439e+003, 1.414816e-002
2.443367e+003, 1.430090e-002
2.445296e+003, 1.428168e-002
2.447224e+003, 1.374218e-002
2.449153e+003, 1.359342e-002
2.451081e+003, 1.383985e-002
2.453010e+003, 1.384896e-002
2.454938e+003, 1.405775e-002
2.456866e+003, 1.416386e-002
2.458795e+003, 1.386407e-002
2.460723e+003, 1.398014e-002
2.462652e+003, 1.411747e-002
2.464580e+003, 1.411739e-002
2.466509e+003, 1.410479e-002
2.468437e+003, 1.413740e-002
2.470366e+003, 1.410088e-002
2.472294e+003, 1.397167e-002
2.474223e+003, 1.390139e-002
2.476151e+003, 1.374256e-002
2.478080e+003, 1.347125e-002
2.480008e+003, 1.345008e-002
2.481937e+003, 1.381793e-002
2.483865e+003, 1.391182e-002
2.485793e+003, 1.385700e-002
2.487722e+003, 1.430170e-002
2.489650e+003, 1.428224e-002
2.491579e+003, 1.393604e-002
2.493507e+003, 1.403173e-002
2.495436e+003, 1.407394e-002
2.497364e+003, 1.430477e-002
2.499293e+003, 1.443761e-002
2.501221e+003, 1.437967e-002
2.503150e+003, 1.450477e-002
2.505078e+003, 1.439343e-002
2.507007e+003, 1.391462e-002
2.508935e+003, 1.412459e-002
2.510864e+003, 1.459347e-002
2.512792e+003, 1.427468e-002
2.514720e+003, 1.446137e-002
2.516649e+003, 1.483048e-002
2.518577e+003, 1.501252e-002
2.520506e+003, 1.461460e-002
2.522434e+003, 1.424821e-002
2.524363e+003, 1.430287e-002
2.526291e+003, 1.451229e-002
2.528220e+003, 1.464336e-002
2.530148e+003, 1.481226e-002
2.532077e+003, 1.469869e-002
2.534005e+003, 1.449221e-002
2.535934e+003, 1.435276e-002
2.537862e+003, 1.479956e-002
2.539791e+003, 1.512714e-002
2.541719e+003, 1.481539e-002
2.543647e+003, 1.476509e-002
2.545576e+003, 1.508443e-002
2.547504e+003, 1.519962e-002
2.549433e+003, 1.499580e-002
2.551361e+003, 1.493470e-002
2.553290e+003, 1.520724e-002
2.555218e+003, 1.539500e-002
2.557147e+003, 1.513668e-002
2.559075e+003, 1.500555e-002
2.561004e+003, 1.520218e-002
2.562932e+003, 1.519120e-002
2.564861e+003, 1.531803e-002
2.566789e+003, 1.544566e-002
2.568718e+003, 1.546404e-002
2.570646e+003, 1.564800e-002
2.572574e+003, 1.610297e-002
2.574503e+003, 1.598069e-002
2.576431e+003, 1.581295e-002
2.578360e+003, 1.579105e-002
2.580288e+003, 1.603616e-002
2.582217e+003, 1.613646e-002
2.584145e+003, 1.621344e-002
2.586074e+003, 1.630531e-002
2.588002e+003, 1.602218e-002
2.589931e+003, 1.576819e-002
2.591859e+003, 1.591271e-002
2.593788e+003, 1.639825e-002
2.595716e+003, 1.653520e-002
2.597645e+003, 1.633653e-002
2.599573e+003, 1.651904e-002
2.601501e+003, 1.682596e-002
2.603430e+003, 1.637839e-002
2.605358e+003, 1.631657e-002
2.607287e+003, 1.637146e-002
2.609215e+003, 1.641940e-002
2.611144e+003, 1.673525e-002
2.613072e+003, 1.644421e-002
2.615001e+003, 1.667618e-002
2.616929e+003, 1.696476e-002
2.618858e+003, 1.671664e-002
2.620786e+003, 1.661602e-002
2.622715e+003, 1.676357e-002
2.624643e+003, 1.680533e-002
2.626572e+003, 1.656154e-002
2.628500e+003, 1.677833e-002
2.630428e+003, 1.689010e-002
2.632357e+003, 1.673817e-002
2.634285e+003, 1.691894e-002
2.636214e+003, 1.717137e-002
2.638142e+003, 1.696688e-002
2.640071e+003, 1.688399e-002
2.641999e+003, 1.714399e-002
2.643928e+003, 1.705269e-002
2.645856e+003, 1.672444e-002
2.647785e+003, 1.667953e-002
2.649713e+003, 1.702662e-002
2.651642e+003, 1.741040e-002
2.653570e+003, 1.737634e-002
2.655499e+003, 1.704161e-002
2.657427e+003, 1.701972e-002
2.659355e+003, 1.696228e-002
2.661284e+003, 1.687057e-002
2.663212e+003, 1.680845e-002
2.665141e+003, 1.685704e-002
2.667069e+003, 1.682159e-002
2.668998e+003, 1.683819e-002
2.670926e+003, 1.668512e-002
2.672855e+003, 1.654916e-002
2.674783e+003, 1.641220e-002
2.676712e+003, 1.654004e-002
2.678640e+003, 1.651761e-002
2.680569e+003, 1.655712e-002
2.682497e+003, 1.664075e-002
2.684426e+003, 1.654306e-002
2.686354e+003, 1.649307e-002
2.688282e+003, 1.662954e-002
2.690211e+003, 1.672064e-002
2.692139e+003, 1.678750e-002
2.694068e+003, 1.670433e-002
2.695996e+003, 1.677876e-002
2.697925e+003, 1.698117e-002
2.699853e+003, 1.692194e-002
2.701782e+003, 1.687249e-002
2.703710e+003, 1.697938e-002
2.705639e+003, 1.725779e-002
2.707567e+003, 1.728006e-002
2.709496e+003, 1.690675e-002
2.711424e+003, 1.699977e-002
2.713353e+003, 1.729123e-002
2.715281e+003, 1.722579e-002
2.717209e+003, 1.700625e-002
2.719138e+003, 1.692952e-002
2.721066e+003, 1.722194e-002
2.722995e+003, 1.740989e-002
2.724923e+003, 1.739322e-002
2.726852e+003, 1.754945e-002
2.728780e+003, 1.747281e-002
2.730709e+003, 1.734281e-002
2.732637e+003, 1.731955e-002
2.734566e+003, 1.724210e-002
2.736494e+003, 1.737602e-002
2.738423e+003, 1.765747e-002
2.740351e+003, 1.761154e-002
2.742280e+003, 1.759503e-002
2.744208e+003, 1.756630e-002
2.746136e+003, 1.742321e-002
2.748065e+003, 1.751533e-002
2.749993e+003, 1.751926e-002
2.751922e+003, 1.737163e-002
2.753850e+003, 1.742107e-002
2.755779e+003, 1.766617e-002
2.757707e+003, 1.763213e-002
2.759636e+003, 1.749160e-002
2.761564e+003, 1.770332e-002
2.763493e+003, 1.785086e-002
2.765421e+003, 1.782497e-002
2.767350e+003, 1.763459e-002
2.769278e+003, 1.766258e-002
2.771207e+003, 1.774864e-002
2.773135e+003, 1.790969e-002
2.775063e+003, 1.773640e-002
2.776992e+003, 1.779612e-002
2.778920e+003, 1.818966e-002
2.780849e+003, 1.815781e-002
2.782777e+003, 1.784805e-002
2.784706e+003, 1.798456e-002
2.786634e+003, 1.827795e-002
2.788563e+003, 1.865747e-002
2.790491e+003, 1.851468e-002
2.792420e+003, 1.826920e-002
2.794348e+003, 1.823685e-002
2.796277e+003, 1.837666e-002
2.798205e+003, 1.855751e-002
2.800134e+003, 1.844186e-002
2.802062e+003, 1.832116e-002
2.803990e+003, 1.812370e-002
2.805919e+003, 1.828731e-002
2.807847e+003, 1.860491e-002
2.809776e+003, 1.875189e-002
2.811704e+003, 1.863853e-002
2.813633e+003, 1.851043e-002
2.815561e+003, 1.834456e-002
2.817490e+003, 1.851630e-002
2.819418e+003, 1.871731e-002
2.821347e+003, 1.867672e-002
2.823275e+003, 1.880847e-002
2.825204e+003, 1.901806e-002
2.827132e+003, 1.918779e-002
2.829061e+003, 1.922436e-002
2.830989e+003, 1.925458e-002
2.832917e+003, 1.928863e-002
2.834846e+003, 1.922072e-002
2.836774e+003, 1.940944e-002
2.838703e+003, 1.947649e-002
2.840631e+003, 1.937475e-002
2.842560e+003, 1.972632e-002
2.844488e+003, 2.007029e-002
2.846417e+003, 1.996807e-002
2.848345e+003, 2.000093e-002
2.850274e+003, 1.995493e-002
2.852202e+003, 2.005819e-002
2.854131e+003, 2.031144e-002
2.856059e+003, 2.055380e-002
2.857988e+003, 2.063339e-002
2.859916e+003, 2.029663e-002
2.861844e+003, 2.015057e-002
2.863773e+003, 1.996894e-002
2.865701e+003, 1.987863e-002
2.867630e+003, 2.006683e-002
2.869558e+003, 2.038614e-002
2.871487e+003, 2.040212e-002
2.873415e+003, 2.019622e-002
2.875344e+003, 2.039022e-002
2.877272e+003, 2.081538e-002
2.879201e+003, 2.070620e-002
2.881129e+003, 2.033663e-002
2.883058e+003, 2.014818e-002
2.884986e+003, 2.024292e-002
2.886915e+003, 2.026351e-002
2.888843e+003, 2.023265e-002
2.890771e+003, 2.023055e-002
2.892700e+003, 2.017241e-002
2.894628e+003, 2.026615e-002
2.896557e+003, 2.033531e-002
2.898485e+003, 2.060659e-002
2.900414e+003, 2.101107e-002
2.902342e+003, 2.108856e-002
2.904271e+003, 2.119296e-002
2.906199e+003, 2.144477e-002
2.908128e+003, 2.126875e-002
2.910056e+003, 2.138961e-002
2.911985e+003, 2.179063e-002
2.913913e+003, 2.170926e-002
2.915842e+003, 2.169872e-002
2.917770e+003, 2.188772e-002
2.919698e+003, 2.200677e-002
2.921627e+003, 2.210874e-002
2.923555e+003, 2.240485e-002
2.925484e+003, 2.272259e-002
2.927412e+003, 2.273853e-002
2.929341e+003, 2.280998e-002
2.931269e+003, 2.286165e-002
2.933198e+003, 2.256569e-002
2.935126e+003, 2.204478e-002
2.937055e+003, 2.202992e-002
2.938983e+003, 2.254439e-002
2.940912e+003, 2.235396e-002
2.942840e+003, 2.202242e-002
2.944769e+003, 2.189110e-002
2.946697e+003, 2.154055e-002
2.948625e+003, 2.159922e-002
2.950554e+003, 2.184449e-002
2.952482e+003, 2.207508e-002
2.954411e+003, 2.215351e-002
2.956339e+003, 2.204465e-002
2.958268e+003, 2.203457e-002
2.960196e+003, 2.179668e-002
2.962125e+003, 2.186655e-002
2.964053e+003, 2.222322e-002
2.965982e+003, 2.197342e-002
2.967910e+003, 2.162592e-002
2.969839e+003, 2.152906e-002
2.971767e+003, 2.165225e-002
2.973696e+003, 2.185453e-002
2.975624e+003, 2.183338e-002
2.977552e+003, 2.184016e-002
2.979481e+003, 2.164997e-002
2.981409e+003, 2.109091e-002
2.983338e+003, 2.077962e-002
2.985266e+003, 2.072287e-002
2.987195e+003, 2.094562e-002
2.989123e+003, 2.155198e-002
2.991052e+003, 2.177878e-002
2.992980e+003, 2.179854e-002
2.994909e+003, 2.181053e-002
2.996837e+003, 2.171377e-002
2.998766e+003, 2.166648e-002
3.000694e+003, 2.140412e-002
3.002623e+003, 2.147924e-002
3.004551e+003, 2.198160e-002
3.006479e+003, 2.237259e-002
3.008408e+003, 2.235536e-002
3.010336e+003, 2.218602e-002
3.012265e+003, 2.214538e-002
3.014193e+003, 2.196735e-002
3.016122e+003, 2.200923e-002
3.018050e+003, 2.218567e-002
3.019979e+003, 2.226271e-002
3.021907e+003, 2.239503e-002
3.023836e+003, 2.216298e-002
3.025764e+003, 2.208441e-002
3.027693e+003, 2.243565e-002
3.029621e+003, 2.250964e-002
3.031550e+003, 2.238457e-002
3.033478e+003, 2.218237e-002
3.035406e+003, 2.232818e-002
3.037335e+003, 2.228460e-002
3.039263e+003, 2.249690e-002
3.041192e+003, 2.305346e-002
3.043120e+003, 2.307349e-002
3.045049e+003, 2.281315e-002
3.046977e+003, 2.301174e-002
3.048906e+003, 2.314192e-002
3.050834e+003, 2.315333e-002
3.052763e+003, 2.310432e-002
3.054691e+003, 2.278842e-002
3.056620e+003, 2.260095e-002
3.058548e+003, 2.268805e-002
3.060477e+003, 2.273543e-002
3.062405e+003, 2.296506e-002
3.064333e+003, 2.307452e-002
3.066262e+003, 2.323653e-002
3.068190e+003, 2.327739e-002
3.070119e+003, 2.344499e-002
3.072047e+003, 2.378127e-002
3.073976e+003, 2.400085e-002
3.075904e+003, 2.376427e-002
3.077833e+003, 2.363993e-002
3.079761e+003, 2.368275e-002
3.081690e+003, 2.378557e-002
3.083618e+003, 2.386917e-002
3.085547e+003, 2.364627e-002
3.087475e+003, 2.320807e-002
3.089404e+003, 2.302497e-002
3.091332e+003, 2.330547e-002
3.093260e+003, 2.401928e-002
3.095189e+003, 2.387355e-002
3.097117e+003, 2.383763e-002
3.099046e+003, 2.393667e-002
3.100974e+003, 2.426775e-002
3.102903e+003, 2.434770e-002
3.104831e+003, 2.397717e-002
3.106760e+003, 2.404212e-002
3.108688e+003, 2.445467e-002
3.110617e+003, 2.472905e-002
3.112545e+003, 2.462650e-002
3.114474e+003, 2.450007e-002
3.116402e+003, 2.436917e-002
3.118331e+003, 2.424074e-002
3.120259e+003, 2.423591e-002
3.122188e+003, 2.433963e-002
3.124116e+003, 2.418465e-002
3.126044e+003, 2.437627e-002
3.127973e+003, 2.462238e-002
3.129901e+003, 2.497116e-002
3.131830e+003, 2.517688e-002
3.133758e+003, 2.486460e-002
3.135687e+003, 2.447064e-002
3.137615e+003, 2.461893e-002
3.139544e+003, 2.469334e-002
3.141472e+003, 2.456349e-002
3.143401e+003, 2.496469e-002
3.145329e+003, 2.510278e-002
3.147258e+003, 2.494757e-002
3.149186e+003, 2.507164e-002
3.151115e+003, 2.514003e-002
3.153043e+003, 2.516240e-002
3.154971e+003, 2.559829e-002
3.156900e+003, 2.599057e-002
3.158828e+003, 2.578275e-002
3.160757e+003, 2.579600e-002
3.162685e+003, 2.579900e-002
3.164614e+003, 2.573799e-002
3.166542e+003, 2.594938e-002
3.168471e+003, 2.606445e-002
3.170399e+003, 2.599656e-002
3.172328e+003, 2.570507e-002
3.174256e+003, 2.517748e-002
3.176185e+003, 2.532426e-002
3.178113e+003, 2.561710e-002
3.180042e+003, 2.567554e-002
3.181970e+003, 2.599035e-002
3.183898e+003, 2.645095e-002
3.185827e+003, 2.610579e-002
3.187755e+003, 2.551238e-002
3.189684e+003, 2.557515e-002
3.191612e+003, 2.580345e-002
3.193541e+003, 2.583959e-002
3.195469e+003, 2.575896e-002
3.197398e+003, 2.600663e-002
3.199326e+003, 2.606668e-002
3.201255e+003, 2.600540e-002
3.203183e+003, 2.609079e-002
3.205112e+003, 2.637138e-002
3.207040e+003, 2.679911e-002
3.208969e+003, 2.690743e-002
3.210897e+003, 2.682910e-002
3.212825e+003, 2.643091e-002
3.214754e+003, 2.629402e-002
3.216682e+003, 2.615565e-002
3.218611e+003, 2.602147e-002
3.220539e+003, 2.618282e-002
3.222468e+003, 2.696956e-002
3.224396e+003, 2.732366e-002
3.226325e+003, 2.681750e-002
3.228253e+003, 2.635841e-002
3.230182e+003, 2.610598e-002
3.232110e+003, 2.632557e-002
3.234039e+003, 2.619505e-002
3.235967e+003, 2.591355e-002
3.237896e+003, 2.626011e-002
3.239824e+003, 2.658166e-002
3.241752e+003, 2.650966e-002
3.243681e+003, 2.686999e-002
3.245609e+003, 2.705836e-002
3.247538e+003, 2.678913e-002
3.249466e+003, 2.639303e-002
3.251395e+003, 2.654608e-002
3.253323e+003, 2.664605e-002
3.255252e+003, 2.663708e-002
3.257180e+003, 2.654154e-002
3.259109e+003, 2.668519e-002
3.261037e+003, 2.678672e-002
3.262966e+003, 2.721443e-002
3.264894e+003, 2.736237e-002
3.266823e+003, 2.710519e-002
3.268751e+003, 2.685790e-002
3.270679e+003, 2.630650e-002
3.272608e+003, 2.595044e-002
3.274536e+003, 2.590680e-002
3.276465e+003, 2.574758e-002
3.278393e+003, 2.632824e-002
3.280322e+003, 2.667600e-002
3.282250e+003, 2.609673e-002
3.284179e+003, 2.605296e-002
3.286107e+003, 2.654800e-002
3.288036e+003, 2.701901e-002
3.289964e+003, 2.706138e-002
3.291893e+003, 2.667276e-002
3.293821e+003, 2.681357e-002
3.295750e+003, 2.646600e-002
3.297678e+003, 2.657083e-002
3.299606e+003, 2.704661e-002
3.301535e+003, 2.705324e-002
3.303463e+003, 2.658156e-002
3.305392e+003, 2.634793e-002
3.307320e+003, 2.605402e-002
3.309249e+003, 2.579911e-002
3.311177e+003, 2.655799e-002
3.313106e+003, 2.703286e-002
3.315034e+003, 2.690800e-002
3.316963e+003, 2.706830e-002
3.318891e+003, 2.752062e-002
3.320820e+003, 2.726016e-002
3.322748e+003, 2.666776e-002
3.324677e+003, 2.660276e-002
3.326605e+003, 2.694535e-002
3.328533e+003, 2.696768e-002
3.330462e+003, 2.712438e-002
3.332390e+003, 2.727123e-002
3.334319e+003, 2.746082e-002
3.336247e+003, 2.741628e-002
3.338176e+003, 2.723350e-002
3.340104e+003, 2.704239e-002
3.342033e+003, 2.685515e-002
3.343961e+003, 2.692389e-002
3.345890e+003, 2.698783e-002
3.347818e+003, 2.678087e-002
3.349747e+003, 2.660205e-002
3.351675e+003, 2.683439e-002
3.353604e+003, 2.662729e-002
3.355532e+003, 2.665741e-002
3.357460e+003, 2.699235e-002
3.359389e+003, 2.690838e-002
3.361317e+003, 2.730037e-002
3.363246e+003, 2.749199e-002
3.365174e+003, 2.696973e-002
3.367103e+003, 2.701594e-002
3.369031e+003, 2.712963e-002
3.370960e+003, 2.699997e-002
3.372888e+003, 2.663054e-002
3.374817e+003, 2.661648e-002
3.376745e+003, 2.697452e-002
3.378674e+003, 2.705386e-002
3.380602e+003, 2.680641e-002
3.382531e+003, 2.693228e-002
3.384459e+003, 2.737950e-002
3.386387e+003, 2.737598e-002
3.388316e+003, 2.666064e-002
3.390244e+003, 2.621362e-002
3.392173e+003, 2.669046e-002
3.394101e+003, 2.704941e-002
3.396030e+003, 2.661682e-002
3.397958e+003, 2.684859e-002
3.399887e+003, 2.693928e-002
3.401815e+003, 2.631564e-002
3.403744e+003, 2.613536e-002
3.405672e+003, 2.664031e-002
3.407601e+003, 2.707605e-002
3.409529e+003, 2.679257e-002
3.411458e+003, 2.653425e-002
3.413386e+003, 2.607686e-002
3.415314e+003, 2.603894e-002
3.417243e+003, 2.672705e-002
3.419171e+003, 2.673749e-002
3.421100e+003, 2.612494e-002
3.423028e+003, 2.651010e-002
3.424957e+003, 2.668073e-002
3.426885e+003, 2.616117e-002
3.428814e+003, 2.607770e-002
3.430742e+003, 2.602651e-002
3.432671e+003, 2.603151e-002
3.434599e+003, 2.578799e-002
3.436528e+003, 2.561825e-002
3.438456e+003, 2.575846e-002
3.440385e+003, 2.593908e-002
3.442313e+003, 2.598899e-002
3.444241e+003, 2.634053e-002
3.446170e+003, 2.651181e-002
3.448098e+003, 2.681084e-002
3.450027e+003, 2.707616e-002
3.451955e+003, 2.689165e-002
3.453884e+003, 2.656997e-002
3.455812e+003, 2.658641e-002
3.457741e+003, 2.603189e-002
3.459669e+003, 2.560439e-002
3.461598e+003, 2.633536e-002
3.463526e+003, 2.702075e-002
3.465455e+003, 2.659229e-002
3.467383e+003, 2.582029e-002
3.469312e+003, 2.582807e-002
3.471240e+003, 2.609012e-002
3.473168e+003, 2.614592e-002
3.475097e+003, 2.596183e-002
3.477025e+003, 2.587155e-002
3.478954e+003, 2.576028e-002
3.480882e+003, 2.647872e-002
3.482811e+003, 2.666165e-002
3.484739e+003, 2.551038e-002
3.486668e+003, 2.525333e-002
3.488596e+003, 2.570090e-002
3.490525e+003, 2.561027e-002
3.492453e+003, 2.565298e-002
3.494382e+003, 2.593457e-002
3.496310e+003, 2.551467e-002
3.498239e+003, 2.501829e-002
3.500167e+003, 2.555408e-002
3.502095e+003, 2.582138e-002
3.504024e+003, 2.605866e-002
3.505952e+003, 2.594924e-002
3.507881e+003, 2.578746e-002
3.509809e+003, 2.642766e-002
3.511738e+003, 2.635632e-002
3.513666e+003, 2.569906e-002
3.515595e+003, 2.556719e-002
3.517523e+003, 2.608935e-002
3.519452e+003, 2.608630e-002
3.521380e+003, 2.576889e-002
3.523309e+003, 2.590063e-002
3.525237e+003, 2.552184e-002
3.527166e+003, 2.489422e-002
3.529094e+003, 2.478182e-002
3.531022e+003, 2.428616e-002
3.532951e+003, 2.425289e-002
3.534879e+003, 2.461358e-002
3.536808e+003, 2.462698e-002
3.538736e+003, 2.410705e-002
3.540665e+003, 2.388744e-002
3.542593e+003, 2.366271e-002
3.544522e+003, 2.299938e-002
3.546450e+003, 2.313471e-002
3.548379e+003, 2.409974e-002
3.550307e+003, 2.377230e-002
3.552236e+003, 2.280729e-002
3.554164e+003, 2.294358e-002
3.556093e+003, 2.321039e-002
3.558021e+003, 2.333317e-002
3.559949e+003, 2.276116e-002
3.561878e+003, 2.197781e-002
3.563806e+003, 2.209843e-002
3.565735e+003, 2.202551e-002
3.567663e+003, 2.118164e-002
3.569592e+003, 2.087871e-002
3.571520e+003, 2.130118e-002
3.573449e+003, 2.166777e-002
3.575377e+003, 2.185483e-002
3.577306e+003, 2.172294e-002
3.579234e+003, 2.135837e-002
3.581163e+003, 2.148341e-002
3.583091e+003, 2.152649e-002
3.585020e+003, 2.133596e-002
3.586948e+003, 2.091732e-002
3.588876e+003, 2.074487e-002
3.590805e+003, 2.090731e-002
3.592733e+003, 2.073526e-002
3.594662e+003, 2.081045e-002
3.596590e+003, 2.135716e-002
3.598519e+003, 2.091610e-002
3.600447e+003, 2.042126e-002
3.602376e+003, 2.066643e-002
3.604304e+003, 2.112199e-002
3.606233e+003, 2.131095e-002
3.608161e+003, 2.100555e-002
3.610090e+003, 2.072534e-002
3.612018e+003, 2.009257e-002
3.613947e+003, 2.027683e-002
3.615875e+003, 2.079367e-002
3.617803e+003, 1.989859e-002
3.619732e+003, 1.969504e-002
3.621660e+003, 2.052628e-002
3.623589e+003, 2.101641e-002
3.625517e+003, 2.106299e-002
3.627446e+003, 2.077247e-002
3.629374e+003, 1.957848e-002
3.631303e+003, 1.983848e-002
3.633231e+003, 2.101594e-002
3.635160e+003, 2.138596e-002
3.637088e+003, 2.099813e-002
3.639017e+003, 2.026333e-002
3.640945e+003, 1.964340e-002
3.642874e+003, 1.900973e-002
3.644802e+003, 1.922646e-002
3.646730e+003, 2.019981e-002
3.648659e+003, 2.034259e-002
3.650587e+003, 1.984751e-002
3.652516e+003, 1.985466e-002
3.654444e+003, 2.001286e-002
3.656373e+003, 2.020412e-002
3.658301e+003, 1.995905e-002
3.660230e+003, 1.958372e-002
3.662158e+003, 1.958811e-002
3.664087e+003, 1.951678e-002
3.666015e+003, 1.986879e-002
3.667944e+003, 2.014725e-002
3.669872e+003, 1.992251e-002
3.671801e+003, 2.007018e-002
3.673729e+003, 2.015343e-002
3.675657e+003, 2.004028e-002
3.677586e+003, 1.993318e-002
3.679514e+003, 2.018545e-002
3.681443e+003, 2.060308e-002
3.683371e+003, 2.037922e-002
3.685300e+003, 1.965207e-002
3.687228e+003, 1.849842e-002
3.689157e+003, 1.916988e-002
3.691085e+003, 1.948500e-002
3.693014e+003, 1.854791e-002
3.694942e+003, 1.866160e-002
3.696871e+003, 1.944292e-002
3.698799e+003, 1.992995e-002
3.700728e+003, 2.025593e-002
3.702656e+003, 2.083991e-002
3.704584e+003, 1.994351e-002
3.706513e+003, 1.952046e-002
3.708441e+003, 1.968246e-002
3.710370e+003, 2.008709e-002
3.712298e+003, 2.008181e-002
3.714227e+003, 1.984850e-002
3.716155e+003, 2.029773e-002
3.718084e+003, 2.066844e-002
3.720012e+003, 2.038565e-002
3.721941e+003, 2.051483e-002
3.723869e+003, 2.045222e-002
3.725798e+003, 2.073259e-002
3.727726e+003, 2.170928e-002
3.729655e+003, 2.163218e-002
3.731583e+003, 2.108847e-002
3.733511e+003, 2.068443e-002
3.735440e+003, 2.075576e-002
3.737368e+003, 2.101293e-002
3.739297e+003, 2.062453e-002
3.741225e+003, 2.048512e-002
3.743154e+003, 2.066018e-002
3.745082e+003, 2.048920e-002
3.747011e+003, 2.047055e-002
3.748939e+003, 2.065050e-002
3.750868e+003, 2.057815e-002
3.752796e+003, 2.017207e-002
3.754725e+003, 2.000771e-002
3.756653e+003, 2.023129e-002
3.758582e+003, 2.000411e-002
3.760510e+003, 2.046597e-002
3.762438e+003, 2.114019e-002
3.764367e+003, 2.068533e-002
3.766295e+003, 2.051316e-002
3.768224e+003, 2.061960e-002
3.770152e+003, 2.048363e-002
3.772081e+003, 2.105774e-002
3.774009e+003, 2.158750e-002
3.775938e+003, 2.137654e-002
3.777866e+003, 2.058716e-002
3.779795e+003, 1.999370e-002
3.781723e+003, 2.033711e-002
3.783652e+003, 2.060488e-002
3.785580e+003, 2.107624e-002
3.787509e+003, 2.137577e-002
3.789437e+003, 2.104716e-002
3.791365e+003, 2.081560e-002
3.793294e+003, 2.065421e-002
3.795222e+003, 2.098382e-002
3.797151e+003, 2.162992e-002
3.799079e+003, 2.190465e-002
3.801008e+003, 2.129165e-002
3.802936e+003, 2.063295e-002
3.804865e+003, 2.018275e-002
3.806793e+003, 2.014099e-002
3.808722e+003, 2.048321e-002
3.810650e+003, 2.091533e-002
3.812579e+003, 2.084927e-002
3.814507e+003, 2.064477e-002
3.816436e+003, 2.100900e-002
3.818364e+003, 2.142711e-002
3.820292e+003, 2.161551e-002
3.822221e+003, 2.144575e-002
3.824149e+003, 2.160391e-002
3.826078e+003, 2.141123e-002
3.828006e+003, 2.135531e-002
3.829935e+003, 2.139935e-002
3.831863e+003, 2.113567e-002
3.833792e+003, 2.117304e-002
3.835720e+003, 2.133171e-002
3.837649e+003, 2.091293e-002
3.839577e+003, 2.057395e-002
3.841506e+003, 2.104115e-002
3.843434e+003, 2.167187e-002
3.845363e+003, 2.155507e-002
3.847291e+003, 2.146992e-002
3.849219e+003, 2.168234e-002
3.851148e+003, 2.169228e-002
3.853076e+003, 2.132668e-002
3.855005e+003, 2.080325e-002
3.856933e+003, 2.039976e-002
3.858862e+003, 2.026770e-002
3.860790e+003, 2.021036e-002
3.862719e+003, 2.068050e-002
3.864647e+003, 2.091574e-002
3.866576e+003, 2.095120e-002
3.868504e+003, 2.123343e-002
3.870433e+003, 2.162912e-002
3.872361e+003, 2.110073e-002
3.874290e+003, 2.072935e-002
3.876218e+003, 2.085317e-002
3.878146e+003, 2.123643e-002
3.880075e+003, 2.103751e-002
3.882003e+003, 2.113300e-002
3.883932e+003, 2.123471e-002
3.885860e+003, 2.052371e-002
3.887789e+003, 2.044640e-002
3.889717e+003, 2.132139e-002
3.891646e+003, 2.161376e-002
3.893574e+003, 2.134537e-002
3.895503e+003, 2.123555e-002
3.897431e+003, 2.206264e-002
3.899360e+003, 2.188021e-002
3.901288e+003, 2.059214e-002
3.903217e+003, 2.061448e-002
3.905145e+003, 2.077882e-002
3.907073e+003, 2.070481e-002
3.909002e+003, 2.121672e-002
3.910930e+003, 2.156391e-002
3.912859e+003, 2.140817e-002
3.914787e+003, 2.152367e-002
3.916716e+003, 2.157803e-002
3.918644e+003, 2.118342e-002
3.920573e+003, 2.148008e-002
3.922501e+003, 2.191450e-002
3.924430e+003, 2.204289e-002
3.926358e+003, 2.211908e-002
3.928287e+003, 2.203144e-002
3.930215e+003, 2.178503e-002
3.932144e+003, 2.114658e-002
3.934072e+003, 2.097654e-002
3.936000e+003, 2.188180e-002
3.937929e+003, 2.220087e-002
3.939857e+003, 2.171402e-002
3.941786e+003, 2.145628e-002
3.943714e+003, 2.145764e-002
3.945643e+003, 2.216275e-002
3.947571e+003, 2.224752e-002
3.949500e+003, 2.150500e-002
3.951428e+003, 2.061102e-002
3.953357e+003, 2.070008e-002
3.955285e+003, 2.182649e-002
3.957214e+003, 2.234421e-002
3.959142e+003, 2.211975e-002
3.961071e+003, 2.207282e-002
3.962999e+003, 2.225156e-002
3.964927e+003, 2.230085e-002
3.966856e+003, 2.134274e-002
3.968784e+003, 2.117445e-002
3.970713e+003, 2.184416e-002
3.972641e+003, 2.170094e-002
3.974570e+003, 2.216110e-002
3.976498e+003, 2.199689e-002
3.978427e+003, 2.194748e-002
3.980355e+003, 2.252548e-002
3.982284e+003, 2.205054e-002
3.984212e+003, 2.133360e-002
3.986141e+003, 2.110419e-002
3.988069e+003, 2.113193e-002
3.989998e+003, 2.197167e-002
3.991926e+003, 2.257302e-002
3.993854e+003, 2.263634e-002
3.995783e+003, 2.260100e-002
3.997711e+003, 2.225564e-002
3.999640e+003, 2.184333e-002
##END=



