##NAMES=Triplite
##RRUFFID=R050186
##IDEAL CHEMISTRY=Mn^2+^_2_(PO_4_)F
##LOCALITY=Wuzhou, Guangxi Autonomous Region, China
##OWNER=RRUFF
##SOURCE=John Lucking
##DESCRIPTION=Orangish red fragments
##STATUS=The identification of this mineral has been confirmed by X-ray diffraction and chemical analysis
##URL=rruff.info/R050186
##MEASURED CHEMISTRY=(Mn^2+^_1.60_Fe^2+^_0.21_Mg_0.15_Ca_0.04_)_Σ=2_(P_1.00_O_4_)(F_0.80_(OH)_0.20_)_Σ=1_
3.741225e+002, 1.137748e-001
3.760510e+002, 1.098638e-001
3.779795e+002, 9.517454e-002
3.799079e+002, 8.871551e-002
3.818364e+002, 9.529229e-002
3.837649e+002, 1.031367e-001
3.856933e+002, 1.008768e-001
3.876218e+002, 9.506952e-002
3.895503e+002, 9.278882e-002
3.914787e+002, 8.696196e-002
3.934072e+002, 7.766910e-002
3.953357e+002, 7.399730e-002
3.972641e+002, 7.426138e-002
3.991926e+002, 7.365887e-002
4.011211e+002, 7.306244e-002
4.030495e+002, 7.132300e-002
4.049780e+002, 6.511643e-002
4.069065e+002, 6.377655e-002
4.088349e+002, 6.160473e-002
4.107634e+002, 5.769151e-002
4.126919e+002, 5.797463e-002
4.146203e+002, 5.578291e-002
4.165488e+002, 5.178286e-002
4.184773e+002, 4.968217e-002
4.204057e+002, 4.845582e-002
4.223342e+002, 4.665920e-002
4.242627e+002, 4.703649e-002
4.261911e+002, 4.961415e-002
4.281196e+002, 5.119963e-002
4.300481e+002, 5.205474e-002
4.319765e+002, 5.358905e-002
4.339050e+002, 5.832703e-002
4.358335e+002, 6.433713e-002
4.377619e+002, 7.056352e-002
4.396904e+002, 7.634012e-002
4.416189e+002, 8.099075e-002
4.435473e+002, 8.261246e-002
4.454758e+002, 8.188391e-002
4.474043e+002, 7.953401e-002
4.493327e+002, 7.502901e-002
4.512612e+002, 6.863879e-002
4.531897e+002, 6.248935e-002
4.551181e+002, 5.798446e-002
4.570466e+002, 5.421570e-002
4.589751e+002, 4.970422e-002
4.609035e+002, 4.526681e-002
4.628320e+002, 4.214739e-002
4.647605e+002, 4.032042e-002
4.666889e+002, 3.924114e-002
4.686174e+002, 3.782764e-002
4.705459e+002, 3.671101e-002
4.724743e+002, 3.596293e-002
4.744028e+002, 3.469694e-002
4.763313e+002, 3.335550e-002
4.782597e+002, 3.247581e-002
4.801882e+002, 3.182783e-002
4.821167e+002, 3.162810e-002
4.840451e+002, 3.118682e-002
4.859736e+002, 3.066805e-002
4.879021e+002, 3.000850e-002
4.898305e+002, 2.908114e-002
4.917590e+002, 2.805594e-002
4.936875e+002, 2.705371e-002
4.956159e+002, 2.622597e-002
4.975444e+002, 2.645446e-002
4.994729e+002, 2.697092e-002
5.014013e+002, 2.738239e-002
5.033298e+002, 2.745408e-002
5.052583e+002, 2.773444e-002
5.071867e+002, 2.842692e-002
5.091152e+002, 2.821644e-002
5.110437e+002, 2.830169e-002
5.129721e+002, 2.905298e-002
5.149006e+002, 2.963068e-002
5.168290e+002, 3.028684e-002
5.187575e+002, 3.104437e-002
5.206860e+002, 3.166584e-002
5.226144e+002, 3.234132e-002
5.245429e+002, 3.381533e-002
5.264714e+002, 3.570913e-002
5.283998e+002, 3.741338e-002
5.303283e+002, 3.950308e-002
5.322568e+002, 4.142780e-002
5.341852e+002, 4.388413e-002
5.361137e+002, 4.714024e-002
5.380422e+002, 5.061572e-002
5.399706e+002, 5.462329e-002
5.418991e+002, 5.987129e-002
5.438276e+002, 6.592859e-002
5.457560e+002, 7.251772e-002
5.476845e+002, 8.062015e-002
5.496130e+002, 8.969789e-002
5.515414e+002, 9.929185e-002
5.534699e+002, 1.115091e-001
5.553984e+002, 1.258165e-001
5.573268e+002, 1.415782e-001
5.592553e+002, 1.583200e-001
5.611838e+002, 1.763257e-001
5.631122e+002, 1.947015e-001
5.650407e+002, 2.121391e-001
5.669692e+002, 2.274326e-001
5.688976e+002, 2.386642e-001
5.708261e+002, 2.451096e-001
5.727546e+002, 2.477372e-001
5.746830e+002, 2.455665e-001
5.766115e+002, 2.389469e-001
5.785400e+002, 2.295896e-001
5.804684e+002, 2.179148e-001
5.823969e+002, 2.038637e-001
5.843254e+002, 1.874840e-001
5.862538e+002, 1.712276e-001
5.881823e+002, 1.560283e-001
5.901108e+002, 1.437390e-001
5.920392e+002, 1.356578e-001
5.939677e+002, 1.309470e-001
5.958962e+002, 1.281175e-001
5.978246e+002, 1.248956e-001
5.997531e+002, 1.206541e-001
6.016816e+002, 1.149812e-001
6.036100e+002, 1.075632e-001
6.055385e+002, 9.944043e-002
6.074670e+002, 9.164646e-002
6.093954e+002, 8.523455e-002
6.113239e+002, 8.064796e-002
6.132524e+002, 7.718815e-002
6.151808e+002, 7.558940e-002
6.171093e+002, 7.456185e-002
6.190378e+002, 7.333019e-002
6.209662e+002, 7.120314e-002
6.228947e+002, 6.749142e-002
6.248232e+002, 6.217628e-002
6.267516e+002, 5.637630e-002
6.286801e+002, 5.050685e-002
6.306086e+002, 4.460462e-002
6.325370e+002, 3.898453e-002
6.344655e+002, 3.420923e-002
6.363940e+002, 3.046348e-002
6.383224e+002, 2.736613e-002
6.402509e+002, 2.457209e-002
6.421794e+002, 2.216888e-002
6.441078e+002, 2.029847e-002
6.460363e+002, 1.901664e-002
6.479648e+002, 1.789421e-002
6.498932e+002, 1.675839e-002
6.518217e+002, 1.579912e-002
6.537502e+002, 1.516511e-002
6.556786e+002, 1.480702e-002
6.576071e+002, 1.430990e-002
6.595356e+002, 1.394989e-002
6.614641e+002, 1.377072e-002
6.633925e+002, 1.358624e-002
6.653210e+002, 1.324012e-002
6.672495e+002, 1.311538e-002
6.691779e+002, 1.296775e-002
6.711064e+002, 1.281212e-002
6.730349e+002, 1.289307e-002
6.749633e+002, 1.290438e-002
6.768918e+002, 1.263708e-002
6.788203e+002, 1.232655e-002
6.807487e+002, 1.225696e-002
6.826772e+002, 1.213288e-002
6.846057e+002, 1.200954e-002
6.865341e+002, 1.200092e-002
6.884626e+002, 1.169219e-002
6.903911e+002, 1.151181e-002
6.923195e+002, 1.183547e-002
6.942480e+002, 1.200297e-002
6.961765e+002, 1.197886e-002
6.981049e+002, 1.187922e-002
7.000334e+002, 1.203805e-002
7.019619e+002, 1.176670e-002
7.038903e+002, 1.189419e-002
7.058188e+002, 1.204887e-002
7.077473e+002, 1.198526e-002
7.096757e+002, 1.182233e-002
7.116042e+002, 1.186350e-002
7.135327e+002, 1.203451e-002
7.154611e+002, 1.215938e-002
7.173896e+002, 1.217946e-002
7.193181e+002, 1.226969e-002
7.212465e+002, 1.244878e-002
7.231750e+002, 1.273135e-002
7.251035e+002, 1.317946e-002
7.270319e+002, 1.312894e-002
7.289604e+002, 1.293546e-002
7.308889e+002, 1.277739e-002
7.328173e+002, 1.290409e-002
7.347458e+002, 1.330417e-002
7.366743e+002, 1.363600e-002
7.386027e+002, 1.372295e-002
7.405312e+002, 1.363224e-002
7.424597e+002, 1.363409e-002
7.443881e+002, 1.379700e-002
7.463166e+002, 1.397944e-002
7.482451e+002, 1.418146e-002
7.501735e+002, 1.438715e-002
7.521020e+002, 1.464496e-002
7.540305e+002, 1.464574e-002
7.559589e+002, 1.472397e-002
7.578874e+002, 1.490614e-002
7.598159e+002, 1.507323e-002
7.617443e+002, 1.537378e-002
7.636728e+002, 1.557610e-002
7.656013e+002, 1.577160e-002
7.675297e+002, 1.608249e-002
7.694582e+002, 1.641309e-002
7.713867e+002, 1.675995e-002
7.733151e+002, 1.673822e-002
7.752436e+002, 1.682985e-002
7.771721e+002, 1.706407e-002
7.791005e+002, 1.741013e-002
7.810290e+002, 1.783578e-002
7.829575e+002, 1.823237e-002
7.848859e+002, 1.838196e-002
7.868144e+002, 1.868045e-002
7.887429e+002, 1.906811e-002
7.906713e+002, 1.941508e-002
7.925998e+002, 1.964862e-002
7.945283e+002, 1.986407e-002
7.964567e+002, 2.026465e-002
7.983852e+002, 2.058953e-002
8.003137e+002, 2.090315e-002
8.022421e+002, 2.121560e-002
8.041706e+002, 2.153165e-002
8.060991e+002, 2.199452e-002
8.080275e+002, 2.247424e-002
8.099560e+002, 2.301866e-002
8.118845e+002, 2.350727e-002
8.138129e+002, 2.376144e-002
8.157414e+002, 2.423067e-002
8.176699e+002, 2.473108e-002
8.195983e+002, 2.512148e-002
8.215268e+002, 2.568994e-002
8.234553e+002, 2.657294e-002
8.253837e+002, 2.721092e-002
8.273122e+002, 2.764001e-002
8.292407e+002, 2.800337e-002
8.311691e+002, 2.844552e-002
8.330976e+002, 2.878574e-002
8.350261e+002, 2.948228e-002
8.369545e+002, 2.984867e-002
8.388830e+002, 3.003416e-002
8.408115e+002, 3.050253e-002
8.427399e+002, 3.124425e-002
8.446684e+002, 3.193714e-002
8.465969e+002, 3.258139e-002
8.485253e+002, 3.311317e-002
8.504538e+002, 3.368474e-002
8.523823e+002, 3.456504e-002
8.543107e+002, 3.552128e-002
8.562392e+002, 3.637698e-002
8.581677e+002, 3.749663e-002
8.600961e+002, 3.842362e-002
8.620246e+002, 3.927746e-002
8.639531e+002, 4.025572e-002
8.658815e+002, 4.154130e-002
8.678100e+002, 4.263206e-002
8.697385e+002, 4.366190e-002
8.716669e+002, 4.492798e-002
8.735954e+002, 4.605304e-002
8.755239e+002, 4.730384e-002
8.774523e+002, 4.876436e-002
8.793808e+002, 5.031462e-002
8.813093e+002, 5.181537e-002
8.832377e+002, 5.328027e-002
8.851662e+002, 5.497867e-002
8.870947e+002, 5.680490e-002
8.890231e+002, 5.874230e-002
8.909516e+002, 6.077090e-002
8.928801e+002, 6.275432e-002
8.948085e+002, 6.480680e-002
8.967370e+002, 6.682203e-002
8.986655e+002, 6.901680e-002
9.005939e+002, 7.147975e-002
9.025224e+002, 7.409604e-002
9.044509e+002, 7.662415e-002
9.063793e+002, 7.900605e-002
9.083078e+002, 8.152453e-002
9.102363e+002, 8.418041e-002
9.121647e+002, 8.690254e-002
9.140932e+002, 8.948779e-002
9.160217e+002, 9.231555e-002
9.179501e+002, 9.553860e-002
9.198786e+002, 9.869543e-002
9.218071e+002, 1.018867e-001
9.237355e+002, 1.054014e-001
9.256640e+002, 1.089208e-001
9.275925e+002, 1.125165e-001
9.295209e+002, 1.164607e-001
9.314494e+002, 1.205357e-001
9.333779e+002, 1.247165e-001
9.353063e+002, 1.289927e-001
9.372348e+002, 1.333299e-001
9.391633e+002, 1.381261e-001
9.410917e+002, 1.432155e-001
9.430202e+002, 1.484249e-001
9.449487e+002, 1.539281e-001
9.468771e+002, 1.596388e-001
9.488056e+002, 1.656164e-001
9.507341e+002, 1.717514e-001
9.526625e+002, 1.783468e-001
9.545910e+002, 1.851827e-001
9.565195e+002, 1.924838e-001
9.584479e+002, 2.000957e-001
9.603764e+002, 2.080435e-001
9.623049e+002, 2.167078e-001
9.642333e+002, 2.257318e-001
9.661618e+002, 2.335007e-001
9.680903e+002, 2.399985e-001
9.700187e+002, 2.450721e-001
9.719472e+002, 2.477757e-001
9.738757e+002, 2.475851e-001
9.758041e+002, 2.456041e-001
9.777326e+002, 2.452159e-001
9.796611e+002, 2.482457e-001
9.815895e+002, 2.542187e-001
9.835180e+002, 2.624207e-001
9.854465e+002, 2.727368e-001
9.873749e+002, 2.842545e-001
9.893034e+002, 2.955891e-001
9.912319e+002, 3.065726e-001
9.931603e+002, 3.170964e-001
9.950888e+002, 3.273547e-001
9.970173e+002, 3.369377e-001
9.989457e+002, 3.455316e-001
1.000874e+003, 3.532383e-001
1.002803e+003, 3.601789e-001
1.004731e+003, 3.659245e-001
1.006660e+003, 3.701939e-001
1.008588e+003, 3.732456e-001
1.010517e+003, 3.752840e-001
1.012445e+003, 3.760426e-001
1.014373e+003, 3.759883e-001
1.016302e+003, 3.752216e-001
1.018230e+003, 3.735429e-001
1.020159e+003, 3.709515e-001
1.022087e+003, 3.679512e-001
1.024016e+003, 3.651186e-001
1.025944e+003, 3.621760e-001
1.027873e+003, 3.589153e-001
1.029801e+003, 3.550892e-001
1.031730e+003, 3.502035e-001
1.033658e+003, 3.445439e-001
1.035587e+003, 3.380820e-001
1.037515e+003, 3.307048e-001
1.039443e+003, 3.230118e-001
1.041372e+003, 3.151367e-001
1.043300e+003, 3.072648e-001
1.045229e+003, 2.994042e-001
1.047157e+003, 2.917254e-001
1.049086e+003, 2.847148e-001
1.051014e+003, 2.782285e-001
1.052943e+003, 2.722992e-001
1.054871e+003, 2.673348e-001
1.056800e+003, 2.626663e-001
1.058728e+003, 2.579031e-001
1.060657e+003, 2.526023e-001
1.062585e+003, 2.457922e-001
1.064514e+003, 2.375927e-001
1.066442e+003, 2.288097e-001
1.068370e+003, 2.199334e-001
1.070299e+003, 2.108567e-001
1.072227e+003, 2.016134e-001
1.074156e+003, 1.927425e-001
1.076084e+003, 1.839570e-001
1.078013e+003, 1.750281e-001
1.079941e+003, 1.664579e-001
1.081870e+003, 1.581264e-001
1.083798e+003, 1.500979e-001
1.085727e+003, 1.424887e-001
1.087655e+003, 1.352738e-001
1.089584e+003, 1.284423e-001
1.091512e+003, 1.215957e-001
1.093441e+003, 1.148313e-001
1.095369e+003, 1.083186e-001
1.097297e+003, 1.019827e-001
1.099226e+003, 9.533551e-002
1.101154e+003, 8.863626e-002
1.103083e+003, 8.231608e-002
1.105011e+003, 7.643980e-002
1.106940e+003, 7.104496e-002
1.108868e+003, 6.632265e-002
1.110797e+003, 6.197623e-002
1.112725e+003, 5.799125e-002
1.114654e+003, 5.446585e-002
1.116582e+003, 5.140423e-002
1.118511e+003, 4.866236e-002
1.120439e+003, 4.589975e-002
1.122368e+003, 4.305257e-002
1.124296e+003, 4.044073e-002
1.126224e+003, 3.779736e-002
1.128153e+003, 3.514181e-002
1.130081e+003, 3.229786e-002
1.132010e+003, 2.925351e-002
1.133938e+003, 2.638651e-002
1.135867e+003, 2.367900e-002
1.137795e+003, 2.098342e-002
1.139724e+003, 1.853262e-002
1.141652e+003, 1.641230e-002
1.143581e+003, 1.453445e-002
1.145509e+003, 1.287097e-002
1.147438e+003, 1.170433e-002
1.149366e+003, 1.071798e-002
1.151295e+003, 9.839277e-003
1.153223e+003, 9.210470e-003
1.155151e+003, 8.684875e-003
1.157080e+003, 8.083015e-003
1.159008e+003, 7.602450e-003
1.160937e+003, 7.286777e-003
1.162865e+003, 6.838091e-003
1.164794e+003, 6.544416e-003
1.166722e+003, 6.421702e-003
1.168651e+003, 6.112176e-003
1.170579e+003, 5.992935e-003
1.172508e+003, 5.889972e-003
1.174436e+003, 5.632698e-003
1.176365e+003, 5.447941e-003
1.178293e+003, 5.289293e-003
1.180222e+003, 5.022937e-003
1.182150e+003, 4.852449e-003
1.184078e+003, 4.832995e-003
1.186007e+003, 4.700193e-003
1.187935e+003, 4.550703e-003
1.189864e+003, 4.315589e-003
1.191792e+003, 4.093987e-003
1.193721e+003, 4.017822e-003
1.195649e+003, 3.757441e-003
1.197578e+003, 3.462617e-003
1.199506e+003, 3.237661e-003
1.201435e+003, 2.977158e-003
1.203363e+003, 2.772238e-003
1.205292e+003, 2.640540e-003
1.207220e+003, 2.355350e-003
1.209149e+003, 2.130965e-003
1.211077e+003, 1.889893e-003
1.213005e+003, 1.816572e-003
1.214934e+003, 1.648045e-003
1.216862e+003, 1.381800e-003
1.218791e+003, 1.298468e-003
1.220719e+003, 1.191369e-003
1.222648e+003, 1.056745e-003
1.224576e+003, 9.279531e-004
1.226505e+003, 7.534092e-004
1.228433e+003, 5.967460e-004
1.230362e+003, 5.248149e-004
1.232290e+003, 5.034265e-004
1.234219e+003, 4.587973e-004
1.236147e+003, 4.713731e-004
1.238076e+003, 4.385168e-004
1.240004e+003, 1.691196e-004
1.241932e+003, 3.239677e-005
1.243861e+003, -3.919243e-005
1.245789e+003, -7.827776e-005
1.247718e+003, -8.477979e-005
1.249646e+003, -1.204504e-004
1.251575e+003, -1.274081e-004
1.253503e+003, -4.170712e-005
1.255432e+003, -1.002155e-004
1.257360e+003, -1.697658e-004
1.259289e+003, -1.956965e-004
1.261217e+003, -2.868499e-004
1.263146e+003, -3.805742e-004
1.265074e+003, -3.817515e-004
1.267003e+003, -2.483036e-004
1.268931e+003, -2.208710e-004
1.270859e+003, -3.143976e-004
1.272788e+003, -2.533898e-004
1.274716e+003, -1.671100e-004
1.276645e+003, -1.858464e-004
1.278573e+003, -1.780105e-004
1.280502e+003, -9.117396e-005
1.282430e+003, 2.743221e-005
1.284359e+003, 5.615242e-005
1.286287e+003, 1.464258e-004
1.288216e+003, 6.497286e-005
1.290144e+003, -4.657963e-005
1.292073e+003, -4.725778e-005
1.294001e+003, 2.739543e-005
1.295930e+003, -7.462499e-005
1.297858e+003, -2.902208e-004
1.299786e+003, -2.108034e-004
1.301715e+003, -2.311813e-005
1.303643e+003, 7.349954e-007
1.305572e+003, -3.002219e-005
1.307500e+003, -2.598692e-006
1.309429e+003, 4.598459e-005
1.311357e+003, 6.482888e-005
1.313286e+003, 1.575393e-004
1.315214e+003, 9.423198e-005
1.317143e+003, 8.276818e-005
1.319071e+003, 1.472319e-004
1.321000e+003, 2.686013e-004
1.322928e+003, 2.560672e-004
1.324857e+003, 2.030017e-004
1.326785e+003, 3.219082e-004
1.328714e+003, 3.286068e-004
1.330642e+003, 2.881183e-004
1.332570e+003, 3.711913e-004
1.334499e+003, 4.347815e-004
1.336427e+003, 4.005081e-004
1.338356e+003, 5.191781e-004
1.340284e+003, 6.841447e-004
1.342213e+003, 6.027416e-004
1.344141e+003, 5.765120e-004
1.346070e+003, 5.822223e-004
1.347998e+003, 5.608115e-004
1.349927e+003, 4.017436e-004
1.351855e+003, 4.088716e-004
1.353784e+003, 4.483004e-004
1.355712e+003, 4.262060e-004
1.357641e+003, 4.411025e-004
1.359569e+003, 4.586100e-004
1.361497e+003, 5.364378e-004
1.363426e+003, 6.719260e-004
1.365354e+003, 6.322697e-004
1.367283e+003, 6.267019e-004
1.369211e+003, 6.061310e-004
1.371140e+003, 6.108212e-004
1.373068e+003, 8.015407e-004
1.374997e+003, 8.860411e-004
1.376925e+003, 8.477013e-004
1.378854e+003, 8.933310e-004
1.380782e+003, 8.187799e-004
1.382711e+003, 7.351374e-004
1.384639e+003, 8.030178e-004
1.386568e+003, 1.039137e-003
1.388496e+003, 1.073978e-003
1.390424e+003, 1.029806e-003
1.392353e+003, 9.926367e-004
1.394281e+003, 1.019632e-003
1.396210e+003, 1.118808e-003
1.398138e+003, 1.194914e-003
1.400067e+003, 1.057086e-003
1.401995e+003, 9.733848e-004
1.403924e+003, 1.141701e-003
1.405852e+003, 1.306050e-003
1.407781e+003, 1.399500e-003
1.409709e+003, 1.421584e-003
1.411638e+003, 1.490974e-003
1.413566e+003, 1.633017e-003
1.415495e+003, 1.557279e-003
1.417423e+003, 1.665561e-003
1.419351e+003, 1.795382e-003
1.421280e+003, 1.720747e-003
1.423208e+003, 1.794008e-003
1.425137e+003, 1.924580e-003
1.427065e+003, 1.871208e-003
1.428994e+003, 2.005004e-003
1.430922e+003, 2.085325e-003
1.432851e+003, 1.998304e-003
1.434779e+003, 2.158531e-003
1.436708e+003, 2.291940e-003
1.438636e+003, 2.273623e-003
1.440565e+003, 2.301101e-003
1.442493e+003, 2.235973e-003
1.444422e+003, 2.055756e-003
1.446350e+003, 1.986774e-003
1.448278e+003, 2.119502e-003
1.450207e+003, 2.146857e-003
1.452135e+003, 2.120122e-003
1.454064e+003, 2.076634e-003
1.455992e+003, 2.373676e-003
1.457921e+003, 2.509825e-003
1.459849e+003, 2.281270e-003
1.461778e+003, 2.243266e-003
1.463706e+003, 2.306330e-003
1.465635e+003, 2.246021e-003
1.467563e+003, 1.804175e-003
1.469492e+003, 1.703588e-003
1.471420e+003, 2.065691e-003
1.473349e+003, 2.278919e-003
1.475277e+003, 2.114080e-003
1.477205e+003, 1.954271e-003
1.479134e+003, 1.793015e-003
1.481062e+003, 1.859680e-003
1.482991e+003, 1.914151e-003
1.484919e+003, 1.990910e-003
1.486848e+003, 2.147453e-003
1.488776e+003, 2.130504e-003
1.490705e+003, 1.893969e-003
1.492633e+003, 1.752512e-003
1.494562e+003, 1.928545e-003
1.496490e+003, 2.292881e-003
1.498419e+003, 2.256086e-003
1.500347e+003, 1.947364e-003
1.502276e+003, 1.805073e-003
1.504204e+003, 2.010588e-003
1.506132e+003, 2.477059e-003
1.508061e+003, 2.636231e-003
1.509989e+003, 2.443999e-003
1.511918e+003, 2.204028e-003
1.513846e+003, 2.126543e-003
1.515775e+003, 2.262096e-003
1.517703e+003, 2.260755e-003
1.519632e+003, 2.463744e-003
1.521560e+003, 2.677258e-003
1.523489e+003, 2.491200e-003
1.525417e+003, 2.450697e-003
1.527346e+003, 2.404551e-003
1.529274e+003, 2.298388e-003
1.531203e+003, 2.244599e-003
1.533131e+003, 2.353217e-003
1.535059e+003, 2.342658e-003
1.536988e+003, 2.522006e-003
1.538916e+003, 3.057229e-003
1.540845e+003, 3.095807e-003
1.542773e+003, 2.871723e-003
1.544702e+003, 2.989164e-003
1.546630e+003, 2.982457e-003
1.548559e+003, 2.835822e-003
1.550487e+003, 2.705574e-003
1.552416e+003, 2.685935e-003
1.554344e+003, 2.838227e-003
1.556273e+003, 3.161804e-003
1.558201e+003, 3.693467e-003
1.560130e+003, 3.517882e-003
1.562058e+003, 3.009912e-003
1.563986e+003, 2.989925e-003
1.565915e+003, 2.988120e-003
1.567843e+003, 3.051106e-003
1.569772e+003, 3.134203e-003
1.571700e+003, 2.890371e-003
1.573629e+003, 3.003008e-003
1.575557e+003, 3.382816e-003
1.577486e+003, 3.364301e-003
1.579414e+003, 3.057884e-003
1.581343e+003, 3.026709e-003
1.583271e+003, 3.213136e-003
1.585200e+003, 3.146433e-003
1.587128e+003, 3.019406e-003
1.589057e+003, 3.159700e-003
1.590985e+003, 3.429301e-003
1.592913e+003, 3.454182e-003
1.594842e+003, 3.259338e-003
1.596770e+003, 3.197569e-003
1.598699e+003, 3.257401e-003
1.600627e+003, 3.136594e-003
1.602556e+003, 3.050690e-003
1.604484e+003, 3.219197e-003
1.606413e+003, 3.235673e-003
1.608341e+003, 3.177234e-003
1.610270e+003, 3.231789e-003
1.612198e+003, 3.266023e-003
1.614127e+003, 3.421725e-003
1.616055e+003, 3.755804e-003
1.617984e+003, 3.493381e-003
1.619912e+003, 3.196456e-003
1.621840e+003, 3.453144e-003
1.623769e+003, 3.509362e-003
1.625697e+003, 3.393520e-003
1.627626e+003, 3.509915e-003
1.629554e+003, 3.544453e-003
1.631483e+003, 3.495675e-003
1.633411e+003, 3.757697e-003
1.635340e+003, 3.917987e-003
1.637268e+003, 3.659896e-003
1.639197e+003, 3.344641e-003
1.641125e+003, 3.295017e-003
1.643054e+003, 3.512743e-003
1.644982e+003, 3.968380e-003
1.646911e+003, 3.939943e-003
1.648839e+003, 3.609819e-003
1.650767e+003, 3.886746e-003
1.652696e+003, 4.520523e-003
1.654624e+003, 4.322124e-003
1.656553e+003, 3.778674e-003
1.658481e+003, 3.443759e-003
1.660410e+003, 3.298584e-003
1.662338e+003, 3.396981e-003
1.664267e+003, 3.488850e-003
1.666195e+003, 3.457503e-003
1.668124e+003, 3.503307e-003
1.670052e+003, 3.440528e-003
1.671981e+003, 3.395745e-003
1.673909e+003, 3.460905e-003
1.675838e+003, 3.452230e-003
1.677766e+003, 3.300111e-003
1.679694e+003, 3.365854e-003
1.681623e+003, 3.366010e-003
1.683551e+003, 3.764158e-003
1.685480e+003, 3.811754e-003
1.687408e+003, 3.286170e-003
1.689337e+003, 3.082605e-003
1.691265e+003, 3.107513e-003
1.693194e+003, 3.244765e-003
1.695122e+003, 3.628094e-003
1.697051e+003, 3.585104e-003
1.698979e+003, 3.602987e-003
1.700908e+003, 3.451759e-003
1.702836e+003, 3.040074e-003
1.704765e+003, 3.158045e-003
1.706693e+003, 3.176845e-003
1.708621e+003, 3.030970e-003
1.710550e+003, 2.849928e-003
1.712478e+003, 2.932156e-003
1.714407e+003, 3.091512e-003
1.716335e+003, 3.322366e-003
1.718264e+003, 3.236105e-003
1.720192e+003, 2.865530e-003
1.722121e+003, 2.764555e-003
1.724049e+003, 2.765426e-003
1.725978e+003, 2.696959e-003
1.727906e+003, 2.601107e-003
1.729835e+003, 2.414079e-003
1.731763e+003, 2.506531e-003
1.733692e+003, 2.824546e-003
1.735620e+003, 2.350238e-003
1.737548e+003, 1.738172e-003
1.739477e+003, 1.767556e-003
1.741405e+003, 1.884859e-003
1.743334e+003, 2.038113e-003
1.745262e+003, 2.112168e-003
1.747191e+003, 2.357329e-003
1.749119e+003, 2.510862e-003
1.751048e+003, 2.409517e-003
1.752976e+003, 2.227973e-003
1.754905e+003, 2.314246e-003
1.756833e+003, 2.342381e-003
1.758762e+003, 2.325740e-003
1.760690e+003, 2.253765e-003
1.762619e+003, 2.191221e-003
1.764547e+003, 2.356244e-003
1.766475e+003, 2.542152e-003
1.768404e+003, 2.503327e-003
1.770332e+003, 2.583055e-003
1.772261e+003, 2.832562e-003
1.774189e+003, 2.664462e-003
1.776118e+003, 2.531318e-003
1.778046e+003, 2.503176e-003
1.779975e+003, 2.618933e-003
1.781903e+003, 2.697744e-003
1.783832e+003, 2.531966e-003
1.785760e+003, 2.449310e-003
1.787689e+003, 2.476621e-003
1.789617e+003, 2.722651e-003
1.791546e+003, 2.827120e-003
1.793474e+003, 2.762977e-003
1.795402e+003, 2.606175e-003
1.797331e+003, 2.572015e-003
1.799259e+003, 2.594360e-003
1.801188e+003, 2.735061e-003
1.803116e+003, 2.637842e-003
1.805045e+003, 2.579483e-003
1.806973e+003, 2.621252e-003
1.808902e+003, 2.595393e-003
1.810830e+003, 2.566646e-003
1.812759e+003, 2.641541e-003
1.814687e+003, 2.405195e-003
1.816616e+003, 2.362923e-003
1.818544e+003, 2.581910e-003
1.820473e+003, 2.754807e-003
1.822401e+003, 2.872952e-003
1.824329e+003, 2.939179e-003
1.826258e+003, 2.944868e-003
1.828186e+003, 2.812542e-003
1.830115e+003, 2.803066e-003
1.832043e+003, 2.827008e-003
1.833972e+003, 2.874091e-003
1.835900e+003, 2.779839e-003
1.837829e+003, 2.530401e-003
1.839757e+003, 2.603294e-003
1.841686e+003, 2.734001e-003
1.843614e+003, 2.483485e-003
1.845543e+003, 2.062191e-003
1.847471e+003, 2.375899e-003
1.849400e+003, 2.684046e-003
1.851328e+003, 2.590320e-003
1.853256e+003, 2.788607e-003
1.855185e+003, 2.712146e-003
1.857113e+003, 2.742230e-003
1.859042e+003, 2.884624e-003
1.860970e+003, 2.786918e-003
1.862899e+003, 2.726422e-003
1.864827e+003, 2.608893e-003
1.866756e+003, 2.718428e-003
1.868684e+003, 2.986945e-003
1.870613e+003, 2.700101e-003
1.872541e+003, 2.546628e-003
1.874470e+003, 2.503624e-003
1.876398e+003, 2.738550e-003
1.878327e+003, 2.533002e-003
1.880255e+003, 2.155532e-003
1.882183e+003, 2.119780e-003
1.884112e+003, 2.193514e-003
1.886040e+003, 2.328294e-003
1.887969e+003, 2.265146e-003
1.889897e+003, 2.314558e-003
1.891826e+003, 2.358368e-003
1.893754e+003, 2.326172e-003
1.895683e+003, 1.906843e-003
1.897611e+003, 2.073267e-003
1.899540e+003, 2.245155e-003
1.901468e+003, 2.454126e-003
1.903397e+003, 2.666056e-003
1.905325e+003, 2.980113e-003
1.907254e+003, 2.662790e-003
1.909182e+003, 2.532874e-003
1.911110e+003, 2.628957e-003
1.913039e+003, 2.562955e-003
1.914967e+003, 2.595463e-003
1.916896e+003, 2.778498e-003
1.918824e+003, 2.729028e-003
1.920753e+003, 2.257233e-003
1.922681e+003, 1.951796e-003
1.924610e+003, 1.993523e-003
1.926538e+003, 2.153993e-003
1.928467e+003, 2.276028e-003
1.930395e+003, 2.409361e-003
1.932324e+003, 2.854994e-003
1.934252e+003, 2.934752e-003
1.936181e+003, 2.942958e-003
1.938109e+003, 2.882413e-003
1.940037e+003, 2.483130e-003
1.941966e+003, 2.099502e-003
1.943894e+003, 2.532946e-003
1.945823e+003, 2.561742e-003
1.947751e+003, 2.128568e-003
1.949680e+003, 1.802692e-003
1.951608e+003, 2.228103e-003
1.953537e+003, 2.861462e-003
1.955465e+003, 2.326401e-003
1.957394e+003, 2.881934e-003
1.959322e+003, 3.703525e-003
1.961251e+003, 4.160564e-003
1.963179e+003, 3.933786e-003
1.965108e+003, 3.021785e-003
1.967036e+003, 2.699052e-003
1.968964e+003, 2.230089e-003
1.970893e+003, 3.361471e-003
1.972821e+003, 4.509901e-003
1.974750e+003, 3.889735e-003
1.976678e+003, 4.134296e-003
1.978607e+003, 5.787195e-003
1.980535e+003, 6.811087e-003
1.982464e+003, 6.376507e-003
1.984392e+003, 6.603941e-003
1.986321e+003, 5.933160e-003
1.988249e+003, 3.806783e-003
1.990178e+003, 3.688131e-003
1.992106e+003, 4.808967e-003
1.994035e+003, 4.666612e-003
1.995963e+003, 4.889472e-003
1.997891e+003, 5.667622e-003
1.999820e+003, 5.068172e-003
2.001748e+003, 4.152683e-003
2.003677e+003, 4.518060e-003
2.005605e+003, 5.035238e-003
2.007534e+003, 5.754403e-003
2.009462e+003, 6.142737e-003
2.011391e+003, 4.862647e-003
2.013319e+003, 4.264979e-003
2.015248e+003, 3.848698e-003
2.017176e+003, 4.363763e-003
2.019105e+003, 4.686994e-003
2.021033e+003, 4.508382e-003
2.022962e+003, 4.667162e-003
2.024890e+003, 4.804609e-003
2.026818e+003, 5.048444e-003
2.028747e+003, 5.932536e-003
2.030675e+003, 5.412279e-003
2.032604e+003, 4.912985e-003
2.034532e+003, 5.533660e-003
2.036461e+003, 6.069719e-003
2.038389e+003, 5.824843e-003
2.040318e+003, 5.903408e-003
2.042246e+003, 5.751619e-003
2.044175e+003, 4.954523e-003
2.046103e+003, 4.850856e-003
2.048031e+003, 5.885839e-003
2.049960e+003, 6.319798e-003
2.051888e+003, 5.430170e-003
2.053817e+003, 4.105008e-003
2.055745e+003, 4.446869e-003
2.057674e+003, 4.851820e-003
2.059602e+003, 3.874675e-003
2.061531e+003, 4.223350e-003
2.063459e+003, 4.479379e-003
2.065388e+003, 3.984610e-003
2.067316e+003, 3.790659e-003
2.069245e+003, 3.698861e-003
2.071173e+003, 4.389271e-003
2.073102e+003, 4.807048e-003
2.075030e+003, 4.862347e-003
2.076958e+003, 4.993267e-003
2.078887e+003, 4.973670e-003
2.080815e+003, 5.188616e-003
2.082744e+003, 4.681595e-003
2.084672e+003, 4.693266e-003
2.086601e+003, 4.585776e-003
2.088529e+003, 4.148690e-003
2.090458e+003, 4.409872e-003
2.092386e+003, 3.701979e-003
2.094315e+003, 3.658892e-003
2.096243e+003, 4.145221e-003
2.098172e+003, 4.752303e-003
2.100100e+003, 5.224133e-003
2.102029e+003, 5.163275e-003
2.103957e+003, 5.627721e-003
2.105885e+003, 5.549344e-003
2.107814e+003, 5.186396e-003
2.109742e+003, 4.932288e-003
2.111671e+003, 4.973347e-003
2.113599e+003, 4.334835e-003
2.115528e+003, 4.512429e-003
2.117456e+003, 4.231977e-003
2.119385e+003, 4.128145e-003
2.121313e+003, 3.804837e-003
2.123242e+003, 4.562429e-003
2.125170e+003, 4.772880e-003
2.127099e+003, 4.567552e-003
2.129027e+003, 4.364750e-003
2.130956e+003, 4.485150e-003
2.132884e+003, 4.630439e-003
2.134813e+003, 5.539319e-003
2.136741e+003, 5.411561e-003
2.138669e+003, 4.417102e-003
2.140598e+003, 5.056724e-003
2.142526e+003, 4.977981e-003
2.144455e+003, 4.971011e-003
2.146383e+003, 5.182603e-003
2.148312e+003, 7.130502e-003
2.150240e+003, 7.380458e-003
2.152169e+003, 6.585390e-003
2.154097e+003, 6.775418e-003
2.156026e+003, 6.679441e-003
2.157954e+003, 8.860894e-003
2.159883e+003, 1.229238e-002
2.161811e+003, 1.186434e-002
2.163740e+003, 1.026773e-002
2.165668e+003, 9.937652e-003
2.167596e+003, 9.108067e-003
2.169525e+003, 9.821464e-003
2.171453e+003, 9.667898e-003
2.173382e+003, 9.622055e-003
2.175310e+003, 1.008984e-002
2.177239e+003, 1.051030e-002
2.179167e+003, 1.189652e-002
2.181096e+003, 1.198226e-002
2.183024e+003, 1.081137e-002
2.184953e+003, 1.023685e-002
2.186881e+003, 1.004363e-002
2.188810e+003, 1.014764e-002
2.190738e+003, 9.838713e-003
2.192667e+003, 8.883446e-003
2.194595e+003, 9.147788e-003
2.196523e+003, 9.284264e-003
2.198452e+003, 8.381777e-003
2.200380e+003, 8.584215e-003
2.202309e+003, 8.376660e-003
2.204237e+003, 8.359306e-003
2.206166e+003, 8.359402e-003
2.208094e+003, 8.078440e-003
2.210023e+003, 8.261484e-003
2.211951e+003, 8.608105e-003
2.213880e+003, 8.910770e-003
2.215808e+003, 8.719807e-003
2.217737e+003, 8.989936e-003
2.219665e+003, 9.110708e-003
2.221594e+003, 9.340651e-003
2.223522e+003, 8.415885e-003
2.225450e+003, 7.783562e-003
2.227379e+003, 8.277209e-003
2.229307e+003, 8.740818e-003
2.231236e+003, 8.344952e-003
2.233164e+003, 8.909470e-003
2.235093e+003, 1.025672e-002
2.237021e+003, 1.065435e-002
2.238950e+003, 9.985849e-003
2.240878e+003, 1.012212e-002
2.242807e+003, 1.015144e-002
2.244735e+003, 9.886178e-003
2.246664e+003, 9.642307e-003
2.248592e+003, 9.500741e-003
2.250521e+003, 8.613585e-003
2.252449e+003, 8.202545e-003
2.254377e+003, 8.700267e-003
2.256306e+003, 8.560309e-003
2.258234e+003, 7.657147e-003
2.260163e+003, 8.221261e-003
2.262091e+003, 8.855965e-003
2.264020e+003, 8.179408e-003
2.265948e+003, 8.237775e-003
2.267877e+003, 8.544091e-003
2.269805e+003, 9.066332e-003
2.271734e+003, 8.976814e-003
2.273662e+003, 8.497280e-003
2.275591e+003, 8.296509e-003
2.277519e+003, 8.793992e-003
2.279448e+003, 9.105138e-003
2.281376e+003, 8.450354e-003
2.283304e+003, 8.095190e-003
2.285233e+003, 8.037860e-003
2.287161e+003, 7.611375e-003
2.289090e+003, 7.738956e-003
2.291018e+003, 7.785533e-003
2.292947e+003, 7.330645e-003
2.294875e+003, 6.900369e-003
2.296804e+003, 6.788749e-003
2.298732e+003, 6.893665e-003
2.300661e+003, 7.043279e-003
2.302589e+003, 6.989743e-003
2.304518e+003, 6.682285e-003
2.306446e+003, 6.476231e-003
2.308375e+003, 6.325695e-003
2.310303e+003, 6.176488e-003
2.312231e+003, 6.462608e-003
2.314160e+003, 6.777961e-003
2.316088e+003, 6.666557e-003
2.318017e+003, 6.145139e-003
2.319945e+003, 5.976652e-003
2.321874e+003, 6.503139e-003
2.323802e+003, 7.045517e-003
2.325731e+003, 6.265727e-003
2.327659e+003, 5.540019e-003
2.329588e+003, 5.333872e-003
2.331516e+003, 5.365299e-003
2.333445e+003, 5.708602e-003
2.335373e+003, 6.051768e-003
2.337302e+003, 5.891020e-003
2.339230e+003, 5.576101e-003
2.341158e+003, 5.525154e-003
2.343087e+003, 5.800053e-003
2.345015e+003, 5.879730e-003
2.346944e+003, 5.629908e-003
2.348872e+003, 5.061909e-003
2.350801e+003, 5.307068e-003
2.352729e+003, 5.619667e-003
2.354658e+003, 5.384422e-003
2.356586e+003, 5.391023e-003
2.358515e+003, 5.419639e-003
2.360443e+003, 5.470227e-003
2.362372e+003, 5.672954e-003
2.364300e+003, 5.698022e-003
2.366229e+003, 5.753845e-003
2.368157e+003, 5.851964e-003
2.370085e+003, 5.714615e-003
2.372014e+003, 5.620378e-003
2.373942e+003, 5.289858e-003
2.375871e+003, 5.206119e-003
2.377799e+003, 5.103933e-003
2.379728e+003, 5.006216e-003
2.381656e+003, 4.716129e-003
2.383585e+003, 4.891618e-003
2.385513e+003, 5.263493e-003
2.387442e+003, 5.239451e-003
2.389370e+003, 5.383184e-003
2.391299e+003, 5.456975e-003
2.393227e+003, 5.603162e-003
2.395156e+003, 5.786506e-003
2.397084e+003, 5.852039e-003
2.399012e+003, 5.990034e-003
2.400941e+003, 5.945329e-003
2.402869e+003, 5.582563e-003
2.404798e+003, 5.514413e-003
2.406726e+003, 5.739134e-003
2.408655e+003, 6.174150e-003
2.410583e+003, 6.141885e-003
2.412512e+003, 6.053569e-003
2.414440e+003, 6.055465e-003
2.416369e+003, 6.101353e-003
2.418297e+003, 6.119493e-003
2.420226e+003, 5.680521e-003
2.422154e+003, 5.608098e-003
2.424083e+003, 6.177171e-003
2.426011e+003, 6.179675e-003
2.427939e+003, 6.133475e-003
2.429868e+003, 5.884700e-003
2.431796e+003, 5.686244e-003
2.433725e+003, 5.867954e-003
2.435653e+003, 6.292760e-003
2.437582e+003, 6.316601e-003
2.439510e+003, 6.130775e-003
2.441439e+003, 5.788170e-003
2.443367e+003, 5.635650e-003
2.445296e+003, 5.678519e-003
2.447224e+003, 6.250491e-003
2.449153e+003, 6.638458e-003
2.451081e+003, 6.190470e-003
2.453010e+003, 5.689114e-003
2.454938e+003, 5.799300e-003
2.456866e+003, 5.755480e-003
2.458795e+003, 5.357977e-003
2.460723e+003, 5.787191e-003
2.462652e+003, 5.967718e-003
2.464580e+003, 5.641749e-003
2.466509e+003, 6.078119e-003
2.468437e+003, 6.266773e-003
2.470366e+003, 6.021005e-003
2.472294e+003, 5.851231e-003
2.474223e+003, 5.789028e-003
2.476151e+003, 5.837995e-003
2.478080e+003, 5.718288e-003
2.480008e+003, 5.686057e-003
2.481937e+003, 6.114951e-003
2.483865e+003, 6.480689e-003
2.485793e+003, 6.348003e-003
2.487722e+003, 6.363370e-003
2.489650e+003, 6.535439e-003
2.491579e+003, 6.321827e-003
2.493507e+003, 5.883641e-003
2.495436e+003, 5.377795e-003
2.497364e+003, 5.716112e-003
2.499293e+003, 6.194684e-003
2.501221e+003, 6.456609e-003
2.503150e+003, 6.347960e-003
2.505078e+003, 6.146894e-003
2.507007e+003, 5.903977e-003
2.508935e+003, 5.515335e-003
2.510864e+003, 5.132183e-003
2.512792e+003, 5.182864e-003
2.514720e+003, 5.283550e-003
2.516649e+003, 5.695948e-003
2.518577e+003, 6.279666e-003
2.520506e+003, 5.980386e-003
2.522434e+003, 5.466930e-003
2.524363e+003, 5.116281e-003
2.526291e+003, 5.007997e-003
2.528220e+003, 5.336931e-003
2.530148e+003, 5.574514e-003
2.532077e+003, 5.615779e-003
2.534005e+003, 5.520652e-003
2.535934e+003, 5.525342e-003
2.537862e+003, 5.496247e-003
2.539791e+003, 5.985533e-003
2.541719e+003, 6.391065e-003
2.543647e+003, 5.863443e-003
2.545576e+003, 5.807265e-003
2.547504e+003, 5.861218e-003
2.549433e+003, 5.863090e-003
2.551361e+003, 5.625102e-003
2.553290e+003, 5.354906e-003
2.555218e+003, 6.186219e-003
2.557147e+003, 6.739250e-003
2.559075e+003, 6.231607e-003
2.561004e+003, 5.523101e-003
2.562932e+003, 5.724990e-003
2.564861e+003, 6.296699e-003
2.566789e+003, 6.495337e-003
2.568718e+003, 6.487207e-003
2.570646e+003, 6.260526e-003
2.572574e+003, 6.294539e-003
2.574503e+003, 6.526069e-003
2.576431e+003, 6.395134e-003
2.578360e+003, 5.910823e-003
2.580288e+003, 5.828774e-003
2.582217e+003, 5.682469e-003
2.584145e+003, 5.564510e-003
2.586074e+003, 6.240421e-003
2.588002e+003, 6.922309e-003
2.589931e+003, 6.818170e-003
2.591859e+003, 6.302058e-003
2.593788e+003, 5.956527e-003
2.595716e+003, 6.096186e-003
2.597645e+003, 6.125190e-003
2.599573e+003, 6.112681e-003
2.601501e+003, 6.636595e-003
2.603430e+003, 6.725337e-003
2.605358e+003, 6.952471e-003
2.607287e+003, 6.441953e-003
2.609215e+003, 5.805185e-003
2.611144e+003, 6.119263e-003
2.613072e+003, 6.338721e-003
2.615001e+003, 6.183348e-003
2.616929e+003, 6.515138e-003
2.618858e+003, 6.810405e-003
2.620786e+003, 6.837771e-003
2.622715e+003, 6.594125e-003
2.624643e+003, 6.100259e-003
2.626572e+003, 6.100809e-003
2.628500e+003, 6.331120e-003
2.630428e+003, 6.411123e-003
2.632357e+003, 6.430915e-003
2.634285e+003, 6.434123e-003
2.636214e+003, 6.506124e-003
2.638142e+003, 6.575589e-003
2.640071e+003, 6.464193e-003
2.641999e+003, 6.224663e-003
2.643928e+003, 6.280458e-003
2.645856e+003, 6.186576e-003
2.647785e+003, 5.958001e-003
2.649713e+003, 6.080869e-003
2.651642e+003, 6.560456e-003
2.653570e+003, 6.639864e-003
2.655499e+003, 6.517968e-003
2.657427e+003, 6.136715e-003
2.659355e+003, 5.708720e-003
2.661284e+003, 5.646926e-003
2.663212e+003, 5.820592e-003
2.665141e+003, 5.733569e-003
2.667069e+003, 5.689329e-003
2.668998e+003, 5.667396e-003
2.670926e+003, 5.620989e-003
2.672855e+003, 5.601920e-003
2.674783e+003, 5.772577e-003
2.676712e+003, 5.874168e-003
2.678640e+003, 5.600302e-003
2.680569e+003, 5.466116e-003
2.682497e+003, 5.798514e-003
2.684426e+003, 5.664690e-003
2.686354e+003, 5.524067e-003
2.688282e+003, 5.414840e-003
2.690211e+003, 5.212615e-003
2.692139e+003, 5.381121e-003
2.694068e+003, 5.791809e-003
2.695996e+003, 5.901519e-003
2.697925e+003, 5.778274e-003
2.699853e+003, 5.741064e-003
2.701782e+003, 5.256622e-003
2.703710e+003, 5.162308e-003
2.705639e+003, 5.551593e-003
2.707567e+003, 5.498508e-003
2.709496e+003, 5.284623e-003
2.711424e+003, 5.319437e-003
2.713353e+003, 5.471796e-003
2.715281e+003, 5.736477e-003
2.717209e+003, 5.710437e-003
2.719138e+003, 5.751511e-003
2.721066e+003, 6.088767e-003
2.722995e+003, 6.031050e-003
2.724923e+003, 5.936425e-003
2.726852e+003, 6.206790e-003
2.728780e+003, 6.090319e-003
2.730709e+003, 5.696018e-003
2.732637e+003, 5.611156e-003
2.734566e+003, 6.047244e-003
2.736494e+003, 6.419450e-003
2.738423e+003, 6.280685e-003
2.740351e+003, 5.924275e-003
2.742280e+003, 5.903255e-003
2.744208e+003, 5.973576e-003
2.746136e+003, 5.823515e-003
2.748065e+003, 5.627534e-003
2.749993e+003, 5.690161e-003
2.751922e+003, 5.989286e-003
2.753850e+003, 6.062991e-003
2.755779e+003, 5.850143e-003
2.757707e+003, 5.834143e-003
2.759636e+003, 5.809094e-003
2.761564e+003, 5.847370e-003
2.763493e+003, 5.964534e-003
2.765421e+003, 5.931435e-003
2.767350e+003, 6.206499e-003
2.769278e+003, 6.320871e-003
2.771207e+003, 6.097236e-003
2.773135e+003, 5.776089e-003
2.775063e+003, 6.276059e-003
2.776992e+003, 6.262383e-003
2.778920e+003, 5.978484e-003
2.780849e+003, 5.921984e-003
2.782777e+003, 6.008477e-003
2.784706e+003, 6.011266e-003
2.786634e+003, 5.856215e-003
2.788563e+003, 5.763454e-003
2.790491e+003, 6.093196e-003
2.792420e+003, 6.387014e-003
2.794348e+003, 6.490644e-003
2.796277e+003, 6.127370e-003
2.798205e+003, 6.085750e-003
2.800134e+003, 6.094530e-003
2.802062e+003, 5.814848e-003
2.803990e+003, 5.999865e-003
2.805919e+003, 6.254695e-003
2.807847e+003, 6.059275e-003
2.809776e+003, 5.819571e-003
2.811704e+003, 5.796607e-003
2.813633e+003, 5.993661e-003
2.815561e+003, 6.242767e-003
2.817490e+003, 6.372702e-003
2.819418e+003, 5.928407e-003
2.821347e+003, 5.850933e-003
2.823275e+003, 6.311824e-003
2.825204e+003, 6.269581e-003
2.827132e+003, 6.035781e-003
2.829061e+003, 6.190544e-003
2.830989e+003, 6.162901e-003
2.832917e+003, 6.391651e-003
2.834846e+003, 6.725648e-003
2.836774e+003, 6.605504e-003
2.838703e+003, 6.212931e-003
2.840631e+003, 6.628605e-003
2.842560e+003, 6.863823e-003
2.844488e+003, 6.650245e-003
2.846417e+003, 6.507814e-003
2.848345e+003, 6.389469e-003
2.850274e+003, 6.229224e-003
2.852202e+003, 6.241058e-003
2.854131e+003, 6.150812e-003
2.856059e+003, 5.892638e-003
2.857988e+003, 6.195690e-003
2.859916e+003, 6.223888e-003
2.861844e+003, 6.111356e-003
2.863773e+003, 6.332439e-003
2.865701e+003, 6.374307e-003
2.867630e+003, 6.429250e-003
2.869558e+003, 6.543693e-003
2.871487e+003, 6.363905e-003
2.873415e+003, 6.067865e-003
2.875344e+003, 6.282376e-003
2.877272e+003, 6.583471e-003
2.879201e+003, 6.707863e-003
2.881129e+003, 6.895027e-003
2.883058e+003, 6.455412e-003
2.884986e+003, 5.614798e-003
2.886915e+003, 5.866675e-003
2.888843e+003, 6.664102e-003
2.890771e+003, 6.520587e-003
2.892700e+003, 6.142331e-003
2.894628e+003, 6.008752e-003
2.896557e+003, 6.222530e-003
2.898485e+003, 6.230056e-003
2.900414e+003, 6.269088e-003
2.902342e+003, 6.537314e-003
2.904271e+003, 6.348437e-003
2.906199e+003, 6.270692e-003
2.908128e+003, 6.587106e-003
2.910056e+003, 7.159877e-003
2.911985e+003, 7.252927e-003
2.913913e+003, 6.932024e-003
2.915842e+003, 6.792762e-003
2.917770e+003, 7.161530e-003
2.919698e+003, 7.145159e-003
2.921627e+003, 7.131017e-003
2.923555e+003, 7.418563e-003
2.925484e+003, 7.017260e-003
2.927412e+003, 6.815847e-003
2.929341e+003, 6.842494e-003
2.931269e+003, 7.129344e-003
2.933198e+003, 7.374089e-003
2.935126e+003, 7.207215e-003
2.937055e+003, 6.301758e-003
2.938983e+003, 6.061316e-003
2.940912e+003, 6.130132e-003
2.942840e+003, 6.256730e-003
2.944769e+003, 6.247227e-003
2.946697e+003, 5.881213e-003
2.948625e+003, 6.321418e-003
2.950554e+003, 6.200995e-003
2.952482e+003, 5.680074e-003
2.954411e+003, 5.671225e-003
2.956339e+003, 6.367358e-003
2.958268e+003, 6.256985e-003
2.960196e+003, 5.929174e-003
2.962125e+003, 6.279577e-003
2.964053e+003, 6.219036e-003
2.965982e+003, 5.768775e-003
2.967910e+003, 5.687806e-003
2.969839e+003, 5.726400e-003
2.971767e+003, 5.483709e-003
2.973696e+003, 5.446017e-003
2.975624e+003, 5.761684e-003
2.977552e+003, 5.686154e-003
2.979481e+003, 5.667556e-003
2.981409e+003, 6.018055e-003
2.983338e+003, 6.160796e-003
2.985266e+003, 6.175639e-003
2.987195e+003, 6.026700e-003
2.989123e+003, 5.513031e-003
2.991052e+003, 5.676957e-003
2.992980e+003, 5.915223e-003
2.994909e+003, 6.131103e-003
2.996837e+003, 6.159304e-003
2.998766e+003, 5.790192e-003
3.000694e+003, 5.187596e-003
3.002623e+003, 5.511018e-003
3.004551e+003, 6.408626e-003
3.006479e+003, 6.280822e-003
3.008408e+003, 5.826325e-003
3.010336e+003, 6.174473e-003
3.012265e+003, 6.344125e-003
3.014193e+003, 5.823255e-003
3.016122e+003, 5.371493e-003
3.018050e+003, 5.461895e-003
3.019979e+003, 6.251284e-003
3.021907e+003, 6.472406e-003
3.023836e+003, 6.360888e-003
3.025764e+003, 6.653822e-003
3.027693e+003, 6.253630e-003
3.029621e+003, 6.206812e-003
3.031550e+003, 6.544858e-003
3.033478e+003, 6.317865e-003
3.035406e+003, 6.327066e-003
3.037335e+003, 6.241105e-003
3.039263e+003, 6.410027e-003
3.041192e+003, 6.648530e-003
3.043120e+003, 6.513972e-003
3.045049e+003, 6.664934e-003
3.046977e+003, 6.734227e-003
3.048906e+003, 6.417713e-003
3.050834e+003, 6.574866e-003
3.052763e+003, 6.718219e-003
3.054691e+003, 6.781682e-003
3.056620e+003, 6.792918e-003
3.058548e+003, 6.371624e-003
3.060477e+003, 6.143080e-003
3.062405e+003, 6.191326e-003
3.064333e+003, 6.252873e-003
3.066262e+003, 6.745549e-003
3.068190e+003, 6.641728e-003
3.070119e+003, 6.772604e-003
3.072047e+003, 6.516844e-003
3.073976e+003, 6.141414e-003
3.075904e+003, 6.243591e-003
3.077833e+003, 5.754499e-003
3.079761e+003, 5.889422e-003
3.081690e+003, 6.292228e-003
3.083618e+003, 6.192321e-003
3.085547e+003, 6.004677e-003
3.087475e+003, 6.299601e-003
3.089404e+003, 6.685153e-003
3.091332e+003, 6.842965e-003
3.093260e+003, 7.528760e-003
3.095189e+003, 7.194222e-003
3.097117e+003, 6.825328e-003
3.099046e+003, 6.638582e-003
3.100974e+003, 6.540326e-003
3.102903e+003, 6.515381e-003
3.104831e+003, 6.618291e-003
3.106760e+003, 6.886756e-003
3.108688e+003, 6.994268e-003
3.110617e+003, 6.804512e-003
3.112545e+003, 7.121595e-003
3.114474e+003, 7.436248e-003
3.116402e+003, 7.383457e-003
3.118331e+003, 7.662257e-003
3.120259e+003, 7.234172e-003
3.122188e+003, 7.071648e-003
3.124116e+003, 6.911139e-003
3.126044e+003, 6.380231e-003
3.127973e+003, 6.042816e-003
3.129901e+003, 6.055310e-003
3.131830e+003, 6.325931e-003
3.133758e+003, 6.741338e-003
3.135687e+003, 7.153496e-003
3.137615e+003, 7.067224e-003
3.139544e+003, 6.783026e-003
3.141472e+003, 7.120332e-003
3.143401e+003, 7.288700e-003
3.145329e+003, 7.059170e-003
3.147258e+003, 6.817009e-003
3.149186e+003, 6.884877e-003
3.151115e+003, 6.951251e-003
3.153043e+003, 6.809897e-003
3.154971e+003, 6.864106e-003
3.156900e+003, 6.930872e-003
3.158828e+003, 7.202461e-003
3.160757e+003, 7.124239e-003
3.162685e+003, 7.426224e-003
3.164614e+003, 7.436694e-003
3.166542e+003, 7.307181e-003
3.168471e+003, 7.285619e-003
3.170399e+003, 7.308344e-003
3.172328e+003, 7.160359e-003
3.174256e+003, 6.702074e-003
3.176185e+003, 6.451566e-003
3.178113e+003, 6.907334e-003
3.180042e+003, 7.102165e-003
3.181970e+003, 6.968014e-003
3.183898e+003, 6.666942e-003
3.185827e+003, 6.752057e-003
3.187755e+003, 7.520979e-003
3.189684e+003, 7.822700e-003
3.191612e+003, 6.957834e-003
3.193541e+003, 6.544939e-003
3.195469e+003, 7.055069e-003
3.197398e+003, 7.364124e-003
3.199326e+003, 6.860165e-003
3.201255e+003, 6.804739e-003
3.203183e+003, 7.241416e-003
3.205112e+003, 7.856339e-003
3.207040e+003, 7.789708e-003
3.208969e+003, 6.962964e-003
3.210897e+003, 6.632769e-003
3.212825e+003, 6.911167e-003
3.214754e+003, 7.469840e-003
3.216682e+003, 7.446058e-003
3.218611e+003, 6.701891e-003
3.220539e+003, 6.797837e-003
3.222468e+003, 7.075028e-003
3.224396e+003, 6.862728e-003
3.226325e+003, 7.125571e-003
3.228253e+003, 7.135767e-003
3.230182e+003, 7.343611e-003
3.232110e+003, 7.371829e-003
3.234039e+003, 7.828844e-003
3.235967e+003, 8.126413e-003
3.237896e+003, 7.976449e-003
3.239824e+003, 7.825471e-003
3.241752e+003, 7.579493e-003
3.243681e+003, 6.993678e-003
3.245609e+003, 6.711735e-003
3.247538e+003, 7.028124e-003
3.249466e+003, 7.452875e-003
3.251395e+003, 7.373286e-003
3.253323e+003, 6.844800e-003
3.255252e+003, 6.590206e-003
3.257180e+003, 7.048305e-003
3.259109e+003, 7.723460e-003
3.261037e+003, 7.388710e-003
3.262966e+003, 6.951855e-003
3.264894e+003, 7.088402e-003
3.266823e+003, 7.508675e-003
3.268751e+003, 8.294455e-003
3.270679e+003, 7.285927e-003
3.272608e+003, 6.984134e-003
3.274536e+003, 7.128840e-003
3.276465e+003, 7.103407e-003
3.278393e+003, 6.810605e-003
3.280322e+003, 6.837699e-003
3.282250e+003, 6.944030e-003
3.284179e+003, 6.803170e-003
3.286107e+003, 6.953575e-003
3.288036e+003, 6.713375e-003
3.289964e+003, 5.962311e-003
3.291893e+003, 6.490558e-003
3.293821e+003, 6.803833e-003
3.295750e+003, 7.083704e-003
3.297678e+003, 7.577921e-003
3.299606e+003, 7.754284e-003
3.301535e+003, 7.579601e-003
3.303463e+003, 6.729810e-003
3.305392e+003, 6.775690e-003
3.307320e+003, 7.526357e-003
3.309249e+003, 7.082687e-003
3.311177e+003, 5.957123e-003
3.313106e+003, 6.011328e-003
3.315034e+003, 7.301946e-003
3.316963e+003, 7.693894e-003
3.318891e+003, 7.112031e-003
3.320820e+003, 6.567339e-003
3.322748e+003, 6.311751e-003
3.324677e+003, 6.058580e-003
3.326605e+003, 6.432186e-003
3.328533e+003, 6.477393e-003
3.330462e+003, 5.955115e-003
3.332390e+003, 5.828663e-003
3.334319e+003, 6.097765e-003
3.336247e+003, 6.561626e-003
3.338176e+003, 7.064527e-003
3.340104e+003, 7.020487e-003
3.342033e+003, 7.109934e-003
3.343961e+003, 7.011767e-003
3.345890e+003, 6.617452e-003
3.347818e+003, 6.785124e-003
3.349747e+003, 6.704879e-003
3.351675e+003, 6.057512e-003
3.353604e+003, 5.955592e-003
3.355532e+003, 6.463962e-003
3.357460e+003, 6.547061e-003
3.359389e+003, 6.147396e-003
3.361317e+003, 5.881352e-003
3.363246e+003, 6.157892e-003
3.365174e+003, 6.562713e-003
3.367103e+003, 6.829096e-003
3.369031e+003, 6.122768e-003
3.370960e+003, 6.042112e-003
3.372888e+003, 6.265560e-003
3.374817e+003, 6.063366e-003
3.376745e+003, 6.130565e-003
3.378674e+003, 6.215169e-003
3.380602e+003, 6.549716e-003
3.382531e+003, 6.640525e-003
3.384459e+003, 6.481694e-003
3.386387e+003, 5.959800e-003
3.388316e+003, 5.652619e-003
3.390244e+003, 6.162141e-003
3.392173e+003, 6.168969e-003
3.394101e+003, 5.640601e-003
3.396030e+003, 5.868760e-003
3.397958e+003, 5.432171e-003
3.399887e+003, 4.685544e-003
3.401815e+003, 5.944773e-003
3.403744e+003, 5.831101e-003
3.405672e+003, 4.915879e-003
3.407601e+003, 5.465032e-003
3.409529e+003, 5.535529e-003
3.411458e+003, 5.125680e-003
3.413386e+003, 5.544601e-003
3.415314e+003, 5.758157e-003
3.417243e+003, 5.144832e-003
3.419171e+003, 5.061051e-003
3.421100e+003, 4.449672e-003
3.423028e+003, 3.788277e-003
3.424957e+003, 4.201549e-003
3.426885e+003, 4.333094e-003
3.428814e+003, 4.445995e-003
3.430742e+003, 5.425009e-003
3.432671e+003, 4.719982e-003
3.434599e+003, 4.369159e-003
3.436528e+003, 4.443155e-003
3.438456e+003, 4.701090e-003
3.440385e+003, 5.534302e-003
3.442313e+003, 6.223678e-003
3.444241e+003, 6.410447e-003
3.446170e+003, 5.934739e-003
3.448098e+003, 5.447033e-003
3.450027e+003, 5.336558e-003
3.451955e+003, 5.727016e-003
3.453884e+003, 5.442534e-003
3.455812e+003, 5.451257e-003
3.457741e+003, 5.661779e-003
3.459669e+003, 4.557120e-003
3.461598e+003, 3.170523e-003
3.463526e+003, 3.380392e-003
3.465455e+003, 3.834870e-003
3.467383e+003, 5.466325e-003
3.469312e+003, 6.614407e-003
3.471240e+003, 5.948742e-003
3.473168e+003, 5.645743e-003
3.475097e+003, 4.625409e-003
3.477025e+003, 4.335582e-003
3.478954e+003, 4.671682e-003
3.480882e+003, 5.083344e-003
3.482811e+003, 5.761952e-003
3.484739e+003, 5.528432e-003
3.486668e+003, 5.613755e-003
3.488596e+003, 5.109061e-003
3.490525e+003, 4.568497e-003
3.492453e+003, 5.128737e-003
3.494382e+003, 4.716252e-003
3.496310e+003, 4.445740e-003
3.498239e+003, 4.957960e-003
3.500167e+003, 5.011596e-003
3.502095e+003, 4.669139e-003
3.504024e+003, 4.610512e-003
3.505952e+003, 4.904521e-003
3.507881e+003, 4.330439e-003
3.509809e+003, 3.273271e-003
3.511738e+003, 3.926718e-003
3.513666e+003, 4.219705e-003
3.515595e+003, 3.325963e-003
3.517523e+003, 3.500135e-003
3.519452e+003, 4.843853e-003
3.521380e+003, 4.929334e-003
3.523309e+003, 3.953542e-003
3.525237e+003, 4.501330e-003
3.527166e+003, 4.992693e-003
3.529094e+003, 4.110722e-003
3.531022e+003, 3.530704e-003
3.532951e+003, 2.816323e-003
3.534879e+003, 1.929937e-003
3.536808e+003, 2.566871e-003
3.538736e+003, 3.023261e-003
3.540665e+003, 3.053883e-003
3.542593e+003, 3.693637e-003
3.544522e+003, 4.009706e-003
3.546450e+003, 3.556774e-003
3.548379e+003, 2.838475e-003
3.550307e+003, 2.602729e-003
3.552236e+003, 2.675530e-003
3.554164e+003, 2.650381e-003
3.556093e+003, 2.491707e-003
3.558021e+003, 1.971416e-003
3.559949e+003, 2.596234e-003
3.561878e+003, 3.064717e-003
3.563806e+003, 2.741207e-003
3.565735e+003, 2.624756e-003
3.567663e+003, 3.315879e-003
3.569592e+003, 3.165654e-003
3.571520e+003, 2.947479e-003
3.573449e+003, 2.833239e-003
3.575377e+003, 2.865091e-003
3.577306e+003, 2.140361e-003
3.579234e+003, 1.489630e-003
3.581163e+003, 2.327444e-003
3.583091e+003, 3.395846e-003
3.585020e+003, 2.529801e-003
3.586948e+003, 2.855504e-003
3.588876e+003, 2.967774e-003
3.590805e+003, 1.795365e-003
3.592733e+003, 1.519570e-003
3.594662e+003, 2.726550e-003
3.596590e+003, 3.517099e-003
3.598519e+003, 3.629842e-003
3.600447e+003, 2.550205e-003
3.602376e+003, 2.420249e-003
3.604304e+003, 2.865033e-003
3.606233e+003, 2.623885e-003
3.608161e+003, 3.546002e-003
3.610090e+003, 3.577930e-003
3.612018e+003, 2.911201e-003
3.613947e+003, 2.900324e-003
3.615875e+003, 3.279222e-003
3.617803e+003, 4.346117e-003
3.619732e+003, 4.365214e-003
3.621660e+003, 3.808027e-003
3.623589e+003, 3.542133e-003
3.625517e+003, 2.616948e-003
3.627446e+003, 2.098393e-003
3.629374e+003, 2.055862e-003
3.631303e+003, 1.450654e-003
3.633231e+003, 2.004397e-003
3.635160e+003, 1.763486e-003
3.637088e+003, 1.912762e-003
3.639017e+003, 1.852998e-003
3.640945e+003, 1.739412e-003
3.642874e+003, 2.154182e-003
3.644802e+003, 1.794076e-003
3.646730e+003, 1.174904e-003
3.648659e+003, 2.122670e-003
3.650587e+003, 2.423287e-003
3.652516e+003, 1.458926e-003
3.654444e+003, 5.425646e-004
3.656373e+003, 6.675013e-004
3.658301e+003, 4.434602e-004
3.660230e+003, 7.339549e-004
3.662158e+003, 6.449231e-004
3.664087e+003, 6.925724e-004
3.666015e+003, 6.985912e-004
3.667944e+003, 4.489772e-005
3.669872e+003, -1.659725e-004
3.671801e+003, -2.670966e-004
3.673729e+003, 7.980912e-004
3.675657e+003, 1.369391e-003
3.677586e+003, 1.234811e-003
3.679514e+003, 1.147558e-003
3.681443e+003, 1.126480e-003
3.683371e+003, 1.338308e-003
3.685300e+003, 1.078042e-003
3.687228e+003, 2.438322e-003
3.689157e+003, 2.669077e-003
3.691085e+003, 1.511850e-003
3.693014e+003, 1.277568e-003
3.694942e+003, 1.032400e-003
3.696871e+003, 8.543104e-004
3.698799e+003, 8.737053e-004
3.700728e+003, 1.172866e-003
3.702656e+003, 9.037001e-004
3.704584e+003, 5.989514e-004
3.706513e+003, 3.632039e-004
3.708441e+003, 1.001929e-003
3.710370e+003, 1.662000e-003
3.712298e+003, 1.476264e-003
3.714227e+003, 1.622699e-003
3.716155e+003, 1.689779e-003
3.718084e+003, 1.214404e-003
3.720012e+003, 4.305482e-004
3.721941e+003, -2.316929e-004
3.723869e+003, 4.391510e-004
3.725798e+003, 2.736200e-003
3.727726e+003, 3.502085e-003
3.729655e+003, 1.681263e-003
3.731583e+003, 2.244078e-003
3.733511e+003, 2.923272e-003
3.735440e+003, 2.882941e-003
3.737368e+003, 2.551650e-003
3.739297e+003, 1.507349e-003
3.741225e+003, 1.076547e-003
3.743154e+003, 1.933403e-003
3.745082e+003, 1.682737e-003
3.747011e+003, 1.842069e-003
3.748939e+003, 2.950921e-003
3.750868e+003, 2.545755e-003
3.752796e+003, 1.404484e-003
3.754725e+003, 1.323548e-003
3.756653e+003, 2.182131e-003
3.758582e+003, 2.294760e-003
3.760510e+003, 2.307173e-003
3.762438e+003, 1.966358e-003
3.764367e+003, 1.586187e-003
3.766295e+003, 1.696183e-003
3.768224e+003, 1.500864e-003
3.770152e+003, 4.794434e-004
3.772081e+003, 1.007128e-003
3.774009e+003, 2.353525e-003
3.775938e+003, 2.136515e-003
3.777866e+003, 1.663303e-003
3.779795e+003, 9.909680e-004
3.781723e+003, -1.847419e-004
3.783652e+003, 7.241760e-005
3.785580e+003, 1.210717e-003
3.787509e+003, 1.084386e-003
3.789437e+003, -1.379348e-004
3.791365e+003, -1.583218e-004
3.793294e+003, 5.217713e-004
3.795222e+003, 1.254073e-003
3.797151e+003, 1.044096e-003
3.799079e+003, 1.186872e-003
3.801008e+003, 1.162791e-003
3.802936e+003, 1.242984e-003
3.804865e+003, 1.961428e-003
3.806793e+003, 1.741968e-003
3.808722e+003, 9.924064e-004
3.810650e+003, 1.069745e-003
3.812579e+003, 1.339846e-003
3.814507e+003, 2.201288e-003
3.816436e+003, 1.706543e-003
3.818364e+003, 9.313000e-004
3.820292e+003, 1.388310e-003
3.822221e+003, 5.162258e-004
3.824149e+003, 1.648241e-004
3.826078e+003, 7.215026e-004
3.828006e+003, 1.042960e-003
3.829935e+003, 1.560545e-003
3.831863e+003, 7.360480e-004
3.833792e+003, -1.389334e-004
3.835720e+003, -3.156968e-005
3.837649e+003, 7.965469e-004
3.839577e+003, 2.184933e-003
3.841506e+003, 2.964330e-003
3.843434e+003, 2.487023e-003
3.845363e+003, 1.261354e-003
3.847291e+003, 7.194339e-004
3.849219e+003, 3.556834e-005
3.851148e+003, 6.412391e-004
3.853076e+003, 1.355700e-003
3.855005e+003, -1.367995e-004
3.856933e+003, 2.547996e-005
3.858862e+003, 4.452227e-004
3.860790e+003, 2.169836e-004
3.862719e+003, -8.811500e-004
3.864647e+003, -1.597725e-003
3.866576e+003, -8.345575e-004
3.868504e+003, 6.431423e-004
3.870433e+003, 2.527882e-004
3.872361e+003, -9.300534e-004
3.874290e+003, 7.417354e-005
3.876218e+003, 5.630568e-004
3.878146e+003, -8.614489e-005
3.880075e+003, -1.218070e-003
3.882003e+003, -1.917582e-003
3.883932e+003, -3.114179e-004
3.885860e+003, -2.871799e-004
3.887789e+003, -6.742490e-004
3.889717e+003, 1.392436e-004
3.891646e+003, 4.279902e-004
3.893574e+003, -4.691178e-004
3.895503e+003, -1.773636e-003
3.897431e+003, -1.859589e-003
3.899360e+003, -1.230012e-003
3.901288e+003, -9.362738e-004
3.903217e+003, -5.955213e-004
3.905145e+003, -5.367805e-004
3.907073e+003, -3.249785e-004
3.909002e+003, -4.027829e-004
3.910930e+003, -7.770254e-004
3.912859e+003, -1.400700e-003
3.914787e+003, -1.400801e-003
3.916716e+003, -5.449882e-004
3.918644e+003, -2.891992e-004
3.920573e+003, -4.338225e-004
3.922501e+003, -4.433346e-004
3.924430e+003, -1.039422e-003
3.926358e+003, -1.061718e-003
3.928287e+003, -1.245482e-004
3.930215e+003, -7.179484e-005
3.932144e+003, 4.533538e-004
3.934072e+003, -8.247479e-006
3.936000e+003, -1.386658e-003
3.937929e+003, -1.160913e-003
3.939857e+003, -4.635966e-004
3.941786e+003, -3.500104e-004
3.943714e+003, -1.453053e-003
3.945643e+003, -1.683978e-003
3.947571e+003, -1.000514e-003
3.949500e+003, -1.867584e-003
3.951428e+003, -2.440359e-003
3.953357e+003, -1.277175e-003
3.955285e+003, -1.046032e-003
3.957214e+003, -1.481605e-003
3.959142e+003, -9.851484e-004
3.961071e+003, -2.215517e-004
3.962999e+003, 1.183671e-004
3.964927e+003, -5.801845e-004
3.966856e+003, -9.491850e-004
3.968784e+003, -1.046027e-003
3.970713e+003, -1.096428e-003
3.972641e+003, -4.951961e-004
3.974570e+003, -1.485241e-004
3.976498e+003, -7.803571e-005
3.978427e+003, -9.676556e-004
3.980355e+003, -1.452135e-003
3.982284e+003, -1.038584e-003
3.984212e+003, -2.123040e-003
3.986141e+003, -3.425249e-003
3.988069e+003, -2.309409e-003
3.989998e+003, -2.303680e-004
3.991926e+003, -4.936813e-004
3.993854e+003, -9.160837e-004
3.995783e+003, -1.045711e-003
3.997711e+003, -1.910649e-003
3.999640e+003, -1.893469e-003
##END=



