##NAMES=Tritomite-(Ce)
##RRUFFID=R060046
##IDEAL CHEMISTRY=Ce_5_(SiO_4_,BO_4_)_3_(OH,O)
##LOCALITY=Langesundfjord, Norway
##OWNER=RRUFF
##SOURCE=University of Arizona Mineral Museum
##DESCRIPTION=Aggregate of orange coarse amorphous fragments
##STATUS=The identification of this mineral has been confirmed only by chemical analysis
##URL=rruff.info/R060046
##MEASURED CHEMISTRY=(Ca_1.90_Sr_0.10_)_Σ=2_(Ce_0.91_La_0.91_Th_0.75_Zr_0.20_[box]_0.13_Fe^2+^_0.10_)_Σ=3_((SiO_4_)_2.45_(BO_4_)_0.55_)_Σ=3_(OH)
3.991926e+002, 1.282632e-001
4.011211e+002, 1.319580e-001
4.030495e+002, 1.283233e-001
4.049780e+002, 1.070539e-001
4.069065e+002, 1.249263e-001
4.088349e+002, 1.483191e-001
4.107634e+002, 1.464172e-001
4.126919e+002, 1.413280e-001
4.146203e+002, 1.403429e-001
4.165488e+002, 1.390657e-001
4.184773e+002, 1.412257e-001
4.204057e+002, 1.481244e-001
4.223342e+002, 1.445450e-001
4.242627e+002, 1.353683e-001
4.261911e+002, 1.346631e-001
4.281196e+002, 1.367263e-001
4.300481e+002, 1.415383e-001
4.319765e+002, 1.455792e-001
4.339050e+002, 1.403603e-001
4.358335e+002, 1.412545e-001
4.377619e+002, 1.446020e-001
4.396904e+002, 1.509642e-001
4.416189e+002, 1.537276e-001
4.435473e+002, 1.452646e-001
4.454758e+002, 1.398663e-001
4.474043e+002, 1.424141e-001
4.493327e+002, 1.437336e-001
4.512612e+002, 1.466822e-001
4.531897e+002, 1.523560e-001
4.551181e+002, 1.483418e-001
4.570466e+002, 1.448380e-001
4.589751e+002, 1.452283e-001
4.609035e+002, 1.438216e-001
4.628320e+002, 1.433559e-001
4.647605e+002, 1.469049e-001
4.666889e+002, 1.496904e-001
4.686174e+002, 1.457731e-001
4.705459e+002, 1.448657e-001
4.724743e+002, 1.473745e-001
4.744028e+002, 1.449044e-001
4.763313e+002, 1.445832e-001
4.782597e+002, 1.463024e-001
4.801882e+002, 1.443205e-001
4.821167e+002, 1.430082e-001
4.840451e+002, 1.438702e-001
4.859736e+002, 1.424858e-001
4.879021e+002, 1.403741e-001
4.898305e+002, 1.406010e-001
4.917590e+002, 1.407205e-001
4.936875e+002, 1.386965e-001
4.956159e+002, 1.378510e-001
4.975444e+002, 1.382859e-001
4.994729e+002, 1.361549e-001
5.014013e+002, 1.348858e-001
5.033298e+002, 1.346449e-001
5.052583e+002, 1.316693e-001
5.071867e+002, 1.297317e-001
5.091152e+002, 1.293023e-001
5.110437e+002, 1.286528e-001
5.129721e+002, 1.274164e-001
5.149006e+002, 1.261628e-001
5.168290e+002, 1.252604e-001
5.187575e+002, 1.242418e-001
5.206860e+002, 1.233228e-001
5.226144e+002, 1.225165e-001
5.245429e+002, 1.200898e-001
5.264714e+002, 1.184150e-001
5.283998e+002, 1.183728e-001
5.303283e+002, 1.175451e-001
5.322568e+002, 1.159136e-001
5.341852e+002, 1.146308e-001
5.361137e+002, 1.146167e-001
5.380422e+002, 1.144111e-001
5.399706e+002, 1.128093e-001
5.418991e+002, 1.119595e-001
5.438276e+002, 1.108379e-001
5.457560e+002, 1.100855e-001
5.476845e+002, 1.086937e-001
5.496130e+002, 1.065734e-001
5.515414e+002, 1.061455e-001
5.534699e+002, 1.068411e-001
5.553984e+002, 1.053772e-001
5.573268e+002, 1.028803e-001
5.592553e+002, 1.022440e-001
5.611838e+002, 1.023033e-001
5.631122e+002, 1.010606e-001
5.650407e+002, 9.908403e-002
5.669692e+002, 9.904885e-002
5.688976e+002, 9.760392e-002
5.708261e+002, 9.436495e-002
5.727546e+002, 9.263524e-002
5.746830e+002, 9.295505e-002
5.766115e+002, 9.221840e-002
5.785400e+002, 9.053138e-002
5.804684e+002, 8.985478e-002
5.823969e+002, 8.931215e-002
5.843254e+002, 8.767643e-002
5.862538e+002, 8.668990e-002
5.881823e+002, 8.643231e-002
5.901108e+002, 8.426311e-002
5.920392e+002, 8.194430e-002
5.939677e+002, 8.218851e-002
5.958962e+002, 8.169092e-002
5.978246e+002, 8.092919e-002
5.997531e+002, 8.143948e-002
6.016816e+002, 8.055280e-002
6.036100e+002, 7.906478e-002
6.055385e+002, 7.931636e-002
6.074670e+002, 7.909624e-002
6.093954e+002, 7.715320e-002
6.113239e+002, 7.718604e-002
6.132524e+002, 7.767661e-002
6.151808e+002, 7.671684e-002
6.171093e+002, 7.587545e-002
6.190378e+002, 7.662292e-002
6.209662e+002, 7.690965e-002
6.228947e+002, 7.583847e-002
6.248232e+002, 7.577260e-002
6.267516e+002, 7.583091e-002
6.286801e+002, 7.507765e-002
6.306086e+002, 7.436774e-002
6.325370e+002, 7.446814e-002
6.344655e+002, 7.448822e-002
6.363940e+002, 7.404631e-002
6.383224e+002, 7.454792e-002
6.402509e+002, 7.494788e-002
6.421794e+002, 7.483153e-002
6.441078e+002, 7.494660e-002
6.460363e+002, 7.545137e-002
6.479648e+002, 7.552241e-002
6.498932e+002, 7.537995e-002
6.518217e+002, 7.562901e-002
6.537502e+002, 7.585683e-002
6.556786e+002, 7.629050e-002
6.576071e+002, 7.651432e-002
6.595356e+002, 7.678509e-002
6.614641e+002, 7.689849e-002
6.633925e+002, 7.669950e-002
6.653210e+002, 7.745332e-002
6.672495e+002, 7.867747e-002
6.691779e+002, 7.859540e-002
6.711064e+002, 7.861596e-002
6.730349e+002, 7.943305e-002
6.749633e+002, 7.954139e-002
6.768918e+002, 7.932662e-002
6.788203e+002, 7.960386e-002
6.807487e+002, 8.079182e-002
6.826772e+002, 8.157506e-002
6.846057e+002, 8.171719e-002
6.865341e+002, 8.263372e-002
6.884626e+002, 8.299018e-002
6.903911e+002, 8.317205e-002
6.923195e+002, 8.413967e-002
6.942480e+002, 8.510812e-002
6.961765e+002, 8.551781e-002
6.981049e+002, 8.576875e-002
7.000334e+002, 8.622426e-002
7.019619e+002, 8.635326e-002
7.038903e+002, 8.694489e-002
7.058188e+002, 8.754784e-002
7.077473e+002, 8.763434e-002
7.096757e+002, 8.773924e-002
7.116042e+002, 8.822167e-002
7.135327e+002, 8.838835e-002
7.154611e+002, 8.847595e-002
7.173896e+002, 8.896217e-002
7.193181e+002, 8.991504e-002
7.212465e+002, 9.052376e-002
7.231750e+002, 9.047807e-002
7.251035e+002, 9.027618e-002
7.270319e+002, 9.040669e-002
7.289604e+002, 9.024351e-002
7.308889e+002, 8.974653e-002
7.328173e+002, 8.913372e-002
7.347458e+002, 8.904388e-002
7.366743e+002, 8.932874e-002
7.386027e+002, 8.922964e-002
7.405312e+002, 8.878314e-002
7.424597e+002, 8.831205e-002
7.443881e+002, 8.781108e-002
7.463166e+002, 8.718369e-002
7.482451e+002, 8.675571e-002
7.501735e+002, 8.668351e-002
7.521020e+002, 8.658461e-002
7.540305e+002, 8.623403e-002
7.559589e+002, 8.597488e-002
7.578874e+002, 8.642409e-002
7.598159e+002, 8.658504e-002
7.617443e+002, 8.662880e-002
7.636728e+002, 8.730607e-002
7.656013e+002, 8.804125e-002
7.675297e+002, 8.904002e-002
7.694582e+002, 9.025814e-002
7.713867e+002, 9.117386e-002
7.733151e+002, 9.210245e-002
7.752436e+002, 9.300262e-002
7.771721e+002, 9.444676e-002
7.791005e+002, 9.571102e-002
7.810290e+002, 9.678691e-002
7.829575e+002, 9.833200e-002
7.848859e+002, 1.000071e-001
7.868144e+002, 1.017650e-001
7.887429e+002, 1.031766e-001
7.906713e+002, 1.051471e-001
7.925998e+002, 1.072092e-001
7.945283e+002, 1.090329e-001
7.964567e+002, 1.116195e-001
7.983852e+002, 1.138918e-001
8.003137e+002, 1.160400e-001
8.022421e+002, 1.185209e-001
8.041706e+002, 1.210696e-001
8.060991e+002, 1.234569e-001
8.080275e+002, 1.260753e-001
8.099560e+002, 1.287982e-001
8.118845e+002, 1.315478e-001
8.138129e+002, 1.346851e-001
8.157414e+002, 1.377035e-001
8.176699e+002, 1.405739e-001
8.195983e+002, 1.435235e-001
8.215268e+002, 1.464064e-001
8.234553e+002, 1.496579e-001
8.253837e+002, 1.528281e-001
8.273122e+002, 1.555986e-001
8.292407e+002, 1.586043e-001
8.311691e+002, 1.618809e-001
8.330976e+002, 1.647273e-001
8.350261e+002, 1.674916e-001
8.369545e+002, 1.703168e-001
8.388830e+002, 1.729358e-001
8.408115e+002, 1.753387e-001
8.427399e+002, 1.773945e-001
8.446684e+002, 1.796958e-001
8.465969e+002, 1.820145e-001
8.485253e+002, 1.839458e-001
8.504538e+002, 1.861394e-001
8.523823e+002, 1.887934e-001
8.543107e+002, 1.907066e-001
8.562392e+002, 1.919366e-001
8.581677e+002, 1.934031e-001
8.600961e+002, 1.941775e-001
8.620246e+002, 1.944033e-001
8.639531e+002, 1.951113e-001
8.658815e+002, 1.959426e-001
8.678100e+002, 1.964448e-001
8.697385e+002, 1.975291e-001
8.716669e+002, 1.986739e-001
8.735954e+002, 1.996306e-001
8.755239e+002, 2.009311e-001
8.774523e+002, 2.027954e-001
8.793808e+002, 2.041276e-001
8.813093e+002, 2.046153e-001
8.832377e+002, 2.049493e-001
8.851662e+002, 2.056578e-001
8.870947e+002, 2.072103e-001
8.890231e+002, 2.084695e-001
8.909516e+002, 2.092730e-001
8.928801e+002, 2.100060e-001
8.948085e+002, 2.107151e-001
8.967370e+002, 2.121718e-001
8.986655e+002, 2.133489e-001
9.005939e+002, 2.130133e-001
9.025224e+002, 2.128783e-001
9.044509e+002, 2.134759e-001
9.063793e+002, 2.137488e-001
9.083078e+002, 2.143849e-001
9.102363e+002, 2.147405e-001
9.121647e+002, 2.142970e-001
9.140932e+002, 2.140120e-001
9.160217e+002, 2.138752e-001
9.179501e+002, 2.139099e-001
9.198786e+002, 2.138512e-001
9.218071e+002, 2.131006e-001
9.237355e+002, 2.124851e-001
9.256640e+002, 2.120618e-001
9.275925e+002, 2.117218e-001
9.295209e+002, 2.111309e-001
9.314494e+002, 2.106695e-001
9.333779e+002, 2.101552e-001
9.353063e+002, 2.095396e-001
9.372348e+002, 2.091760e-001
9.391633e+002, 2.087449e-001
9.410917e+002, 2.080512e-001
9.430202e+002, 2.071132e-001
9.449487e+002, 2.062109e-001
9.468771e+002, 2.058761e-001
9.488056e+002, 2.052615e-001
9.507341e+002, 2.040980e-001
9.526625e+002, 2.031928e-001
9.545910e+002, 2.025062e-001
9.565195e+002, 2.018223e-001
9.584479e+002, 2.013056e-001
9.603764e+002, 2.004190e-001
9.623049e+002, 1.991585e-001
9.642333e+002, 1.978845e-001
9.661618e+002, 1.967372e-001
9.680903e+002, 1.954284e-001
9.700187e+002, 1.946364e-001
9.719472e+002, 1.933424e-001
9.738757e+002, 1.915935e-001
9.758041e+002, 1.901642e-001
9.777326e+002, 1.888243e-001
9.796611e+002, 1.875927e-001
9.815895e+002, 1.853846e-001
9.835180e+002, 1.829072e-001
9.854465e+002, 1.811367e-001
9.873749e+002, 1.792797e-001
9.893034e+002, 1.768122e-001
9.912319e+002, 1.746204e-001
9.931603e+002, 1.726328e-001
9.950888e+002, 1.703562e-001
9.970173e+002, 1.678979e-001
9.989457e+002, 1.653352e-001
1.000874e+003, 1.627948e-001
1.002803e+003, 1.607081e-001
1.004731e+003, 1.586630e-001
1.006660e+003, 1.563681e-001
1.008588e+003, 1.537808e-001
1.010517e+003, 1.513695e-001
1.012445e+003, 1.489716e-001
1.014373e+003, 1.462773e-001
1.016302e+003, 1.436284e-001
1.018230e+003, 1.411454e-001
1.020159e+003, 1.387504e-001
1.022087e+003, 1.361527e-001
1.024016e+003, 1.333614e-001
1.025944e+003, 1.308626e-001
1.027873e+003, 1.291615e-001
1.029801e+003, 1.273241e-001
1.031730e+003, 1.248319e-001
1.033658e+003, 1.216714e-001
1.035587e+003, 1.189646e-001
1.037515e+003, 1.166487e-001
1.039443e+003, 1.141497e-001
1.041372e+003, 1.118151e-001
1.043300e+003, 1.097515e-001
1.045229e+003, 1.074177e-001
1.047157e+003, 1.049364e-001
1.049086e+003, 1.026100e-001
1.051014e+003, 1.009609e-001
1.052943e+003, 9.876467e-002
1.054871e+003, 9.633376e-002
1.056800e+003, 9.403432e-002
1.058728e+003, 9.218451e-002
1.060657e+003, 9.040822e-002
1.062585e+003, 8.835804e-002
1.064514e+003, 8.659752e-002
1.066442e+003, 8.496103e-002
1.068370e+003, 8.294897e-002
1.070299e+003, 8.069956e-002
1.072227e+003, 7.874534e-002
1.074156e+003, 7.715640e-002
1.076084e+003, 7.580754e-002
1.078013e+003, 7.430068e-002
1.079941e+003, 7.243877e-002
1.081870e+003, 7.076804e-002
1.083798e+003, 6.959902e-002
1.085727e+003, 6.814504e-002
1.087655e+003, 6.658794e-002
1.089584e+003, 6.515924e-002
1.091512e+003, 6.360140e-002
1.093441e+003, 6.233760e-002
1.095369e+003, 6.106035e-002
1.097297e+003, 5.977838e-002
1.099226e+003, 5.883983e-002
1.101154e+003, 5.797248e-002
1.103083e+003, 5.659966e-002
1.105011e+003, 5.535835e-002
1.106940e+003, 5.438384e-002
1.108868e+003, 5.332364e-002
1.110797e+003, 5.246707e-002
1.112725e+003, 5.179224e-002
1.114654e+003, 5.082975e-002
1.116582e+003, 5.009202e-002
1.118511e+003, 4.932629e-002
1.120439e+003, 4.864857e-002
1.122368e+003, 4.792928e-002
1.124296e+003, 4.705346e-002
1.126224e+003, 4.628054e-002
1.128153e+003, 4.625567e-002
1.130081e+003, 4.585787e-002
1.132010e+003, 4.504297e-002
1.133938e+003, 4.465010e-002
1.135867e+003, 4.439026e-002
1.137795e+003, 4.405342e-002
1.139724e+003, 4.393380e-002
1.141652e+003, 4.364095e-002
1.143581e+003, 4.305851e-002
1.145509e+003, 4.276344e-002
1.147438e+003, 4.277391e-002
1.149366e+003, 4.311128e-002
1.151295e+003, 4.344369e-002
1.153223e+003, 4.319618e-002
1.155151e+003, 4.257192e-002
1.157080e+003, 4.197731e-002
1.159008e+003, 4.134739e-002
1.160937e+003, 4.148443e-002
1.162865e+003, 4.197538e-002
1.164794e+003, 4.203895e-002
1.166722e+003, 4.184913e-002
1.168651e+003, 4.144262e-002
1.170579e+003, 4.119588e-002
1.172508e+003, 4.089378e-002
1.174436e+003, 4.079029e-002
1.176365e+003, 4.107654e-002
1.178293e+003, 4.145435e-002
1.180222e+003, 4.142014e-002
1.182150e+003, 4.115818e-002
1.184078e+003, 4.071387e-002
1.186007e+003, 4.064264e-002
1.187935e+003, 4.059514e-002
1.189864e+003, 4.073735e-002
1.191792e+003, 4.078646e-002
1.193721e+003, 4.084009e-002
1.195649e+003, 4.084323e-002
1.197578e+003, 4.076639e-002
1.199506e+003, 4.066377e-002
1.201435e+003, 4.047687e-002
1.203363e+003, 4.030254e-002
1.205292e+003, 4.036048e-002
1.207220e+003, 4.028323e-002
1.209149e+003, 3.994322e-002
1.211077e+003, 3.980797e-002
1.213005e+003, 3.983615e-002
1.214934e+003, 4.001290e-002
1.216862e+003, 3.991568e-002
1.218791e+003, 3.961915e-002
1.220719e+003, 3.915769e-002
1.222648e+003, 3.877537e-002
1.224576e+003, 3.873393e-002
1.226505e+003, 3.890556e-002
1.228433e+003, 3.873441e-002
1.230362e+003, 3.855329e-002
1.232290e+003, 3.849243e-002
1.234219e+003, 3.842507e-002
1.236147e+003, 3.828119e-002
1.238076e+003, 3.793110e-002
1.240004e+003, 3.780874e-002
1.241932e+003, 3.758052e-002
1.243861e+003, 3.739580e-002
1.245789e+003, 3.717114e-002
1.247718e+003, 3.700373e-002
1.249646e+003, 3.698884e-002
1.251575e+003, 3.718312e-002
1.253503e+003, 3.717002e-002
1.255432e+003, 3.709494e-002
1.257360e+003, 3.706644e-002
1.259289e+003, 3.699327e-002
1.261217e+003, 3.703453e-002
1.263146e+003, 3.708512e-002
1.265074e+003, 3.729070e-002
1.267003e+003, 3.729341e-002
1.268931e+003, 3.729987e-002
1.270859e+003, 3.734655e-002
1.272788e+003, 3.781800e-002
1.274716e+003, 3.842852e-002
1.276645e+003, 3.831579e-002
1.278573e+003, 3.819134e-002
1.280502e+003, 3.796969e-002
1.282430e+003, 3.802123e-002
1.284359e+003, 3.820495e-002
1.286287e+003, 3.819304e-002
1.288216e+003, 3.844681e-002
1.290144e+003, 3.871604e-002
1.292073e+003, 3.867424e-002
1.294001e+003, 3.901476e-002
1.295930e+003, 3.944096e-002
1.297858e+003, 3.956335e-002
1.299786e+003, 3.979079e-002
1.301715e+003, 3.992777e-002
1.303643e+003, 4.014400e-002
1.305572e+003, 4.019061e-002
1.307500e+003, 4.045105e-002
1.309429e+003, 4.097135e-002
1.311357e+003, 4.136357e-002
1.313286e+003, 4.151706e-002
1.315214e+003, 4.158538e-002
1.317143e+003, 4.162382e-002
1.319071e+003, 4.180709e-002
1.321000e+003, 4.204602e-002
1.322928e+003, 4.222434e-002
1.324857e+003, 4.230612e-002
1.326785e+003, 4.246717e-002
1.328714e+003, 4.273371e-002
1.330642e+003, 4.288438e-002
1.332570e+003, 4.307780e-002
1.334499e+003, 4.317316e-002
1.336427e+003, 4.319676e-002
1.338356e+003, 4.339272e-002
1.340284e+003, 4.368661e-002
1.342213e+003, 4.412231e-002
1.344141e+003, 4.421180e-002
1.346070e+003, 4.418575e-002
1.347998e+003, 4.438597e-002
1.349927e+003, 4.452185e-002
1.351855e+003, 4.447189e-002
1.353784e+003, 4.467950e-002
1.355712e+003, 4.497593e-002
1.357641e+003, 4.504704e-002
1.359569e+003, 4.522692e-002
1.361497e+003, 4.528352e-002
1.363426e+003, 4.560313e-002
1.365354e+003, 4.567481e-002
1.367283e+003, 4.592309e-002
1.369211e+003, 4.639193e-002
1.371140e+003, 4.644647e-002
1.373068e+003, 4.661037e-002
1.374997e+003, 4.683779e-002
1.376925e+003, 4.682478e-002
1.378854e+003, 4.697095e-002
1.380782e+003, 4.710166e-002
1.382711e+003, 4.734226e-002
1.384639e+003, 4.725721e-002
1.386568e+003, 4.738531e-002
1.388496e+003, 4.743841e-002
1.390424e+003, 4.739640e-002
1.392353e+003, 4.737432e-002
1.394281e+003, 4.722124e-002
1.396210e+003, 4.695350e-002
1.398138e+003, 4.668842e-002
1.400067e+003, 4.644034e-002
1.401995e+003, 4.634924e-002
1.403924e+003, 4.640096e-002
1.405852e+003, 4.586919e-002
1.407781e+003, 4.545735e-002
1.409709e+003, 4.561926e-002
1.411638e+003, 4.549705e-002
1.413566e+003, 4.509922e-002
1.415495e+003, 4.487340e-002
1.417423e+003, 4.417481e-002
1.419351e+003, 4.348574e-002
1.421280e+003, 4.315376e-002
1.423208e+003, 4.244884e-002
1.425137e+003, 4.184734e-002
1.427065e+003, 4.149598e-002
1.428994e+003, 4.140642e-002
1.430922e+003, 4.094548e-002
1.432851e+003, 4.010760e-002
1.434779e+003, 3.941712e-002
1.436708e+003, 3.940560e-002
1.438636e+003, 3.934319e-002
1.440565e+003, 3.893229e-002
1.442493e+003, 3.827373e-002
1.444422e+003, 3.778469e-002
1.446350e+003, 3.712103e-002
1.448278e+003, 3.676888e-002
1.450207e+003, 3.680057e-002
1.452135e+003, 3.695939e-002
1.454064e+003, 3.704648e-002
1.455992e+003, 3.695638e-002
1.457921e+003, 3.676354e-002
1.459849e+003, 3.649555e-002
1.461778e+003, 3.639315e-002
1.463706e+003, 3.685952e-002
1.465635e+003, 3.701416e-002
1.467563e+003, 3.707734e-002
1.469492e+003, 3.748261e-002
1.471420e+003, 3.777599e-002
1.473349e+003, 3.789749e-002
1.475277e+003, 3.807361e-002
1.477205e+003, 3.839260e-002
1.479134e+003, 3.863204e-002
1.481062e+003, 3.868319e-002
1.482991e+003, 3.887181e-002
1.484919e+003, 3.862025e-002
1.486848e+003, 3.864420e-002
1.488776e+003, 3.896949e-002
1.490705e+003, 3.883013e-002
1.492633e+003, 3.851166e-002
1.494562e+003, 3.836049e-002
1.496490e+003, 3.828865e-002
1.498419e+003, 3.802136e-002
1.500347e+003, 3.795604e-002
1.502276e+003, 3.798056e-002
1.504204e+003, 3.750990e-002
1.506132e+003, 3.710704e-002
1.508061e+003, 3.703611e-002
1.509989e+003, 3.658636e-002
1.511918e+003, 3.581806e-002
1.513846e+003, 3.541153e-002
1.515775e+003, 3.519406e-002
1.517703e+003, 3.475859e-002
1.519632e+003, 3.445143e-002
1.521560e+003, 3.385481e-002
1.523489e+003, 3.275762e-002
1.525417e+003, 3.225728e-002
1.527346e+003, 3.198938e-002
1.529274e+003, 3.156072e-002
1.531203e+003, 3.101947e-002
1.533131e+003, 3.044211e-002
1.535059e+003, 3.002230e-002
1.536988e+003, 2.974440e-002
1.538916e+003, 2.965874e-002
1.540845e+003, 2.924272e-002
1.542773e+003, 2.852486e-002
1.544702e+003, 2.774733e-002
1.546630e+003, 2.696578e-002
1.548559e+003, 2.640535e-002
1.550487e+003, 2.607580e-002
1.552416e+003, 2.569793e-002
1.554344e+003, 2.520365e-002
1.556273e+003, 2.465648e-002
1.558201e+003, 2.393206e-002
1.560130e+003, 2.354344e-002
1.562058e+003, 2.341839e-002
1.563986e+003, 2.318907e-002
1.565915e+003, 2.317380e-002
1.567843e+003, 2.289448e-002
1.569772e+003, 2.218685e-002
1.571700e+003, 2.165046e-002
1.573629e+003, 2.143278e-002
1.575557e+003, 2.113796e-002
1.577486e+003, 2.101425e-002
1.579414e+003, 2.121437e-002
1.581343e+003, 2.106552e-002
1.583271e+003, 2.039164e-002
1.585200e+003, 2.014974e-002
1.587128e+003, 2.037448e-002
1.589057e+003, 2.048097e-002
1.590985e+003, 2.047965e-002
1.592913e+003, 2.078887e-002
1.594842e+003, 2.060120e-002
1.596770e+003, 2.013618e-002
1.598699e+003, 2.031550e-002
1.600627e+003, 2.077003e-002
1.602556e+003, 2.100112e-002
1.604484e+003, 2.096519e-002
1.606413e+003, 2.084938e-002
1.608341e+003, 2.039276e-002
1.610270e+003, 2.011892e-002
1.612198e+003, 2.066049e-002
1.614127e+003, 2.101733e-002
1.616055e+003, 2.069012e-002
1.617984e+003, 2.056238e-002
1.619912e+003, 2.084233e-002
1.621840e+003, 2.128087e-002
1.623769e+003, 2.162099e-002
1.625697e+003, 2.164850e-002
1.627626e+003, 2.124934e-002
1.629554e+003, 2.094476e-002
1.631483e+003, 2.117916e-002
1.633411e+003, 2.122845e-002
1.635340e+003, 2.142627e-002
1.637268e+003, 2.192879e-002
1.639197e+003, 2.210402e-002
1.641125e+003, 2.183707e-002
1.643054e+003, 2.155377e-002
1.644982e+003, 2.119756e-002
1.646911e+003, 2.089904e-002
1.648839e+003, 2.116224e-002
1.650767e+003, 2.109910e-002
1.652696e+003, 2.076449e-002
1.654624e+003, 2.068494e-002
1.656553e+003, 2.095393e-002
1.658481e+003, 2.091360e-002
1.660410e+003, 2.061997e-002
1.662338e+003, 2.041917e-002
1.664267e+003, 2.029493e-002
1.666195e+003, 1.961744e-002
1.668124e+003, 1.937487e-002
1.670052e+003, 1.940870e-002
1.671981e+003, 1.920700e-002
1.673909e+003, 1.922546e-002
1.675838e+003, 1.876416e-002
1.677766e+003, 1.835720e-002
1.679694e+003, 1.841386e-002
1.681623e+003, 1.802637e-002
1.683551e+003, 1.760588e-002
1.685480e+003, 1.722753e-002
1.687408e+003, 1.718961e-002
1.689337e+003, 1.732444e-002
1.691265e+003, 1.666335e-002
1.693194e+003, 1.667971e-002
1.695122e+003, 1.668733e-002
1.697051e+003, 1.596285e-002
1.698979e+003, 1.611492e-002
1.700908e+003, 1.631083e-002
1.702836e+003, 1.584403e-002
1.704765e+003, 1.558802e-002
1.706693e+003, 1.579095e-002
1.708621e+003, 1.566926e-002
1.710550e+003, 1.528109e-002
1.712478e+003, 1.518613e-002
1.714407e+003, 1.535782e-002
1.716335e+003, 1.503381e-002
1.718264e+003, 1.495561e-002
1.720192e+003, 1.567053e-002
1.722121e+003, 1.590880e-002
1.724049e+003, 1.534932e-002
1.725978e+003, 1.518842e-002
1.727906e+003, 1.552538e-002
1.729835e+003, 1.597210e-002
1.731763e+003, 1.567416e-002
1.733692e+003, 1.495241e-002
1.735620e+003, 1.478375e-002
1.737548e+003, 1.485713e-002
1.739477e+003, 1.459341e-002
1.741405e+003, 1.453023e-002
1.743334e+003, 1.435109e-002
1.745262e+003, 1.419672e-002
1.747191e+003, 1.422680e-002
1.749119e+003, 1.429418e-002
1.751048e+003, 1.491635e-002
1.752976e+003, 1.518978e-002
1.754905e+003, 1.461424e-002
1.756833e+003, 1.404883e-002
1.758762e+003, 1.424389e-002
1.760690e+003, 1.418688e-002
1.762619e+003, 1.408451e-002
1.764547e+003, 1.417132e-002
1.766475e+003, 1.439606e-002
1.768404e+003, 1.450217e-002
1.770332e+003, 1.453108e-002
1.772261e+003, 1.423669e-002
1.774189e+003, 1.424427e-002
1.776118e+003, 1.416157e-002
1.778046e+003, 1.367822e-002
1.779975e+003, 1.398823e-002
1.781903e+003, 1.430278e-002
1.783832e+003, 1.426100e-002
1.785760e+003, 1.431041e-002
1.787689e+003, 1.480617e-002
1.789617e+003, 1.539562e-002
1.791546e+003, 1.535893e-002
1.793474e+003, 1.465738e-002
1.795402e+003, 1.458664e-002
1.797331e+003, 1.481732e-002
1.799259e+003, 1.452195e-002
1.801188e+003, 1.432183e-002
1.803116e+003, 1.446799e-002
1.805045e+003, 1.435097e-002
1.806973e+003, 1.466461e-002
1.808902e+003, 1.449372e-002
1.810830e+003, 1.414750e-002
1.812759e+003, 1.431418e-002
1.814687e+003, 1.411066e-002
1.816616e+003, 1.390790e-002
1.818544e+003, 1.406815e-002
1.820473e+003, 1.420797e-002
1.822401e+003, 1.473936e-002
1.824329e+003, 1.404300e-002
1.826258e+003, 1.375407e-002
1.828186e+003, 1.438536e-002
1.830115e+003, 1.505027e-002
1.832043e+003, 1.504169e-002
1.833972e+003, 1.436184e-002
1.835900e+003, 1.484551e-002
1.837829e+003, 1.536738e-002
1.839757e+003, 1.466805e-002
1.841686e+003, 1.423965e-002
1.843614e+003, 1.408519e-002
1.845543e+003, 1.428778e-002
1.847471e+003, 1.446674e-002
1.849400e+003, 1.475997e-002
1.851328e+003, 1.441593e-002
1.853256e+003, 1.417274e-002
1.855185e+003, 1.414544e-002
1.857113e+003, 1.412452e-002
1.859042e+003, 1.425033e-002
1.860970e+003, 1.491877e-002
1.862899e+003, 1.412480e-002
1.864827e+003, 1.389160e-002
1.866756e+003, 1.507415e-002
1.868684e+003, 1.614529e-002
1.870613e+003, 1.680496e-002
1.872541e+003, 1.541504e-002
1.874470e+003, 1.405245e-002
1.876398e+003, 1.429909e-002
1.878327e+003, 1.440360e-002
1.880255e+003, 1.504678e-002
1.882183e+003, 1.623698e-002
1.884112e+003, 1.593496e-002
1.886040e+003, 1.428964e-002
1.887969e+003, 1.402211e-002
1.889897e+003, 1.435187e-002
1.891826e+003, 1.419545e-002
1.893754e+003, 1.378402e-002
1.895683e+003, 1.309709e-002
1.897611e+003, 1.196386e-002
1.899540e+003, 1.177495e-002
1.901468e+003, 1.294882e-002
1.903397e+003, 1.363060e-002
1.905325e+003, 1.439791e-002
1.907254e+003, 1.460581e-002
1.909182e+003, 1.280313e-002
1.911110e+003, 1.148133e-002
1.913039e+003, 1.112416e-002
1.914967e+003, 1.199546e-002
1.916896e+003, 1.361389e-002
1.918824e+003, 1.525344e-002
1.920753e+003, 1.474676e-002
1.922681e+003, 1.388652e-002
1.924610e+003, 1.347054e-002
1.926538e+003, 1.208212e-002
1.928467e+003, 1.167339e-002
1.930395e+003, 1.255386e-002
1.932324e+003, 1.262294e-002
1.934252e+003, 1.235030e-002
1.936181e+003, 1.292836e-002
1.938109e+003, 1.362781e-002
1.940037e+003, 1.248216e-002
1.941966e+003, 1.196458e-002
1.943894e+003, 1.285763e-002
1.945823e+003, 1.176133e-002
1.947751e+003, 1.168510e-002
1.949680e+003, 1.170800e-002
1.951608e+003, 1.082470e-002
1.953537e+003, 1.087552e-002
1.955465e+003, 1.059150e-002
1.957394e+003, 9.511732e-003
1.959322e+003, 1.006427e-002
1.961251e+003, 9.316402e-003
1.963179e+003, 6.091866e-003
1.965108e+003, 5.290760e-003
1.967036e+003, 6.915635e-003
1.968964e+003, 7.872597e-003
1.970893e+003, 6.319522e-003
1.972821e+003, 7.402667e-003
1.974750e+003, 9.300752e-003
1.976678e+003, 9.454779e-003
1.978607e+003, 1.065870e-002
1.980535e+003, 1.306813e-002
1.982464e+003, 1.372141e-002
1.984392e+003, 1.397136e-002
1.986321e+003, 1.191909e-002
1.988249e+003, 9.746616e-003
1.990178e+003, 1.243560e-002
1.992106e+003, 1.452500e-002
1.994035e+003, 1.336988e-002
1.995963e+003, 1.136328e-002
1.997891e+003, 1.024899e-002
1.999820e+003, 1.052518e-002
2.001748e+003, 1.159059e-002
2.003677e+003, 9.464980e-003
2.005605e+003, 9.351023e-003
2.007534e+003, 1.015281e-002
2.009462e+003, 9.734052e-003
2.011391e+003, 1.091938e-002
2.013319e+003, 1.568765e-002
2.015248e+003, 1.531934e-002
2.017176e+003, 1.155509e-002
2.019105e+003, 1.056519e-002
2.021033e+003, 1.080467e-002
2.022962e+003, 1.020202e-002
2.024890e+003, 1.093309e-002
2.026818e+003, 1.123492e-002
2.028747e+003, 7.764343e-003
2.030675e+003, 9.047637e-003
2.032604e+003, 1.347256e-002
2.034532e+003, 1.514988e-002
2.036461e+003, 1.529220e-002
2.038389e+003, 1.431426e-002
2.040318e+003, 1.315220e-002
2.042246e+003, 1.164776e-002
2.044175e+003, 1.349362e-002
2.046103e+003, 1.403597e-002
2.048031e+003, 1.186986e-002
2.049960e+003, 1.307490e-002
2.051888e+003, 1.486762e-002
2.053817e+003, 1.651570e-002
2.055745e+003, 1.651234e-002
2.057674e+003, 1.571291e-002
2.059602e+003, 1.560922e-002
2.061531e+003, 1.586952e-002
2.063459e+003, 1.643209e-002
2.065388e+003, 1.609929e-002
2.067316e+003, 1.648673e-002
2.069245e+003, 1.654716e-002
2.071173e+003, 1.538746e-002
2.073102e+003, 1.566127e-002
2.075030e+003, 1.638685e-002
2.076958e+003, 1.617540e-002
2.078887e+003, 1.660006e-002
2.080815e+003, 1.943645e-002
2.082744e+003, 2.063091e-002
2.084672e+003, 1.911085e-002
2.086601e+003, 1.717538e-002
2.088529e+003, 1.674944e-002
2.090458e+003, 1.639090e-002
2.092386e+003, 1.490442e-002
2.094315e+003, 1.311693e-002
2.096243e+003, 1.466702e-002
2.098172e+003, 1.764649e-002
2.100100e+003, 2.029376e-002
2.102029e+003, 2.074499e-002
2.103957e+003, 1.895292e-002
2.105885e+003, 1.761377e-002
2.107814e+003, 1.719113e-002
2.109742e+003, 1.725424e-002
2.111671e+003, 1.688301e-002
2.113599e+003, 1.541945e-002
2.115528e+003, 1.582980e-002
2.117456e+003, 1.641458e-002
2.119385e+003, 1.627099e-002
2.121313e+003, 1.636055e-002
2.123242e+003, 1.647003e-002
2.125170e+003, 1.442607e-002
2.127099e+003, 1.399055e-002
2.129027e+003, 1.542971e-002
2.130956e+003, 1.609575e-002
2.132884e+003, 1.487836e-002
2.134813e+003, 1.509828e-002
2.136741e+003, 1.721787e-002
2.138669e+003, 1.659858e-002
2.140598e+003, 1.537417e-002
2.142526e+003, 1.556111e-002
2.144455e+003, 1.745443e-002
2.146383e+003, 1.615771e-002
2.148312e+003, 1.352163e-002
2.150240e+003, 1.134930e-002
2.152169e+003, 1.119875e-002
2.154097e+003, 9.855080e-003
2.156026e+003, 6.627686e-003
2.157954e+003, 6.670196e-003
2.159883e+003, 1.388414e-002
2.161811e+003, 1.777883e-002
2.163740e+003, 2.008555e-002
2.165668e+003, 2.191259e-002
2.167596e+003, 2.069376e-002
2.169525e+003, 1.938784e-002
2.171453e+003, 1.753666e-002
2.173382e+003, 1.635553e-002
2.175310e+003, 1.519146e-002
2.177239e+003, 1.744676e-002
2.179167e+003, 1.808744e-002
2.181096e+003, 1.730793e-002
2.183024e+003, 2.179055e-002
2.184953e+003, 2.419274e-002
2.186881e+003, 2.299109e-002
2.188810e+003, 2.141812e-002
2.190738e+003, 1.958097e-002
2.192667e+003, 2.217536e-002
2.194595e+003, 2.195731e-002
2.196523e+003, 1.920232e-002
2.198452e+003, 1.744751e-002
2.200380e+003, 1.854246e-002
2.202309e+003, 2.032230e-002
2.204237e+003, 1.988460e-002
2.206166e+003, 1.905849e-002
2.208094e+003, 2.080947e-002
2.210023e+003, 2.135551e-002
2.211951e+003, 2.000844e-002
2.213880e+003, 1.971720e-002
2.215808e+003, 2.008636e-002
2.217737e+003, 1.991208e-002
2.219665e+003, 1.924090e-002
2.221594e+003, 1.880228e-002
2.223522e+003, 1.937551e-002
2.225450e+003, 2.037083e-002
2.227379e+003, 2.144694e-002
2.229307e+003, 2.176137e-002
2.231236e+003, 2.310208e-002
2.233164e+003, 2.133524e-002
2.235093e+003, 2.014140e-002
2.237021e+003, 1.899438e-002
2.238950e+003, 1.730256e-002
2.240878e+003, 1.863931e-002
2.242807e+003, 2.030325e-002
2.244735e+003, 2.065576e-002
2.246664e+003, 2.192364e-002
2.248592e+003, 2.126879e-002
2.250521e+003, 2.079407e-002
2.252449e+003, 2.200689e-002
2.254377e+003, 2.375266e-002
2.256306e+003, 2.349757e-002
2.258234e+003, 2.300054e-002
2.260163e+003, 2.271518e-002
2.262091e+003, 2.240447e-002
2.264020e+003, 2.388469e-002
2.265948e+003, 2.464318e-002
2.267877e+003, 2.382429e-002
2.269805e+003, 2.275190e-002
2.271734e+003, 2.231440e-002
2.273662e+003, 2.394419e-002
2.275591e+003, 2.528009e-002
2.277519e+003, 2.513400e-002
2.279448e+003, 2.468545e-002
2.281376e+003, 2.453880e-002
2.283304e+003, 2.475933e-002
2.285233e+003, 2.475983e-002
2.287161e+003, 2.374486e-002
2.289090e+003, 2.376294e-002
2.291018e+003, 2.496432e-002
2.292947e+003, 2.536964e-002
2.294875e+003, 2.481674e-002
2.296804e+003, 2.472853e-002
2.298732e+003, 2.483776e-002
2.300661e+003, 2.487837e-002
2.302589e+003, 2.573721e-002
2.304518e+003, 2.610544e-002
2.306446e+003, 2.580502e-002
2.308375e+003, 2.486487e-002
2.310303e+003, 2.444865e-002
2.312231e+003, 2.528834e-002
2.314160e+003, 2.518409e-002
2.316088e+003, 2.642463e-002
2.318017e+003, 2.713743e-002
2.319945e+003, 2.668102e-002
2.321874e+003, 2.665367e-002
2.323802e+003, 2.670395e-002
2.325731e+003, 2.572051e-002
2.327659e+003, 2.554241e-002
2.329588e+003, 2.573387e-002
2.331516e+003, 2.545401e-002
2.333445e+003, 2.504734e-002
2.335373e+003, 2.530808e-002
2.337302e+003, 2.524164e-002
2.339230e+003, 2.486477e-002
2.341158e+003, 2.512322e-002
2.343087e+003, 2.451178e-002
2.345015e+003, 2.393462e-002
2.346944e+003, 2.471409e-002
2.348872e+003, 2.490984e-002
2.350801e+003, 2.442757e-002
2.352729e+003, 2.454087e-002
2.354658e+003, 2.482945e-002
2.356586e+003, 2.506806e-002
2.358515e+003, 2.484746e-002
2.360443e+003, 2.477515e-002
2.362372e+003, 2.438659e-002
2.364300e+003, 2.468282e-002
2.366229e+003, 2.464176e-002
2.368157e+003, 2.328778e-002
2.370085e+003, 2.350421e-002
2.372014e+003, 2.443100e-002
2.373942e+003, 2.435735e-002
2.375871e+003, 2.353976e-002
2.377799e+003, 2.341620e-002
2.379728e+003, 2.365397e-002
2.381656e+003, 2.315668e-002
2.383585e+003, 2.280188e-002
2.385513e+003, 2.269444e-002
2.387442e+003, 2.323575e-002
2.389370e+003, 2.332666e-002
2.391299e+003, 2.347247e-002
2.393227e+003, 2.470300e-002
2.395156e+003, 2.463871e-002
2.397084e+003, 2.434995e-002
2.399012e+003, 2.436873e-002
2.400941e+003, 2.448083e-002
2.402869e+003, 2.502081e-002
2.404798e+003, 2.431632e-002
2.406726e+003, 2.407956e-002
2.408655e+003, 2.504018e-002
2.410583e+003, 2.617135e-002
2.412512e+003, 2.499473e-002
2.414440e+003, 2.394293e-002
2.416369e+003, 2.501123e-002
2.418297e+003, 2.546062e-002
2.420226e+003, 2.508327e-002
2.422154e+003, 2.531797e-002
2.424083e+003, 2.500537e-002
2.426011e+003, 2.482962e-002
2.427939e+003, 2.598472e-002
2.429868e+003, 2.638832e-002
2.431796e+003, 2.629476e-002
2.433725e+003, 2.666372e-002
2.435653e+003, 2.620037e-002
2.437582e+003, 2.451506e-002
2.439510e+003, 2.394844e-002
2.441439e+003, 2.448671e-002
2.443367e+003, 2.484580e-002
2.445296e+003, 2.494039e-002
2.447224e+003, 2.537711e-002
2.449153e+003, 2.605872e-002
2.451081e+003, 2.581444e-002
2.453010e+003, 2.447526e-002
2.454938e+003, 2.378385e-002
2.456866e+003, 2.407994e-002
2.458795e+003, 2.464503e-002
2.460723e+003, 2.500734e-002
2.462652e+003, 2.570149e-002
2.464580e+003, 2.655323e-002
2.466509e+003, 2.723673e-002
2.468437e+003, 2.734385e-002
2.470366e+003, 2.652603e-002
2.472294e+003, 2.701891e-002
2.474223e+003, 2.709278e-002
2.476151e+003, 2.679388e-002
2.478080e+003, 2.635068e-002
2.480008e+003, 2.647670e-002
2.481937e+003, 2.655924e-002
2.483865e+003, 2.527673e-002
2.485793e+003, 2.543051e-002
2.487722e+003, 2.713376e-002
2.489650e+003, 2.800246e-002
2.491579e+003, 2.761875e-002
2.493507e+003, 2.606574e-002
2.495436e+003, 2.569001e-002
2.497364e+003, 2.666895e-002
2.499293e+003, 2.640959e-002
2.501221e+003, 2.535231e-002
2.503150e+003, 2.554710e-002
2.505078e+003, 2.555234e-002
2.507007e+003, 2.575257e-002
2.508935e+003, 2.717880e-002
2.510864e+003, 2.787169e-002
2.512792e+003, 2.620192e-002
2.514720e+003, 2.483584e-002
2.516649e+003, 2.597560e-002
2.518577e+003, 2.743359e-002
2.520506e+003, 2.824264e-002
2.522434e+003, 2.662047e-002
2.524363e+003, 2.577277e-002
2.526291e+003, 2.786151e-002
2.528220e+003, 2.965159e-002
2.530148e+003, 2.883227e-002
2.532077e+003, 2.780863e-002
2.534005e+003, 2.770943e-002
2.535934e+003, 2.741269e-002
2.537862e+003, 2.742716e-002
2.539791e+003, 2.821852e-002
2.541719e+003, 2.696292e-002
2.543647e+003, 2.552080e-002
2.545576e+003, 2.622027e-002
2.547504e+003, 2.798603e-002
2.549433e+003, 2.847628e-002
2.551361e+003, 2.868216e-002
2.553290e+003, 2.898500e-002
2.555218e+003, 2.859068e-002
2.557147e+003, 2.820093e-002
2.559075e+003, 2.854910e-002
2.561004e+003, 2.977623e-002
2.562932e+003, 2.975967e-002
2.564861e+003, 2.890482e-002
2.566789e+003, 2.855479e-002
2.568718e+003, 2.858419e-002
2.570646e+003, 2.871716e-002
2.572574e+003, 2.929369e-002
2.574503e+003, 2.962972e-002
2.576431e+003, 2.914194e-002
2.578360e+003, 2.869788e-002
2.580288e+003, 2.858884e-002
2.582217e+003, 2.989273e-002
2.584145e+003, 3.132406e-002
2.586074e+003, 3.095470e-002
2.588002e+003, 3.034031e-002
2.589931e+003, 3.034141e-002
2.591859e+003, 3.020626e-002
2.593788e+003, 3.054262e-002
2.595716e+003, 2.959622e-002
2.597645e+003, 2.962493e-002
2.599573e+003, 3.058976e-002
2.601501e+003, 3.023974e-002
2.603430e+003, 2.998071e-002
2.605358e+003, 3.122555e-002
2.607287e+003, 3.009059e-002
2.609215e+003, 2.933619e-002
2.611144e+003, 3.048886e-002
2.613072e+003, 3.072753e-002
2.615001e+003, 3.099710e-002
2.616929e+003, 3.112698e-002
2.618858e+003, 3.137825e-002
2.620786e+003, 3.140305e-002
2.622715e+003, 3.126689e-002
2.624643e+003, 3.116752e-002
2.626572e+003, 3.201456e-002
2.628500e+003, 3.251236e-002
2.630428e+003, 3.286330e-002
2.632357e+003, 3.296890e-002
2.634285e+003, 3.230825e-002
2.636214e+003, 3.255835e-002
2.638142e+003, 3.307304e-002
2.640071e+003, 3.331945e-002
2.641999e+003, 3.261890e-002
2.643928e+003, 3.264541e-002
2.645856e+003, 3.318427e-002
2.647785e+003, 3.307879e-002
2.649713e+003, 3.384424e-002
2.651642e+003, 3.441976e-002
2.653570e+003, 3.355707e-002
2.655499e+003, 3.288605e-002
2.657427e+003, 3.337045e-002
2.659355e+003, 3.363641e-002
2.661284e+003, 3.291923e-002
2.663212e+003, 3.283060e-002
2.665141e+003, 3.269558e-002
2.667069e+003, 3.219166e-002
2.668998e+003, 3.206047e-002
2.670926e+003, 3.235606e-002
2.672855e+003, 3.267543e-002
2.674783e+003, 3.238747e-002
2.676712e+003, 3.218067e-002
2.678640e+003, 3.237421e-002
2.680569e+003, 3.294487e-002
2.682497e+003, 3.360722e-002
2.684426e+003, 3.360245e-002
2.686354e+003, 3.371317e-002
2.688282e+003, 3.398128e-002
2.690211e+003, 3.416095e-002
2.692139e+003, 3.332348e-002
2.694068e+003, 3.327709e-002
2.695996e+003, 3.374803e-002
2.697925e+003, 3.311285e-002
2.699853e+003, 3.362783e-002
2.701782e+003, 3.502320e-002
2.703710e+003, 3.516229e-002
2.705639e+003, 3.473417e-002
2.707567e+003, 3.472751e-002
2.709496e+003, 3.466977e-002
2.711424e+003, 3.561249e-002
2.713353e+003, 3.566728e-002
2.715281e+003, 3.558479e-002
2.717209e+003, 3.530260e-002
2.719138e+003, 3.515657e-002
2.721066e+003, 3.501423e-002
2.722995e+003, 3.531185e-002
2.724923e+003, 3.632035e-002
2.726852e+003, 3.628475e-002
2.728780e+003, 3.577848e-002
2.730709e+003, 3.580815e-002
2.732637e+003, 3.685357e-002
2.734566e+003, 3.670210e-002
2.736494e+003, 3.599391e-002
2.738423e+003, 3.579371e-002
2.740351e+003, 3.558501e-002
2.742280e+003, 3.618231e-002
2.744208e+003, 3.672329e-002
2.746136e+003, 3.670913e-002
2.748065e+003, 3.645671e-002
2.749993e+003, 3.670703e-002
2.751922e+003, 3.791124e-002
2.753850e+003, 3.798114e-002
2.755779e+003, 3.746231e-002
2.757707e+003, 3.739547e-002
2.759636e+003, 3.798476e-002
2.761564e+003, 3.784556e-002
2.763493e+003, 3.742867e-002
2.765421e+003, 3.688499e-002
2.767350e+003, 3.751970e-002
2.769278e+003, 3.864732e-002
2.771207e+003, 3.971353e-002
2.773135e+003, 4.014855e-002
2.775063e+003, 3.958645e-002
2.776992e+003, 3.817076e-002
2.778920e+003, 3.789870e-002
2.780849e+003, 3.849266e-002
2.782777e+003, 3.884343e-002
2.784706e+003, 3.978970e-002
2.786634e+003, 4.009868e-002
2.788563e+003, 3.923432e-002
2.790491e+003, 3.927845e-002
2.792420e+003, 3.915719e-002
2.794348e+003, 3.816776e-002
2.796277e+003, 3.887792e-002
2.798205e+003, 4.004985e-002
2.800134e+003, 4.064227e-002
2.802062e+003, 4.039880e-002
2.803990e+003, 3.992594e-002
2.805919e+003, 3.927860e-002
2.807847e+003, 3.896935e-002
2.809776e+003, 3.929710e-002
2.811704e+003, 4.053956e-002
2.813633e+003, 4.098117e-002
2.815561e+003, 4.067675e-002
2.817490e+003, 4.106167e-002
2.819418e+003, 4.082771e-002
2.821347e+003, 4.010439e-002
2.823275e+003, 4.091277e-002
2.825204e+003, 4.098446e-002
2.827132e+003, 4.125926e-002
2.829061e+003, 4.198412e-002
2.830989e+003, 4.262691e-002
2.832917e+003, 4.300749e-002
2.834846e+003, 4.297705e-002
2.836774e+003, 4.320437e-002
2.838703e+003, 4.404625e-002
2.840631e+003, 4.397258e-002
2.842560e+003, 4.296184e-002
2.844488e+003, 4.250247e-002
2.846417e+003, 4.290588e-002
2.848345e+003, 4.359174e-002
2.850274e+003, 4.357312e-002
2.852202e+003, 4.282031e-002
2.854131e+003, 4.228278e-002
2.856059e+003, 4.239977e-002
2.857988e+003, 4.320590e-002
2.859916e+003, 4.417831e-002
2.861844e+003, 4.444965e-002
2.863773e+003, 4.437418e-002
2.865701e+003, 4.374141e-002
2.867630e+003, 4.337075e-002
2.869558e+003, 4.367679e-002
2.871487e+003, 4.474467e-002
2.873415e+003, 4.538356e-002
2.875344e+003, 4.574000e-002
2.877272e+003, 4.662917e-002
2.879201e+003, 4.662645e-002
2.881129e+003, 4.641246e-002
2.883058e+003, 4.570626e-002
2.884986e+003, 4.468316e-002
2.886915e+003, 4.435880e-002
2.888843e+003, 4.487960e-002
2.890771e+003, 4.544246e-002
2.892700e+003, 4.558339e-002
2.894628e+003, 4.670776e-002
2.896557e+003, 4.636012e-002
2.898485e+003, 4.576359e-002
2.900414e+003, 4.655139e-002
2.902342e+003, 4.628989e-002
2.904271e+003, 4.605853e-002
2.906199e+003, 4.626990e-002
2.908128e+003, 4.710890e-002
2.910056e+003, 4.892474e-002
2.911985e+003, 4.801705e-002
2.913913e+003, 4.701553e-002
2.915842e+003, 4.828609e-002
2.917770e+003, 4.994360e-002
2.919698e+003, 4.978573e-002
2.921627e+003, 4.890748e-002
2.923555e+003, 5.007317e-002
2.925484e+003, 5.033854e-002
2.927412e+003, 4.948567e-002
2.929341e+003, 4.882952e-002
2.931269e+003, 5.053409e-002
2.933198e+003, 5.130231e-002
2.935126e+003, 5.052529e-002
2.937055e+003, 5.015729e-002
2.938983e+003, 4.990494e-002
2.940912e+003, 5.034732e-002
2.942840e+003, 5.015742e-002
2.944769e+003, 4.962265e-002
2.946697e+003, 4.900551e-002
2.948625e+003, 4.802183e-002
2.950554e+003, 4.995472e-002
2.952482e+003, 5.087648e-002
2.954411e+003, 4.957480e-002
2.956339e+003, 4.989329e-002
2.958268e+003, 5.068432e-002
2.960196e+003, 5.167057e-002
2.962125e+003, 5.140961e-002
2.964053e+003, 5.134118e-002
2.965982e+003, 5.207094e-002
2.967910e+003, 5.261862e-002
2.969839e+003, 5.136960e-002
2.971767e+003, 5.038207e-002
2.973696e+003, 5.130548e-002
2.975624e+003, 5.133794e-002
2.977552e+003, 4.994835e-002
2.979481e+003, 4.972718e-002
2.981409e+003, 5.087459e-002
2.983338e+003, 5.046744e-002
2.985266e+003, 4.976658e-002
2.987195e+003, 4.979102e-002
2.989123e+003, 5.031551e-002
2.991052e+003, 5.186029e-002
2.992980e+003, 5.128039e-002
2.994909e+003, 5.090958e-002
2.996837e+003, 5.058677e-002
2.998766e+003, 5.097503e-002
3.000694e+003, 5.254060e-002
3.002623e+003, 5.215834e-002
3.004551e+003, 5.284883e-002
3.006479e+003, 5.393982e-002
3.008408e+003, 5.271023e-002
3.010336e+003, 5.114942e-002
3.012265e+003, 5.093540e-002
3.014193e+003, 5.185571e-002
3.016122e+003, 5.299335e-002
3.018050e+003, 5.164898e-002
3.019979e+003, 5.104856e-002
3.021907e+003, 5.099539e-002
3.023836e+003, 5.137524e-002
3.025764e+003, 5.252183e-002
3.027693e+003, 5.225568e-002
3.029621e+003, 5.224102e-002
3.031550e+003, 5.289703e-002
3.033478e+003, 5.370287e-002
3.035406e+003, 5.438459e-002
3.037335e+003, 5.388196e-002
3.039263e+003, 5.492970e-002
3.041192e+003, 5.484586e-002
3.043120e+003, 5.385268e-002
3.045049e+003, 5.403709e-002
3.046977e+003, 5.503849e-002
3.048906e+003, 5.509491e-002
3.050834e+003, 5.500468e-002
3.052763e+003, 5.500856e-002
3.054691e+003, 5.517108e-002
3.056620e+003, 5.567677e-002
3.058548e+003, 5.568579e-002
3.060477e+003, 5.547622e-002
3.062405e+003, 5.474820e-002
3.064333e+003, 5.542048e-002
3.066262e+003, 5.702228e-002
3.068190e+003, 5.540249e-002
3.070119e+003, 5.373830e-002
3.072047e+003, 5.675234e-002
3.073976e+003, 5.721835e-002
3.075904e+003, 5.597118e-002
3.077833e+003, 5.645618e-002
3.079761e+003, 5.605881e-002
3.081690e+003, 5.662461e-002
3.083618e+003, 5.672634e-002
3.085547e+003, 5.529647e-002
3.087475e+003, 5.518434e-002
3.089404e+003, 5.563349e-002
3.091332e+003, 5.581192e-002
3.093260e+003, 5.588713e-002
3.095189e+003, 5.624520e-002
3.097117e+003, 5.751329e-002
3.099046e+003, 5.793015e-002
3.100974e+003, 5.701261e-002
3.102903e+003, 5.632974e-002
3.104831e+003, 5.673885e-002
3.106760e+003, 5.567835e-002
3.108688e+003, 5.581371e-002
3.110617e+003, 5.679802e-002
3.112545e+003, 5.738642e-002
3.114474e+003, 5.683950e-002
3.116402e+003, 5.610686e-002
3.118331e+003, 5.751001e-002
3.120259e+003, 5.982639e-002
3.122188e+003, 6.000307e-002
3.124116e+003, 5.752836e-002
3.126044e+003, 5.695463e-002
3.127973e+003, 5.774018e-002
3.129901e+003, 5.882375e-002
3.131830e+003, 5.980023e-002
3.133758e+003, 6.069449e-002
3.135687e+003, 6.013675e-002
3.137615e+003, 5.767260e-002
3.139544e+003, 5.791892e-002
3.141472e+003, 5.961393e-002
3.143401e+003, 5.890726e-002
3.145329e+003, 5.713744e-002
3.147258e+003, 5.823338e-002
3.149186e+003, 5.956826e-002
3.151115e+003, 6.098304e-002
3.153043e+003, 6.038281e-002
3.154971e+003, 5.963555e-002
3.156900e+003, 5.962284e-002
3.158828e+003, 5.847259e-002
3.160757e+003, 5.813271e-002
3.162685e+003, 5.850692e-002
3.164614e+003, 5.776670e-002
3.166542e+003, 5.786515e-002
3.168471e+003, 6.048857e-002
3.170399e+003, 6.280607e-002
3.172328e+003, 6.178686e-002
3.174256e+003, 6.163952e-002
3.176185e+003, 6.184756e-002
3.178113e+003, 6.008265e-002
3.180042e+003, 5.768704e-002
3.181970e+003, 5.904906e-002
3.183898e+003, 6.203319e-002
3.185827e+003, 6.142230e-002
3.187755e+003, 6.062497e-002
3.189684e+003, 6.200808e-002
3.191612e+003, 6.218049e-002
3.193541e+003, 6.169657e-002
3.195469e+003, 6.230093e-002
3.197398e+003, 6.289721e-002
3.199326e+003, 6.297054e-002
3.201255e+003, 6.257071e-002
3.203183e+003, 6.240226e-002
3.205112e+003, 6.248126e-002
3.207040e+003, 6.158936e-002
3.208969e+003, 6.119915e-002
3.210897e+003, 6.213845e-002
3.212825e+003, 6.178781e-002
3.214754e+003, 6.171579e-002
3.216682e+003, 6.163095e-002
3.218611e+003, 6.178872e-002
3.220539e+003, 6.144970e-002
3.222468e+003, 6.116645e-002
3.224396e+003, 6.058810e-002
3.226325e+003, 6.063003e-002
3.228253e+003, 6.023453e-002
3.230182e+003, 6.126904e-002
3.232110e+003, 6.102059e-002
3.234039e+003, 6.065851e-002
3.235967e+003, 6.183415e-002
3.237896e+003, 6.228823e-002
3.239824e+003, 6.155936e-002
3.241752e+003, 5.983341e-002
3.243681e+003, 5.992631e-002
3.245609e+003, 6.141046e-002
3.247538e+003, 6.208426e-002
3.249466e+003, 6.216625e-002
3.251395e+003, 6.132920e-002
3.253323e+003, 5.986657e-002
3.255252e+003, 6.097767e-002
3.257180e+003, 6.198995e-002
3.259109e+003, 6.010790e-002
3.261037e+003, 6.078182e-002
3.262966e+003, 6.097307e-002
3.264894e+003, 6.065408e-002
3.266823e+003, 6.098796e-002
3.268751e+003, 6.089044e-002
3.270679e+003, 6.153904e-002
3.272608e+003, 6.248773e-002
3.274536e+003, 6.261820e-002
3.276465e+003, 6.178667e-002
3.278393e+003, 6.031781e-002
3.280322e+003, 5.995160e-002
3.282250e+003, 6.173415e-002
3.284179e+003, 6.427815e-002
3.286107e+003, 6.384169e-002
3.288036e+003, 6.168063e-002
3.289964e+003, 6.230265e-002
3.291893e+003, 6.248342e-002
3.293821e+003, 6.169252e-002
3.295750e+003, 6.043119e-002
3.297678e+003, 6.190052e-002
3.299606e+003, 6.368282e-002
3.301535e+003, 6.268872e-002
3.303463e+003, 6.277794e-002
3.305392e+003, 6.424383e-002
3.307320e+003, 6.437770e-002
3.309249e+003, 6.331260e-002
3.311177e+003, 6.347539e-002
3.313106e+003, 6.226360e-002
3.315034e+003, 6.075672e-002
3.316963e+003, 6.133407e-002
3.318891e+003, 6.210674e-002
3.320820e+003, 6.124317e-002
3.322748e+003, 6.077924e-002
3.324677e+003, 6.163007e-002
3.326605e+003, 6.252258e-002
3.328533e+003, 6.269462e-002
3.330462e+003, 6.271319e-002
3.332390e+003, 6.152084e-002
3.334319e+003, 6.064846e-002
3.336247e+003, 6.156148e-002
3.338176e+003, 6.070004e-002
3.340104e+003, 6.179143e-002
3.342033e+003, 6.412013e-002
3.343961e+003, 6.478747e-002
3.345890e+003, 6.378505e-002
3.347818e+003, 6.250643e-002
3.349747e+003, 6.416512e-002
3.351675e+003, 6.444383e-002
3.353604e+003, 6.123772e-002
3.355532e+003, 6.116011e-002
3.357460e+003, 6.160902e-002
3.359389e+003, 6.136669e-002
3.361317e+003, 6.194761e-002
3.363246e+003, 6.087356e-002
3.365174e+003, 6.124853e-002
3.367103e+003, 6.307218e-002
3.369031e+003, 6.432991e-002
3.370960e+003, 6.375948e-002
3.372888e+003, 6.059340e-002
3.374817e+003, 5.835313e-002
3.376745e+003, 5.998337e-002
3.378674e+003, 6.234691e-002
3.380602e+003, 6.343007e-002
3.382531e+003, 6.323504e-002
3.384459e+003, 6.250960e-002
3.386387e+003, 6.152675e-002
3.388316e+003, 6.100396e-002
3.390244e+003, 6.295770e-002
3.392173e+003, 6.291574e-002
3.394101e+003, 6.145185e-002
3.396030e+003, 6.351312e-002
3.397958e+003, 6.502203e-002
3.399887e+003, 6.379144e-002
3.401815e+003, 6.310070e-002
3.403744e+003, 6.319568e-002
3.405672e+003, 6.241013e-002
3.407601e+003, 6.116299e-002
3.409529e+003, 5.913039e-002
3.411458e+003, 5.742437e-002
3.413386e+003, 5.935102e-002
3.415314e+003, 6.076210e-002
3.417243e+003, 6.041910e-002
3.419171e+003, 6.051822e-002
3.421100e+003, 6.164679e-002
3.423028e+003, 6.261024e-002
3.424957e+003, 6.112945e-002
3.426885e+003, 5.843081e-002
3.428814e+003, 5.776022e-002
3.430742e+003, 5.838095e-002
3.432671e+003, 5.929856e-002
3.434599e+003, 5.947102e-002
3.436528e+003, 5.726258e-002
3.438456e+003, 5.589533e-002
3.440385e+003, 5.741794e-002
3.442313e+003, 5.802983e-002
3.444241e+003, 5.869411e-002
3.446170e+003, 5.795016e-002
3.448098e+003, 5.929380e-002
3.450027e+003, 5.960111e-002
3.451955e+003, 5.898616e-002
3.453884e+003, 6.016453e-002
3.455812e+003, 6.141794e-002
3.457741e+003, 6.034454e-002
3.459669e+003, 5.803560e-002
3.461598e+003, 5.882312e-002
3.463526e+003, 5.817235e-002
3.465455e+003, 5.716602e-002
3.467383e+003, 5.826293e-002
3.469312e+003, 5.690550e-002
3.471240e+003, 5.582863e-002
3.473168e+003, 5.777388e-002
3.475097e+003, 5.989823e-002
3.477025e+003, 5.776202e-002
3.478954e+003, 5.581813e-002
3.480882e+003, 5.534172e-002
3.482811e+003, 5.438516e-002
3.484739e+003, 5.337049e-002
3.486668e+003, 5.519873e-002
3.488596e+003, 5.712795e-002
3.490525e+003, 5.780148e-002
3.492453e+003, 5.751535e-002
3.494382e+003, 5.666239e-002
3.496310e+003, 5.508804e-002
3.498239e+003, 5.630579e-002
3.500167e+003, 5.643565e-002
3.502095e+003, 5.409532e-002
3.504024e+003, 5.264498e-002
3.505952e+003, 5.313436e-002
3.507881e+003, 5.513705e-002
3.509809e+003, 5.500664e-002
3.511738e+003, 5.305240e-002
3.513666e+003, 5.341668e-002
3.515595e+003, 5.667400e-002
3.517523e+003, 5.531169e-002
3.519452e+003, 5.148070e-002
3.521380e+003, 5.134769e-002
3.523309e+003, 5.051889e-002
3.525237e+003, 5.007843e-002
3.527166e+003, 5.142601e-002
3.529094e+003, 5.107979e-002
3.531022e+003, 4.983220e-002
3.532951e+003, 4.799996e-002
3.534879e+003, 4.743594e-002
3.536808e+003, 4.988238e-002
3.538736e+003, 4.966541e-002
3.540665e+003, 4.796036e-002
3.542593e+003, 4.867000e-002
3.544522e+003, 4.859540e-002
3.546450e+003, 4.838658e-002
3.548379e+003, 4.607117e-002
3.550307e+003, 4.686303e-002
3.552236e+003, 4.848057e-002
3.554164e+003, 4.820870e-002
3.556093e+003, 4.591166e-002
3.558021e+003, 4.459380e-002
3.559949e+003, 4.645963e-002
3.561878e+003, 4.325758e-002
3.563806e+003, 3.997587e-002
3.565735e+003, 3.953517e-002
3.567663e+003, 4.031564e-002
3.569592e+003, 4.305537e-002
3.571520e+003, 4.546876e-002
3.573449e+003, 4.448776e-002
3.575377e+003, 4.130453e-002
3.577306e+003, 4.251384e-002
3.579234e+003, 4.128161e-002
3.581163e+003, 3.777185e-002
3.583091e+003, 3.901991e-002
3.585020e+003, 4.149192e-002
3.586948e+003, 3.812394e-002
3.588876e+003, 3.569587e-002
3.590805e+003, 3.406934e-002
3.592733e+003, 3.695258e-002
3.594662e+003, 3.848607e-002
3.596590e+003, 3.524181e-002
3.598519e+003, 3.537241e-002
3.600447e+003, 3.486466e-002
3.602376e+003, 3.164875e-002
3.604304e+003, 2.829790e-002
3.606233e+003, 2.558505e-002
3.608161e+003, 2.710366e-002
3.610090e+003, 3.052871e-002
3.612018e+003, 2.952806e-002
3.613947e+003, 2.865895e-002
3.615875e+003, 2.956216e-002
3.617803e+003, 3.215093e-002
3.619732e+003, 3.337898e-002
3.621660e+003, 3.014746e-002
3.623589e+003, 2.797626e-002
3.625517e+003, 3.093590e-002
3.627446e+003, 3.034277e-002
3.629374e+003, 2.462494e-002
3.631303e+003, 2.359539e-002
3.633231e+003, 2.485594e-002
3.635160e+003, 2.254979e-002
3.637088e+003, 2.168196e-002
3.639017e+003, 2.454438e-002
3.640945e+003, 2.646163e-002
3.642874e+003, 2.401882e-002
3.644802e+003, 2.257886e-002
3.646730e+003, 2.266814e-002
3.648659e+003, 2.232330e-002
3.650587e+003, 2.417960e-002
3.652516e+003, 2.370190e-002
3.654444e+003, 2.208314e-002
3.656373e+003, 2.174926e-002
3.658301e+003, 2.210596e-002
3.660230e+003, 2.408819e-002
3.662158e+003, 2.545648e-002
3.664087e+003, 2.521985e-002
3.666015e+003, 2.182275e-002
3.667944e+003, 1.937450e-002
3.669872e+003, 2.117511e-002
3.671801e+003, 2.463811e-002
3.673729e+003, 2.492687e-002
3.675657e+003, 2.374045e-002
3.677586e+003, 2.314378e-002
3.679514e+003, 2.399034e-002
3.681443e+003, 2.489595e-002
3.683371e+003, 2.676215e-002
3.685300e+003, 2.431579e-002
3.687228e+003, 2.129939e-002
3.689157e+003, 2.463714e-002
3.691085e+003, 2.498923e-002
3.693014e+003, 2.367371e-002
3.694942e+003, 2.494135e-002
3.696871e+003, 2.653666e-002
3.698799e+003, 2.568241e-002
3.700728e+003, 2.433429e-002
3.702656e+003, 2.494857e-002
3.704584e+003, 2.469367e-002
3.706513e+003, 2.493152e-002
3.708441e+003, 2.813563e-002
3.710370e+003, 2.603173e-002
3.712298e+003, 2.219404e-002
3.714227e+003, 2.314351e-002
3.716155e+003, 2.363375e-002
3.718084e+003, 2.294310e-002
3.720012e+003, 2.341077e-002
3.721941e+003, 2.317493e-002
3.723869e+003, 2.324940e-002
3.725798e+003, 2.307735e-002
3.727726e+003, 2.275468e-002
3.729655e+003, 2.204410e-002
3.731583e+003, 2.294363e-002
3.733511e+003, 2.417865e-002
3.735440e+003, 2.509719e-002
3.737368e+003, 2.454694e-002
3.739297e+003, 2.310127e-002
3.741225e+003, 2.319667e-002
3.743154e+003, 2.096361e-002
3.745082e+003, 2.057737e-002
3.747011e+003, 2.232428e-002
3.748939e+003, 2.359912e-002
3.750868e+003, 2.366623e-002
3.752796e+003, 2.198640e-002
3.754725e+003, 2.179116e-002
3.756653e+003, 2.092889e-002
3.758582e+003, 2.351337e-002
3.760510e+003, 2.542470e-002
3.762438e+003, 2.413368e-002
3.764367e+003, 2.360335e-002
3.766295e+003, 2.371268e-002
3.768224e+003, 2.130184e-002
3.770152e+003, 2.484369e-002
3.772081e+003, 2.832379e-002
3.774009e+003, 2.442645e-002
3.775938e+003, 2.152747e-002
3.777866e+003, 2.314492e-002
3.779795e+003, 2.522883e-002
3.781723e+003, 2.563290e-002
3.783652e+003, 2.622852e-002
3.785580e+003, 2.517166e-002
3.787509e+003, 2.790320e-002
3.789437e+003, 3.143976e-002
3.791365e+003, 3.100715e-002
3.793294e+003, 2.792856e-002
3.795222e+003, 2.631065e-002
3.797151e+003, 2.467086e-002
3.799079e+003, 2.448701e-002
3.801008e+003, 2.693888e-002
3.802936e+003, 2.680757e-002
3.804865e+003, 2.601028e-002
3.806793e+003, 2.528762e-002
3.808722e+003, 2.256375e-002
3.810650e+003, 2.142847e-002
3.812579e+003, 2.304474e-002
3.814507e+003, 2.440815e-002
3.816436e+003, 2.592945e-002
3.818364e+003, 2.377429e-002
3.820292e+003, 2.227189e-002
3.822221e+003, 2.331313e-002
3.824149e+003, 2.268752e-002
3.826078e+003, 2.300049e-002
3.828006e+003, 2.390330e-002
3.829935e+003, 2.448485e-002
3.831863e+003, 2.209641e-002
3.833792e+003, 2.037641e-002
3.835720e+003, 2.265387e-002
3.837649e+003, 2.476375e-002
3.839577e+003, 2.633766e-002
3.841506e+003, 2.604147e-002
3.843434e+003, 2.636631e-002
3.845363e+003, 2.575084e-002
3.847291e+003, 2.825818e-002
3.849219e+003, 3.184827e-002
3.851148e+003, 2.723173e-002
3.853076e+003, 2.342403e-002
3.855005e+003, 2.349988e-002
3.856933e+003, 2.586765e-002
3.858862e+003, 2.629433e-002
3.860790e+003, 2.424260e-002
3.862719e+003, 2.512506e-002
3.864647e+003, 2.671674e-002
3.866576e+003, 2.402522e-002
3.868504e+003, 2.266468e-002
3.870433e+003, 2.387630e-002
3.872361e+003, 2.382872e-002
3.874290e+003, 2.379320e-002
3.876218e+003, 2.574383e-002
3.878146e+003, 2.962351e-002
3.880075e+003, 2.994667e-002
3.882003e+003, 2.617556e-002
3.883932e+003, 2.254691e-002
3.885860e+003, 2.332084e-002
3.887789e+003, 2.624741e-002
3.889717e+003, 2.865985e-002
3.891646e+003, 2.571078e-002
3.893574e+003, 2.291683e-002
3.895503e+003, 2.284720e-002
3.897431e+003, 2.207398e-002
3.899360e+003, 2.072687e-002
3.901288e+003, 2.136757e-002
3.903217e+003, 2.261075e-002
3.905145e+003, 2.522345e-002
3.907073e+003, 2.718038e-002
3.909002e+003, 2.723184e-002
3.910930e+003, 2.455520e-002
3.912859e+003, 2.516367e-002
3.914787e+003, 2.508668e-002
3.916716e+003, 2.715687e-002
3.918644e+003, 2.574059e-002
3.920573e+003, 2.458266e-002
3.922501e+003, 2.442057e-002
3.924430e+003, 2.379307e-002
3.926358e+003, 2.611145e-002
3.928287e+003, 2.532629e-002
3.930215e+003, 2.434535e-002
3.932144e+003, 2.573297e-002
3.934072e+003, 2.437096e-002
3.936000e+003, 2.380543e-002
3.937929e+003, 2.502153e-002
3.939857e+003, 2.613826e-002
3.941786e+003, 2.676240e-002
3.943714e+003, 2.471556e-002
3.945643e+003, 2.421337e-002
3.947571e+003, 2.121910e-002
3.949500e+003, 1.938576e-002
3.951428e+003, 2.045408e-002
3.953357e+003, 2.398930e-002
3.955285e+003, 2.499218e-002
3.957214e+003, 2.434448e-002
3.959142e+003, 2.547330e-002
3.961071e+003, 2.460451e-002
3.962999e+003, 2.494780e-002
3.964927e+003, 2.681396e-002
3.966856e+003, 2.608343e-002
3.968784e+003, 2.422628e-002
3.970713e+003, 2.352996e-002
3.972641e+003, 2.084485e-002
3.974570e+003, 1.942824e-002
3.976498e+003, 2.223643e-002
3.978427e+003, 2.482840e-002
3.980355e+003, 2.682761e-002
3.982284e+003, 2.563612e-002
3.984212e+003, 2.451955e-002
3.986141e+003, 2.403623e-002
3.988069e+003, 2.536480e-002
3.989998e+003, 2.174901e-002
3.991926e+003, 2.149435e-002
3.993854e+003, 2.727803e-002
3.995783e+003, 2.822686e-002
3.997711e+003, 2.037868e-002
3.999640e+003, 2.047727e-002
4.001568e+003, 0.000000e+000
##END=



