##NAMES=Trona
##RRUFFID=R050499
##IDEAL CHEMISTRY=Na_3_(HCO_3_)(CO_3_)&#183;2H_2_O
##LOCALITY=Searles Lake, Trona, San Bernardino County, California, USA
##OWNER=RRUFF
##SOURCE=California Institute of Technology
##DESCRIPTION=Gray columnar massive
##STATUS=The identification of this mineral has been confirmed by X-ray diffraction and chemical analysis
##URL=rruff.info/R050499
##MEASURED CHEMISTRY=Na_3.00_(CO_3_)(HCO_3_)Â·2H_2_O ; CO_3_ and HCO_3_ were estimated by stoichiometry
3.953357e+002, 1.851948e-002
3.972641e+002, 2.089520e-002
3.991926e+002, 2.357393e-002
4.011211e+002, 2.157932e-002
4.030495e+002, 1.944430e-002
4.049780e+002, 2.000888e-002
4.069065e+002, 2.128595e-002
4.088349e+002, 2.205034e-002
4.107634e+002, 2.313344e-002
4.126919e+002, 2.208228e-002
4.146203e+002, 2.034269e-002
4.165488e+002, 2.081776e-002
4.184773e+002, 2.161200e-002
4.204057e+002, 2.197472e-002
4.223342e+002, 2.248605e-002
4.242627e+002, 2.236286e-002
4.261911e+002, 2.307914e-002
4.281196e+002, 2.383126e-002
4.300481e+002, 2.382327e-002
4.319765e+002, 2.416419e-002
4.339050e+002, 2.417927e-002
4.358335e+002, 2.427363e-002
4.377619e+002, 2.416760e-002
4.396904e+002, 2.487919e-002
4.416189e+002, 2.528537e-002
4.435473e+002, 2.584138e-002
4.454758e+002, 2.623436e-002
4.474043e+002, 2.609476e-002
4.493327e+002, 2.661013e-002
4.512612e+002, 2.728918e-002
4.531897e+002, 2.735000e-002
4.551181e+002, 2.737266e-002
4.570466e+002, 2.768490e-002
4.589751e+002, 2.840003e-002
4.609035e+002, 2.857923e-002
4.628320e+002, 2.871582e-002
4.647605e+002, 2.865512e-002
4.666889e+002, 2.894238e-002
4.686174e+002, 2.963607e-002
4.705459e+002, 3.045386e-002
4.724743e+002, 3.069061e-002
4.744028e+002, 3.076053e-002
4.763313e+002, 3.116330e-002
4.782597e+002, 3.180392e-002
4.801882e+002, 3.218718e-002
4.821167e+002, 3.254140e-002
4.840451e+002, 3.284237e-002
4.859736e+002, 3.322814e-002
4.879021e+002, 3.364222e-002
4.898305e+002, 3.402226e-002
4.917590e+002, 3.479926e-002
4.936875e+002, 3.524104e-002
4.956159e+002, 3.547408e-002
4.975444e+002, 3.582163e-002
4.994729e+002, 3.617506e-002
5.014013e+002, 3.689030e-002
5.033298e+002, 3.789937e-002
5.052583e+002, 3.870199e-002
5.071867e+002, 3.931801e-002
5.091152e+002, 3.959052e-002
5.110437e+002, 4.044103e-002
5.129721e+002, 4.138242e-002
5.149006e+002, 4.168359e-002
5.168290e+002, 4.228558e-002
5.187575e+002, 4.297645e-002
5.206860e+002, 4.354306e-002
5.226144e+002, 4.407343e-002
5.245429e+002, 4.494226e-002
5.264714e+002, 4.571873e-002
5.283998e+002, 4.653962e-002
5.303283e+002, 4.780075e-002
5.322568e+002, 4.890407e-002
5.341852e+002, 4.946835e-002
5.361137e+002, 5.022480e-002
5.380422e+002, 5.110201e-002
5.399706e+002, 5.182039e-002
5.418991e+002, 5.261642e-002
5.438276e+002, 5.325587e-002
5.457560e+002, 5.407563e-002
5.476845e+002, 5.550935e-002
5.496130e+002, 5.676406e-002
5.515414e+002, 5.789014e-002
5.534699e+002, 5.901671e-002
5.553984e+002, 5.976823e-002
5.573268e+002, 6.046518e-002
5.592553e+002, 6.135505e-002
5.611838e+002, 6.233742e-002
5.631122e+002, 6.337406e-002
5.650407e+002, 6.426255e-002
5.669692e+002, 6.496357e-002
5.688976e+002, 6.544855e-002
5.708261e+002, 6.592455e-002
5.727546e+002, 6.657788e-002
5.746830e+002, 6.722111e-002
5.766115e+002, 6.764506e-002
5.785400e+002, 6.797323e-002
5.804684e+002, 6.833815e-002
5.823969e+002, 6.856545e-002
5.843254e+002, 6.878556e-002
5.862538e+002, 6.881777e-002
5.881823e+002, 6.889427e-002
5.901108e+002, 6.881665e-002
5.920392e+002, 6.865370e-002
5.939677e+002, 6.837922e-002
5.958962e+002, 6.795718e-002
5.978246e+002, 6.750862e-002
5.997531e+002, 6.678230e-002
6.016816e+002, 6.590064e-002
6.036100e+002, 6.487626e-002
6.055385e+002, 6.375120e-002
6.074670e+002, 6.255480e-002
6.093954e+002, 6.109747e-002
6.113239e+002, 5.963729e-002
6.132524e+002, 5.806422e-002
6.151808e+002, 5.653958e-002
6.171093e+002, 5.503952e-002
6.190378e+002, 5.353843e-002
6.209662e+002, 5.212472e-002
6.228947e+002, 5.068149e-002
6.248232e+002, 4.960199e-002
6.267516e+002, 4.878134e-002
6.286801e+002, 4.788597e-002
6.306086e+002, 4.705342e-002
6.325370e+002, 4.648632e-002
6.344655e+002, 4.605296e-002
6.363940e+002, 4.591587e-002
6.383224e+002, 4.602081e-002
6.402509e+002, 4.566859e-002
6.421794e+002, 4.529442e-002
6.441078e+002, 4.535177e-002
6.460363e+002, 4.522007e-002
6.479648e+002, 4.506388e-002
6.498932e+002, 4.493177e-002
6.518217e+002, 4.461985e-002
6.537502e+002, 4.382894e-002
6.556786e+002, 4.288935e-002
6.576071e+002, 4.145424e-002
6.595356e+002, 3.942977e-002
6.614641e+002, 3.711491e-002
6.633925e+002, 3.478142e-002
6.653210e+002, 3.262047e-002
6.672495e+002, 3.101864e-002
6.691779e+002, 3.015378e-002
6.711064e+002, 2.986728e-002
6.730349e+002, 2.992286e-002
6.749633e+002, 3.009174e-002
6.768918e+002, 3.009194e-002
6.788203e+002, 2.980321e-002
6.807487e+002, 2.903968e-002
6.826772e+002, 2.797604e-002
6.846057e+002, 2.657396e-002
6.865341e+002, 2.467982e-002
6.884626e+002, 2.251810e-002
6.903911e+002, 2.004161e-002
6.923195e+002, 1.757461e-002
6.942480e+002, 1.524400e-002
6.961765e+002, 1.333381e-002
6.981049e+002, 1.194014e-002
7.000334e+002, 1.106881e-002
7.019619e+002, 1.073942e-002
7.038903e+002, 1.087671e-002
7.058188e+002, 1.145512e-002
7.077473e+002, 1.232546e-002
7.096757e+002, 1.322044e-002
7.116042e+002, 1.390272e-002
7.135327e+002, 1.449324e-002
7.154611e+002, 1.525098e-002
7.173896e+002, 1.584768e-002
7.193181e+002, 1.620552e-002
7.212465e+002, 1.652498e-002
7.231750e+002, 1.691795e-002
7.251035e+002, 1.725116e-002
7.270319e+002, 1.740378e-002
7.289604e+002, 1.765028e-002
7.308889e+002, 1.787424e-002
7.328173e+002, 1.811408e-002
7.347458e+002, 1.852580e-002
7.366743e+002, 1.893678e-002
7.386027e+002, 1.946041e-002
7.405312e+002, 1.991981e-002
7.424597e+002, 2.030530e-002
7.443881e+002, 2.066472e-002
7.463166e+002, 2.089786e-002
7.482451e+002, 2.131792e-002
7.501735e+002, 2.215022e-002
7.521020e+002, 2.269406e-002
7.540305e+002, 2.309897e-002
7.559589e+002, 2.362892e-002
7.578874e+002, 2.394903e-002
7.598159e+002, 2.444370e-002
7.617443e+002, 2.489496e-002
7.636728e+002, 2.536651e-002
7.656013e+002, 2.596262e-002
7.675297e+002, 2.667617e-002
7.694582e+002, 2.735985e-002
7.713867e+002, 2.795481e-002
7.733151e+002, 2.848163e-002
7.752436e+002, 2.917438e-002
7.771721e+002, 2.981141e-002
7.791005e+002, 3.033517e-002
7.810290e+002, 3.074294e-002
7.829575e+002, 3.117591e-002
7.848859e+002, 3.174166e-002
7.868144e+002, 3.217078e-002
7.887429e+002, 3.240235e-002
7.906713e+002, 3.264867e-002
7.925998e+002, 3.294746e-002
7.945283e+002, 3.312654e-002
7.964567e+002, 3.333714e-002
7.983852e+002, 3.336640e-002
8.003137e+002, 3.335365e-002
8.022421e+002, 3.339877e-002
8.041706e+002, 3.352216e-002
8.060991e+002, 3.364057e-002
8.080275e+002, 3.379744e-002
8.099560e+002, 3.404051e-002
8.118845e+002, 3.408097e-002
8.138129e+002, 3.397536e-002
8.157414e+002, 3.417955e-002
8.176699e+002, 3.447124e-002
8.195983e+002, 3.476283e-002
8.215268e+002, 3.503528e-002
8.234553e+002, 3.530320e-002
8.253837e+002, 3.559037e-002
8.273122e+002, 3.610479e-002
8.292407e+002, 3.685322e-002
8.311691e+002, 3.750185e-002
8.330976e+002, 3.813357e-002
8.350261e+002, 3.916083e-002
8.369545e+002, 4.031743e-002
8.388830e+002, 4.192634e-002
8.408115e+002, 4.444339e-002
8.427399e+002, 4.814231e-002
8.446684e+002, 5.351172e-002
8.465969e+002, 6.051468e-002
8.485253e+002, 6.604194e-002
8.504538e+002, 6.547151e-002
8.523823e+002, 5.855590e-002
8.543107e+002, 4.944955e-002
8.562392e+002, 4.186298e-002
8.581677e+002, 3.697716e-002
8.600961e+002, 3.398792e-002
8.620246e+002, 3.233756e-002
8.639531e+002, 3.141298e-002
8.658815e+002, 3.086391e-002
8.678100e+002, 3.074702e-002
8.697385e+002, 3.070120e-002
8.716669e+002, 3.050092e-002
8.735954e+002, 3.050135e-002
8.755239e+002, 3.065248e-002
8.774523e+002, 3.059350e-002
8.793808e+002, 3.044639e-002
8.813093e+002, 3.042885e-002
8.832377e+002, 3.050362e-002
8.851662e+002, 3.059220e-002
8.870947e+002, 3.063198e-002
8.890231e+002, 3.064073e-002
8.909516e+002, 3.057237e-002
8.928801e+002, 3.052042e-002
8.948085e+002, 3.057636e-002
8.967370e+002, 3.063932e-002
8.986655e+002, 3.073701e-002
9.005939e+002, 3.087840e-002
9.025224e+002, 3.083762e-002
9.044509e+002, 3.073492e-002
9.063793e+002, 3.088350e-002
9.083078e+002, 3.096868e-002
9.102363e+002, 3.102308e-002
9.121647e+002, 3.113962e-002
9.140932e+002, 3.116458e-002
9.160217e+002, 3.116311e-002
9.179501e+002, 3.120090e-002
9.198786e+002, 3.115413e-002
9.218071e+002, 3.123391e-002
9.237355e+002, 3.141038e-002
9.256640e+002, 3.142068e-002
9.275925e+002, 3.146629e-002
9.295209e+002, 3.160135e-002
9.314494e+002, 3.163289e-002
9.333779e+002, 3.166827e-002
9.353063e+002, 3.169397e-002
9.372348e+002, 3.190637e-002
9.391633e+002, 3.204710e-002
9.410917e+002, 3.207005e-002
9.430202e+002, 3.214082e-002
9.449487e+002, 3.223112e-002
9.468771e+002, 3.226966e-002
9.488056e+002, 3.223157e-002
9.507341e+002, 3.237910e-002
9.526625e+002, 3.250290e-002
9.545910e+002, 3.251333e-002
9.565195e+002, 3.268715e-002
9.584479e+002, 3.290791e-002
9.603764e+002, 3.288534e-002
9.623049e+002, 3.293649e-002
9.642333e+002, 3.303606e-002
9.661618e+002, 3.320653e-002
9.680903e+002, 3.320708e-002
9.700187e+002, 3.323841e-002
9.719472e+002, 3.329922e-002
9.738757e+002, 3.330205e-002
9.758041e+002, 3.335871e-002
9.777326e+002, 3.348397e-002
9.796611e+002, 3.347959e-002
9.815895e+002, 3.348202e-002
9.835180e+002, 3.359587e-002
9.854465e+002, 3.353810e-002
9.873749e+002, 3.354347e-002
9.893034e+002, 3.373379e-002
9.912319e+002, 3.371029e-002
9.931603e+002, 3.361939e-002
9.950888e+002, 3.357871e-002
9.970173e+002, 3.358177e-002
9.989457e+002, 3.373268e-002
1.000874e+003, 3.380163e-002
1.002803e+003, 3.359671e-002
1.004731e+003, 3.345881e-002
1.006660e+003, 3.334982e-002
1.008588e+003, 3.338384e-002
1.010517e+003, 3.348774e-002
1.012445e+003, 3.347675e-002
1.014373e+003, 3.349452e-002
1.016302e+003, 3.341849e-002
1.018230e+003, 3.319197e-002
1.020159e+003, 3.312147e-002
1.022087e+003, 3.305900e-002
1.024016e+003, 3.291290e-002
1.025944e+003, 3.283637e-002
1.027873e+003, 3.274187e-002
1.029801e+003, 3.259939e-002
1.031730e+003, 3.231378e-002
1.033658e+003, 3.196131e-002
1.035587e+003, 3.158398e-002
1.037515e+003, 3.119170e-002
1.039443e+003, 3.081121e-002
1.041372e+003, 3.012561e-002
1.043300e+003, 2.898020e-002
1.045229e+003, 2.771345e-002
1.047157e+003, 2.654818e-002
1.049086e+003, 2.680189e-002
1.051014e+003, 2.939949e-002
1.052943e+003, 3.292510e-002
1.054871e+003, 3.560724e-002
1.056800e+003, 3.676381e-002
1.058728e+003, 3.696420e-002
1.060657e+003, 3.687836e-002
1.062585e+003, 3.679605e-002
1.064514e+003, 3.667032e-002
1.066442e+003, 3.656639e-002
1.068370e+003, 3.651085e-002
1.070299e+003, 3.636089e-002
1.072227e+003, 3.611359e-002
1.074156e+003, 3.607927e-002
1.076084e+003, 3.602766e-002
1.078013e+003, 3.593991e-002
1.079941e+003, 3.595488e-002
1.081870e+003, 3.586989e-002
1.083798e+003, 3.569485e-002
1.085727e+003, 3.553960e-002
1.087655e+003, 3.555937e-002
1.089584e+003, 3.564634e-002
1.091512e+003, 3.566051e-002
1.093441e+003, 3.573567e-002
1.095369e+003, 3.568396e-002
1.097297e+003, 3.554558e-002
1.099226e+003, 3.550518e-002
1.101154e+003, 3.538941e-002
1.103083e+003, 3.527230e-002
1.105011e+003, 3.544418e-002
1.106940e+003, 3.551837e-002
1.108868e+003, 3.551030e-002
1.110797e+003, 3.539972e-002
1.112725e+003, 3.537475e-002
1.114654e+003, 3.547013e-002
1.116582e+003, 3.559721e-002
1.118511e+003, 3.546875e-002
1.120439e+003, 3.533160e-002
1.122368e+003, 3.535382e-002
1.124296e+003, 3.546256e-002
1.126224e+003, 3.548926e-002
1.128153e+003, 3.541733e-002
1.130081e+003, 3.539132e-002
1.132010e+003, 3.547701e-002
1.133938e+003, 3.548563e-002
1.135867e+003, 3.545848e-002
1.137795e+003, 3.554317e-002
1.139724e+003, 3.571532e-002
1.141652e+003, 3.581509e-002
1.143581e+003, 3.586755e-002
1.145509e+003, 3.591440e-002
1.147438e+003, 3.606822e-002
1.149366e+003, 3.622803e-002
1.151295e+003, 3.634676e-002
1.153223e+003, 3.648838e-002
1.155151e+003, 3.652682e-002
1.157080e+003, 3.654136e-002
1.159008e+003, 3.680002e-002
1.160937e+003, 3.715398e-002
1.162865e+003, 3.733544e-002
1.164794e+003, 3.731037e-002
1.166722e+003, 3.739456e-002
1.168651e+003, 3.763340e-002
1.170579e+003, 3.776319e-002
1.172508e+003, 3.790293e-002
1.174436e+003, 3.801645e-002
1.176365e+003, 3.795777e-002
1.178293e+003, 3.790045e-002
1.180222e+003, 3.789543e-002
1.182150e+003, 3.795287e-002
1.184078e+003, 3.783473e-002
1.186007e+003, 3.772414e-002
1.187935e+003, 3.762253e-002
1.189864e+003, 3.747026e-002
1.191792e+003, 3.734204e-002
1.193721e+003, 3.719097e-002
1.195649e+003, 3.684997e-002
1.197578e+003, 3.656596e-002
1.199506e+003, 3.631547e-002
1.201435e+003, 3.595912e-002
1.203363e+003, 3.556305e-002
1.205292e+003, 3.535965e-002
1.207220e+003, 3.519635e-002
1.209149e+003, 3.495518e-002
1.211077e+003, 3.449373e-002
1.213005e+003, 3.410571e-002
1.214934e+003, 3.384672e-002
1.216862e+003, 3.354681e-002
1.218791e+003, 3.320232e-002
1.220719e+003, 3.286337e-002
1.222648e+003, 3.254936e-002
1.224576e+003, 3.221241e-002
1.226505e+003, 3.196945e-002
1.228433e+003, 3.171602e-002
1.230362e+003, 3.127708e-002
1.232290e+003, 3.090609e-002
1.234219e+003, 3.062754e-002
1.236147e+003, 3.049875e-002
1.238076e+003, 3.032038e-002
1.240004e+003, 3.008366e-002
1.241932e+003, 2.986499e-002
1.243861e+003, 2.964333e-002
1.245789e+003, 2.941447e-002
1.247718e+003, 2.919354e-002
1.249646e+003, 2.896283e-002
1.251575e+003, 2.878209e-002
1.253503e+003, 2.859058e-002
1.255432e+003, 2.836485e-002
1.257360e+003, 2.804198e-002
1.259289e+003, 2.775808e-002
1.261217e+003, 2.766085e-002
1.263146e+003, 2.761867e-002
1.265074e+003, 2.756087e-002
1.267003e+003, 2.736437e-002
1.268931e+003, 2.716300e-002
1.270859e+003, 2.701366e-002
1.272788e+003, 2.687263e-002
1.274716e+003, 2.676408e-002
1.276645e+003, 2.667979e-002
1.278573e+003, 2.653059e-002
1.280502e+003, 2.642643e-002
1.282430e+003, 2.639249e-002
1.284359e+003, 2.623536e-002
1.286287e+003, 2.593652e-002
1.288216e+003, 2.581286e-002
1.290144e+003, 2.578728e-002
1.292073e+003, 2.568427e-002
1.294001e+003, 2.566746e-002
1.295930e+003, 2.556568e-002
1.297858e+003, 2.548359e-002
1.299786e+003, 2.545550e-002
1.301715e+003, 2.534418e-002
1.303643e+003, 2.526673e-002
1.305572e+003, 2.520813e-002
1.307500e+003, 2.512763e-002
1.309429e+003, 2.513540e-002
1.311357e+003, 2.519904e-002
1.313286e+003, 2.513419e-002
1.315214e+003, 2.503277e-002
1.317143e+003, 2.501231e-002
1.319071e+003, 2.497127e-002
1.321000e+003, 2.489268e-002
1.322928e+003, 2.474774e-002
1.324857e+003, 2.464081e-002
1.326785e+003, 2.464098e-002
1.328714e+003, 2.465673e-002
1.330642e+003, 2.459034e-002
1.332570e+003, 2.455665e-002
1.334499e+003, 2.453269e-002
1.336427e+003, 2.444547e-002
1.338356e+003, 2.443330e-002
1.340284e+003, 2.446717e-002
1.342213e+003, 2.439080e-002
1.344141e+003, 2.436349e-002
1.346070e+003, 2.438902e-002
1.347998e+003, 2.440190e-002
1.349927e+003, 2.443790e-002
1.351855e+003, 2.454245e-002
1.353784e+003, 2.458387e-002
1.355712e+003, 2.459708e-002
1.357641e+003, 2.445449e-002
1.359569e+003, 2.447519e-002
1.361497e+003, 2.462156e-002
1.363426e+003, 2.467905e-002
1.365354e+003, 2.452648e-002
1.367283e+003, 2.437443e-002
1.369211e+003, 2.442645e-002
1.371140e+003, 2.450181e-002
1.373068e+003, 2.447272e-002
1.374997e+003, 2.449638e-002
1.376925e+003, 2.453745e-002
1.378854e+003, 2.467979e-002
1.380782e+003, 2.482808e-002
1.382711e+003, 2.499191e-002
1.384639e+003, 2.515554e-002
1.386568e+003, 2.541027e-002
1.388496e+003, 2.550504e-002
1.390424e+003, 2.545441e-002
1.392353e+003, 2.559565e-002
1.394281e+003, 2.599427e-002
1.396210e+003, 2.620547e-002
1.398138e+003, 2.634045e-002
1.400067e+003, 2.650505e-002
1.401995e+003, 2.661519e-002
1.403924e+003, 2.692294e-002
1.405852e+003, 2.732551e-002
1.407781e+003, 2.770447e-002
1.409709e+003, 2.805526e-002
1.411638e+003, 2.832996e-002
1.413566e+003, 2.876872e-002
1.415495e+003, 2.939443e-002
1.417423e+003, 3.005065e-002
1.419351e+003, 3.063720e-002
1.421280e+003, 3.105886e-002
1.423208e+003, 3.163533e-002
1.425137e+003, 3.227414e-002
1.427065e+003, 3.284250e-002
1.428994e+003, 3.356813e-002
1.430922e+003, 3.435643e-002
1.432851e+003, 3.512537e-002
1.434779e+003, 3.613625e-002
1.436708e+003, 3.712463e-002
1.438636e+003, 3.787179e-002
1.440565e+003, 3.865170e-002
1.442493e+003, 3.957532e-002
1.444422e+003, 4.053327e-002
1.446350e+003, 4.128801e-002
1.448278e+003, 4.198804e-002
1.450207e+003, 4.267986e-002
1.452135e+003, 4.318118e-002
1.454064e+003, 4.359123e-002
1.455992e+003, 4.432175e-002
1.457921e+003, 4.446453e-002
1.459849e+003, 4.395945e-002
1.461778e+003, 4.349487e-002
1.463706e+003, 4.314673e-002
1.465635e+003, 4.254800e-002
1.467563e+003, 4.158283e-002
1.469492e+003, 4.057982e-002
1.471420e+003, 3.961354e-002
1.473349e+003, 3.830531e-002
1.475277e+003, 3.678780e-002
1.477205e+003, 3.519203e-002
1.479134e+003, 3.351537e-002
1.481062e+003, 3.198787e-002
1.482991e+003, 3.051096e-002
1.484919e+003, 2.900840e-002
1.486848e+003, 2.769622e-002
1.488776e+003, 2.629438e-002
1.490705e+003, 2.474640e-002
1.492633e+003, 2.336567e-002
1.494562e+003, 2.241116e-002
1.496490e+003, 2.152321e-002
1.498419e+003, 2.036791e-002
1.500347e+003, 1.928211e-002
1.502276e+003, 1.846879e-002
1.504204e+003, 1.810621e-002
1.506132e+003, 1.796422e-002
1.508061e+003, 1.710007e-002
1.509989e+003, 1.625413e-002
1.511918e+003, 1.588548e-002
1.513846e+003, 1.549768e-002
1.515775e+003, 1.501023e-002
1.517703e+003, 1.468419e-002
1.519632e+003, 1.455030e-002
1.521560e+003, 1.437673e-002
1.523489e+003, 1.390585e-002
1.525417e+003, 1.363749e-002
1.527346e+003, 1.342115e-002
1.529274e+003, 1.310331e-002
1.531203e+003, 1.284630e-002
1.533131e+003, 1.278933e-002
1.535059e+003, 1.259778e-002
1.536988e+003, 1.252230e-002
1.538916e+003, 1.271524e-002
1.540845e+003, 1.243296e-002
1.542773e+003, 1.197576e-002
1.544702e+003, 1.177837e-002
1.546630e+003, 1.147166e-002
1.548559e+003, 1.127840e-002
1.550487e+003, 1.128756e-002
1.552416e+003, 1.113700e-002
1.554344e+003, 1.105050e-002
1.556273e+003, 1.116258e-002
1.558201e+003, 1.149497e-002
1.560130e+003, 1.126053e-002
1.562058e+003, 1.041252e-002
1.563986e+003, 1.005979e-002
1.565915e+003, 9.964606e-003
1.567843e+003, 9.833385e-003
1.569772e+003, 9.807207e-003
1.571700e+003, 9.586085e-003
1.573629e+003, 9.449518e-003
1.575557e+003, 9.744636e-003
1.577486e+003, 9.719011e-003
1.579414e+003, 9.550165e-003
1.581343e+003, 9.547571e-003
1.583271e+003, 9.416972e-003
1.585200e+003, 9.337380e-003
1.587128e+003, 9.359383e-003
1.589057e+003, 9.415672e-003
1.590985e+003, 9.707588e-003
1.592913e+003, 9.938559e-003
1.594842e+003, 9.984350e-003
1.596770e+003, 1.011998e-002
1.598699e+003, 1.038050e-002
1.600627e+003, 1.062872e-002
1.602556e+003, 1.087754e-002
1.604484e+003, 1.126915e-002
1.606413e+003, 1.163687e-002
1.608341e+003, 1.180370e-002
1.610270e+003, 1.206842e-002
1.612198e+003, 1.252576e-002
1.614127e+003, 1.307539e-002
1.616055e+003, 1.369909e-002
1.617984e+003, 1.384614e-002
1.619912e+003, 1.404248e-002
1.621840e+003, 1.450425e-002
1.623769e+003, 1.483394e-002
1.625697e+003, 1.518053e-002
1.627626e+003, 1.571401e-002
1.629554e+003, 1.610331e-002
1.631483e+003, 1.636965e-002
1.633411e+003, 1.694694e-002
1.635340e+003, 1.754682e-002
1.637268e+003, 1.759052e-002
1.639197e+003, 1.774530e-002
1.641125e+003, 1.813531e-002
1.643054e+003, 1.861192e-002
1.644982e+003, 1.926061e-002
1.646911e+003, 1.959320e-002
1.648839e+003, 1.974327e-002
1.650767e+003, 2.037901e-002
1.652696e+003, 2.127715e-002
1.654624e+003, 2.118185e-002
1.656553e+003, 2.093168e-002
1.658481e+003, 2.120913e-002
1.660410e+003, 2.165086e-002
1.662338e+003, 2.198239e-002
1.664267e+003, 2.226954e-002
1.666195e+003, 2.270943e-002
1.668124e+003, 2.347608e-002
1.670052e+003, 2.407220e-002
1.671981e+003, 2.453983e-002
1.673909e+003, 2.522254e-002
1.675838e+003, 2.573476e-002
1.677766e+003, 2.575440e-002
1.679694e+003, 2.612546e-002
1.681623e+003, 2.672675e-002
1.683551e+003, 2.738152e-002
1.685480e+003, 2.744175e-002
1.687408e+003, 2.710917e-002
1.689337e+003, 2.694048e-002
1.691265e+003, 2.673536e-002
1.693194e+003, 2.662075e-002
1.695122e+003, 2.668285e-002
1.697051e+003, 2.622232e-002
1.698979e+003, 2.595538e-002
1.700908e+003, 2.577524e-002
1.702836e+003, 2.486383e-002
1.704765e+003, 2.439380e-002
1.706693e+003, 2.407730e-002
1.708621e+003, 2.350272e-002
1.710550e+003, 2.299702e-002
1.712478e+003, 2.267579e-002
1.714407e+003, 2.235249e-002
1.716335e+003, 2.238987e-002
1.718264e+003, 2.186843e-002
1.720192e+003, 2.101916e-002
1.722121e+003, 2.067706e-002
1.724049e+003, 2.040599e-002
1.725978e+003, 2.001150e-002
1.727906e+003, 1.970082e-002
1.729835e+003, 1.945812e-002
1.731763e+003, 1.937065e-002
1.733692e+003, 1.927522e-002
1.735620e+003, 1.850896e-002
1.737548e+003, 1.783649e-002
1.739477e+003, 1.758327e-002
1.741405e+003, 1.726096e-002
1.743334e+003, 1.680655e-002
1.745262e+003, 1.640039e-002
1.747191e+003, 1.609504e-002
1.749119e+003, 1.563008e-002
1.751048e+003, 1.523018e-002
1.752976e+003, 1.485483e-002
1.754905e+003, 1.451668e-002
1.756833e+003, 1.430786e-002
1.758762e+003, 1.389920e-002
1.760690e+003, 1.364043e-002
1.762619e+003, 1.356178e-002
1.764547e+003, 1.322320e-002
1.766475e+003, 1.287812e-002
1.768404e+003, 1.265429e-002
1.770332e+003, 1.233410e-002
1.772261e+003, 1.221621e-002
1.774189e+003, 1.184741e-002
1.776118e+003, 1.156708e-002
1.778046e+003, 1.136808e-002
1.779975e+003, 1.110993e-002
1.781903e+003, 1.086577e-002
1.783832e+003, 1.057447e-002
1.785760e+003, 1.036160e-002
1.787689e+003, 1.027289e-002
1.789617e+003, 1.016742e-002
1.791546e+003, 1.015696e-002
1.793474e+003, 1.011594e-002
1.795402e+003, 9.832107e-003
1.797331e+003, 9.403327e-003
1.799259e+003, 9.207385e-003
1.801188e+003, 9.084163e-003
1.803116e+003, 8.818442e-003
1.805045e+003, 8.587420e-003
1.806973e+003, 8.338713e-003
1.808902e+003, 8.184134e-003
1.810830e+003, 8.348688e-003
1.812759e+003, 8.169479e-003
1.814687e+003, 7.900745e-003
1.816616e+003, 7.761658e-003
1.818544e+003, 7.716656e-003
1.820473e+003, 7.738666e-003
1.822401e+003, 7.618579e-003
1.824329e+003, 7.509470e-003
1.826258e+003, 7.308152e-003
1.828186e+003, 7.256442e-003
1.830115e+003, 7.288698e-003
1.832043e+003, 7.136808e-003
1.833972e+003, 6.651320e-003
1.835900e+003, 6.174792e-003
1.837829e+003, 6.259650e-003
1.839757e+003, 6.651284e-003
1.841686e+003, 6.680280e-003
1.843614e+003, 6.675942e-003
1.845543e+003, 6.421462e-003
1.847471e+003, 5.870359e-003
1.849400e+003, 6.068361e-003
1.851328e+003, 6.365978e-003
1.853256e+003, 6.120125e-003
1.855185e+003, 5.778841e-003
1.857113e+003, 5.649568e-003
1.859042e+003, 5.480407e-003
1.860970e+003, 5.197035e-003
1.862899e+003, 5.225658e-003
1.864827e+003, 5.370573e-003
1.866756e+003, 5.411000e-003
1.868684e+003, 5.440957e-003
1.870613e+003, 5.364590e-003
1.872541e+003, 5.341333e-003
1.874470e+003, 5.123868e-003
1.876398e+003, 4.873967e-003
1.878327e+003, 4.638613e-003
1.880255e+003, 4.627319e-003
1.882183e+003, 4.412934e-003
1.884112e+003, 4.248015e-003
1.886040e+003, 4.151510e-003
1.887969e+003, 4.390918e-003
1.889897e+003, 4.517323e-003
1.891826e+003, 4.573816e-003
1.893754e+003, 4.838161e-003
1.895683e+003, 4.939826e-003
1.897611e+003, 4.420877e-003
1.899540e+003, 3.952012e-003
1.901468e+003, 3.864980e-003
1.903397e+003, 3.886041e-003
1.905325e+003, 4.332514e-003
1.907254e+003, 4.615917e-003
1.909182e+003, 3.989354e-003
1.911110e+003, 3.595156e-003
1.913039e+003, 4.410607e-003
1.914967e+003, 4.824698e-003
1.916896e+003, 4.500233e-003
1.918824e+003, 4.219090e-003
1.920753e+003, 4.067027e-003
1.922681e+003, 3.938909e-003
1.924610e+003, 3.410130e-003
1.926538e+003, 3.524723e-003
1.928467e+003, 3.771193e-003
1.930395e+003, 3.535575e-003
1.932324e+003, 3.632708e-003
1.934252e+003, 3.796399e-003
1.936181e+003, 3.534246e-003
1.938109e+003, 3.592758e-003
1.940037e+003, 3.933227e-003
1.941966e+003, 3.831160e-003
1.943894e+003, 3.506043e-003
1.945823e+003, 3.325186e-003
1.947751e+003, 3.081589e-003
1.949680e+003, 3.057331e-003
1.951608e+003, 3.213459e-003
1.953537e+003, 3.811786e-003
1.955465e+003, 3.763664e-003
1.957394e+003, 3.514042e-003
1.959322e+003, 3.556454e-003
1.961251e+003, 3.148565e-003
1.963179e+003, 2.650599e-003
1.965108e+003, 2.907472e-003
1.967036e+003, 2.829655e-003
1.968964e+003, 3.060837e-003
1.970893e+003, 3.079635e-003
1.972821e+003, 3.627279e-003
1.974750e+003, 4.543435e-003
1.976678e+003, 4.328331e-003
1.978607e+003, 3.432502e-003
1.980535e+003, 2.747311e-003
1.982464e+003, 2.302528e-003
1.984392e+003, 3.507427e-003
1.986321e+003, 3.502755e-003
1.988249e+003, 2.135407e-003
1.990178e+003, 1.637153e-003
1.992106e+003, 2.471509e-003
1.994035e+003, 3.026939e-003
1.995963e+003, 2.724869e-003
1.997891e+003, 1.908393e-003
1.999820e+003, 1.595184e-003
2.001748e+003, 2.302179e-003
2.003677e+003, 2.069066e-003
2.005605e+003, 9.911812e-004
2.007534e+003, 1.111995e-003
2.009462e+003, 1.307364e-003
2.011391e+003, 1.089776e-003
2.013319e+003, 2.031423e-003
2.015248e+003, 3.727233e-003
2.017176e+003, 3.854473e-003
2.019105e+003, 3.039627e-003
2.021033e+003, 2.450120e-003
2.022962e+003, 2.676113e-003
2.024890e+003, 2.690545e-003
2.026818e+003, 2.438043e-003
2.028747e+003, 2.976089e-003
2.030675e+003, 2.794296e-003
2.032604e+003, 2.443105e-003
2.034532e+003, 1.817807e-003
2.036461e+003, 1.229375e-003
2.038389e+003, 1.904410e-003
2.040318e+003, 2.004416e-003
2.042246e+003, 1.244989e-003
2.044175e+003, 4.072819e-004
2.046103e+003, 4.666926e-004
2.048031e+003, 1.073433e-004
2.049960e+003, -1.742414e-004
2.051888e+003, 1.270439e-003
2.053817e+003, 2.136880e-003
2.055745e+003, 1.787218e-003
2.057674e+003, 1.307808e-003
2.059602e+003, 1.151126e-003
2.061531e+003, 1.937259e-003
2.063459e+003, 2.173004e-003
2.065388e+003, 8.229566e-004
2.067316e+003, -4.350307e-004
2.069245e+003, -2.217003e-004
2.071173e+003, 1.831914e-004
2.073102e+003, 2.717515e-004
2.075030e+003, 6.954762e-004
2.076958e+003, 6.497262e-004
2.078887e+003, 3.985009e-004
2.080815e+003, 5.203841e-004
2.082744e+003, 5.972489e-004
2.084672e+003, 1.025335e-003
2.086601e+003, 8.896805e-004
2.088529e+003, 6.753636e-004
2.090458e+003, 1.067373e-003
2.092386e+003, 1.291723e-003
2.094315e+003, 1.129014e-003
2.096243e+003, 1.043252e-003
2.098172e+003, 9.723333e-004
2.100100e+003, 9.343702e-004
2.102029e+003, 9.799342e-004
2.103957e+003, 8.844497e-004
2.105885e+003, 1.278431e-003
2.107814e+003, 1.348472e-003
2.109742e+003, 4.548841e-004
2.111671e+003, 1.851219e-004
2.113599e+003, 4.184333e-004
2.115528e+003, 9.093573e-005
2.117456e+003, 2.269573e-004
2.119385e+003, 6.924208e-004
2.121313e+003, 8.891750e-004
2.123242e+003, 9.291512e-004
2.125170e+003, 4.015336e-004
2.127099e+003, 1.562031e-004
2.129027e+003, 9.542031e-004
2.130956e+003, 1.452683e-003
2.132884e+003, 1.607087e-003
2.134813e+003, 8.533431e-004
2.136741e+003, 2.478650e-004
2.138669e+003, -1.202978e-005
2.140598e+003, 4.411462e-004
2.142526e+003, 1.695240e-003
2.144455e+003, 1.445090e-003
2.146383e+003, 6.475922e-004
2.148312e+003, 3.910940e-004
2.150240e+003, 1.808356e-004
2.152169e+003, 3.536653e-004
2.154097e+003, 9.119876e-004
2.156026e+003, 1.953706e-003
2.157954e+003, 1.218770e-003
2.159883e+003, -7.309646e-004
2.161811e+003, -9.597111e-004
2.163740e+003, 4.637400e-004
2.165668e+003, 1.180288e-003
2.167596e+003, 3.273662e-004
2.169525e+003, 2.700360e-004
2.171453e+003, 4.779408e-005
2.173382e+003, -8.036662e-005
2.175310e+003, 3.688275e-004
2.177239e+003, 4.056955e-004
2.179167e+003, 7.488686e-004
2.181096e+003, 8.720275e-004
2.183024e+003, 4.266226e-004
2.184953e+003, -4.215725e-004
2.186881e+003, -9.761555e-004
2.188810e+003, -5.735776e-004
2.190738e+003, -8.810428e-004
2.192667e+003, -1.060986e-003
2.194595e+003, -7.807796e-004
2.196523e+003, -1.224580e-004
2.198452e+003, -4.213962e-004
2.200380e+003, -5.942588e-004
2.202309e+003, -5.221879e-005
2.204237e+003, -2.078940e-004
2.206166e+003, -7.704875e-004
2.208094e+003, -1.117123e-003
2.210023e+003, -2.331310e-005
2.211951e+003, 6.631629e-004
2.213880e+003, -3.222607e-004
2.215808e+003, -5.991166e-004
2.217737e+003, -5.399424e-005
2.219665e+003, 9.702372e-004
2.221594e+003, 9.850126e-004
2.223522e+003, 3.432047e-004
2.225450e+003, 1.458337e-004
2.227379e+003, 1.250848e-004
2.229307e+003, -1.030524e-004
2.231236e+003, -5.434990e-004
2.233164e+003, -2.395253e-004
2.235093e+003, 4.813089e-004
2.237021e+003, 9.330104e-004
2.238950e+003, 8.250680e-004
2.240878e+003, 5.973461e-004
2.242807e+003, 8.869126e-004
2.244735e+003, 8.756543e-004
2.246664e+003, 1.647817e-004
2.248592e+003, 1.662039e-004
2.250521e+003, 6.956918e-004
2.252449e+003, 4.680481e-004
2.254377e+003, 1.678861e-004
2.256306e+003, 4.690821e-004
2.258234e+003, 4.717416e-004
2.260163e+003, 2.210310e-004
2.262091e+003, 2.846770e-004
2.264020e+003, -4.304980e-005
2.265948e+003, -4.891329e-005
2.267877e+003, -4.257250e-005
2.269805e+003, 3.279652e-005
2.271734e+003, -1.041889e-004
2.273662e+003, 4.886558e-004
2.275591e+003, 9.194500e-004
2.277519e+003, 5.142037e-004
2.279448e+003, -1.613445e-004
2.281376e+003, -1.950272e-004
2.283304e+003, -2.090587e-004
2.285233e+003, 1.406097e-004
2.287161e+003, 2.354566e-004
2.289090e+003, 1.026636e-004
2.291018e+003, 3.359698e-004
2.292947e+003, 5.494370e-004
2.294875e+003, 5.050307e-004
2.296804e+003, 2.277092e-004
2.298732e+003, -5.222990e-005
2.300661e+003, -5.034274e-005
2.302589e+003, 1.310589e-004
2.304518e+003, 3.046377e-004
2.306446e+003, 3.870988e-004
2.308375e+003, 2.966171e-004
2.310303e+003, 3.018239e-004
2.312231e+003, 2.108898e-004
2.314160e+003, 1.008283e-004
2.316088e+003, 1.030745e-004
2.318017e+003, 2.145779e-004
2.319945e+003, 1.389310e-004
2.321874e+003, -2.274464e-006
2.323802e+003, 9.745741e-005
2.325731e+003, 5.174737e-004
2.327659e+003, 9.045750e-004
2.329588e+003, 1.137377e-003
2.331516e+003, 1.019380e-003
2.333445e+003, 7.780961e-004
2.335373e+003, 9.654870e-004
2.337302e+003, 1.157492e-003
2.339230e+003, 1.280018e-003
2.341158e+003, 1.132421e-003
2.343087e+003, 9.720236e-004
2.345015e+003, 1.008554e-003
2.346944e+003, 9.604758e-004
2.348872e+003, 6.140592e-004
2.350801e+003, 7.312531e-004
2.352729e+003, 9.927180e-004
2.354658e+003, 1.188505e-003
2.356586e+003, 1.134854e-003
2.358515e+003, 1.133999e-003
2.360443e+003, 1.421349e-003
2.362372e+003, 1.409927e-003
2.364300e+003, 1.429496e-003
2.366229e+003, 1.423928e-003
2.368157e+003, 1.324203e-003
2.370085e+003, 1.142203e-003
2.372014e+003, 8.461180e-004
2.373942e+003, 8.513962e-004
2.375871e+003, 8.980717e-004
2.377799e+003, 6.466599e-004
2.379728e+003, 3.728506e-004
2.381656e+003, 2.450764e-004
2.383585e+003, 3.579566e-004
2.385513e+003, 5.108361e-004
2.387442e+003, 3.308537e-004
2.389370e+003, 2.398843e-004
2.391299e+003, 3.518056e-004
2.393227e+003, 1.808043e-004
2.395156e+003, 5.484813e-005
2.397084e+003, -7.966238e-005
2.399012e+003, -3.064357e-004
2.400941e+003, -4.224415e-004
2.402869e+003, -6.603365e-004
2.404798e+003, -5.230051e-004
2.406726e+003, -3.805625e-004
2.408655e+003, -4.069521e-004
2.410583e+003, -1.992860e-004
2.412512e+003, -2.443157e-004
2.414440e+003, -2.956637e-004
2.416369e+003, -2.849554e-004
2.418297e+003, -3.831093e-004
2.420226e+003, -4.977844e-004
2.422154e+003, -4.304748e-004
2.424083e+003, -1.960937e-004
2.426011e+003, -4.105625e-004
2.427939e+003, -1.618568e-004
2.429868e+003, 4.245665e-004
2.431796e+003, 4.944452e-004
2.433725e+003, -1.443966e-005
2.435653e+003, -4.138823e-004
2.437582e+003, -3.429488e-004
2.439510e+003, -2.476620e-004
2.441439e+003, -3.990423e-004
2.443367e+003, -3.224890e-005
2.445296e+003, 3.914918e-004
2.447224e+003, -3.376880e-004
2.449153e+003, -7.620942e-004
2.451081e+003, -2.862561e-004
2.453010e+003, -2.377630e-004
2.454938e+003, -4.248531e-004
2.456866e+003, -1.602441e-004
2.458795e+003, 2.515064e-004
2.460723e+003, 2.634934e-004
2.462652e+003, -1.896888e-004
2.464580e+003, -2.459679e-004
2.466509e+003, 1.261968e-004
2.468437e+003, 2.833149e-004
2.470366e+003, 2.792438e-004
2.472294e+003, -2.434524e-004
2.474223e+003, -5.404965e-004
2.476151e+003, -3.361755e-004
2.478080e+003, -5.777783e-005
2.480008e+003, 1.953261e-004
2.481937e+003, 8.218472e-005
2.483865e+003, 3.785241e-005
2.485793e+003, 1.476385e-004
2.487722e+003, 1.923178e-004
2.489650e+003, 4.241373e-004
2.491579e+003, 4.543208e-004
2.493507e+003, 3.563683e-004
2.495436e+003, 6.608457e-005
2.497364e+003, -4.295901e-005
2.499293e+003, -2.696913e-005
2.501221e+003, 1.534016e-004
2.503150e+003, 4.981934e-004
2.505078e+003, 3.666774e-004
2.507007e+003, -1.688110e-004
2.508935e+003, -9.375945e-005
2.510864e+003, 3.715749e-004
2.512792e+003, 2.635535e-004
2.514720e+003, 1.252244e-004
2.516649e+003, 2.481258e-004
2.518577e+003, -8.703953e-005
2.520506e+003, -4.302122e-004
2.522434e+003, -4.044331e-004
2.524363e+003, -1.956027e-006
2.526291e+003, 1.463350e-004
2.528220e+003, 5.115958e-005
2.530148e+003, 5.249895e-005
2.532077e+003, -2.249913e-005
2.534005e+003, -3.477558e-004
2.535934e+003, -5.822206e-004
2.537862e+003, -2.616058e-004
2.539791e+003, 3.492936e-004
2.541719e+003, 2.232532e-004
2.543647e+003, -1.311117e-004
2.545576e+003, -3.848901e-004
2.547504e+003, -2.058985e-004
2.549433e+003, -1.133594e-004
2.551361e+003, -5.101740e-004
2.553290e+003, -9.103272e-004
2.555218e+003, -8.032717e-004
2.557147e+003, -6.599782e-004
2.559075e+003, -4.134649e-004
2.561004e+003, -2.215851e-004
2.562932e+003, -3.998164e-004
2.564861e+003, -8.030887e-004
2.566789e+003, -8.153690e-004
2.568718e+003, -6.296600e-004
2.570646e+003, -8.056037e-004
2.572574e+003, -1.060208e-003
2.574503e+003, -1.097347e-003
2.576431e+003, -9.503994e-004
2.578360e+003, -8.591257e-004
2.580288e+003, -6.083664e-004
2.582217e+003, -6.086835e-004
2.584145e+003, -8.697230e-004
2.586074e+003, -7.937741e-004
2.588002e+003, -5.899284e-004
2.589931e+003, -6.291678e-004
2.591859e+003, -8.262002e-004
2.593788e+003, -1.020750e-003
2.595716e+003, -9.984276e-004
2.597645e+003, -7.397410e-004
2.599573e+003, -9.000690e-004
2.601501e+003, -8.105975e-004
2.603430e+003, -7.414950e-004
2.605358e+003, -8.910514e-004
2.607287e+003, -9.652068e-004
2.609215e+003, -6.803515e-004
2.611144e+003, -3.131837e-004
2.613072e+003, -6.549456e-004
2.615001e+003, -1.104714e-003
2.616929e+003, -8.035531e-004
2.618858e+003, -4.454890e-004
2.620786e+003, -3.156475e-004
2.622715e+003, -3.250345e-004
2.624643e+003, -4.051197e-004
2.626572e+003, -5.329792e-004
2.628500e+003, -3.256828e-004
2.630428e+003, -2.388282e-004
2.632357e+003, -5.093254e-004
2.634285e+003, -4.571289e-004
2.636214e+003, -3.932332e-004
2.638142e+003, -2.355590e-004
2.640071e+003, -2.279802e-004
2.641999e+003, -4.143209e-004
2.643928e+003, -3.039685e-004
2.645856e+003, -1.138538e-004
2.647785e+003, -3.790321e-004
2.649713e+003, -3.232576e-004
2.651642e+003, -5.719192e-005
2.653570e+003, -1.514214e-004
2.655499e+003, -3.051629e-004
2.657427e+003, -8.550698e-005
2.659355e+003, -5.890479e-005
2.661284e+003, -7.265340e-005
2.663212e+003, 2.693197e-004
2.665141e+003, 2.343225e-004
2.667069e+003, 1.398899e-004
2.668998e+003, 1.490616e-004
2.670926e+003, 2.268497e-004
2.672855e+003, 5.315518e-004
2.674783e+003, 6.070866e-004
2.676712e+003, 3.849669e-004
2.678640e+003, 4.322605e-004
2.680569e+003, 5.051316e-004
2.682497e+003, 3.823102e-004
2.684426e+003, 3.568401e-004
2.686354e+003, 4.168975e-004
2.688282e+003, 5.828199e-004
2.690211e+003, 4.669210e-004
2.692139e+003, 4.273294e-004
2.694068e+003, 5.962959e-004
2.695996e+003, 6.234961e-004
2.697925e+003, 3.468615e-004
2.699853e+003, 3.787000e-005
2.701782e+003, 2.807564e-004
2.703710e+003, 6.387696e-004
2.705639e+003, 6.209785e-004
2.707567e+003, 6.139394e-004
2.709496e+003, 6.125417e-004
2.711424e+003, 8.112495e-004
2.713353e+003, 7.275912e-004
2.715281e+003, 5.034935e-004
2.717209e+003, 5.710125e-004
2.719138e+003, 6.055420e-004
2.721066e+003, 4.573828e-004
2.722995e+003, 4.312236e-004
2.724923e+003, 5.643637e-004
2.726852e+003, 6.552114e-004
2.728780e+003, 6.913769e-004
2.730709e+003, 8.152332e-004
2.732637e+003, 9.149858e-004
2.734566e+003, 7.228403e-004
2.736494e+003, 6.426605e-004
2.738423e+003, 8.801378e-004
2.740351e+003, 1.103546e-003
2.742280e+003, 1.020716e-003
2.744208e+003, 9.112030e-004
2.746136e+003, 9.858379e-004
2.748065e+003, 1.084648e-003
2.749993e+003, 9.860588e-004
2.751922e+003, 1.101159e-003
2.753850e+003, 1.165824e-003
2.755779e+003, 1.151072e-003
2.757707e+003, 1.021432e-003
2.759636e+003, 1.178424e-003
2.761564e+003, 1.341342e-003
2.763493e+003, 1.439685e-003
2.765421e+003, 1.389752e-003
2.767350e+003, 1.168737e-003
2.769278e+003, 1.356347e-003
2.771207e+003, 1.609892e-003
2.773135e+003, 1.540592e-003
2.775063e+003, 1.805243e-003
2.776992e+003, 1.816596e-003
2.778920e+003, 1.623271e-003
2.780849e+003, 1.602955e-003
2.782777e+003, 1.696272e-003
2.784706e+003, 1.754427e-003
2.786634e+003, 1.776131e-003
2.788563e+003, 1.586270e-003
2.790491e+003, 1.727325e-003
2.792420e+003, 1.942908e-003
2.794348e+003, 2.041681e-003
2.796277e+003, 2.105983e-003
2.798205e+003, 2.341744e-003
2.800134e+003, 2.515496e-003
2.802062e+003, 2.158232e-003
2.803990e+003, 1.903018e-003
2.805919e+003, 2.094824e-003
2.807847e+003, 2.235093e-003
2.809776e+003, 2.202928e-003
2.811704e+003, 2.007307e-003
2.813633e+003, 1.917612e-003
2.815561e+003, 2.298023e-003
2.817490e+003, 2.881453e-003
2.819418e+003, 2.809517e-003
2.821347e+003, 2.802969e-003
2.823275e+003, 2.815730e-003
2.825204e+003, 2.718831e-003
2.827132e+003, 2.809839e-003
2.829061e+003, 2.955949e-003
2.830989e+003, 3.055906e-003
2.832917e+003, 2.915313e-003
2.834846e+003, 3.037121e-003
2.836774e+003, 3.166366e-003
2.838703e+003, 2.977644e-003
2.840631e+003, 3.058035e-003
2.842560e+003, 3.191618e-003
2.844488e+003, 3.145273e-003
2.846417e+003, 3.279471e-003
2.848345e+003, 3.446885e-003
2.850274e+003, 3.334792e-003
2.852202e+003, 3.132074e-003
2.854131e+003, 3.364366e-003
2.856059e+003, 3.472888e-003
2.857988e+003, 3.255953e-003
2.859916e+003, 3.402920e-003
2.861844e+003, 3.576244e-003
2.863773e+003, 3.600225e-003
2.865701e+003, 3.695080e-003
2.867630e+003, 3.688014e-003
2.869558e+003, 3.388114e-003
2.871487e+003, 3.536708e-003
2.873415e+003, 3.703284e-003
2.875344e+003, 3.715957e-003
2.877272e+003, 3.551099e-003
2.879201e+003, 3.488963e-003
2.881129e+003, 3.595044e-003
2.883058e+003, 3.516759e-003
2.884986e+003, 3.223388e-003
2.886915e+003, 3.229828e-003
2.888843e+003, 3.616920e-003
2.890771e+003, 3.804229e-003
2.892700e+003, 3.633025e-003
2.894628e+003, 3.692080e-003
2.896557e+003, 3.766126e-003
2.898485e+003, 3.651857e-003
2.900414e+003, 3.774352e-003
2.902342e+003, 4.029462e-003
2.904271e+003, 4.144386e-003
2.906199e+003, 4.413965e-003
2.908128e+003, 4.491224e-003
2.910056e+003, 4.416667e-003
2.911985e+003, 4.436986e-003
2.913913e+003, 4.598704e-003
2.915842e+003, 4.649709e-003
2.917770e+003, 5.059679e-003
2.919698e+003, 5.205674e-003
2.921627e+003, 5.028884e-003
2.923555e+003, 5.050166e-003
2.925484e+003, 5.155259e-003
2.927412e+003, 5.189891e-003
2.929341e+003, 5.417540e-003
2.931269e+003, 5.540664e-003
2.933198e+003, 5.532852e-003
2.935126e+003, 5.659048e-003
2.937055e+003, 5.710921e-003
2.938983e+003, 5.866761e-003
2.940912e+003, 5.911305e-003
2.942840e+003, 5.582324e-003
2.944769e+003, 5.616333e-003
2.946697e+003, 6.029360e-003
2.948625e+003, 6.410166e-003
2.950554e+003, 6.716780e-003
2.952482e+003, 6.778474e-003
2.954411e+003, 6.361754e-003
2.956339e+003, 6.473963e-003
2.958268e+003, 6.870693e-003
2.960196e+003, 6.912903e-003
2.962125e+003, 7.032931e-003
2.964053e+003, 6.997285e-003
2.965982e+003, 7.035410e-003
2.967910e+003, 7.475379e-003
2.969839e+003, 7.354510e-003
2.971767e+003, 7.300734e-003
2.973696e+003, 7.692728e-003
2.975624e+003, 7.848255e-003
2.977552e+003, 7.709291e-003
2.979481e+003, 7.528160e-003
2.981409e+003, 7.623327e-003
2.983338e+003, 7.976082e-003
2.985266e+003, 7.986981e-003
2.987195e+003, 7.818039e-003
2.989123e+003, 8.191074e-003
2.991052e+003, 8.499250e-003
2.992980e+003, 8.211965e-003
2.994909e+003, 8.337765e-003
2.996837e+003, 8.709309e-003
2.998766e+003, 9.123958e-003
3.000694e+003, 9.139902e-003
3.002623e+003, 8.970232e-003
3.004551e+003, 9.166131e-003
3.006479e+003, 8.968551e-003
3.008408e+003, 9.033485e-003
3.010336e+003, 9.494497e-003
3.012265e+003, 9.670164e-003
3.014193e+003, 9.978088e-003
3.016122e+003, 1.046669e-002
3.018050e+003, 1.033707e-002
3.019979e+003, 9.750957e-003
3.021907e+003, 9.921986e-003
3.023836e+003, 1.012354e-002
3.025764e+003, 1.013563e-002
3.027693e+003, 1.035366e-002
3.029621e+003, 1.072542e-002
3.031550e+003, 1.083267e-002
3.033478e+003, 1.107315e-002
3.035406e+003, 1.116891e-002
3.037335e+003, 1.079451e-002
3.039263e+003, 1.039508e-002
3.041192e+003, 1.032486e-002
3.043120e+003, 1.027417e-002
3.045049e+003, 1.061278e-002
3.046977e+003, 1.066873e-002
3.048906e+003, 1.039105e-002
3.050834e+003, 1.044619e-002
3.052763e+003, 1.058112e-002
3.054691e+003, 1.051462e-002
3.056620e+003, 1.014011e-002
3.058548e+003, 9.859148e-003
3.060477e+003, 1.011381e-002
3.062405e+003, 1.038970e-002
3.064333e+003, 1.021489e-002
3.066262e+003, 1.023440e-002
3.068190e+003, 1.031201e-002
3.070119e+003, 1.005564e-002
3.072047e+003, 9.763204e-003
3.073976e+003, 9.831276e-003
3.075904e+003, 9.870169e-003
3.077833e+003, 9.547198e-003
3.079761e+003, 9.431370e-003
3.081690e+003, 9.305831e-003
3.083618e+003, 9.149594e-003
3.085547e+003, 9.143239e-003
3.087475e+003, 9.306729e-003
3.089404e+003, 9.291893e-003
3.091332e+003, 9.578238e-003
3.093260e+003, 9.506254e-003
3.095189e+003, 9.272139e-003
3.097117e+003, 9.305065e-003
3.099046e+003, 9.079859e-003
3.100974e+003, 8.550279e-003
3.102903e+003, 8.588878e-003
3.104831e+003, 8.572653e-003
3.106760e+003, 8.552570e-003
3.108688e+003, 8.632584e-003
3.110617e+003, 8.553584e-003
3.112545e+003, 8.012746e-003
3.114474e+003, 7.774692e-003
3.116402e+003, 8.071122e-003
3.118331e+003, 8.240537e-003
3.120259e+003, 8.117776e-003
3.122188e+003, 8.170737e-003
3.124116e+003, 8.245219e-003
3.126044e+003, 8.048021e-003
3.127973e+003, 7.491964e-003
3.129901e+003, 7.323770e-003
3.131830e+003, 7.569173e-003
3.133758e+003, 8.031104e-003
3.135687e+003, 7.789701e-003
3.137615e+003, 7.711553e-003
3.139544e+003, 7.507988e-003
3.141472e+003, 7.550252e-003
3.143401e+003, 7.796493e-003
3.145329e+003, 7.782698e-003
3.147258e+003, 7.841762e-003
3.149186e+003, 7.386438e-003
3.151115e+003, 6.646984e-003
3.153043e+003, 6.672539e-003
3.154971e+003, 6.954257e-003
3.156900e+003, 7.160657e-003
3.158828e+003, 7.095462e-003
3.160757e+003, 7.229143e-003
3.162685e+003, 7.252594e-003
3.164614e+003, 7.229268e-003
3.166542e+003, 7.697478e-003
3.168471e+003, 7.580321e-003
3.170399e+003, 7.043670e-003
3.172328e+003, 6.826082e-003
3.174256e+003, 6.777774e-003
3.176185e+003, 6.574808e-003
3.178113e+003, 6.735904e-003
3.180042e+003, 6.800840e-003
3.181970e+003, 6.985912e-003
3.183898e+003, 6.909745e-003
3.185827e+003, 6.649031e-003
3.187755e+003, 6.748968e-003
3.189684e+003, 6.437215e-003
3.191612e+003, 6.019577e-003
3.193541e+003, 5.904266e-003
3.195469e+003, 6.070823e-003
3.197398e+003, 6.558896e-003
3.199326e+003, 6.785017e-003
3.201255e+003, 6.514423e-003
3.203183e+003, 6.222770e-003
3.205112e+003, 6.398777e-003
3.207040e+003, 6.415404e-003
3.208969e+003, 6.129154e-003
3.210897e+003, 6.135690e-003
3.212825e+003, 6.281990e-003
3.214754e+003, 5.894715e-003
3.216682e+003, 5.850376e-003
3.218611e+003, 5.957740e-003
3.220539e+003, 5.812012e-003
3.222468e+003, 5.634711e-003
3.224396e+003, 5.619708e-003
3.226325e+003, 5.532889e-003
3.228253e+003, 5.572137e-003
3.230182e+003, 5.440807e-003
3.232110e+003, 5.085323e-003
3.234039e+003, 5.048425e-003
3.235967e+003, 5.417961e-003
3.237896e+003, 5.424387e-003
3.239824e+003, 4.991548e-003
3.241752e+003, 4.822244e-003
3.243681e+003, 4.924636e-003
3.245609e+003, 5.000814e-003
3.247538e+003, 5.455850e-003
3.249466e+003, 5.824975e-003
3.251395e+003, 5.419228e-003
3.253323e+003, 5.041249e-003
3.255252e+003, 4.702196e-003
3.257180e+003, 4.498045e-003
3.259109e+003, 4.472409e-003
3.261037e+003, 4.566724e-003
3.262966e+003, 4.843728e-003
3.264894e+003, 5.027845e-003
3.266823e+003, 4.914781e-003
3.268751e+003, 4.505271e-003
3.270679e+003, 4.344733e-003
3.272608e+003, 4.318114e-003
3.274536e+003, 4.196683e-003
3.276465e+003, 4.016328e-003
3.278393e+003, 4.163111e-003
3.280322e+003, 3.839640e-003
3.282250e+003, 3.795194e-003
3.284179e+003, 4.061897e-003
3.286107e+003, 4.112403e-003
3.288036e+003, 4.268307e-003
3.289964e+003, 4.309928e-003
3.291893e+003, 3.995957e-003
3.293821e+003, 3.369457e-003
3.295750e+003, 3.409927e-003
3.297678e+003, 3.798351e-003
3.299606e+003, 4.419687e-003
3.301535e+003, 4.457907e-003
3.303463e+003, 3.786275e-003
3.305392e+003, 3.705330e-003
3.307320e+003, 3.899196e-003
3.309249e+003, 3.726745e-003
3.311177e+003, 3.991915e-003
3.313106e+003, 4.226606e-003
3.315034e+003, 4.115137e-003
3.316963e+003, 4.125552e-003
3.318891e+003, 4.770014e-003
3.320820e+003, 4.655310e-003
3.322748e+003, 4.946286e-003
3.324677e+003, 5.065531e-003
3.326605e+003, 4.346447e-003
3.328533e+003, 4.128938e-003
3.330462e+003, 3.876574e-003
3.332390e+003, 3.710406e-003
3.334319e+003, 4.078641e-003
3.336247e+003, 4.078751e-003
3.338176e+003, 4.102712e-003
3.340104e+003, 4.421942e-003
3.342033e+003, 4.135823e-003
3.343961e+003, 4.071518e-003
3.345890e+003, 4.700322e-003
3.347818e+003, 5.080755e-003
3.349747e+003, 4.751559e-003
3.351675e+003, 4.656561e-003
3.353604e+003, 4.886519e-003
3.355532e+003, 4.882722e-003
3.357460e+003, 4.776679e-003
3.359389e+003, 4.403992e-003
3.361317e+003, 4.182647e-003
3.363246e+003, 4.379372e-003
3.365174e+003, 4.892810e-003
3.367103e+003, 5.054319e-003
3.369031e+003, 5.166407e-003
3.370960e+003, 5.478066e-003
3.372888e+003, 5.812683e-003
3.374817e+003, 6.187848e-003
3.376745e+003, 5.868249e-003
3.378674e+003, 5.689954e-003
3.380602e+003, 6.278121e-003
3.382531e+003, 6.243297e-003
3.384459e+003, 6.189729e-003
3.386387e+003, 6.493207e-003
3.388316e+003, 6.546496e-003
3.390244e+003, 6.585846e-003
3.392173e+003, 6.906847e-003
3.394101e+003, 6.936503e-003
3.396030e+003, 7.215957e-003
3.397958e+003, 7.131896e-003
3.399887e+003, 6.595733e-003
3.401815e+003, 6.890224e-003
3.403744e+003, 7.814312e-003
3.405672e+003, 8.215468e-003
3.407601e+003, 8.815132e-003
3.409529e+003, 9.176871e-003
3.411458e+003, 8.942526e-003
3.413386e+003, 9.381921e-003
3.415314e+003, 1.021511e-002
3.417243e+003, 1.070706e-002
3.419171e+003, 1.037192e-002
3.421100e+003, 1.015004e-002
3.423028e+003, 1.105312e-002
3.424957e+003, 1.217524e-002
3.426885e+003, 1.314148e-002
3.428814e+003, 1.354616e-002
3.430742e+003, 1.375382e-002
3.432671e+003, 1.428289e-002
3.434599e+003, 1.507743e-002
3.436528e+003, 1.632805e-002
3.438456e+003, 1.693959e-002
3.440385e+003, 1.757950e-002
3.442313e+003, 1.853838e-002
3.444241e+003, 1.845816e-002
3.446170e+003, 1.884307e-002
3.448098e+003, 1.981185e-002
3.450027e+003, 2.056813e-002
3.451955e+003, 2.114465e-002
3.453884e+003, 2.098653e-002
3.455812e+003, 2.127066e-002
3.457741e+003, 2.207498e-002
3.459669e+003, 2.193546e-002
3.461598e+003, 2.122637e-002
3.463526e+003, 2.075116e-002
3.465455e+003, 2.061903e-002
3.467383e+003, 2.019808e-002
3.469312e+003, 1.987776e-002
3.471240e+003, 2.000801e-002
3.473168e+003, 1.979079e-002
3.475097e+003, 1.889484e-002
3.477025e+003, 1.795158e-002
3.478954e+003, 1.685246e-002
3.480882e+003, 1.616264e-002
3.482811e+003, 1.569412e-002
3.484739e+003, 1.528600e-002
3.486668e+003, 1.398541e-002
3.488596e+003, 1.350927e-002
3.490525e+003, 1.391946e-002
3.492453e+003, 1.351925e-002
3.494382e+003, 1.256873e-002
3.496310e+003, 1.204075e-002
3.498239e+003, 1.182073e-002
3.500167e+003, 1.167062e-002
3.502095e+003, 1.080052e-002
3.504024e+003, 1.019164e-002
3.505952e+003, 9.790766e-003
3.507881e+003, 9.516575e-003
3.509809e+003, 9.380311e-003
3.511738e+003, 8.894149e-003
3.513666e+003, 8.821608e-003
3.515595e+003, 8.734334e-003
3.517523e+003, 7.848043e-003
3.519452e+003, 6.854691e-003
3.521380e+003, 6.443713e-003
3.523309e+003, 6.632685e-003
3.525237e+003, 5.940441e-003
3.527166e+003, 5.435747e-003
3.529094e+003, 5.803095e-003
3.531022e+003, 5.535450e-003
3.532951e+003, 4.550378e-003
3.534879e+003, 3.958431e-003
3.536808e+003, 3.252964e-003
3.538736e+003, 2.405308e-003
3.540665e+003, 2.385563e-003
3.542593e+003, 2.487585e-003
3.544522e+003, 2.294951e-003
3.546450e+003, 1.826924e-003
3.548379e+003, 1.389492e-003
3.550307e+003, 1.367964e-003
3.552236e+003, 1.001182e-003
3.554164e+003, 2.603199e-004
3.556093e+003, -5.234011e-004
3.558021e+003, -9.939774e-004
3.559949e+003, -4.540982e-004
3.561878e+003, -2.941380e-004
3.563806e+003, -3.805087e-004
3.565735e+003, -8.426239e-004
3.567663e+003, -1.205177e-003
3.569592e+003, -1.195931e-003
3.571520e+003, -1.599059e-003
3.573449e+003, -1.757604e-003
3.575377e+003, -1.336313e-003
3.577306e+003, -1.937729e-003
3.579234e+003, -3.034740e-003
3.581163e+003, -3.181464e-003
3.583091e+003, -2.648541e-003
3.585020e+003, -2.604572e-003
3.586948e+003, -2.805086e-003
3.588876e+003, -2.924005e-003
3.590805e+003, -3.351399e-003
3.592733e+003, -3.345620e-003
3.594662e+003, -2.909068e-003
3.596590e+003, -2.455616e-003
3.598519e+003, -2.826778e-003
3.600447e+003, -3.526812e-003
3.602376e+003, -2.980809e-003
3.604304e+003, -3.491679e-003
3.606233e+003, -4.032955e-003
3.608161e+003, -3.587912e-003
3.610090e+003, -4.088384e-003
3.612018e+003, -4.299710e-003
3.613947e+003, -4.658211e-003
3.615875e+003, -4.541981e-003
3.617803e+003, -3.294303e-003
3.619732e+003, -3.368848e-003
3.621660e+003, -4.460188e-003
3.623589e+003, -4.748691e-003
3.625517e+003, -4.627159e-003
3.627446e+003, -3.814062e-003
3.629374e+003, -3.829789e-003
3.631303e+003, -4.424193e-003
3.633231e+003, -4.715127e-003
3.635160e+003, -5.078119e-003
3.637088e+003, -5.190505e-003
3.639017e+003, -5.077303e-003
3.640945e+003, -5.004024e-003
3.642874e+003, -4.737036e-003
3.644802e+003, -4.186579e-003
3.646730e+003, -3.767939e-003
3.648659e+003, -3.693729e-003
3.650587e+003, -4.357594e-003
3.652516e+003, -5.214529e-003
3.654444e+003, -5.069463e-003
3.656373e+003, -4.970234e-003
3.658301e+003, -5.413023e-003
3.660230e+003, -5.573136e-003
3.662158e+003, -5.400159e-003
3.664087e+003, -5.333454e-003
3.666015e+003, -5.786691e-003
3.667944e+003, -5.590921e-003
3.669872e+003, -4.945974e-003
3.671801e+003, -4.875347e-003
3.673729e+003, -4.644302e-003
3.675657e+003, -4.256554e-003
3.677586e+003, -5.258790e-003
3.679514e+003, -5.296323e-003
3.681443e+003, -4.559045e-003
3.683371e+003, -4.549286e-003
3.685300e+003, -5.405987e-003
3.687228e+003, -5.406647e-003
3.689157e+003, -5.026933e-003
3.691085e+003, -5.904459e-003
3.693014e+003, -6.673364e-003
3.694942e+003, -6.357298e-003
3.696871e+003, -5.542864e-003
3.698799e+003, -5.485688e-003
3.700728e+003, -6.076371e-003
3.702656e+003, -5.691227e-003
3.704584e+003, -5.835235e-003
3.706513e+003, -6.166209e-003
3.708441e+003, -5.221995e-003
3.710370e+003, -4.365374e-003
3.712298e+003, -4.807750e-003
3.714227e+003, -5.605903e-003
3.716155e+003, -5.456439e-003
3.718084e+003, -5.370031e-003
3.720012e+003, -5.873737e-003
3.721941e+003, -6.416384e-003
3.723869e+003, -5.677996e-003
3.725798e+003, -5.019984e-003
3.727726e+003, -4.849228e-003
3.729655e+003, -5.087198e-003
3.731583e+003, -4.953650e-003
3.733511e+003, -4.389821e-003
3.735440e+003, -4.339156e-003
3.737368e+003, -5.173705e-003
3.739297e+003, -5.711053e-003
3.741225e+003, -4.853904e-003
3.743154e+003, -4.312359e-003
3.745082e+003, -4.209746e-003
3.747011e+003, -4.407185e-003
3.748939e+003, -4.083112e-003
3.750868e+003, -4.032641e-003
3.752796e+003, -4.995584e-003
3.754725e+003, -5.933909e-003
3.756653e+003, -5.711100e-003
3.758582e+003, -5.961958e-003
3.760510e+003, -6.763573e-003
3.762438e+003, -7.026731e-003
3.764367e+003, -6.350726e-003
3.766295e+003, -5.743387e-003
3.768224e+003, -5.335066e-003
3.770152e+003, -5.346758e-003
3.772081e+003, -6.035877e-003
3.774009e+003, -5.849451e-003
3.775938e+003, -5.148666e-003
3.777866e+003, -4.926537e-003
3.779795e+003, -5.552123e-003
3.781723e+003, -6.992431e-003
3.783652e+003, -6.741935e-003
3.785580e+003, -6.144517e-003
3.787509e+003, -6.693292e-003
3.789437e+003, -7.140926e-003
3.791365e+003, -6.848711e-003
3.793294e+003, -6.576677e-003
3.795222e+003, -6.263347e-003
3.797151e+003, -6.054440e-003
3.799079e+003, -5.403950e-003
3.801008e+003, -4.439695e-003
3.802936e+003, -4.507153e-003
3.804865e+003, -5.229428e-003
3.806793e+003, -5.245776e-003
3.808722e+003, -5.649413e-003
3.810650e+003, -5.937501e-003
3.812579e+003, -6.457623e-003
3.814507e+003, -6.868990e-003
3.816436e+003, -6.304405e-003
3.818364e+003, -5.659989e-003
3.820292e+003, -5.199424e-003
3.822221e+003, -5.745067e-003
3.824149e+003, -6.188332e-003
3.826078e+003, -5.689943e-003
3.828006e+003, -5.885933e-003
3.829935e+003, -6.404979e-003
3.831863e+003, -6.136113e-003
3.833792e+003, -5.382309e-003
3.835720e+003, -5.119324e-003
3.837649e+003, -4.719608e-003
3.839577e+003, -4.826745e-003
3.841506e+003, -5.448521e-003
3.843434e+003, -6.357800e-003
3.845363e+003, -6.717607e-003
3.847291e+003, -6.276013e-003
3.849219e+003, -5.883422e-003
3.851148e+003, -4.931139e-003
3.853076e+003, -2.992278e-003
3.855005e+003, -4.059606e-003
3.856933e+003, -5.519041e-003
3.858862e+003, -5.729626e-003
3.860790e+003, -5.870530e-003
3.862719e+003, -6.065633e-003
3.864647e+003, -5.710976e-003
3.866576e+003, -6.168411e-003
3.868504e+003, -6.044652e-003
3.870433e+003, -5.484794e-003
3.872361e+003, -5.923428e-003
3.874290e+003, -6.042246e-003
3.876218e+003, -6.101666e-003
3.878146e+003, -5.344120e-003
3.880075e+003, -4.277215e-003
3.882003e+003, -4.894283e-003
3.883932e+003, -5.210525e-003
3.885860e+003, -5.485825e-003
3.887789e+003, -6.084323e-003
3.889717e+003, -6.040057e-003
3.891646e+003, -6.105734e-003
3.893574e+003, -6.632087e-003
3.895503e+003, -6.609125e-003
3.897431e+003, -6.025182e-003
3.899360e+003, -6.103199e-003
3.901288e+003, -5.761486e-003
3.903217e+003, -4.880402e-003
3.905145e+003, -5.412214e-003
3.907073e+003, -5.788662e-003
3.909002e+003, -5.491103e-003
3.910930e+003, -5.995264e-003
3.912859e+003, -6.114339e-003
3.914787e+003, -6.006428e-003
3.916716e+003, -5.675810e-003
3.918644e+003, -5.673659e-003
3.920573e+003, -6.146860e-003
3.922501e+003, -6.567319e-003
3.924430e+003, -6.227353e-003
3.926358e+003, -6.658349e-003
3.928287e+003, -6.414841e-003
3.930215e+003, -5.209045e-003
3.932144e+003, -5.438093e-003
3.934072e+003, -6.487446e-003
3.936000e+003, -6.440972e-003
3.937929e+003, -6.129104e-003
3.939857e+003, -6.723699e-003
3.941786e+003, -6.568885e-003
3.943714e+003, -5.970700e-003
3.945643e+003, -6.137740e-003
3.947571e+003, -6.274423e-003
3.949500e+003, -6.395197e-003
3.951428e+003, -6.806379e-003
3.953357e+003, -6.585377e-003
3.955285e+003, -6.252609e-003
3.957214e+003, -5.988968e-003
3.959142e+003, -6.054993e-003
3.961071e+003, -6.475979e-003
3.962999e+003, -6.288231e-003
3.964927e+003, -6.028922e-003
3.966856e+003, -5.848969e-003
3.968784e+003, -6.141521e-003
3.970713e+003, -6.343604e-003
3.972641e+003, -6.503888e-003
3.974570e+003, -6.863047e-003
3.976498e+003, -6.318484e-003
3.978427e+003, -6.349225e-003
3.980355e+003, -7.040816e-003
3.982284e+003, -6.891482e-003
3.984212e+003, -6.747771e-003
3.986141e+003, -7.339517e-003
3.988069e+003, -6.672223e-003
3.989998e+003, -6.117194e-003
3.991926e+003, -6.466854e-003
3.993854e+003, -6.363944e-003
3.995783e+003, -6.104189e-003
3.997711e+003, -5.816027e-003
##END=



