##NAMES=Tunellite
##RRUFFID=R050283
##IDEAL CHEMISTRY=SrB_6_O_9_(OH)_2_&#183;3H_2_O
##LOCALITY=Boron, Kern County, California, USA
##OWNER=RRUFF
##SOURCE=Marcus Origlieri
##DESCRIPTION=Colorless flattened tabular crystals
##STATUS=The identification of this mineral has been confirmed by X-ray diffraction and chemical analysis
##URL=rruff.info/R050283
##MEASURED CHEMISTRY=(Sr_0.96_Ba_0.06_)_Σ=1_B_6_O_9_(OH)_2_·3H_2_O ; B not measured but estimated by stoichiometry
399.1926, 8.5378073E-02
401.1211, 8.6179972E-02
403.0496, 8.6594284E-02
404.9780, 9.2646323E-02
406.9065, 9.3766682E-02
408.8350, 9.5565081E-02
410.7634, 9.3111843E-02
412.6919, 9.3395449E-02
414.6204, 9.3708247E-02
416.5488, 9.4941571E-02
418.4773, 9.9997781E-02
420.4058, 0.1028042
422.3342, 0.1024144
424.2627, 9.9560350E-02
426.1912, 9.6946090E-02
428.1196, 9.7175241E-02
430.0481, 9.5857307E-02
431.9766, 9.2183597E-02
433.9050, 9.1216870E-02
435.8335, 8.9898549E-02
437.7620, 8.9221478E-02
439.6904, 8.9462914E-02
441.6189, 8.7174438E-02
443.5474, 8.5682869E-02
445.4758, 8.5577577E-02
447.4043, 8.4905833E-02
449.3328, 8.4928237E-02
451.2612, 8.3856478E-02
453.1897, 8.3926730E-02
455.1182, 8.4801711E-02
457.0466, 8.5455447E-02
458.9751, 8.6624630E-02
460.9036, 8.7580353E-02
462.8320, 8.7765858E-02
464.7605, 8.7320648E-02
466.6890, 8.8360481E-02
468.6174, 8.9126542E-02
470.5459, 8.8894807E-02
472.4744, 8.9324467E-02
474.4028, 9.0401091E-02
476.3313, 9.1159843E-02
478.2598, 9.2589773E-02
480.1882, 9.4546467E-02
482.1167, 9.5371999E-02
484.0452, 9.5806487E-02
485.9736, 9.7267367E-02
487.9021, 9.8638818E-02
489.8306, 9.9488787E-02
491.7590, 9.9511430E-02
493.6875, 9.9733159E-02
495.6160, 9.9751577E-02
497.5444, 0.1002647
499.4729, 0.1010137
501.4014, 0.1018135
503.3298, 0.1019616
505.2583, 0.1021246
507.1868, 0.1022105
509.1152, 0.1018778
511.0437, 0.1016450
512.9722, 0.1021531
514.9006, 0.1033163
516.8291, 0.1042383
518.7576, 0.1050119
520.6860, 0.1058503
522.6145, 0.1078317
524.5430, 0.1102861
526.4714, 0.1121286
528.3999, 0.1129652
530.3284, 0.1134549
532.2568, 0.1135329
534.1853, 0.1121221
536.1138, 0.1096981
538.0422, 0.1061907
539.9707, 0.1029787
541.8992, 0.1013617
543.8276, 0.1002770
545.7561, 9.8784342E-02
547.6846, 9.7572863E-02
549.6130, 9.6690059E-02
551.5415, 9.6863508E-02
553.4700, 9.7809792E-02
555.3984, 9.9232249E-02
557.3269, 9.9643253E-02
559.2554, 9.9626772E-02
561.1838, 0.1003907
563.1123, 0.1019151
565.0408, 0.1044269
566.9692, 0.1083552
568.8977, 0.1118755
570.8262, 0.1152580
572.7546, 0.1187980
574.6831, 0.1216516
576.6116, 0.1227179
578.5400, 0.1228133
580.4685, 0.1223704
582.3970, 0.1218376
584.3254, 0.1220244
586.2539, 0.1223887
588.1824, 0.1235238
590.1108, 0.1247667
592.0393, 0.1269928
593.9678, 0.1305345
595.8962, 0.1315412
597.8247, 0.1273043
599.7532, 0.1208003
601.6816, 0.1148235
603.6101, 0.1107123
605.5386, 0.1087641
607.4670, 0.1073564
609.3955, 0.1059668
611.3240, 0.1056198
613.2524, 0.1049386
615.1809, 0.1030007
617.1094, 0.1015320
619.0378, 0.1009621
620.9663, 0.1016381
622.8948, 0.1029278
624.8232, 0.1042565
626.7517, 0.1052775
628.6802, 0.1059101
630.6086, 0.1061034
632.5371, 0.1061891
634.4656, 0.1068099
636.3940, 0.1079038
638.3225, 0.1101622
640.2510, 0.1131833
642.1794, 0.1161031
644.1079, 0.1177234
646.0364, 0.1184033
647.9648, 0.1182369
649.8933, 0.1181363
651.8218, 0.1187513
653.7502, 0.1198466
655.6787, 0.1215137
657.6072, 0.1234039
659.5356, 0.1254336
661.4641, 0.1284906
663.3926, 0.1322373
665.3210, 0.1359299
667.2495, 0.1398039
669.1780, 0.1443743
671.1064, 0.1496417
673.0349, 0.1566394
674.9634, 0.1654512
676.8918, 0.1747937
678.8203, 0.1823391
680.7488, 0.1847624
682.6772, 0.1792737
684.6057, 0.1664917
686.5342, 0.1508733
688.4626, 0.1376361
690.3911, 0.1292370
692.3196, 0.1253049
694.2480, 0.1248587
696.1765, 0.1257039
698.1050, 0.1251871
700.0334, 0.1225501
701.9619, 0.1187497
703.8904, 0.1148835
705.8188, 0.1121524
707.7473, 0.1104871
709.6758, 0.1083282
711.6042, 0.1045320
713.5327, 0.1005603
715.4612, 9.8035477E-02
717.3896, 9.7655348E-02
719.3181, 9.9289082E-02
721.2466, 0.1019486
723.1750, 0.1060677
725.1035, 0.1118360
727.0320, 0.1184864
728.9604, 0.1255405
730.8889, 0.1328900
732.8174, 0.1388443
734.7458, 0.1419729
736.6743, 0.1414028
738.6028, 0.1357247
740.5313, 0.1254979
742.4597, 0.1130903
744.3882, 0.1017243
746.3167, 9.2920408E-02
748.2451, 8.6694203E-02
750.1736, 8.3143733E-02
752.1021, 8.1552163E-02
754.0305, 8.1399113E-02
755.9590, 8.2196310E-02
757.8875, 8.4089763E-02
759.8159, 8.6300939E-02
761.7444, 8.8534787E-02
763.6729, 9.1539457E-02
765.6013, 9.5673077E-02
767.5298, 9.9928729E-02
769.4583, 0.1041231
771.3867, 0.1088934
773.3152, 0.1142023
775.2437, 0.1205806
777.1721, 0.1272851
779.1006, 0.1341717
781.0291, 0.1424112
782.9575, 0.1520870
784.8860, 0.1621195
786.8145, 0.1720227
788.7429, 0.1818384
790.6714, 0.1909015
792.5999, 0.1983206
794.5283, 0.2039761
796.4568, 0.2085057
798.3853, 0.2119641
800.3137, 0.2152546
802.2422, 0.2192584
804.1707, 0.2241133
806.0991, 0.2296431
808.0276, 0.2357595
809.9561, 0.2411199
811.8845, 0.2431398
813.8130, 0.2400433
815.7415, 0.2317995
817.6699, 0.2198117
819.5984, 0.2071719
821.5269, 0.1970749
823.4553, 0.1895694
825.3838, 0.1835596
827.3123, 0.1775644
829.2407, 0.1720876
831.1692, 0.1672920
833.0977, 0.1626773
835.0261, 0.1588150
836.9546, 0.1562986
838.8831, 0.1554375
840.8115, 0.1555965
842.7400, 0.1566350
844.6685, 0.1580694
846.5969, 0.1603426
848.5254, 0.1640782
850.4539, 0.1682738
852.3823, 0.1727490
854.3108, 0.1779265
856.2393, 0.1845473
858.1677, 0.1920772
860.0962, 0.2000535
862.0247, 0.2087350
863.9531, 0.2167254
865.8816, 0.2234423
867.8101, 0.2294073
869.7385, 0.2349686
871.6670, 0.2398081
873.5955, 0.2444459
875.5239, 0.2490478
877.4524, 0.2534032
879.3809, 0.2568508
881.3093, 0.2588981
883.2378, 0.2588084
885.1663, 0.2559730
887.0947, 0.2506225
889.0232, 0.2429277
890.9517, 0.2330311
892.8801, 0.2215344
894.8085, 0.2095779
896.7370, 0.1981090
898.6655, 0.1874153
900.5939, 0.1771160
902.5224, 0.1663731
904.4509, 0.1551656
906.3793, 0.1456179
908.3078, 0.1394698
910.2363, 0.1370324
912.1647, 0.1375931
914.0932, 0.1400808
916.0217, 0.1445800
917.9501, 0.1514958
919.8786, 0.1599475
921.8071, 0.1697626
923.7355, 0.1805343
925.6640, 0.1915126
927.5925, 0.2013400
929.5209, 0.2078341
931.4494, 0.2084644
933.3779, 0.2024569
935.3063, 0.1908739
937.2348, 0.1781386
939.1633, 0.1712262
941.0917, 0.1732634
943.0202, 0.1838595
944.9487, 0.2010870
946.8771, 0.2218671
948.8056, 0.2438552
950.7341, 0.2655456
952.6625, 0.2856091
954.5910, 0.3016071
956.5195, 0.3118249
958.4479, 0.3158560
960.3764, 0.3139822
962.3049, 0.3070641
964.2333, 0.2972181
966.1618, 0.2866032
968.0903, 0.2768159
970.0187, 0.2693501
971.9472, 0.2651267
973.8757, 0.2640651
975.8041, 0.2657296
977.7326, 0.2689204
979.6611, 0.2731412
981.5895, 0.2785587
983.5180, 0.2842075
985.4465, 0.2893821
987.3749, 0.2937978
989.3034, 0.2976587
991.2319, 0.3009402
993.1603, 0.3042051
995.0888, 0.3065494
997.0173, 0.3077809
998.9457, 0.3070806
1000.874, 0.3051967
1002.803, 0.3029261
1004.731, 0.3001553
1006.660, 0.2970638
1008.588, 0.2938422
1010.517, 0.2904704
1012.445, 0.2865351
1014.373, 0.2818280
1016.302, 0.2768179
1018.230, 0.2721516
1020.159, 0.2674523
1022.087, 0.2627325
1024.016, 0.2582584
1025.944, 0.2537572
1027.873, 0.2493632
1029.801, 0.2450669
1031.730, 0.2405526
1033.658, 0.2352767
1035.587, 0.2290132
1037.515, 0.2216855
1039.444, 0.2132180
1041.372, 0.2043703
1043.301, 0.1953237
1045.229, 0.1863825
1047.157, 0.1775220
1049.086, 0.1691390
1051.014, 0.1613612
1052.943, 0.1542072
1054.871, 0.1480360
1056.800, 0.1428797
1058.728, 0.1381123
1060.657, 0.1335199
1062.585, 0.1291828
1064.514, 0.1249124
1066.442, 0.1207528
1068.371, 0.1172210
1070.299, 0.1142772
1072.228, 0.1124017
1074.156, 0.1118130
1076.084, 0.1119783
1078.013, 0.1132230
1079.941, 0.1157002
1081.870, 0.1189454
1083.798, 0.1221816
1085.727, 0.1259609
1087.655, 0.1302813
1089.584, 0.1343998
1091.512, 0.1385219
1093.441, 0.1422646
1095.369, 0.1449505
1097.298, 0.1475496
1099.226, 0.1500608
1101.155, 0.1513042
1103.083, 0.1519523
1105.011, 0.1523921
1106.940, 0.1526325
1108.868, 0.1527742
1110.797, 0.1530121
1112.725, 0.1529462
1114.654, 0.1530583
1116.582, 0.1531043
1118.511, 0.1526223
1120.439, 0.1525351
1122.368, 0.1524899
1124.296, 0.1521340
1126.225, 0.1518435
1128.153, 0.1513266
1130.082, 0.1503422
1132.010, 0.1491062
1133.938, 0.1477624
1135.867, 0.1464311
1137.795, 0.1448307
1139.724, 0.1428200
1141.652, 0.1402039
1143.581, 0.1371142
1145.509, 0.1339875
1147.438, 0.1308343
1149.366, 0.1271049
1151.295, 0.1231365
1153.223, 0.1193458
1155.152, 0.1153731
1157.080, 0.1112701
1159.009, 0.1083773
1160.937, 0.1065408
1162.865, 0.1051782
1164.794, 0.1048190
1166.722, 0.1058136
1168.651, 0.1080666
1170.579, 0.1113009
1172.508, 0.1150558
1174.436, 0.1189269
1176.365, 0.1223133
1178.293, 0.1249860
1180.222, 0.1264320
1182.150, 0.1268313
1184.079, 0.1261790
1186.007, 0.1243885
1187.936, 0.1215598
1189.864, 0.1181001
1191.792, 0.1144848
1193.721, 0.1106053
1195.649, 0.1062873
1197.578, 0.1018649
1199.506, 9.7661272E-02
1201.435, 9.3538567E-02
1203.363, 8.9502066E-02
1205.292, 8.5324332E-02
1207.220, 8.1036091E-02
1209.149, 7.6810919E-02
1211.077, 7.2566502E-02
1213.006, 6.8418279E-02
1214.934, 6.4855441E-02
1216.863, 6.1475929E-02
1218.791, 5.8259781E-02
1220.719, 5.5332359E-02
1222.648, 5.2894492E-02
1224.576, 5.0591681E-02
1226.505, 4.8364200E-02
1228.433, 4.6483129E-02
1230.362, 4.5049269E-02
1232.290, 4.3497100E-02
1234.219, 4.2376921E-02
1236.147, 4.1830432E-02
1238.076, 4.1190188E-02
1240.004, 4.0275160E-02
1241.933, 3.9498322E-02
1243.861, 3.8944930E-02
1245.790, 3.8875122E-02
1247.718, 3.8685929E-02
1249.646, 3.8602550E-02
1251.575, 3.8879581E-02
1253.503, 3.9096061E-02
1255.432, 3.9264832E-02
1257.360, 3.9645270E-02
1259.289, 4.0446442E-02
1261.217, 4.1661970E-02
1263.146, 4.2954192E-02
1265.074, 4.4321131E-02
1267.003, 4.5999940E-02
1268.931, 4.8034120E-02
1270.860, 5.0559990E-02
1272.788, 5.3308200E-02
1274.717, 5.6677669E-02
1276.645, 6.0972631E-02
1278.573, 6.5801337E-02
1280.502, 7.1210161E-02
1282.430, 7.7891931E-02
1284.359, 8.5954703E-02
1286.287, 9.5508121E-02
1288.216, 0.1066414
1290.144, 0.1189128
1292.073, 0.1315688
1294.001, 0.1438645
1295.930, 0.1559569
1297.858, 0.1682177
1299.787, 0.1818274
1301.715, 0.1977073
1303.644, 0.2160844
1305.572, 0.2362216
1307.500, 0.2572878
1309.429, 0.2780479
1311.357, 0.2961898
1313.286, 0.3108985
1315.214, 0.3214359
1317.143, 0.3264036
1319.071, 0.3260442
1321.000, 0.3214704
1322.928, 0.3140303
1324.857, 0.3050053
1326.785, 0.2954780
1328.714, 0.2868555
1330.642, 0.2793925
1332.571, 0.2731615
1334.499, 0.2692721
1336.427, 0.2679826
1338.356, 0.2691735
1340.284, 0.2726312
1342.213, 0.2781424
1344.141, 0.2849728
1346.070, 0.2922561
1347.998, 0.2988908
1349.927, 0.3036827
1351.855, 0.3067666
1353.784, 0.3073304
1355.712, 0.3049622
1357.641, 0.3007954
1359.569, 0.2948749
1361.498, 0.2876007
1363.426, 0.2797292
1365.354, 0.2716860
1367.283, 0.2632995
1369.211, 0.2547008
1371.140, 0.2462893
1373.068, 0.2377369
1374.997, 0.2291617
1376.925, 0.2206739
1378.854, 0.2124339
1380.782, 0.2039343
1382.711, 0.1953598
1384.639, 0.1866762
1386.568, 0.1781069
1388.496, 0.1695185
1390.424, 0.1608467
1392.353, 0.1521806
1394.281, 0.1439056
1396.210, 0.1361063
1398.138, 0.1287763
1400.067, 0.1220450
1401.995, 0.1160184
1403.924, 0.1107171
1405.852, 0.1063194
1407.781, 0.1026090
1409.709, 9.9385090E-02
1411.638, 9.6165672E-02
1413.566, 9.2587382E-02
1415.495, 8.9295700E-02
1417.423, 8.6402230E-02
1419.351, 8.3819173E-02
1421.280, 8.1418633E-02
1423.208, 7.9648271E-02
1425.137, 7.8264140E-02
1427.065, 7.7262722E-02
1428.994, 7.7537663E-02
1430.922, 7.8717403E-02
1432.851, 8.0346197E-02
1434.779, 8.2337268E-02
1436.708, 8.4256932E-02
1438.636, 8.5816823E-02
1440.565, 8.6989217E-02
1442.493, 8.7502629E-02
1444.422, 8.7333083E-02
1446.350, 8.7068573E-02
1448.278, 8.6518750E-02
1450.207, 8.5277490E-02
1452.135, 8.3550774E-02
1454.064, 8.1389531E-02
1455.992, 7.8863241E-02
1457.921, 7.6597571E-02
1459.849, 7.4487828E-02
1461.778, 7.2448939E-02
1463.706, 7.0393980E-02
1465.635, 6.8385549E-02
1467.563, 6.6783533E-02
1469.492, 6.5899812E-02
1471.420, 6.4864017E-02
1473.349, 6.3252091E-02
1475.277, 6.1471950E-02
1477.205, 5.9124898E-02
1479.134, 5.6054931E-02
1481.062, 5.2740451E-02
1482.991, 4.8823342E-02
1484.919, 4.4491429E-02
1486.848, 4.0426601E-02
1488.776, 3.6511190E-02
1490.705, 3.3020541E-02
1492.633, 3.0099571E-02
1494.562, 2.7716709E-02
1496.490, 2.5784070E-02
1498.419, 2.3991119E-02
1500.347, 2.2347139E-02
1502.276, 2.1036560E-02
1504.204, 1.9984441E-02
1506.132, 1.8895220E-02
1508.061, 1.7935170E-02
1509.989, 1.7400270E-02
1511.918, 1.7018789E-02
1513.846, 1.6257379E-02
1515.775, 1.5769910E-02
1517.703, 1.5383760E-02
1519.632, 1.5177030E-02
1521.560, 1.4959800E-02
1523.489, 1.4564780E-02
1525.417, 1.4275650E-02
1527.346, 1.4251510E-02
1529.274, 1.3776250E-02
1531.203, 1.3267560E-02
1533.131, 1.2910680E-02
1535.059, 1.2918630E-02
1536.988, 1.3088620E-02
1538.916, 1.3034120E-02
1540.845, 1.3085170E-02
1542.773, 1.2995010E-02
1544.702, 1.2982610E-02
1546.630, 1.3139690E-02
1548.559, 1.3290660E-02
1550.487, 1.3162550E-02
1552.416, 1.2722580E-02
1554.344, 1.2492490E-02
1556.273, 1.2655040E-02
1558.201, 1.2512760E-02
1560.130, 1.2517140E-02
1562.058, 1.2705720E-02
1563.986, 1.2670250E-02
1565.915, 1.2734450E-02
1567.843, 1.2770990E-02
1569.772, 1.2427260E-02
1571.700, 1.2056750E-02
1573.629, 1.2107150E-02
1575.557, 1.2236140E-02
1577.486, 1.2287200E-02
1579.414, 1.2591370E-02
1581.343, 1.2609260E-02
1583.271, 1.2766670E-02
1585.200, 1.3131930E-02
1587.128, 1.3174920E-02
1589.057, 1.3149230E-02
1590.985, 1.3244930E-02
1592.913, 1.3214770E-02
1594.842, 1.3176260E-02
1596.770, 1.3286570E-02
1598.699, 1.3678910E-02
1600.627, 1.4144500E-02
1602.556, 1.4279640E-02
1604.484, 1.4256880E-02
1606.413, 1.4493700E-02
1608.341, 1.4739380E-02
1610.270, 1.4881310E-02
1612.198, 1.5366220E-02
1614.127, 1.5616490E-02
1616.055, 1.5671290E-02
1617.984, 1.6307600E-02
1619.912, 1.7003000E-02
1621.840, 1.7469911E-02
1623.769, 1.7969189E-02
1625.697, 1.8233590E-02
1627.626, 1.8571950E-02
1629.554, 1.8799581E-02
1631.483, 1.8842150E-02
1633.411, 1.9130809E-02
1635.340, 1.9655960E-02
1637.268, 2.0040751E-02
1639.197, 2.0083120E-02
1641.125, 2.0244410E-02
1643.054, 2.0623621E-02
1644.982, 2.1117611E-02
1646.911, 2.1172609E-02
1648.839, 2.1369630E-02
1650.767, 2.1725260E-02
1652.696, 2.2229970E-02
1654.624, 2.3197670E-02
1656.553, 2.4055280E-02
1658.481, 2.5446231E-02
1660.410, 2.7353769E-02
1662.338, 2.9290440E-02
1664.267, 3.1571999E-02
1666.195, 3.3991091E-02
1668.124, 3.6251511E-02
1670.052, 3.7655469E-02
1671.981, 3.7987500E-02
1673.909, 3.6545768E-02
1675.838, 3.3691540E-02
1677.766, 3.0303800E-02
1679.694, 2.7275611E-02
1681.623, 2.4855250E-02
1683.551, 2.2494949E-02
1685.480, 2.0084390E-02
1687.408, 1.7647360E-02
1689.337, 1.5714141E-02
1691.265, 1.4137350E-02
1693.194, 1.2940320E-02
1695.122, 1.2149730E-02
1697.051, 1.1627990E-02
1698.979, 1.1141990E-02
1700.908, 1.0316790E-02
1702.836, 9.8645622E-03
1704.765, 9.5258253E-03
1706.693, 8.8667050E-03
1708.621, 8.2319807E-03
1710.550, 8.0993855E-03
1712.478, 7.8726187E-03
1714.407, 7.4827662E-03
1716.335, 7.2371531E-03
1718.264, 7.1451468E-03
1720.192, 7.2809849E-03
1722.121, 6.9717299E-03
1724.049, 6.7184418E-03
1725.978, 6.5706908E-03
1727.906, 6.1860261E-03
1729.835, 5.6173811E-03
1731.763, 5.0890818E-03
1733.692, 4.6078842E-03
1735.620, 3.9741471E-03
1737.548, 2.9563480E-03
1739.477, 2.3135860E-03
1741.405, 1.9429380E-03
1743.334, 1.7318859E-03
1745.262, 1.6100100E-03
1747.191, 2.0293761E-03
1749.119, 2.7161189E-03
1751.048, 2.9087830E-03
1752.976, 3.0347880E-03
1754.905, 3.4796020E-03
1756.833, 4.0845168E-03
1758.762, 4.6457881E-03
1760.690, 4.6858061E-03
1762.619, 4.3924870E-03
1764.547, 4.6294820E-03
1766.475, 4.8347181E-03
1768.404, 4.8366352E-03
1770.332, 4.7242148E-03
1772.261, 4.8004431E-03
1774.189, 4.9116178E-03
1776.118, 4.5990362E-03
1778.046, 4.3440731E-03
1779.975, 4.5740190E-03
1781.903, 4.7464189E-03
1783.832, 4.4883899E-03
1785.760, 4.4103451E-03
1787.689, 4.4283322E-03
1789.617, 4.5272820E-03
1791.546, 4.3555042E-03
1793.474, 4.7695870E-03
1795.402, 4.9130511E-03
1797.331, 4.8191510E-03
1799.259, 4.9572028E-03
1801.188, 4.7047790E-03
1803.116, 4.6275971E-03
1805.045, 4.8221420E-03
1806.973, 4.5761261E-03
1808.902, 4.3658148E-03
1810.830, 4.6859020E-03
1812.759, 4.7748238E-03
1814.687, 4.2930800E-03
1816.616, 4.5068292E-03
1818.544, 4.7624810E-03
1820.473, 4.7457460E-03
1822.401, 4.4683488E-03
1824.329, 4.0462669E-03
1826.258, 3.9672852E-03
1828.186, 4.4205221E-03
1830.115, 5.0240280E-03
1832.043, 5.0237640E-03
1833.972, 5.0823172E-03
1835.900, 5.1128231E-03
1837.829, 5.0194669E-03
1839.757, 4.7882912E-03
1841.686, 4.4259191E-03
1843.614, 3.8974970E-03
1845.543, 3.8164109E-03
1847.471, 4.1303271E-03
1849.400, 4.2614709E-03
1851.328, 4.2726989E-03
1853.256, 4.3106708E-03
1855.185, 4.2348211E-03
1857.113, 4.3922118E-03
1859.042, 4.8819850E-03
1860.970, 4.7378070E-03
1862.899, 3.7615721E-03
1864.827, 3.2045441E-03
1866.756, 4.4023301E-03
1868.684, 4.2147841E-03
1870.613, 3.5888650E-03
1872.541, 3.7165280E-03
1874.470, 3.7932959E-03
1876.398, 3.5387680E-03
1878.327, 3.7380140E-03
1880.255, 4.2292969E-03
1882.183, 3.6760250E-03
1884.112, 3.7357931E-03
1886.040, 3.9992449E-03
1887.969, 3.9803898E-03
1889.897, 3.7517929E-03
1891.826, 3.2886991E-03
1893.754, 3.5101839E-03
1895.683, 3.3406210E-03
1897.611, 2.5829461E-03
1899.540, 2.6907639E-03
1901.468, 2.5889550E-03
1903.397, 2.2368650E-03
1905.325, 2.5005471E-03
1907.254, 1.9607961E-03
1909.182, 1.1780210E-03
1911.110, 1.1301950E-03
1913.039, 1.5336620E-03
1914.967, 1.7446260E-03
1916.896, 1.4560090E-03
1918.824, 1.2583400E-03
1920.753, 1.5711520E-03
1922.681, 1.4734860E-03
1924.610, 1.2570240E-03
1926.538, 1.1437930E-03
1928.467, 5.6997139E-04
1930.395, -9.9261082E-04
1932.324, -6.3703141E-05
1934.252, 7.9220033E-04
1936.181, 6.5648218E-04
1938.109, -3.4240159E-04
1940.037, 2.7769969E-05
1941.966, 1.0747340E-03
1943.894, 1.3230660E-04
1945.823, -1.4390360E-03
1947.751, -1.8340840E-03
1949.680, -1.8239100E-03
1951.608, -1.0471150E-03
1953.537, -1.5636980E-04
1955.465, 1.3594551E-04
1957.394, -9.3030918E-04
1959.322, -1.1866289E-03
1961.251, -1.5205060E-03
1963.179, -2.1866350E-04
1965.108, 1.7614670E-03
1967.036, 4.3392059E-04
1968.964, -4.1215061E-04
1970.893, -7.8478578E-04
1972.821, -2.5342740E-03
1974.750, -2.6166639E-03
1976.678, -1.6385040E-03
1978.607, 2.8326261E-04
1980.535, 3.1701819E-04
1982.464, -4.2206710E-04
1984.392, 2.4212900E-04
1986.321, 1.0436639E-03
1988.249, 7.9426973E-04
1990.178, 6.2681403E-04
1992.106, -2.0241830E-04
1994.035, -1.4529240E-03
1995.963, -4.1295611E-03
1997.891, -4.2130691E-03
1999.820, -1.3266139E-03
2001.748, -9.1733522E-04
2003.677, -3.1775869E-03
2005.605, -3.6671651E-03
2007.534, -2.3218321E-03
2009.462, -1.9744390E-03
2011.391, -3.6974540E-03
2013.319, -3.0306200E-03
2015.248, -2.1344740E-03
2017.176, -1.6120330E-03
2019.105, -1.9883860E-03
2021.033, -2.8499521E-03
2022.962, -2.4320581E-03
2024.890, -2.9996959E-03
2026.818, -3.4525280E-03
2028.747, -1.7906830E-03
2030.675, -7.3699531E-04
2032.604, -3.8178610E-03
2034.532, -2.8680470E-03
2036.461, -1.8573540E-03
2038.389, -3.5010320E-03
2040.318, -2.6947840E-03
2042.246, 6.1030342E-04
2044.175, 8.0854358E-04
2046.103, 2.0713991E-04
2048.032, 1.4884550E-03
2049.960, 4.6391492E-03
2051.889, 2.8510510E-03
2053.817, 1.2141800E-03
2055.746, 1.6152450E-03
2057.674, 2.4374500E-03
2059.603, 1.8198420E-03
2061.531, 1.3272290E-03
2063.459, 2.0307221E-03
2065.388, 2.5196041E-03
2067.316, 4.5281248E-03
2069.245, 4.7579850E-03
2071.173, 2.8484501E-03
2073.102, 3.2387930E-03
2075.030, 4.3246830E-03
2076.959, 3.4683440E-03
2078.887, 3.0779261E-03
2080.816, 3.5145830E-03
2082.744, 3.4899211E-03
2084.673, 3.6809461E-03
2086.601, 3.5241460E-03
2088.530, 2.3715161E-03
2090.458, 2.3666220E-03
2092.386, 2.2644070E-03
2094.315, 2.1383620E-03
2096.243, 2.1001610E-03
2098.172, 1.9266520E-03
2100.100, 2.0260529E-03
2102.029, 4.4894330E-03
2103.957, 5.5170162E-03
2105.886, 4.7778450E-03
2107.814, 2.9430510E-03
2109.743, 2.5491780E-03
2111.671, 2.3309421E-03
2113.600, 2.7007649E-03
2115.528, 3.2724340E-03
2117.457, 2.8967590E-03
2119.385, 2.2083770E-03
2121.313, 2.3558200E-03
2123.242, 2.4966369E-03
2125.170, 3.1733711E-03
2127.099, 1.9410660E-03
2129.027, 5.8058940E-05
2130.956, 1.4722000E-03
2132.884, 2.3615130E-03
2134.813, 1.6017620E-03
2136.741, 1.0714510E-03
2138.670, 1.5836440E-03
2140.598, 3.1169851E-03
2142.527, 3.2973839E-03
2144.455, 2.1548730E-03
2146.384, 7.0063683E-04
2148.312, 1.0720660E-04
2150.240, -2.1160340E-03
2152.169, -2.3729650E-03
2154.097, -2.3697519E-03
2156.026, -3.7308999E-03
2157.954, -3.0212931E-03
2159.883, 3.0406020E-04
2161.811, 3.5505050E-03
2163.740, 4.0944288E-03
2165.668, 1.2075900E-03
2167.597, -8.9776813E-04
2169.525, 8.6266118E-05
2171.454, -8.6119057E-05
2173.382, 1.2846480E-03
2175.311, 4.3270080E-03
2177.239, 2.3538489E-03
2179.167, 1.6333780E-03
2181.096, 2.9319860E-03
2183.024, 4.4702490E-05
2184.953, -6.5799907E-04
2186.881, 1.5543110E-03
2188.810, 1.7942711E-03
2190.738, 1.3437540E-03
2192.667, 1.1653230E-03
2194.595, 3.2045131E-03
2196.524, 3.2931371E-03
2198.452, 1.5896040E-03
2200.381, 1.7952099E-03
2202.309, 2.0317831E-03
2204.238, 2.6994620E-03
2206.166, 1.5384370E-03
2208.094, 1.2413560E-03
2210.023, 1.3262320E-04
2211.951, -1.4429890E-04
2213.880, 1.4495560E-03
2215.808, 2.0611589E-03
2217.737, 2.1077280E-03
2219.665, 3.9650910E-03
2221.594, 4.8191408E-03
2223.522, 4.1169892E-03
2225.451, 5.2394099E-03
2227.379, 4.1929870E-03
2229.308, 2.6610559E-03
2231.236, 3.6074610E-03
2233.165, 3.9270190E-03
2235.093, 2.6736800E-03
2237.021, 3.8518670E-03
2238.950, 3.8165329E-03
2240.878, 2.3961519E-03
2242.807, 3.1117790E-03
2244.735, 3.6562369E-03
2246.664, 4.3409951E-03
2248.592, 5.1124031E-03
2250.521, 2.5277941E-03
2252.449, 2.1486459E-03
2254.378, 4.3506478E-03
2256.306, 5.0051948E-03
2258.235, 3.4857481E-03
2260.163, 3.7904431E-03
2262.092, 5.0969841E-03
2264.020, 4.7289678E-03
2265.948, 4.0730252E-03
2267.877, 3.0481911E-03
2269.805, 3.2952421E-03
2271.734, 6.0725291E-03
2273.662, 7.2988300E-03
2275.591, 5.8766590E-03
2277.519, 4.3380051E-03
2279.448, 5.0658681E-03
2281.376, 5.9616370E-03
2283.305, 6.4111161E-03
2285.233, 7.4916761E-03
2287.162, 7.4208039E-03
2289.090, 7.2834860E-03
2291.019, 7.9409676E-03
2292.947, 7.0322892E-03
2294.875, 6.1249021E-03
2296.804, 6.7016650E-03
2298.732, 6.5165320E-03
2300.661, 6.0203141E-03
2302.589, 5.9651090E-03
2304.518, 5.9743300E-03
2306.446, 6.7310310E-03
2308.375, 7.0544942E-03
2310.303, 6.6012661E-03
2312.232, 6.8841358E-03
2314.160, 6.5527032E-03
2316.089, 6.0708760E-03
2318.017, 6.8353969E-03
2319.946, 7.7079469E-03
2321.874, 7.9505974E-03
2323.802, 8.2183024E-03
2325.731, 7.4728890E-03
2327.659, 6.5548290E-03
2329.588, 6.1619398E-03
2331.516, 6.4059952E-03
2333.445, 6.5735341E-03
2335.373, 6.9588781E-03
2337.302, 7.0784772E-03
2339.230, 6.5226662E-03
2341.159, 5.6285080E-03
2343.087, 5.2470211E-03
2345.016, 5.1207622E-03
2346.944, 4.9616410E-03
2348.873, 4.9844878E-03
2350.801, 5.2328212E-03
2352.729, 5.9594200E-03
2354.658, 5.5794539E-03
2356.586, 5.3337631E-03
2358.515, 5.1362598E-03
2360.443, 5.3084511E-03
2362.372, 5.6931251E-03
2364.300, 5.2986988E-03
2366.229, 4.6677850E-03
2368.157, 3.9950302E-03
2370.086, 4.3046069E-03
2372.014, 4.4070059E-03
2373.942, 3.6143840E-03
2375.871, 3.5288460E-03
2377.799, 4.1910112E-03
2379.728, 4.0788269E-03
2381.656, 3.9958591E-03
2383.585, 3.9466890E-03
2385.513, 4.1196118E-03
2387.442, 4.6446300E-03
2389.370, 4.4418760E-03
2391.299, 3.6664919E-03
2393.227, 3.4868340E-03
2395.156, 3.3462441E-03
2397.084, 4.1506779E-03
2399.012, 4.7855591E-03
2400.941, 4.8624538E-03
2402.869, 4.8153279E-03
2404.798, 5.1293490E-03
2406.726, 4.8470912E-03
2408.655, 3.5624839E-03
2410.583, 2.6561681E-03
2412.512, 3.3600670E-03
2414.440, 4.5732469E-03
2416.369, 5.1746271E-03
2418.297, 5.0523411E-03
2420.226, 4.8100711E-03
2422.154, 5.8117751E-03
2424.083, 6.3355230E-03
2426.011, 5.7799690E-03
2427.939, 5.8462028E-03
2429.868, 5.8450182E-03
2431.796, 4.9434821E-03
2433.725, 4.1993889E-03
2435.653, 3.8426251E-03
2437.582, 3.9275419E-03
2439.510, 4.5337081E-03
2441.439, 5.8432422E-03
2443.367, 6.4909160E-03
2445.296, 6.3438518E-03
2447.224, 6.0763569E-03
2449.153, 6.3312459E-03
2451.081, 5.7945410E-03
2453.010, 5.5674431E-03
2454.938, 5.3818901E-03
2456.866, 4.8539429E-03
2458.795, 4.6291128E-03
2460.723, 4.9112812E-03
2462.652, 5.7405112E-03
2464.580, 6.3787671E-03
2466.509, 6.0731992E-03
2468.437, 5.5319178E-03
2470.366, 6.0015330E-03
2472.294, 6.5963622E-03
2474.223, 6.4481762E-03
2476.151, 5.8509200E-03
2478.080, 5.7695392E-03
2480.008, 5.3835819E-03
2481.937, 5.8001820E-03
2483.865, 5.4873270E-03
2485.793, 4.2717028E-03
2487.722, 4.6440852E-03
2489.650, 5.7362691E-03
2491.579, 5.4574041E-03
2493.507, 5.3520240E-03
2495.436, 5.8932458E-03
2497.364, 5.4739839E-03
2499.293, 5.0487430E-03
2501.221, 6.1557530E-03
2503.150, 5.9325621E-03
2505.078, 4.5172782E-03
2507.007, 4.7389022E-03
2508.935, 5.2991761E-03
2510.864, 4.9841912E-03
2512.792, 4.8383968E-03
2514.720, 4.9599558E-03
2516.649, 4.7820020E-03
2518.577, 4.6985010E-03
2520.506, 4.0442208E-03
2522.434, 4.4758138E-03
2524.363, 5.7497369E-03
2526.291, 5.5125719E-03
2528.220, 4.9203569E-03
2530.148, 5.2698492E-03
2532.077, 6.1053052E-03
2534.005, 5.3225118E-03
2535.934, 4.1196630E-03
2537.862, 4.8102331E-03
2539.791, 5.1161791E-03
2541.719, 4.6967608E-03
2543.647, 5.5098720E-03
2545.576, 5.8926819E-03
2547.504, 6.3229720E-03
2549.433, 5.4482920E-03
2551.361, 4.5375819E-03
2553.290, 5.2723158E-03
2555.218, 5.3093042E-03
2557.147, 5.2721072E-03
2559.075, 6.4009838E-03
2561.004, 6.1379359E-03
2562.932, 4.6855598E-03
2564.861, 4.2645009E-03
2566.789, 5.3160852E-03
2568.718, 5.9675588E-03
2570.646, 6.4372928E-03
2572.574, 6.5966230E-03
2574.503, 5.8299839E-03
2576.431, 5.2176910E-03
2578.360, 5.1286458E-03
2580.288, 5.0988989E-03
2582.217, 3.9348360E-03
2584.145, 3.4086071E-03
2586.074, 3.9876639E-03
2588.002, 4.1648280E-03
2589.931, 3.1773171E-03
2591.859, 2.3445250E-03
2593.788, 2.7435340E-03
2595.716, 3.5764021E-03
2597.645, 3.8521111E-03
2599.573, 3.1919100E-03
2601.501, 3.7199690E-03
2603.430, 4.1133789E-03
2605.358, 3.3732930E-03
2607.287, 3.5776109E-03
2609.215, 3.1622211E-03
2611.144, 3.6398401E-03
2613.072, 5.6048268E-03
2615.001, 5.4670409E-03
2616.929, 3.8519099E-03
2618.858, 2.8699150E-03
2620.786, 2.4618909E-03
2622.715, 2.1005110E-03
2624.643, 2.3630259E-03
2626.572, 2.6048759E-03
2628.500, 2.0240890E-03
2630.428, 2.6363931E-03
2632.357, 3.4634520E-03
2634.285, 3.3214539E-03
2636.214, 3.5894390E-03
2638.142, 3.5054339E-03
2640.071, 2.4529181E-03
2641.999, 2.2587429E-03
2643.928, 2.7451089E-03
2645.856, 3.1998591E-03
2647.785, 3.5165739E-03
2649.713, 4.6577570E-03
2651.642, 5.2656732E-03
2653.570, 4.8825210E-03
2655.499, 3.9733080E-03
2657.427, 4.2359880E-03
2659.355, 4.1932510E-03
2661.284, 3.8106740E-03
2663.212, 3.8147629E-03
2665.141, 3.9790520E-03
2667.069, 4.0728268E-03
2668.998, 3.3967069E-03
2670.926, 2.9228940E-03
2672.855, 4.0936591E-03
2674.783, 4.6195169E-03
2676.712, 3.6405770E-03
2678.640, 2.8527700E-03
2680.569, 3.1694309E-03
2682.497, 3.6143870E-03
2684.426, 3.9547398E-03
2686.354, 4.3754592E-03
2688.282, 3.9129639E-03
2690.211, 3.8176640E-03
2692.139, 3.7880039E-03
2694.068, 3.6643620E-03
2695.996, 4.2296890E-03
2697.925, 4.8103631E-03
2699.853, 4.3063988E-03
2701.782, 3.6821279E-03
2703.710, 4.5072478E-03
2705.639, 5.3442330E-03
2707.567, 5.0745490E-03
2709.496, 4.8712180E-03
2711.424, 4.7660321E-03
2713.353, 5.5740778E-03
2715.281, 5.6188330E-03
2717.209, 5.3527779E-03
2719.138, 5.4090838E-03
2721.066, 5.0543030E-03
2722.995, 4.9790628E-03
2724.923, 5.6345281E-03
2726.852, 6.2711751E-03
2728.780, 6.3410988E-03
2730.709, 6.4249220E-03
2732.637, 6.1002960E-03
2734.566, 5.5306372E-03
2736.494, 6.1103138E-03
2738.423, 6.6577462E-03
2740.351, 5.1618852E-03
2742.280, 4.0945970E-03
2744.208, 5.3550890E-03
2746.136, 6.6126352E-03
2748.065, 7.2716828E-03
2749.993, 6.3693798E-03
2751.922, 6.9375169E-03
2753.850, 8.4045781E-03
2755.779, 7.8622159E-03
2757.707, 7.4395342E-03
2759.636, 6.8217120E-03
2761.564, 6.3520069E-03
2763.493, 6.3909641E-03
2765.421, 6.8082660E-03
2767.350, 8.0626188E-03
2769.278, 8.4380703E-03
2771.207, 7.2842469E-03
2773.135, 7.1292962E-03
2775.063, 7.5938771E-03
2776.992, 7.4447859E-03
2778.920, 7.7656242E-03
2780.849, 8.3334642E-03
2782.777, 7.2565158E-03
2784.706, 7.0471941E-03
2786.634, 8.1890654E-03
2788.563, 8.5702352E-03
2790.491, 8.5175782E-03
2792.420, 8.5250484E-03
2794.348, 8.8453246E-03
2796.277, 8.9809522E-03
2798.205, 8.9082224E-03
2800.134, 9.0339947E-03
2802.062, 9.1035571E-03
2803.990, 9.1325743E-03
2805.919, 8.6546512E-03
2807.847, 9.0865353E-03
2809.776, 1.0522850E-02
2811.704, 1.0743430E-02
2813.633, 9.8747332E-03
2815.561, 8.8395197E-03
2817.490, 8.5418606E-03
2819.418, 9.0077966E-03
2821.347, 8.8539412E-03
2823.275, 9.2103845E-03
2825.204, 9.8820031E-03
2827.132, 9.8030306E-03
2829.061, 1.0002120E-02
2830.989, 1.0493940E-02
2832.917, 1.0137470E-02
2834.846, 9.0856617E-03
2836.774, 1.0090560E-02
2838.703, 1.0681140E-02
2840.631, 8.5599357E-03
2842.560, 8.3601391E-03
2844.488, 9.7438674E-03
2846.417, 1.0526660E-02
2848.345, 1.1060630E-02
2850.274, 1.1180870E-02
2852.202, 1.2148990E-02
2854.131, 1.1422640E-02
2856.059, 1.0935680E-02
2857.988, 1.2269270E-02
2859.916, 1.2542140E-02
2861.844, 1.1486010E-02
2863.773, 1.1350820E-02
2865.701, 1.1516260E-02
2867.630, 9.8759523E-03
2869.558, 8.3245216E-03
2871.487, 8.8585233E-03
2873.415, 9.8376162E-03
2875.344, 1.0510990E-02
2877.272, 1.1528490E-02
2879.201, 1.2230810E-02
2881.129, 1.2783520E-02
2883.058, 1.2187280E-02
2884.986, 1.1648920E-02
2886.915, 1.2087440E-02
2888.843, 1.2890430E-02
2890.771, 1.3303510E-02
2892.700, 1.2325860E-02
2894.628, 1.2180940E-02
2896.557, 1.2709220E-02
2898.485, 1.3813810E-02
2900.414, 1.3536790E-02
2902.342, 1.2275380E-02
2904.271, 1.1651880E-02
2906.199, 1.1283670E-02
2908.128, 1.2221340E-02
2910.056, 1.4046050E-02
2911.985, 1.4932580E-02
2913.913, 1.5468480E-02
2915.842, 1.5486160E-02
2917.770, 1.6475510E-02
2919.698, 1.8612470E-02
2921.627, 1.8940231E-02
2923.555, 1.6253499E-02
2925.484, 1.5685059E-02
2927.412, 1.6711051E-02
2929.341, 1.7590759E-02
2931.269, 1.6001141E-02
2933.198, 1.5794549E-02
2935.126, 1.6097421E-02
2937.055, 1.5111530E-02
2938.983, 1.6268250E-02
2940.912, 1.8021390E-02
2942.840, 1.8579660E-02
2944.769, 1.8223440E-02
2946.697, 1.6468430E-02
2948.625, 1.6146669E-02
2950.554, 1.5885200E-02
2952.482, 1.5525930E-02
2954.411, 1.5195710E-02
2956.339, 1.6421311E-02
2958.268, 1.8797919E-02
2960.196, 1.9887431E-02
2962.125, 2.0792970E-02
2964.053, 2.1015150E-02
2965.982, 2.0616321E-02
2967.910, 2.0043030E-02
2969.839, 2.0420769E-02
2971.767, 2.0952661E-02
2973.696, 1.9394010E-02
2975.624, 1.9626681E-02
2977.552, 2.1001080E-02
2979.481, 2.0941220E-02
2981.409, 2.1557819E-02
2983.338, 2.2364439E-02
2985.266, 2.3419660E-02
2987.195, 2.4561530E-02
2989.123, 2.4750700E-02
2991.052, 2.4531240E-02
2992.980, 2.4390919E-02
2994.909, 2.3865949E-02
2996.837, 2.4255000E-02
2998.766, 2.4019960E-02
3000.694, 2.4049940E-02
3002.623, 2.5949650E-02
3004.551, 2.6896279E-02
3006.479, 2.7114950E-02
3008.408, 2.6755949E-02
3010.336, 2.5704600E-02
3012.265, 2.6071390E-02
3014.193, 2.6669910E-02
3016.122, 2.7401989E-02
3018.050, 2.7778029E-02
3019.979, 2.7823029E-02
3021.907, 2.6797930E-02
3023.836, 2.6715601E-02
3025.764, 2.7361520E-02
3027.693, 2.7706521E-02
3029.621, 2.8386360E-02
3031.550, 2.7627449E-02
3033.478, 2.7138369E-02
3035.406, 2.8622011E-02
3037.335, 2.8749039E-02
3039.263, 2.9784139E-02
3041.192, 2.9640660E-02
3043.120, 2.8796259E-02
3045.049, 3.0010421E-02
3046.977, 3.1811971E-02
3048.906, 3.1726070E-02
3050.834, 3.0084919E-02
3052.763, 3.0504650E-02
3054.691, 3.3014622E-02
3056.620, 3.4437340E-02
3058.548, 3.4187868E-02
3060.477, 3.4640361E-02
3062.405, 3.4760032E-02
3064.333, 3.3619989E-02
3066.262, 3.4510810E-02
3068.190, 3.4829430E-02
3070.119, 3.4680180E-02
3072.047, 3.5952002E-02
3073.976, 3.5948720E-02
3075.904, 3.5601810E-02
3077.833, 3.6686540E-02
3079.761, 3.7557669E-02
3081.690, 3.7862081E-02
3083.618, 3.7633460E-02
3085.547, 4.0061422E-02
3087.475, 4.1982882E-02
3089.404, 4.1346692E-02
3091.332, 3.9670650E-02
3093.260, 3.9712649E-02
3095.189, 3.9929830E-02
3097.117, 4.2558659E-02
3099.046, 4.3678660E-02
3100.974, 4.4017591E-02
3102.903, 4.6387691E-02
3104.831, 4.6961449E-02
3106.760, 4.5597550E-02
3108.688, 4.5434441E-02
3110.617, 4.7952749E-02
3112.545, 4.8677091E-02
3114.474, 4.8670821E-02
3116.402, 4.9204729E-02
3118.331, 4.9450900E-02
3120.259, 5.0560780E-02
3122.188, 5.1297240E-02
3124.116, 5.0299920E-02
3126.044, 5.2542608E-02
3127.973, 5.4887950E-02
3129.901, 5.4591220E-02
3131.830, 5.5924911E-02
3133.758, 5.6658652E-02
3135.687, 5.7960711E-02
3137.615, 5.8185581E-02
3139.544, 5.6792490E-02
3141.472, 5.8545031E-02
3143.401, 6.0912799E-02
3145.329, 6.2973186E-02
3147.258, 6.3758790E-02
3149.186, 6.3970260E-02
3151.115, 6.3754648E-02
3153.043, 6.4499937E-02
3154.971, 6.6777073E-02
3156.900, 6.8673313E-02
3158.828, 7.0148192E-02
3160.757, 7.1514107E-02
3162.685, 7.3103607E-02
3164.614, 7.4232496E-02
3166.542, 7.5448893E-02
3168.471, 7.6230898E-02
3170.399, 7.5130142E-02
3172.328, 7.6582253E-02
3174.256, 7.9268917E-02
3176.185, 8.0605373E-02
3178.113, 8.2790971E-02
3180.042, 8.5447147E-02
3181.970, 8.6506873E-02
3183.898, 8.8036291E-02
3185.827, 9.0030447E-02
3187.755, 9.1205887E-02
3189.684, 9.1871448E-02
3191.612, 9.2151903E-02
3193.541, 9.3247823E-02
3195.469, 9.5991693E-02
3197.398, 9.8180510E-02
3199.326, 9.9527098E-02
3201.255, 9.9255323E-02
3203.183, 9.8458178E-02
3205.112, 9.9940971E-02
3207.040, 0.1027429
3208.969, 0.1044833
3210.897, 0.1046102
3212.825, 0.1045119
3214.754, 0.1066693
3216.682, 0.1082275
3218.611, 0.1077518
3220.539, 0.1061231
3222.468, 0.1052284
3224.396, 0.1045957
3226.325, 0.1060708
3228.253, 0.1065593
3230.182, 0.1054949
3232.110, 0.1053929
3234.039, 0.1056118
3235.967, 0.1042178
3237.896, 0.1043856
3239.824, 0.1044598
3241.752, 0.1043786
3243.681, 0.1051971
3245.609, 0.1049624
3247.538, 0.1047405
3249.466, 0.1051570
3251.395, 0.1064439
3253.323, 0.1061874
3255.252, 0.1045687
3257.180, 0.1039522
3259.109, 0.1055857
3261.037, 0.1065788
3262.966, 0.1068937
3264.894, 0.1091240
3266.823, 0.1112847
3268.751, 0.1099689
3270.679, 0.1087953
3272.608, 0.1114850
3274.536, 0.1131337
3276.465, 0.1119838
3278.393, 0.1114717
3280.322, 0.1127205
3282.250, 0.1121049
3284.179, 0.1110439
3286.107, 0.1121202
3288.036, 0.1119128
3289.964, 0.1085460
3291.893, 0.1054685
3293.821, 0.1038165
3295.750, 0.1033802
3297.678, 0.1020708
3299.606, 0.1025868
3301.535, 0.1034077
3303.463, 0.1027030
3305.392, 9.7850777E-02
3307.320, 9.6007220E-02
3309.249, 9.7711317E-02
3311.177, 9.7738549E-02
3313.106, 9.7574599E-02
3315.034, 9.7384907E-02
3316.963, 9.6509330E-02
3318.891, 9.5950708E-02
3320.820, 9.5443822E-02
3322.748, 9.6713342E-02
3324.677, 9.6421182E-02
3326.605, 9.6797787E-02
3328.533, 9.6071638E-02
3330.462, 9.5144168E-02
3332.390, 9.5106363E-02
3334.319, 9.6351273E-02
3336.247, 9.8290451E-02
3338.176, 9.8648779E-02
3340.104, 9.9601284E-02
3342.033, 0.1023685
3343.961, 0.1025729
3345.890, 0.1021428
3347.818, 0.1032366
3349.747, 0.1040492
3351.675, 0.1032950
3353.604, 0.1043508
3355.532, 0.1059514
3357.460, 0.1052421
3359.389, 0.1049609
3361.317, 0.1074153
3363.246, 0.1075870
3365.174, 0.1060449
3367.103, 0.1043679
3369.031, 0.1037563
3370.960, 0.1041029
3372.888, 0.1029863
3374.817, 0.1011072
3376.745, 0.1019633
3378.674, 0.1013463
3380.602, 9.6912049E-02
3382.531, 9.4633728E-02
3384.459, 9.3706422E-02
3386.387, 9.1865517E-02
3388.316, 8.9175008E-02
3390.244, 8.9512467E-02
3392.173, 9.0017453E-02
3394.101, 8.7575808E-02
3396.030, 8.4569998E-02
3397.958, 8.3760269E-02
3399.887, 8.1837758E-02
3401.815, 8.1029832E-02
3403.744, 7.9519689E-02
3405.672, 7.7187680E-02
3407.601, 7.6403320E-02
3409.529, 7.6222584E-02
3411.458, 7.8469783E-02
3413.386, 7.8196369E-02
3415.314, 7.5784907E-02
3417.243, 7.4692987E-02
3419.171, 7.2629318E-02
3421.100, 7.1924217E-02
3423.028, 7.0794307E-02
3424.957, 6.9496199E-02
3426.885, 7.0558660E-02
3428.814, 7.2078533E-02
3430.742, 7.0044957E-02
3432.671, 6.6734761E-02
3434.599, 6.7339808E-02
3436.528, 6.7095920E-02
3438.456, 6.6587627E-02
3440.385, 6.7477211E-02
3442.313, 6.7149818E-02
3444.241, 6.5227933E-02
3446.170, 6.5466873E-02
3448.098, 6.3907713E-02
3450.027, 6.2235489E-02
3451.955, 6.3490711E-02
3453.884, 6.3752562E-02
3455.812, 6.3152678E-02
3457.741, 6.2158611E-02
3459.669, 5.9128579E-02
3461.598, 5.8961369E-02
3463.526, 6.0866080E-02
3465.455, 6.1253209E-02
3467.383, 5.9618600E-02
3469.312, 5.6970920E-02
3471.240, 5.5683259E-02
3473.168, 5.8168039E-02
3475.097, 5.8446400E-02
3477.025, 5.4992430E-02
3478.954, 5.3272460E-02
3480.882, 5.4842200E-02
3482.811, 5.5368561E-02
3484.739, 5.4659698E-02
3486.668, 5.2636940E-02
3488.596, 5.2462488E-02
3490.525, 5.4081991E-02
3492.453, 5.3597841E-02
3494.382, 5.2565560E-02
3496.310, 5.2431110E-02
3498.239, 5.1501311E-02
3500.167, 4.9779821E-02
3502.095, 5.0501872E-02
3504.024, 5.2458700E-02
3505.952, 5.1168978E-02
3507.881, 4.9147010E-02
3509.809, 4.9440451E-02
3511.738, 5.2183650E-02
3513.666, 5.5470999E-02
3515.595, 5.5873789E-02
3517.523, 5.4421071E-02
3519.452, 5.1635440E-02
3521.380, 5.5002060E-02
3523.309, 5.5307161E-02
3525.237, 5.3434730E-02
3527.166, 5.4250199E-02
3529.094, 5.4059502E-02
3531.022, 5.3432409E-02
3532.951, 5.1855288E-02
3534.879, 5.5695739E-02
3536.808, 5.6209721E-02
3538.736, 5.4916222E-02
3540.665, 5.7796780E-02
3542.593, 6.0684029E-02
3544.522, 6.0433909E-02
3546.450, 6.1356269E-02
3548.379, 6.2651217E-02
3550.307, 6.4313762E-02
3552.236, 6.6093057E-02
3554.164, 6.7676291E-02
3556.093, 6.9294527E-02
3558.021, 7.4123763E-02
3559.949, 7.7461474E-02
3561.878, 7.7781901E-02
3563.806, 8.0159597E-02
3565.735, 8.1834458E-02
3567.663, 8.1604064E-02
3569.592, 8.0747813E-02
3571.520, 8.0997393E-02
3573.449, 8.1123717E-02
3575.377, 8.1162632E-02
3577.306, 7.8090876E-02
3579.234, 7.5282902E-02
3581.163, 7.4754007E-02
3583.091, 7.3733807E-02
3585.020, 6.7600958E-02
3586.948, 6.1505269E-02
3588.876, 5.8820359E-02
3590.805, 5.4226931E-02
3592.733, 5.2350841E-02
3594.662, 5.2913349E-02
3596.590, 5.0999220E-02
3598.519, 4.5513779E-02
3600.447, 4.2119332E-02
3602.376, 3.9914731E-02
3604.304, 3.9136309E-02
3606.233, 3.9881349E-02
3608.161, 3.9989509E-02
3610.090, 3.7002739E-02
3612.018, 3.6492251E-02
3613.947, 3.8297631E-02
3615.875, 3.8320031E-02
3617.803, 3.9798439E-02
3619.732, 4.0663142E-02
3621.660, 4.1973419E-02
3623.589, 4.1533180E-02
3625.517, 3.5330139E-02
3627.446, 3.0710530E-02
3629.374, 2.7788360E-02
3631.303, 2.2712121E-02
3633.231, 2.0841580E-02
3635.160, 2.2551989E-02
3637.088, 2.1876231E-02
3639.017, 1.6959401E-02
3640.945, 1.4822470E-02
3642.874, 1.7637439E-02
3644.802, 1.8283030E-02
3646.730, 1.4393580E-02
3648.659, 1.2831480E-02
3650.587, 1.2011220E-02
3652.516, 1.1577420E-02
3654.444, 1.1183510E-02
3656.373, 1.3139180E-02
3658.301, 1.4691250E-02
3660.230, 1.6392630E-02
3662.158, 1.5882390E-02
3664.087, 1.1741770E-02
3666.015, 7.0248949E-03
3667.944, 8.8070622E-03
3669.872, 1.2811450E-02
3671.801, 9.3665626E-03
3673.729, 4.8967330E-03
3675.657, 7.8388238E-03
3677.586, 1.0133470E-02
3679.514, 8.9036208E-03
3681.443, 9.0565933E-03
3683.371, 8.2117245E-03
3685.300, 7.2988239E-03
3687.228, 5.9661679E-03
3689.157, 9.6564014E-03
3691.085, 1.1484950E-02
3693.014, 1.0445070E-02
3694.942, 1.0446950E-02
3696.871, 8.7507656E-03
3698.799, 9.0997834E-03
3700.728, 7.2856508E-03
3702.656, 7.0651630E-03
3704.584, 7.7874050E-03
3706.513, 6.5693241E-03
3708.441, 4.9621048E-03
3710.370, 3.9577321E-03
3712.298, 7.2728451E-03
3714.227, 8.7907352E-03
3716.155, 5.5901008E-03
3718.084, 5.9463540E-03
3720.012, 7.9625249E-03
3721.941, 7.3606139E-03
3723.869, 7.7270232E-03
3725.798, 9.4604734E-03
3727.726, 9.4913356E-03
3729.655, 1.1966460E-02
3731.583, 1.2576240E-02
3733.511, 1.2622140E-02
3735.440, 1.1392110E-02
3737.368, 8.2103768E-03
3739.297, 6.6463379E-03
3741.225, 1.0424600E-02
3743.154, 1.2567370E-02
3745.082, 1.3153320E-02
3747.011, 1.1959980E-02
3748.939, 1.0573870E-02
3750.868, 9.2781279E-03
3752.796, 7.2969762E-03
3754.725, 9.7001167E-03
3756.653, 1.1877910E-02
3758.582, 1.0670130E-02
3760.510, 9.5926058E-03
3762.438, 1.0661010E-02
3764.367, 9.1495831E-03
3766.295, 8.1720818E-03
3768.224, 1.0085580E-02
3770.152, 1.1590940E-02
3772.081, 1.0309450E-02
3774.009, 7.1095051E-03
3775.938, 5.6236610E-03
3777.866, 7.8585614E-03
3779.795, 1.0497540E-02
3781.723, 1.0995040E-02
3783.652, 1.1003920E-02
3785.580, 1.0401510E-02
3787.509, 1.0307040E-02
3789.437, 7.5789862E-03
3791.365, 7.1515380E-03
3793.294, 1.0125110E-02
3795.222, 1.2414380E-02
3797.151, 1.1683580E-02
3799.079, 1.0439610E-02
3801.008, 8.5052503E-03
3802.936, 6.6658282E-03
3804.865, 6.2710340E-03
3806.793, 6.4017181E-03
3808.722, 6.6013392E-03
3810.650, 7.6862331E-03
3812.579, 6.5928041E-03
3814.507, 4.8929518E-03
3816.436, 6.6973618E-03
3818.364, 9.1631459E-03
3820.292, 9.0142777E-03
3822.221, 6.0268482E-03
3824.149, 8.6729387E-03
3826.078, 1.2430750E-02
3828.006, 1.3098710E-02
3829.935, 1.1112470E-02
3831.863, 8.6781802E-03
3833.792, 9.3723610E-03
3835.720, 9.0816049E-03
3837.649, 8.4539354E-03
3839.577, 8.4236590E-03
3841.506, 8.4175291E-03
3843.434, 8.0282222E-03
3845.363, 8.4509514E-03
3847.291, 7.3279589E-03
3849.219, 8.5905679E-03
3851.148, 1.1160400E-02
3853.076, 9.8869056E-03
3855.005, 8.3168093E-03
3856.933, 6.9509009E-03
3858.862, 5.8586579E-03
3860.790, 5.5562179E-03
3862.719, 5.1338738E-03
3864.647, 6.6570020E-03
3866.576, 8.7103043E-03
3868.504, 1.1242570E-02
3870.433, 1.2215700E-02
3872.361, 1.1516660E-02
3874.290, 9.8353252E-03
3876.218, 9.4432738E-03
3878.146, 1.0830180E-02
3880.075, 1.1663100E-02
3882.003, 1.0707350E-02
3883.932, 7.4970201E-03
3885.860, 1.1660910E-02
3887.789, 1.6166279E-02
3889.717, 1.3665720E-02
3891.646, 1.0124540E-02
3893.574, 7.1821152E-03
3895.503, 8.9655556E-03
3897.431, 1.1470820E-02
3899.360, 1.0708030E-02
3901.288, 7.6464750E-03
3903.217, 8.8488776E-03
3905.145, 1.2832740E-02
3907.073, 1.2680210E-02
3909.002, 1.0587360E-02
3910.930, 1.2972530E-02
3912.859, 1.2121080E-02
3914.787, 8.4525626E-03
3916.716, 7.5812889E-03
3918.644, 7.6502329E-03
3920.573, 8.0556925E-03
3922.501, 9.3901800E-03
3924.430, 5.7011652E-03
3926.358, 4.8456732E-03
3928.287, 7.3183011E-03
3930.215, 9.0893041E-03
3932.144, 1.2988410E-02
3934.072, 1.3555990E-02
3936.000, 1.0730430E-02
3937.929, 1.0140600E-02
3939.857, 1.0651880E-02
3941.786, 9.6854959E-03
3943.714, 8.0751469E-03
3945.643, 9.0975147E-03
3947.571, 9.2655485E-03
3949.500, 8.9789312E-03
3951.428, 1.1891550E-02
3953.357, 1.2652260E-02
3955.285, 1.2325370E-02
3957.214, 1.2103320E-02
3959.142, 1.1621010E-02
3961.071, 1.0638710E-02
3962.999, 1.1106520E-02
3964.927, 1.0277260E-02
3966.856, 7.9536354E-03
3968.784, 1.2872140E-02
3970.713, 1.4762060E-02
3972.641, 1.2080650E-02
3974.570, 9.8517416E-03
3976.498, 1.1482410E-02
3978.427, 1.3245030E-02
3980.355, 1.2639290E-02
3982.284, 1.0778400E-02
3984.212, 1.3832290E-02
3986.141, 1.4961160E-02
3988.069, 1.1172260E-02
3989.998, 1.0128800E-02
3991.926, 9.0392185E-03
3993.854, 7.4474961E-03
3995.783, 1.0746060E-02
3997.711, 1.3684620E-02
3999.640, 1.3691220E-02
##END=



