##NAMES=Ulexite
##RRUFFID=R050062
##IDEAL CHEMISTRY=NaCaB_5_O_6_(OH)_6_&#183;5H_2_O
##LOCALITY=California, USA
##OWNER=RRUFF
##SOURCE=Rock Currier
##DESCRIPTION=Compact parallel fibrous group
##STATUS=The identification of this mineral has been confirmed by X-ray diffraction and chemical analysis
##URL=rruff.info/R050062
##MEASURED CHEMISTRY=(Na_0.60_Ca_0.20_[box]_20_)_Σ=1_Ca_1.00_B_5.00_O_6_(OH)_6_·5H_2_O ; B not measured but assumed by stoichiometry and charge balance.
3.991926e+002, 1.378018e-001
4.011211e+002, 1.478421e-001
4.030496e+002, 1.485528e-001
4.049780e+002, 1.471055e-001
4.069065e+002, 1.507242e-001
4.088350e+002, 1.514405e-001
4.107634e+002, 1.519710e-001
4.126919e+002, 1.549490e-001
4.146204e+002, 1.554361e-001
4.165488e+002, 1.556646e-001
4.184773e+002, 1.589042e-001
4.204058e+002, 1.610449e-001
4.223342e+002, 1.612620e-001
4.242627e+002, 1.589501e-001
4.261912e+002, 1.554375e-001
4.281196e+002, 1.522782e-001
4.300481e+002, 1.471119e-001
4.319766e+002, 1.425515e-001
4.339050e+002, 1.433106e-001
4.358335e+002, 1.475212e-001
4.377620e+002, 1.524526e-001
4.396904e+002, 1.582300e-001
4.416189e+002, 1.628539e-001
4.435474e+002, 1.648156e-001
4.454758e+002, 1.630210e-001
4.474043e+002, 1.570961e-001
4.493328e+002, 1.492690e-001
4.512612e+002, 1.410921e-001
4.531897e+002, 1.348730e-001
4.551182e+002, 1.297761e-001
4.570466e+002, 1.262866e-001
4.589751e+002, 1.260832e-001
4.609036e+002, 1.279286e-001
4.628320e+002, 1.307434e-001
4.647605e+002, 1.348952e-001
4.666890e+002, 1.392671e-001
4.686174e+002, 1.440066e-001
4.705459e+002, 1.485191e-001
4.724744e+002, 1.500247e-001
4.744028e+002, 1.489025e-001
4.763313e+002, 1.478078e-001
4.782598e+002, 1.480812e-001
4.801882e+002, 1.483697e-001
4.821167e+002, 1.481683e-001
4.840452e+002, 1.475180e-001
4.859736e+002, 1.476927e-001
4.879021e+002, 1.488658e-001
4.898306e+002, 1.494838e-001
4.917590e+002, 1.498615e-001
4.936875e+002, 1.512082e-001
4.956160e+002, 1.522280e-001
4.975444e+002, 1.524078e-001
4.994729e+002, 1.524322e-001
5.014014e+002, 1.524345e-001
5.033298e+002, 1.526832e-001
5.052583e+002, 1.538243e-001
5.071868e+002, 1.554099e-001
5.091152e+002, 1.568525e-001
5.110437e+002, 1.579023e-001
5.129722e+002, 1.580859e-001
5.149006e+002, 1.588817e-001
5.168291e+002, 1.608324e-001
5.187576e+002, 1.629671e-001
5.206860e+002, 1.657978e-001
5.226145e+002, 1.686081e-001
5.245430e+002, 1.722252e-001
5.264714e+002, 1.758756e-001
5.283999e+002, 1.789959e-001
5.303284e+002, 1.813900e-001
5.322568e+002, 1.821513e-001
5.341853e+002, 1.810961e-001
5.361138e+002, 1.785773e-001
5.380422e+002, 1.749312e-001
5.399707e+002, 1.714724e-001
5.418992e+002, 1.681315e-001
5.438276e+002, 1.642038e-001
5.457561e+002, 1.612982e-001
5.476846e+002, 1.584657e-001
5.496130e+002, 1.554082e-001
5.515415e+002, 1.523507e-001
5.534700e+002, 1.492031e-001
5.553984e+002, 1.466009e-001
5.573269e+002, 1.444088e-001
5.592554e+002, 1.421852e-001
5.611838e+002, 1.393030e-001
5.631123e+002, 1.372648e-001
5.650408e+002, 1.365883e-001
5.669692e+002, 1.361068e-001
5.688977e+002, 1.353442e-001
5.708262e+002, 1.350332e-001
5.727546e+002, 1.351441e-001
5.746831e+002, 1.350663e-001
5.766116e+002, 1.350692e-001
5.785400e+002, 1.354653e-001
5.804685e+002, 1.357018e-001
5.823970e+002, 1.366087e-001
5.843254e+002, 1.380286e-001
5.862539e+002, 1.391056e-001
5.881824e+002, 1.402357e-001
5.901108e+002, 1.411616e-001
5.920393e+002, 1.414643e-001
5.939678e+002, 1.420467e-001
5.958962e+002, 1.428737e-001
5.978247e+002, 1.432782e-001
5.997532e+002, 1.439001e-001
6.016816e+002, 1.452068e-001
6.036101e+002, 1.461697e-001
6.055386e+002, 1.465003e-001
6.074670e+002, 1.467607e-001
6.093955e+002, 1.465372e-001
6.113240e+002, 1.454796e-001
6.132524e+002, 1.438697e-001
6.151809e+002, 1.429031e-001
6.171094e+002, 1.418636e-001
6.190378e+002, 1.408381e-001
6.209663e+002, 1.404377e-001
6.228948e+002, 1.405798e-001
6.248232e+002, 1.409547e-001
6.267517e+002, 1.422411e-001
6.286802e+002, 1.445804e-001
6.306086e+002, 1.471754e-001
6.325371e+002, 1.499555e-001
6.344656e+002, 1.525562e-001
6.363940e+002, 1.548957e-001
6.383225e+002, 1.566952e-001
6.402510e+002, 1.573598e-001
6.421794e+002, 1.573954e-001
6.441079e+002, 1.565762e-001
6.460364e+002, 1.551096e-001
6.479648e+002, 1.530980e-001
6.498933e+002, 1.505591e-001
6.518218e+002, 1.471288e-001
6.537502e+002, 1.440652e-001
6.556787e+002, 1.413631e-001
6.576072e+002, 1.383284e-001
6.595356e+002, 1.357280e-001
6.614641e+002, 1.334881e-001
6.633926e+002, 1.316244e-001
6.653210e+002, 1.304515e-001
6.672495e+002, 1.298803e-001
6.691780e+002, 1.294297e-001
6.711064e+002, 1.293018e-001
6.730349e+002, 1.294600e-001
6.749634e+002, 1.298922e-001
6.768918e+002, 1.309669e-001
6.788203e+002, 1.318028e-001
6.807488e+002, 1.323934e-001
6.826772e+002, 1.329483e-001
6.846057e+002, 1.332161e-001
6.865342e+002, 1.336333e-001
6.884626e+002, 1.345566e-001
6.903911e+002, 1.358237e-001
6.923196e+002, 1.375999e-001
6.942480e+002, 1.401697e-001
6.961765e+002, 1.433577e-001
6.981050e+002, 1.475097e-001
7.000334e+002, 1.522136e-001
7.019619e+002, 1.571635e-001
7.038904e+002, 1.629002e-001
7.058188e+002, 1.692591e-001
7.077473e+002, 1.757772e-001
7.096758e+002, 1.811032e-001
7.116042e+002, 1.839176e-001
7.135327e+002, 1.834666e-001
7.154612e+002, 1.782582e-001
7.173896e+002, 1.690084e-001
7.193181e+002, 1.585454e-001
7.212466e+002, 1.490949e-001
7.231750e+002, 1.411474e-001
7.251035e+002, 1.350766e-001
7.270320e+002, 1.308034e-001
7.289604e+002, 1.284014e-001
7.308889e+002, 1.273479e-001
7.328174e+002, 1.278677e-001
7.347458e+002, 1.298387e-001
7.366743e+002, 1.332968e-001
7.386028e+002, 1.379548e-001
7.405313e+002, 1.417257e-001
7.424597e+002, 1.437790e-001
7.443882e+002, 1.434028e-001
7.463167e+002, 1.406446e-001
7.482451e+002, 1.354968e-001
7.501736e+002, 1.273930e-001
7.521021e+002, 1.179134e-001
7.540305e+002, 1.087554e-001
7.559590e+002, 1.009290e-001
7.578875e+002, 9.498628e-002
7.598159e+002, 9.065630e-002
7.617444e+002, 8.751801e-002
7.636729e+002, 8.549569e-002
7.656013e+002, 8.422159e-002
7.675298e+002, 8.326733e-002
7.694583e+002, 8.264363e-002
7.713867e+002, 8.221778e-002
7.733152e+002, 8.239479e-002
7.752437e+002, 8.310330e-002
7.771721e+002, 8.391830e-002
7.791006e+002, 8.457864e-002
7.810291e+002, 8.563324e-002
7.829575e+002, 8.679214e-002
7.848860e+002, 8.819813e-002
7.868145e+002, 9.012770e-002
7.887429e+002, 9.203122e-002
7.906714e+002, 9.391492e-002
7.925999e+002, 9.618396e-002
7.945283e+002, 9.865282e-002
7.964568e+002, 1.014375e-001
7.983853e+002, 1.044940e-001
8.003137e+002, 1.081299e-001
8.022422e+002, 1.122413e-001
8.041707e+002, 1.168111e-001
8.060991e+002, 1.226172e-001
8.080276e+002, 1.293441e-001
8.099561e+002, 1.369598e-001
8.118845e+002, 1.461271e-001
8.138130e+002, 1.568015e-001
8.157415e+002, 1.685348e-001
8.176699e+002, 1.813584e-001
8.195984e+002, 1.942126e-001
8.215269e+002, 2.058983e-001
8.234553e+002, 2.157354e-001
8.253838e+002, 2.226328e-001
8.273123e+002, 2.265232e-001
8.292407e+002, 2.290177e-001
8.311692e+002, 2.309792e-001
8.330977e+002, 2.325979e-001
8.350261e+002, 2.350532e-001
8.369546e+002, 2.385238e-001
8.388831e+002, 2.440846e-001
8.408115e+002, 2.519223e-001
8.427400e+002, 2.622434e-001
8.446685e+002, 2.746648e-001
8.465969e+002, 2.886491e-001
8.485254e+002, 3.029186e-001
8.504539e+002, 3.158850e-001
8.523823e+002, 3.253585e-001
8.543108e+002, 3.289605e-001
8.562393e+002, 3.261203e-001
8.581677e+002, 3.175493e-001
8.600962e+002, 3.039891e-001
8.620247e+002, 2.868994e-001
8.639531e+002, 2.684471e-001
8.658816e+002, 2.503669e-001
8.678101e+002, 2.333295e-001
8.697385e+002, 2.176262e-001
8.716670e+002, 2.038768e-001
8.735955e+002, 1.918043e-001
8.755239e+002, 1.810966e-001
8.774524e+002, 1.710965e-001
8.793809e+002, 1.612865e-001
8.813093e+002, 1.519145e-001
8.832378e+002, 1.434501e-001
8.851663e+002, 1.357009e-001
8.870947e+002, 1.291634e-001
8.890232e+002, 1.244711e-001
8.909517e+002, 1.219334e-001
8.928801e+002, 1.211150e-001
8.948085e+002, 1.215425e-001
8.967370e+002, 1.229923e-001
8.986655e+002, 1.254501e-001
9.005939e+002, 1.283990e-001
9.025224e+002, 1.315378e-001
9.044509e+002, 1.351064e-001
9.063793e+002, 1.390226e-001
9.083078e+002, 1.432905e-001
9.102363e+002, 1.479794e-001
9.121647e+002, 1.530281e-001
9.140932e+002, 1.584502e-001
9.160217e+002, 1.639720e-001
9.179501e+002, 1.685417e-001
9.198786e+002, 1.713960e-001
9.218071e+002, 1.723625e-001
9.237355e+002, 1.717982e-001
9.256640e+002, 1.702996e-001
9.275925e+002, 1.683293e-001
9.295209e+002, 1.668015e-001
9.314494e+002, 1.659792e-001
9.333779e+002, 1.661620e-001
9.353063e+002, 1.676537e-001
9.372348e+002, 1.706209e-001
9.391633e+002, 1.752145e-001
9.410917e+002, 1.814678e-001
9.430202e+002, 1.887046e-001
9.449487e+002, 1.971350e-001
9.468771e+002, 2.071639e-001
9.488056e+002, 2.180876e-001
9.507341e+002, 2.292262e-001
9.526625e+002, 2.392688e-001
9.545910e+002, 2.469881e-001
9.565195e+002, 2.523278e-001
9.584479e+002, 2.562878e-001
9.603764e+002, 2.603730e-001
9.623049e+002, 2.667863e-001
9.642333e+002, 2.762865e-001
9.661618e+002, 2.879682e-001
9.680903e+002, 3.005047e-001
9.700187e+002, 3.115689e-001
9.719472e+002, 3.186455e-001
9.738757e+002, 3.209816e-001
9.758041e+002, 3.189001e-001
9.777326e+002, 3.140949e-001
9.796611e+002, 3.081264e-001
9.815895e+002, 3.025845e-001
9.835180e+002, 2.985551e-001
9.854465e+002, 2.961107e-001
9.873749e+002, 2.949864e-001
9.893034e+002, 2.942991e-001
9.912319e+002, 2.939606e-001
9.931603e+002, 2.939601e-001
9.950888e+002, 2.935845e-001
9.970173e+002, 2.930583e-001
9.989457e+002, 2.912380e-001
1.000874e+003, 2.875230e-001
1.002803e+003, 2.815793e-001
1.004731e+003, 2.733183e-001
1.006660e+003, 2.631777e-001
1.008588e+003, 2.519640e-001
1.010517e+003, 2.403231e-001
1.012445e+003, 2.290904e-001
1.014373e+003, 2.189801e-001
1.016302e+003, 2.106172e-001
1.018230e+003, 2.038976e-001
1.020159e+003, 1.993337e-001
1.022087e+003, 1.969998e-001
1.024016e+003, 1.966029e-001
1.025944e+003, 1.982361e-001
1.027873e+003, 2.022130e-001
1.029801e+003, 2.078394e-001
1.031730e+003, 2.150259e-001
1.033658e+003, 2.235166e-001
1.035587e+003, 2.323234e-001
1.037515e+003, 2.414125e-001
1.039444e+003, 2.504180e-001
1.041372e+003, 2.584499e-001
1.043301e+003, 2.649743e-001
1.045229e+003, 2.698596e-001
1.047157e+003, 2.728873e-001
1.049086e+003, 2.738297e-001
1.051014e+003, 2.727996e-001
1.052943e+003, 2.705673e-001
1.054871e+003, 2.669130e-001
1.056800e+003, 2.616617e-001
1.058728e+003, 2.555927e-001
1.060657e+003, 2.494287e-001
1.062585e+003, 2.434764e-001
1.064514e+003, 2.376371e-001
1.066442e+003, 2.317147e-001
1.068371e+003, 2.263379e-001
1.070299e+003, 2.216107e-001
1.072228e+003, 2.175439e-001
1.074156e+003, 2.140534e-001
1.076084e+003, 2.112768e-001
1.078013e+003, 2.092881e-001
1.079941e+003, 2.078860e-001
1.081870e+003, 2.068803e-001
1.083798e+003, 2.061268e-001
1.085727e+003, 2.055857e-001
1.087655e+003, 2.049834e-001
1.089584e+003, 2.041627e-001
1.091512e+003, 2.031888e-001
1.093441e+003, 2.020668e-001
1.095369e+003, 2.010306e-001
1.097298e+003, 1.996189e-001
1.099226e+003, 1.975210e-001
1.101155e+003, 1.948029e-001
1.103083e+003, 1.914199e-001
1.105011e+003, 1.869014e-001
1.106940e+003, 1.815141e-001
1.108868e+003, 1.754247e-001
1.110797e+003, 1.689821e-001
1.112725e+003, 1.624085e-001
1.114654e+003, 1.560211e-001
1.116582e+003, 1.498978e-001
1.118511e+003, 1.441613e-001
1.120439e+003, 1.388270e-001
1.122368e+003, 1.341390e-001
1.124296e+003, 1.300840e-001
1.126225e+003, 1.262613e-001
1.128153e+003, 1.227196e-001
1.130082e+003, 1.196271e-001
1.132010e+003, 1.168376e-001
1.133938e+003, 1.140023e-001
1.135867e+003, 1.113587e-001
1.137795e+003, 1.085514e-001
1.139724e+003, 1.055639e-001
1.141652e+003, 1.025769e-001
1.143581e+003, 9.944786e-002
1.145509e+003, 9.622304e-002
1.147438e+003, 9.286308e-002
1.149366e+003, 8.983741e-002
1.151295e+003, 8.687490e-002
1.153223e+003, 8.419123e-002
1.155152e+003, 8.190838e-002
1.157080e+003, 7.985993e-002
1.159009e+003, 7.799929e-002
1.160937e+003, 7.657639e-002
1.162865e+003, 7.575929e-002
1.164794e+003, 7.520507e-002
1.166722e+003, 7.494657e-002
1.168651e+003, 7.500640e-002
1.170579e+003, 7.553817e-002
1.172508e+003, 7.674661e-002
1.174436e+003, 7.843801e-002
1.176365e+003, 8.078118e-002
1.178293e+003, 8.356993e-002
1.180222e+003, 8.674639e-002
1.182150e+003, 9.005265e-002
1.184079e+003, 9.329175e-002
1.186007e+003, 9.669304e-002
1.187936e+003, 1.001201e-001
1.189864e+003, 1.033395e-001
1.191792e+003, 1.060478e-001
1.193721e+003, 1.081983e-001
1.195649e+003, 1.103310e-001
1.197578e+003, 1.125804e-001
1.199506e+003, 1.151539e-001
1.201435e+003, 1.183964e-001
1.203363e+003, 1.223394e-001
1.205292e+003, 1.266239e-001
1.207220e+003, 1.302818e-001
1.209149e+003, 1.320927e-001
1.211077e+003, 1.313177e-001
1.213006e+003, 1.279460e-001
1.214934e+003, 1.222332e-001
1.216863e+003, 1.150688e-001
1.218791e+003, 1.077139e-001
1.220719e+003, 1.010521e-001
1.222648e+003, 9.498519e-002
1.224576e+003, 8.979318e-002
1.226505e+003, 8.550536e-002
1.228433e+003, 8.223690e-002
1.230362e+003, 7.956145e-002
1.232290e+003, 7.713683e-002
1.234219e+003, 7.484765e-002
1.236147e+003, 7.254964e-002
1.238076e+003, 7.036971e-002
1.240004e+003, 6.825030e-002
1.241933e+003, 6.601520e-002
1.243861e+003, 6.386851e-002
1.245790e+003, 6.218628e-002
1.247718e+003, 6.102587e-002
1.249646e+003, 6.014232e-002
1.251575e+003, 5.917574e-002
1.253503e+003, 5.835406e-002
1.255432e+003, 5.795761e-002
1.257360e+003, 5.784268e-002
1.259289e+003, 5.781006e-002
1.261217e+003, 5.811198e-002
1.263146e+003, 5.891960e-002
1.265074e+003, 5.988323e-002
1.267003e+003, 6.104797e-002
1.268931e+003, 6.263699e-002
1.270860e+003, 6.450345e-002
1.272788e+003, 6.652488e-002
1.274717e+003, 6.877713e-002
1.276645e+003, 7.122826e-002
1.278573e+003, 7.371097e-002
1.280502e+003, 7.654737e-002
1.282430e+003, 7.966550e-002
1.284359e+003, 8.284169e-002
1.286287e+003, 8.632013e-002
1.288216e+003, 8.992968e-002
1.290144e+003, 9.381140e-002
1.292073e+003, 9.834763e-002
1.294001e+003, 1.033108e-001
1.295930e+003, 1.092114e-001
1.297858e+003, 1.163178e-001
1.299787e+003, 1.251536e-001
1.301715e+003, 1.360902e-001
1.303644e+003, 1.497191e-001
1.305572e+003, 1.662428e-001
1.307500e+003, 1.845696e-001
1.309429e+003, 2.025765e-001
1.311357e+003, 2.175937e-001
1.313286e+003, 2.273034e-001
1.315214e+003, 2.304740e-001
1.317143e+003, 2.274439e-001
1.319071e+003, 2.204938e-001
1.321000e+003, 2.113633e-001
1.322928e+003, 2.014310e-001
1.324857e+003, 1.918140e-001
1.326785e+003, 1.828475e-001
1.328714e+003, 1.746749e-001
1.330642e+003, 1.676070e-001
1.332571e+003, 1.612644e-001
1.334499e+003, 1.557395e-001
1.336427e+003, 1.516273e-001
1.338356e+003, 1.490724e-001
1.340284e+003, 1.479970e-001
1.342213e+003, 1.490987e-001
1.344141e+003, 1.523394e-001
1.346070e+003, 1.570213e-001
1.347998e+003, 1.621740e-001
1.349927e+003, 1.670862e-001
1.351855e+003, 1.711123e-001
1.353784e+003, 1.731942e-001
1.355712e+003, 1.728746e-001
1.357641e+003, 1.701600e-001
1.359569e+003, 1.653517e-001
1.361498e+003, 1.587877e-001
1.363426e+003, 1.512586e-001
1.365354e+003, 1.437097e-001
1.367283e+003, 1.365460e-001
1.369211e+003, 1.307314e-001
1.371140e+003, 1.263943e-001
1.373068e+003, 1.237080e-001
1.374997e+003, 1.232492e-001
1.376925e+003, 1.250772e-001
1.378854e+003, 1.291151e-001
1.380782e+003, 1.351877e-001
1.382711e+003, 1.422783e-001
1.384639e+003, 1.494631e-001
1.386568e+003, 1.554053e-001
1.388496e+003, 1.593010e-001
1.390424e+003, 1.609388e-001
1.392353e+003, 1.609704e-001
1.394281e+003, 1.596551e-001
1.396210e+003, 1.579461e-001
1.398138e+003, 1.567134e-001
1.400067e+003, 1.566163e-001
1.401995e+003, 1.575121e-001
1.403924e+003, 1.590448e-001
1.405852e+003, 1.609570e-001
1.407781e+003, 1.626462e-001
1.409709e+003, 1.636847e-001
1.411638e+003, 1.636031e-001
1.413566e+003, 1.621459e-001
1.415495e+003, 1.595309e-001
1.417423e+003, 1.557453e-001
1.419351e+003, 1.506814e-001
1.421280e+003, 1.446844e-001
1.423208e+003, 1.384085e-001
1.425137e+003, 1.317596e-001
1.427065e+003, 1.245003e-001
1.428994e+003, 1.171067e-001
1.430922e+003, 1.095245e-001
1.432851e+003, 1.017842e-001
1.434779e+003, 9.432916e-002
1.436708e+003, 8.740317e-002
1.438636e+003, 8.108293e-002
1.440565e+003, 7.562578e-002
1.442493e+003, 7.097938e-002
1.444422e+003, 6.701387e-002
1.446350e+003, 6.375827e-002
1.448278e+003, 6.096387e-002
1.450207e+003, 5.826293e-002
1.452135e+003, 5.582502e-002
1.454064e+003, 5.375475e-002
1.455992e+003, 5.197157e-002
1.457921e+003, 5.063307e-002
1.459849e+003, 4.929492e-002
1.461778e+003, 4.806077e-002
1.463706e+003, 4.726244e-002
1.465635e+003, 4.708978e-002
1.467563e+003, 4.729565e-002
1.469492e+003, 4.761259e-002
1.471420e+003, 4.802806e-002
1.473349e+003, 4.831827e-002
1.475277e+003, 4.790641e-002
1.477205e+003, 4.654215e-002
1.479134e+003, 4.424714e-002
1.481062e+003, 4.108955e-002
1.482991e+003, 3.746119e-002
1.484919e+003, 3.398703e-002
1.486848e+003, 3.067989e-002
1.488776e+003, 2.765477e-002
1.490705e+003, 2.537349e-002
1.492633e+003, 2.357078e-002
1.494562e+003, 2.186694e-002
1.496490e+003, 2.045806e-002
1.498419e+003, 1.932297e-002
1.500347e+003, 1.845315e-002
1.502276e+003, 1.763731e-002
1.504204e+003, 1.687089e-002
1.506132e+003, 1.638642e-002
1.508061e+003, 1.599712e-002
1.509989e+003, 1.544468e-002
1.511918e+003, 1.498451e-002
1.513846e+003, 1.488798e-002
1.515775e+003, 1.465415e-002
1.517703e+003, 1.421736e-002
1.519632e+003, 1.398103e-002
1.521560e+003, 1.396227e-002
1.523489e+003, 1.410054e-002
1.525417e+003, 1.411388e-002
1.527346e+003, 1.402257e-002
1.529274e+003, 1.390257e-002
1.531203e+003, 1.367154e-002
1.533131e+003, 1.361558e-002
1.535059e+003, 1.368646e-002
1.536988e+003, 1.375978e-002
1.538916e+003, 1.380881e-002
1.540845e+003, 1.405879e-002
1.542773e+003, 1.434826e-002
1.544702e+003, 1.455306e-002
1.546630e+003, 1.495038e-002
1.548559e+003, 1.523286e-002
1.550487e+003, 1.532544e-002
1.552416e+003, 1.553579e-002
1.554344e+003, 1.589968e-002
1.556273e+003, 1.621671e-002
1.558201e+003, 1.650270e-002
1.560130e+003, 1.688424e-002
1.562058e+003, 1.725409e-002
1.563986e+003, 1.761908e-002
1.565915e+003, 1.812634e-002
1.567843e+003, 1.849245e-002
1.569772e+003, 1.841599e-002
1.571700e+003, 1.851369e-002
1.573629e+003, 1.875133e-002
1.575557e+003, 1.925730e-002
1.577486e+003, 2.007017e-002
1.579414e+003, 2.058147e-002
1.581343e+003, 2.080747e-002
1.583271e+003, 2.115842e-002
1.585200e+003, 2.181776e-002
1.587128e+003, 2.256968e-002
1.589057e+003, 2.306190e-002
1.590985e+003, 2.356650e-002
1.592913e+003, 2.419511e-002
1.594842e+003, 2.474751e-002
1.596770e+003, 2.549168e-002
1.598699e+003, 2.633762e-002
1.600627e+003, 2.699624e-002
1.602556e+003, 2.763975e-002
1.604484e+003, 2.876380e-002
1.606413e+003, 2.984632e-002
1.608341e+003, 3.089458e-002
1.610270e+003, 3.219634e-002
1.612198e+003, 3.340030e-002
1.614127e+003, 3.479921e-002
1.616055e+003, 3.626847e-002
1.617984e+003, 3.764925e-002
1.619912e+003, 3.894809e-002
1.621840e+003, 4.038507e-002
1.623769e+003, 4.186117e-002
1.625697e+003, 4.306044e-002
1.627626e+003, 4.402742e-002
1.629554e+003, 4.400990e-002
1.631483e+003, 4.323592e-002
1.633411e+003, 4.200833e-002
1.635340e+003, 4.010639e-002
1.637268e+003, 3.806390e-002
1.639197e+003, 3.630316e-002
1.641125e+003, 3.461321e-002
1.643054e+003, 3.334158e-002
1.644982e+003, 3.243240e-002
1.646911e+003, 3.166734e-002
1.648839e+003, 3.108837e-002
1.650767e+003, 3.089799e-002
1.652696e+003, 3.117799e-002
1.654624e+003, 3.190136e-002
1.656553e+003, 3.296969e-002
1.658481e+003, 3.387320e-002
1.660410e+003, 3.459752e-002
1.662338e+003, 3.517975e-002
1.664267e+003, 3.541806e-002
1.666195e+003, 3.511745e-002
1.668124e+003, 3.422791e-002
1.670052e+003, 3.284502e-002
1.671981e+003, 3.118638e-002
1.673909e+003, 2.918705e-002
1.675838e+003, 2.702478e-002
1.677766e+003, 2.544174e-002
1.679694e+003, 2.431190e-002
1.681623e+003, 2.331518e-002
1.683551e+003, 2.219243e-002
1.685480e+003, 2.139928e-002
1.687408e+003, 2.100062e-002
1.689337e+003, 2.074382e-002
1.691265e+003, 2.050352e-002
1.693194e+003, 2.012032e-002
1.695122e+003, 1.954333e-002
1.697051e+003, 1.908758e-002
1.698979e+003, 1.893665e-002
1.700908e+003, 1.845326e-002
1.702836e+003, 1.794269e-002
1.704765e+003, 1.765666e-002
1.706693e+003, 1.739960e-002
1.708621e+003, 1.712015e-002
1.710550e+003, 1.662309e-002
1.712478e+003, 1.570102e-002
1.714407e+003, 1.501719e-002
1.716335e+003, 1.451138e-002
1.718264e+003, 1.402110e-002
1.720192e+003, 1.374126e-002
1.722121e+003, 1.357464e-002
1.724049e+003, 1.348604e-002
1.725978e+003, 1.335641e-002
1.727906e+003, 1.276105e-002
1.729835e+003, 1.196915e-002
1.731763e+003, 1.157085e-002
1.733692e+003, 1.119323e-002
1.735620e+003, 1.044617e-002
1.737548e+003, 9.722901e-003
1.739477e+003, 9.152646e-003
1.741405e+003, 8.635676e-003
1.743334e+003, 8.313768e-003
1.745262e+003, 8.243395e-003
1.747191e+003, 8.086422e-003
1.749119e+003, 8.061521e-003
1.751048e+003, 8.326078e-003
1.752976e+003, 8.441162e-003
1.754905e+003, 8.698861e-003
1.756833e+003, 9.046657e-003
1.758762e+003, 8.916639e-003
1.760690e+003, 8.574451e-003
1.762619e+003, 8.251349e-003
1.764547e+003, 8.523089e-003
1.766475e+003, 8.794092e-003
1.768404e+003, 8.631768e-003
1.770332e+003, 8.561128e-003
1.772261e+003, 8.466801e-003
1.774189e+003, 8.694801e-003
1.776118e+003, 8.548691e-003
1.778046e+003, 8.490091e-003
1.779975e+003, 8.732757e-003
1.781903e+003, 8.895904e-003
1.783832e+003, 8.977403e-003
1.785760e+003, 8.953666e-003
1.787689e+003, 8.819732e-003
1.789617e+003, 8.503082e-003
1.791546e+003, 8.351073e-003
1.793474e+003, 8.636470e-003
1.795402e+003, 8.853788e-003
1.797331e+003, 8.808202e-003
1.799259e+003, 8.703094e-003
1.801188e+003, 8.695068e-003
1.803116e+003, 8.934262e-003
1.805045e+003, 8.790788e-003
1.806973e+003, 8.669402e-003
1.808902e+003, 8.751535e-003
1.810830e+003, 8.686902e-003
1.812759e+003, 8.661908e-003
1.814687e+003, 8.466005e-003
1.816616e+003, 8.548153e-003
1.818544e+003, 9.369272e-003
1.820473e+003, 9.217450e-003
1.822401e+003, 8.657897e-003
1.824329e+003, 8.716298e-003
1.826258e+003, 9.032683e-003
1.828186e+003, 9.099783e-003
1.830115e+003, 9.214344e-003
1.832043e+003, 9.219611e-003
1.833972e+003, 8.874182e-003
1.835900e+003, 8.665160e-003
1.837829e+003, 8.651431e-003
1.839757e+003, 8.751473e-003
1.841686e+003, 9.058235e-003
1.843614e+003, 8.893545e-003
1.845543e+003, 8.667512e-003
1.847471e+003, 8.848120e-003
1.849400e+003, 9.202056e-003
1.851328e+003, 9.372561e-003
1.853256e+003, 9.436277e-003
1.855185e+003, 9.298105e-003
1.857113e+003, 9.367145e-003
1.859042e+003, 9.360800e-003
1.860970e+003, 9.113777e-003
1.862899e+003, 9.490806e-003
1.864827e+003, 9.705418e-003
1.866756e+003, 9.380384e-003
1.868684e+003, 8.910081e-003
1.870613e+003, 9.062683e-003
1.872541e+003, 9.354396e-003
1.874470e+003, 9.425812e-003
1.876398e+003, 9.197363e-003
1.878327e+003, 9.559156e-003
1.880255e+003, 9.493368e-003
1.882183e+003, 8.885284e-003
1.884112e+003, 8.565919e-003
1.886040e+003, 8.611538e-003
1.887969e+003, 8.823794e-003
1.889897e+003, 9.058037e-003
1.891826e+003, 9.244954e-003
1.893754e+003, 9.502584e-003
1.895683e+003, 8.927576e-003
1.897611e+003, 8.594731e-003
1.899540e+003, 8.475338e-003
1.901468e+003, 8.822063e-003
1.903397e+003, 9.144756e-003
1.905325e+003, 8.855601e-003
1.907254e+003, 8.701065e-003
1.909182e+003, 9.054945e-003
1.911110e+003, 8.889202e-003
1.913039e+003, 8.785114e-003
1.914967e+003, 8.102127e-003
1.916896e+003, 8.169597e-003
1.918824e+003, 8.342100e-003
1.920753e+003, 7.983472e-003
1.922681e+003, 7.805071e-003
1.924610e+003, 7.694882e-003
1.926538e+003, 7.077856e-003
1.928467e+003, 6.237130e-003
1.930395e+003, 6.345173e-003
1.932324e+003, 6.164381e-003
1.934252e+003, 5.964005e-003
1.936181e+003, 5.991264e-003
1.938109e+003, 5.725398e-003
1.940037e+003, 5.918918e-003
1.941966e+003, 5.250233e-003
1.943894e+003, 4.903206e-003
1.945823e+003, 4.897557e-003
1.947751e+003, 3.908623e-003
1.949680e+003, 3.887164e-003
1.951608e+003, 4.317658e-003
1.953537e+003, 4.094968e-003
1.955465e+003, 3.419032e-003
1.957394e+003, 2.567280e-003
1.959322e+003, 3.351388e-003
1.961251e+003, 3.880860e-003
1.963179e+003, 3.846061e-003
1.965108e+003, 4.305065e-003
1.967036e+003, 3.427344e-003
1.968964e+003, 1.528026e-003
1.970893e+003, 1.510386e-003
1.972821e+003, 2.783837e-003
1.974750e+003, 2.197387e-003
1.976678e+003, 2.668383e-003
1.978607e+003, 6.494466e-003
1.980535e+003, 8.207468e-003
1.982464e+003, 7.901171e-003
1.984392e+003, 6.626898e-003
1.986321e+003, 5.682377e-003
1.988249e+003, 5.617222e-003
1.990178e+003, 5.482561e-003
1.992106e+003, 4.406489e-003
1.994035e+003, 4.289226e-003
1.995963e+003, 3.964589e-003
1.997891e+003, 3.864295e-003
1.999820e+003, 3.922091e-003
2.001748e+003, 3.043740e-003
2.003677e+003, 2.511592e-003
2.005605e+003, 3.254256e-003
2.007534e+003, 3.365532e-003
2.009462e+003, 2.631686e-003
2.011391e+003, 2.973970e-003
2.013319e+003, 3.231718e-003
2.015248e+003, 3.724903e-003
2.017176e+003, 3.488455e-003
2.019105e+003, 3.076779e-003
2.021033e+003, 3.796757e-003
2.022962e+003, 5.329650e-003
2.024890e+003, 6.358792e-003
2.026818e+003, 5.785981e-003
2.028747e+003, 4.821574e-003
2.030675e+003, 4.349720e-003
2.032604e+003, 5.215070e-003
2.034532e+003, 7.234849e-003
2.036461e+003, 7.990302e-003
2.038389e+003, 8.223703e-003
2.040318e+003, 8.728934e-003
2.042246e+003, 1.008955e-002
2.044175e+003, 1.103341e-002
2.046103e+003, 1.050940e-002
2.048032e+003, 1.107830e-002
2.049960e+003, 1.205407e-002
2.051889e+003, 1.196433e-002
2.053817e+003, 1.021489e-002
2.055746e+003, 9.138565e-003
2.057674e+003, 9.601686e-003
2.059603e+003, 1.008390e-002
2.061531e+003, 9.368639e-003
2.063459e+003, 9.258777e-003
2.065388e+003, 9.476903e-003
2.067316e+003, 9.738811e-003
2.069245e+003, 9.697042e-003
2.071173e+003, 1.008954e-002
2.073102e+003, 1.110060e-002
2.075030e+003, 1.165066e-002
2.076959e+003, 1.148467e-002
2.078887e+003, 1.199056e-002
2.080816e+003, 1.167121e-002
2.082744e+003, 1.115083e-002
2.084673e+003, 1.120849e-002
2.086601e+003, 1.192961e-002
2.088530e+003, 1.185418e-002
2.090458e+003, 1.127237e-002
2.092386e+003, 1.024448e-002
2.094315e+003, 1.024975e-002
2.096243e+003, 1.102055e-002
2.098172e+003, 1.117244e-002
2.100100e+003, 1.089481e-002
2.102029e+003, 1.080611e-002
2.103957e+003, 1.176781e-002
2.105886e+003, 1.157292e-002
2.107814e+003, 1.085948e-002
2.109743e+003, 1.200443e-002
2.111671e+003, 1.237595e-002
2.113600e+003, 1.300836e-002
2.115528e+003, 1.275623e-002
2.117457e+003, 1.116807e-002
2.119385e+003, 1.149297e-002
2.121313e+003, 1.191345e-002
2.123242e+003, 1.092207e-002
2.125170e+003, 1.044400e-002
2.127099e+003, 1.038264e-002
2.129027e+003, 9.248433e-003
2.130956e+003, 7.327101e-003
2.132884e+003, 6.914179e-003
2.134813e+003, 7.841123e-003
2.136741e+003, 9.439221e-003
2.138670e+003, 9.685067e-003
2.140598e+003, 9.211720e-003
2.142527e+003, 8.572226e-003
2.144455e+003, 7.769191e-003
2.146384e+003, 7.869246e-003
2.148312e+003, 8.674943e-003
2.150240e+003, 8.605028e-003
2.152169e+003, 6.252952e-003
2.154097e+003, 3.523732e-003
2.156026e+003, 2.467523e-003
2.157954e+003, 5.085094e-003
2.159883e+003, 1.001350e-002
2.161811e+003, 1.052051e-002
2.163740e+003, 1.168815e-002
2.165668e+003, 1.232244e-002
2.167597e+003, 1.073947e-002
2.169525e+003, 9.267248e-003
2.171454e+003, 1.013754e-002
2.173382e+003, 1.124832e-002
2.175311e+003, 1.081054e-002
2.177239e+003, 9.360895e-003
2.179167e+003, 8.142639e-003
2.181096e+003, 7.672016e-003
2.183024e+003, 9.366002e-003
2.184953e+003, 1.083926e-002
2.186881e+003, 1.232808e-002
2.188810e+003, 1.268930e-002
2.190738e+003, 1.222943e-002
2.192667e+003, 1.192502e-002
2.194595e+003, 1.159255e-002
2.196524e+003, 1.226365e-002
2.198452e+003, 1.274890e-002
2.200381e+003, 1.335905e-002
2.202309e+003, 1.359788e-002
2.204238e+003, 1.309542e-002
2.206166e+003, 1.368048e-002
2.208094e+003, 1.488475e-002
2.210023e+003, 1.355231e-002
2.211951e+003, 1.213132e-002
2.213880e+003, 1.282779e-002
2.215808e+003, 1.381436e-002
2.217737e+003, 1.390820e-002
2.219665e+003, 1.484318e-002
2.221594e+003, 1.458454e-002
2.223522e+003, 1.383417e-002
2.225451e+003, 1.512749e-002
2.227379e+003, 1.578669e-002
2.229308e+003, 1.516159e-002
2.231236e+003, 1.518006e-002
2.233165e+003, 1.591314e-002
2.235093e+003, 1.660606e-002
2.237021e+003, 1.609186e-002
2.238950e+003, 1.689471e-002
2.240878e+003, 1.849100e-002
2.242807e+003, 1.750631e-002
2.244735e+003, 1.751093e-002
2.246664e+003, 1.812582e-002
2.248592e+003, 1.769204e-002
2.250521e+003, 1.730490e-002
2.252449e+003, 1.674532e-002
2.254378e+003, 1.628180e-002
2.256306e+003, 1.760706e-002
2.258235e+003, 1.867266e-002
2.260163e+003, 1.829399e-002
2.262092e+003, 1.830428e-002
2.264020e+003, 1.851810e-002
2.265948e+003, 1.823580e-002
2.267877e+003, 1.955108e-002
2.269805e+003, 2.011089e-002
2.271734e+003, 1.956764e-002
2.273662e+003, 1.893765e-002
2.275591e+003, 1.941412e-002
2.277519e+003, 2.010212e-002
2.279448e+003, 2.051901e-002
2.281376e+003, 2.160182e-002
2.283305e+003, 2.135005e-002
2.285233e+003, 2.145521e-002
2.287162e+003, 2.185352e-002
2.289090e+003, 2.140458e-002
2.291019e+003, 2.106728e-002
2.292947e+003, 2.082737e-002
2.294875e+003, 2.121741e-002
2.296804e+003, 2.175008e-002
2.298732e+003, 2.216195e-002
2.300661e+003, 2.197061e-002
2.302589e+003, 2.164380e-002
2.304518e+003, 2.141703e-002
2.306446e+003, 2.156958e-002
2.308375e+003, 2.204391e-002
2.310303e+003, 2.209020e-002
2.312232e+003, 2.212072e-002
2.314160e+003, 2.280418e-002
2.316089e+003, 2.286148e-002
2.318017e+003, 2.291835e-002
2.319946e+003, 2.334395e-002
2.321874e+003, 2.417151e-002
2.323802e+003, 2.415969e-002
2.325731e+003, 2.306806e-002
2.327659e+003, 2.260877e-002
2.329588e+003, 2.284515e-002
2.331516e+003, 2.251130e-002
2.333445e+003, 2.254555e-002
2.335373e+003, 2.301151e-002
2.337302e+003, 2.333835e-002
2.339230e+003, 2.356510e-002
2.341159e+003, 2.342627e-002
2.343087e+003, 2.318788e-002
2.345016e+003, 2.319424e-002
2.346944e+003, 2.252333e-002
2.348873e+003, 2.242094e-002
2.350801e+003, 2.304513e-002
2.352729e+003, 2.336933e-002
2.354658e+003, 2.340368e-002
2.356586e+003, 2.368469e-002
2.358515e+003, 2.409977e-002
2.360443e+003, 2.482806e-002
2.362372e+003, 2.524620e-002
2.364300e+003, 2.460228e-002
2.366229e+003, 2.392045e-002
2.368157e+003, 2.412005e-002
2.370086e+003, 2.444840e-002
2.372014e+003, 2.434716e-002
2.373942e+003, 2.473516e-002
2.375871e+003, 2.520017e-002
2.377799e+003, 2.527043e-002
2.379728e+003, 2.507594e-002
2.381656e+003, 2.558849e-002
2.383585e+003, 2.620660e-002
2.385513e+003, 2.578938e-002
2.387442e+003, 2.526403e-002
2.389370e+003, 2.545676e-002
2.391299e+003, 2.589967e-002
2.393227e+003, 2.549814e-002
2.395156e+003, 2.529868e-002
2.397084e+003, 2.546647e-002
2.399012e+003, 2.577240e-002
2.400941e+003, 2.553092e-002
2.402869e+003, 2.445767e-002
2.404798e+003, 2.399339e-002
2.406726e+003, 2.449920e-002
2.408655e+003, 2.487562e-002
2.410583e+003, 2.533714e-002
2.412512e+003, 2.526169e-002
2.414440e+003, 2.497774e-002
2.416369e+003, 2.498273e-002
2.418297e+003, 2.385621e-002
2.420226e+003, 2.337029e-002
2.422154e+003, 2.418076e-002
2.424083e+003, 2.432194e-002
2.426011e+003, 2.431351e-002
2.427939e+003, 2.470483e-002
2.429868e+003, 2.502516e-002
2.431796e+003, 2.458319e-002
2.433725e+003, 2.494910e-002
2.435653e+003, 2.588222e-002
2.437582e+003, 2.631138e-002
2.439510e+003, 2.647099e-002
2.441439e+003, 2.654634e-002
2.443367e+003, 2.608674e-002
2.445296e+003, 2.625094e-002
2.447224e+003, 2.691167e-002
2.449153e+003, 2.705946e-002
2.451081e+003, 2.696501e-002
2.453010e+003, 2.730589e-002
2.454938e+003, 2.781635e-002
2.456866e+003, 2.737331e-002
2.458795e+003, 2.705159e-002
2.460723e+003, 2.784267e-002
2.462652e+003, 2.846748e-002
2.464580e+003, 2.825986e-002
2.466509e+003, 2.798444e-002
2.468437e+003, 2.879878e-002
2.470366e+003, 2.953820e-002
2.472294e+003, 2.910508e-002
2.474223e+003, 2.809543e-002
2.476151e+003, 2.862007e-002
2.478080e+003, 2.964355e-002
2.480008e+003, 3.017627e-002
2.481937e+003, 2.992908e-002
2.483865e+003, 2.998916e-002
2.485793e+003, 3.017991e-002
2.487722e+003, 3.036061e-002
2.489650e+003, 3.020118e-002
2.491579e+003, 3.017712e-002
2.493507e+003, 2.955049e-002
2.495436e+003, 2.899365e-002
2.497364e+003, 2.951312e-002
2.499293e+003, 3.010683e-002
2.501221e+003, 3.005812e-002
2.503150e+003, 2.967336e-002
2.505078e+003, 2.999303e-002
2.507007e+003, 3.064371e-002
2.508935e+003, 3.028393e-002
2.510864e+003, 3.001590e-002
2.512792e+003, 2.990327e-002
2.514720e+003, 3.006031e-002
2.516649e+003, 3.046477e-002
2.518577e+003, 3.058857e-002
2.520506e+003, 3.075984e-002
2.522434e+003, 3.012995e-002
2.524363e+003, 2.994745e-002
2.526291e+003, 3.016775e-002
2.528220e+003, 2.964904e-002
2.530148e+003, 2.897234e-002
2.532077e+003, 2.882458e-002
2.534005e+003, 2.894816e-002
2.535934e+003, 2.846015e-002
2.537862e+003, 2.785697e-002
2.539791e+003, 2.752083e-002
2.541719e+003, 2.796187e-002
2.543647e+003, 2.809339e-002
2.545576e+003, 2.811071e-002
2.547504e+003, 2.736861e-002
2.549433e+003, 2.615874e-002
2.551361e+003, 2.601825e-002
2.553290e+003, 2.583756e-002
2.555218e+003, 2.532635e-002
2.557147e+003, 2.520473e-002
2.559075e+003, 2.544916e-002
2.561004e+003, 2.540601e-002
2.562932e+003, 2.487258e-002
2.564861e+003, 2.417521e-002
2.566789e+003, 2.469468e-002
2.568718e+003, 2.512874e-002
2.570646e+003, 2.456272e-002
2.572574e+003, 2.376868e-002
2.574503e+003, 2.364833e-002
2.576431e+003, 2.344112e-002
2.578360e+003, 2.335204e-002
2.580288e+003, 2.380401e-002
2.582217e+003, 2.308985e-002
2.584145e+003, 2.245621e-002
2.586074e+003, 2.324685e-002
2.588002e+003, 2.350716e-002
2.589931e+003, 2.265216e-002
2.591859e+003, 2.283283e-002
2.593788e+003, 2.390180e-002
2.595716e+003, 2.385582e-002
2.597645e+003, 2.427796e-002
2.599573e+003, 2.433388e-002
2.601501e+003, 2.397080e-002
2.603430e+003, 2.406552e-002
2.605358e+003, 2.373172e-002
2.607287e+003, 2.378807e-002
2.609215e+003, 2.417586e-002
2.611144e+003, 2.381619e-002
2.613072e+003, 2.382993e-002
2.615001e+003, 2.413259e-002
2.616929e+003, 2.394943e-002
2.618858e+003, 2.442070e-002
2.620786e+003, 2.489074e-002
2.622715e+003, 2.407817e-002
2.624643e+003, 2.396457e-002
2.626572e+003, 2.462529e-002
2.628500e+003, 2.467589e-002
2.630428e+003, 2.417177e-002
2.632357e+003, 2.457211e-002
2.634285e+003, 2.549294e-002
2.636214e+003, 2.565307e-002
2.638142e+003, 2.543772e-002
2.640071e+003, 2.576631e-002
2.641999e+003, 2.586223e-002
2.643928e+003, 2.579234e-002
2.645856e+003, 2.563525e-002
2.647785e+003, 2.594720e-002
2.649713e+003, 2.643634e-002
2.651642e+003, 2.718214e-002
2.653570e+003, 2.738477e-002
2.655499e+003, 2.692148e-002
2.657427e+003, 2.697553e-002
2.659355e+003, 2.696651e-002
2.661284e+003, 2.655739e-002
2.663212e+003, 2.663384e-002
2.665141e+003, 2.666147e-002
2.667069e+003, 2.667107e-002
2.668998e+003, 2.668400e-002
2.670926e+003, 2.650439e-002
2.672855e+003, 2.649507e-002
2.674783e+003, 2.685998e-002
2.676712e+003, 2.708707e-002
2.678640e+003, 2.701577e-002
2.680569e+003, 2.728173e-002
2.682497e+003, 2.695611e-002
2.684426e+003, 2.636500e-002
2.686354e+003, 2.624166e-002
2.688282e+003, 2.653398e-002
2.690211e+003, 2.641385e-002
2.692139e+003, 2.649447e-002
2.694068e+003, 2.613651e-002
2.695996e+003, 2.610203e-002
2.697925e+003, 2.621371e-002
2.699853e+003, 2.629673e-002
2.701782e+003, 2.661022e-002
2.703710e+003, 2.643480e-002
2.705639e+003, 2.589458e-002
2.707567e+003, 2.610641e-002
2.709496e+003, 2.640967e-002
2.711424e+003, 2.611809e-002
2.713353e+003, 2.577366e-002
2.715281e+003, 2.631288e-002
2.717209e+003, 2.721213e-002
2.719138e+003, 2.701390e-002
2.721066e+003, 2.658931e-002
2.722995e+003, 2.701376e-002
2.724923e+003, 2.777711e-002
2.726852e+003, 2.843917e-002
2.728780e+003, 2.808030e-002
2.730709e+003, 2.773627e-002
2.732637e+003, 2.773306e-002
2.734566e+003, 2.783658e-002
2.736494e+003, 2.825290e-002
2.738423e+003, 2.840427e-002
2.740351e+003, 2.816397e-002
2.742280e+003, 2.838612e-002
2.744208e+003, 2.866780e-002
2.746136e+003, 2.905241e-002
2.748065e+003, 2.939834e-002
2.749993e+003, 2.911977e-002
2.751922e+003, 2.907577e-002
2.753850e+003, 2.960283e-002
2.755779e+003, 2.964853e-002
2.757707e+003, 2.998999e-002
2.759636e+003, 3.079364e-002
2.761564e+003, 3.074558e-002
2.763493e+003, 3.055600e-002
2.765421e+003, 3.056293e-002
2.767350e+003, 3.047910e-002
2.769278e+003, 3.055882e-002
2.771207e+003, 3.060152e-002
2.773135e+003, 3.066830e-002
2.775063e+003, 3.086024e-002
2.776992e+003, 3.116234e-002
2.778920e+003, 3.113834e-002
2.780849e+003, 3.104448e-002
2.782777e+003, 3.097323e-002
2.784706e+003, 3.180554e-002
2.786634e+003, 3.247111e-002
2.788563e+003, 3.270222e-002
2.790491e+003, 3.265594e-002
2.792420e+003, 3.264519e-002
2.794348e+003, 3.284044e-002
2.796277e+003, 3.322064e-002
2.798205e+003, 3.349823e-002
2.800134e+003, 3.394254e-002
2.802062e+003, 3.392591e-002
2.803990e+003, 3.367442e-002
2.805919e+003, 3.407818e-002
2.807847e+003, 3.407484e-002
2.809776e+003, 3.433368e-002
2.811704e+003, 3.463554e-002
2.813633e+003, 3.460519e-002
2.815561e+003, 3.471028e-002
2.817490e+003, 3.489449e-002
2.819418e+003, 3.480760e-002
2.821347e+003, 3.490005e-002
2.823275e+003, 3.585419e-002
2.825204e+003, 3.602208e-002
2.827132e+003, 3.531200e-002
2.829061e+003, 3.525266e-002
2.830989e+003, 3.549665e-002
2.832917e+003, 3.573857e-002
2.834846e+003, 3.568548e-002
2.836774e+003, 3.560872e-002
2.838703e+003, 3.625473e-002
2.840631e+003, 3.740722e-002
2.842560e+003, 3.775629e-002
2.844488e+003, 3.668850e-002
2.846417e+003, 3.544797e-002
2.848345e+003, 3.563617e-002
2.850274e+003, 3.631299e-002
2.852202e+003, 3.519476e-002
2.854131e+003, 3.499143e-002
2.856059e+003, 3.617635e-002
2.857988e+003, 3.708368e-002
2.859916e+003, 3.752358e-002
2.861844e+003, 3.778689e-002
2.863773e+003, 3.820040e-002
2.865701e+003, 3.889200e-002
2.867630e+003, 3.906112e-002
2.869558e+003, 3.963189e-002
2.871487e+003, 3.959773e-002
2.873415e+003, 3.925376e-002
2.875344e+003, 4.010674e-002
2.877272e+003, 4.135448e-002
2.879201e+003, 4.214340e-002
2.881129e+003, 4.216430e-002
2.883058e+003, 4.260677e-002
2.884986e+003, 4.286196e-002
2.886915e+003, 4.243618e-002
2.888843e+003, 4.246016e-002
2.890771e+003, 4.350961e-002
2.892700e+003, 4.396877e-002
2.894628e+003, 4.375774e-002
2.896557e+003, 4.363434e-002
2.898485e+003, 4.327243e-002
2.900414e+003, 4.305630e-002
2.902342e+003, 4.404086e-002
2.904271e+003, 4.510494e-002
2.906199e+003, 4.516395e-002
2.908128e+003, 4.486575e-002
2.910056e+003, 4.436611e-002
2.911985e+003, 4.536722e-002
2.913913e+003, 4.620337e-002
2.915842e+003, 4.566741e-002
2.917770e+003, 4.495316e-002
2.919698e+003, 4.514375e-002
2.921627e+003, 4.538394e-002
2.923555e+003, 4.533741e-002
2.925484e+003, 4.552566e-002
2.927412e+003, 4.569200e-002
2.929341e+003, 4.637921e-002
2.931269e+003, 4.720146e-002
2.933198e+003, 4.719811e-002
2.935126e+003, 4.690265e-002
2.937055e+003, 4.742735e-002
2.938983e+003, 4.815656e-002
2.940912e+003, 4.897412e-002
2.942840e+003, 4.963140e-002
2.944769e+003, 4.990076e-002
2.946697e+003, 5.029782e-002
2.948625e+003, 5.060248e-002
2.950554e+003, 5.030904e-002
2.952482e+003, 4.980621e-002
2.954411e+003, 4.973283e-002
2.956339e+003, 5.063987e-002
2.958268e+003, 5.106922e-002
2.960196e+003, 5.129901e-002
2.962125e+003, 5.157369e-002
2.964053e+003, 5.199970e-002
2.965982e+003, 5.297843e-002
2.967910e+003, 5.390923e-002
2.969839e+003, 5.440974e-002
2.971767e+003, 5.472780e-002
2.973696e+003, 5.446853e-002
2.975624e+003, 5.459160e-002
2.977552e+003, 5.522641e-002
2.979481e+003, 5.600881e-002
2.981409e+003, 5.697825e-002
2.983338e+003, 5.730145e-002
2.985266e+003, 5.784027e-002
2.987195e+003, 5.839362e-002
2.989123e+003, 5.832746e-002
2.991052e+003, 5.806899e-002
2.992980e+003, 5.862925e-002
2.994909e+003, 5.907821e-002
2.996837e+003, 5.896648e-002
2.998766e+003, 5.942374e-002
3.000694e+003, 6.086478e-002
3.002623e+003, 6.120877e-002
3.004551e+003, 6.159232e-002
3.006479e+003, 6.223352e-002
3.008408e+003, 6.329979e-002
3.010336e+003, 6.351832e-002
3.012265e+003, 6.389776e-002
3.014193e+003, 6.420462e-002
3.016122e+003, 6.469016e-002
3.018050e+003, 6.571943e-002
3.019979e+003, 6.698398e-002
3.021907e+003, 6.724907e-002
3.023836e+003, 6.700366e-002
3.025764e+003, 6.740809e-002
3.027693e+003, 6.850129e-002
3.029621e+003, 6.923866e-002
3.031550e+003, 7.013692e-002
3.033478e+003, 7.077739e-002
3.035406e+003, 7.105609e-002
3.037335e+003, 7.169002e-002
3.039263e+003, 7.261962e-002
3.041192e+003, 7.349685e-002
3.043120e+003, 7.451214e-002
3.045049e+003, 7.521845e-002
3.046977e+003, 7.610391e-002
3.048906e+003, 7.727296e-002
3.050834e+003, 7.830063e-002
3.052763e+003, 7.867224e-002
3.054691e+003, 8.053736e-002
3.056620e+003, 8.213402e-002
3.058548e+003, 8.315063e-002
3.060477e+003, 8.528633e-002
3.062405e+003, 8.604425e-002
3.064333e+003, 8.661272e-002
3.066262e+003, 8.829808e-002
3.068190e+003, 9.016711e-002
3.070119e+003, 9.135859e-002
3.072047e+003, 9.139492e-002
3.073976e+003, 9.264150e-002
3.075904e+003, 9.562067e-002
3.077833e+003, 9.867959e-002
3.079761e+003, 1.009522e-001
3.081690e+003, 1.024079e-001
3.083618e+003, 1.040529e-001
3.085547e+003, 1.065497e-001
3.087475e+003, 1.097790e-001
3.089404e+003, 1.129894e-001
3.091332e+003, 1.151827e-001
3.093260e+003, 1.182047e-001
3.095189e+003, 1.219258e-001
3.097117e+003, 1.251063e-001
3.099046e+003, 1.282750e-001
3.100974e+003, 1.318187e-001
3.102903e+003, 1.348885e-001
3.104831e+003, 1.375140e-001
3.106760e+003, 1.409889e-001
3.108688e+003, 1.447600e-001
3.110617e+003, 1.480803e-001
3.112545e+003, 1.508392e-001
3.114474e+003, 1.548801e-001
3.116402e+003, 1.577070e-001
3.118331e+003, 1.587206e-001
3.120259e+003, 1.607119e-001
3.122188e+003, 1.622737e-001
3.124116e+003, 1.630079e-001
3.126044e+003, 1.625873e-001
3.127973e+003, 1.627228e-001
3.129901e+003, 1.629539e-001
3.131830e+003, 1.616549e-001
3.133758e+003, 1.598512e-001
3.135687e+003, 1.580083e-001
3.137615e+003, 1.572174e-001
3.139544e+003, 1.568505e-001
3.141472e+003, 1.554027e-001
3.143401e+003, 1.547928e-001
3.145329e+003, 1.530539e-001
3.147258e+003, 1.511994e-001
3.149186e+003, 1.498150e-001
3.151115e+003, 1.492710e-001
3.153043e+003, 1.490449e-001
3.154971e+003, 1.479063e-001
3.156900e+003, 1.471879e-001
3.158828e+003, 1.469157e-001
3.160757e+003, 1.467128e-001
3.162685e+003, 1.465027e-001
3.164614e+003, 1.463924e-001
3.166542e+003, 1.466117e-001
3.168471e+003, 1.471808e-001
3.170399e+003, 1.471330e-001
3.172328e+003, 1.468398e-001
3.174256e+003, 1.472085e-001
3.176185e+003, 1.477816e-001
3.178113e+003, 1.488322e-001
3.180042e+003, 1.490834e-001
3.181970e+003, 1.492070e-001
3.183898e+003, 1.499452e-001
3.185827e+003, 1.501888e-001
3.187755e+003, 1.509603e-001
3.189684e+003, 1.529627e-001
3.191612e+003, 1.546590e-001
3.193541e+003, 1.551405e-001
3.195469e+003, 1.553558e-001
3.197398e+003, 1.552502e-001
3.199326e+003, 1.553253e-001
3.201255e+003, 1.564585e-001
3.203183e+003, 1.572538e-001
3.205112e+003, 1.573546e-001
3.207040e+003, 1.577322e-001
3.208969e+003, 1.578276e-001
3.210897e+003, 1.586212e-001
3.212825e+003, 1.596256e-001
3.214754e+003, 1.602260e-001
3.216682e+003, 1.602343e-001
3.218611e+003, 1.598314e-001
3.220539e+003, 1.600851e-001
3.222468e+003, 1.602229e-001
3.224396e+003, 1.587787e-001
3.226325e+003, 1.576484e-001
3.228253e+003, 1.579107e-001
3.230182e+003, 1.581056e-001
3.232110e+003, 1.574678e-001
3.234039e+003, 1.563542e-001
3.235967e+003, 1.555968e-001
3.237896e+003, 1.554330e-001
3.239824e+003, 1.543492e-001
3.241752e+003, 1.530194e-001
3.243681e+003, 1.518905e-001
3.245609e+003, 1.513375e-001
3.247538e+003, 1.508351e-001
3.249466e+003, 1.508062e-001
3.251395e+003, 1.519332e-001
3.253323e+003, 1.516177e-001
3.255252e+003, 1.507923e-001
3.257180e+003, 1.503805e-001
3.259109e+003, 1.498550e-001
3.261037e+003, 1.501040e-001
3.262966e+003, 1.511481e-001
3.264894e+003, 1.518199e-001
3.266823e+003, 1.522392e-001
3.268751e+003, 1.521750e-001
3.270679e+003, 1.523644e-001
3.272608e+003, 1.524566e-001
3.274536e+003, 1.530925e-001
3.276465e+003, 1.538379e-001
3.278393e+003, 1.542839e-001
3.280322e+003, 1.545305e-001
3.282250e+003, 1.549189e-001
3.284179e+003, 1.552466e-001
3.286107e+003, 1.570503e-001
3.288036e+003, 1.574839e-001
3.289964e+003, 1.569208e-001
3.291893e+003, 1.574497e-001
3.293821e+003, 1.579975e-001
3.295750e+003, 1.578940e-001
3.297678e+003, 1.567384e-001
3.299606e+003, 1.563725e-001
3.301535e+003, 1.561962e-001
3.303463e+003, 1.561101e-001
3.305392e+003, 1.552983e-001
3.307320e+003, 1.551207e-001
3.309249e+003, 1.552256e-001
3.311177e+003, 1.544755e-001
3.313106e+003, 1.543328e-001
3.315034e+003, 1.536726e-001
3.316963e+003, 1.527804e-001
3.318891e+003, 1.527424e-001
3.320820e+003, 1.529769e-001
3.322748e+003, 1.521837e-001
3.324677e+003, 1.510269e-001
3.326605e+003, 1.496760e-001
3.328533e+003, 1.484482e-001
3.330462e+003, 1.480092e-001
3.332390e+003, 1.485416e-001
3.334319e+003, 1.494200e-001
3.336247e+003, 1.490011e-001
3.338176e+003, 1.497939e-001
3.340104e+003, 1.509341e-001
3.342033e+003, 1.513159e-001
3.343961e+003, 1.519615e-001
3.345890e+003, 1.532632e-001
3.347818e+003, 1.533656e-001
3.349747e+003, 1.528834e-001
3.351675e+003, 1.533502e-001
3.353604e+003, 1.539612e-001
3.355532e+003, 1.540232e-001
3.357460e+003, 1.549732e-001
3.359389e+003, 1.559755e-001
3.361317e+003, 1.567669e-001
3.363246e+003, 1.584191e-001
3.365174e+003, 1.591348e-001
3.367103e+003, 1.591924e-001
3.369031e+003, 1.595654e-001
3.370960e+003, 1.605534e-001
3.372888e+003, 1.606440e-001
3.374817e+003, 1.627722e-001
3.376745e+003, 1.651733e-001
3.378674e+003, 1.663457e-001
3.380602e+003, 1.671049e-001
3.382531e+003, 1.676416e-001
3.384459e+003, 1.691767e-001
3.386387e+003, 1.711144e-001
3.388316e+003, 1.729674e-001
3.390244e+003, 1.739365e-001
3.392173e+003, 1.763615e-001
3.394101e+003, 1.790653e-001
3.396030e+003, 1.812205e-001
3.397958e+003, 1.825147e-001
3.399887e+003, 1.849917e-001
3.401815e+003, 1.874880e-001
3.403744e+003, 1.897901e-001
3.405672e+003, 1.915716e-001
3.407601e+003, 1.922862e-001
3.409529e+003, 1.933049e-001
3.411458e+003, 1.940393e-001
3.413386e+003, 1.945743e-001
3.415314e+003, 1.944285e-001
3.417243e+003, 1.927430e-001
3.419171e+003, 1.912480e-001
3.421100e+003, 1.897425e-001
3.423028e+003, 1.879906e-001
3.424957e+003, 1.851876e-001
3.426885e+003, 1.824721e-001
3.428814e+003, 1.802810e-001
3.430742e+003, 1.769689e-001
3.432671e+003, 1.742074e-001
3.434599e+003, 1.726337e-001
3.436528e+003, 1.714136e-001
3.438456e+003, 1.697859e-001
3.440385e+003, 1.664286e-001
3.442313e+003, 1.636043e-001
3.444241e+003, 1.620641e-001
3.446170e+003, 1.605584e-001
3.448098e+003, 1.580027e-001
3.450027e+003, 1.546265e-001
3.451955e+003, 1.531189e-001
3.453884e+003, 1.523559e-001
3.455812e+003, 1.508172e-001
3.457741e+003, 1.486423e-001
3.459669e+003, 1.462260e-001
3.461598e+003, 1.459171e-001
3.463526e+003, 1.458551e-001
3.465455e+003, 1.434581e-001
3.467383e+003, 1.406781e-001
3.469312e+003, 1.394653e-001
3.471240e+003, 1.389253e-001
3.473168e+003, 1.370267e-001
3.475097e+003, 1.353541e-001
3.477025e+003, 1.352876e-001
3.478954e+003, 1.351653e-001
3.480882e+003, 1.345155e-001
3.482811e+003, 1.352198e-001
3.484739e+003, 1.349982e-001
3.486668e+003, 1.340850e-001
3.488596e+003, 1.342178e-001
3.490525e+003, 1.338546e-001
3.492453e+003, 1.318714e-001
3.494382e+003, 1.307107e-001
3.496310e+003, 1.310411e-001
3.498239e+003, 1.310280e-001
3.500167e+003, 1.316100e-001
3.502095e+003, 1.318125e-001
3.504024e+003, 1.310868e-001
3.505952e+003, 1.309520e-001
3.507881e+003, 1.312027e-001
3.509809e+003, 1.314148e-001
3.511738e+003, 1.303204e-001
3.513666e+003, 1.299952e-001
3.515595e+003, 1.305748e-001
3.517523e+003, 1.311586e-001
3.519452e+003, 1.307741e-001
3.521380e+003, 1.280038e-001
3.523309e+003, 1.260145e-001
3.525237e+003, 1.252793e-001
3.527166e+003, 1.216530e-001
3.529094e+003, 1.166820e-001
3.531022e+003, 1.119990e-001
3.532951e+003, 1.081439e-001
3.534879e+003, 1.054517e-001
3.536808e+003, 1.027693e-001
3.538736e+003, 9.849782e-002
3.540665e+003, 9.472048e-002
3.542593e+003, 9.092189e-002
3.544522e+003, 8.675966e-002
3.546450e+003, 8.443451e-002
3.548379e+003, 8.409857e-002
3.550307e+003, 8.224152e-002
3.552236e+003, 7.887623e-002
3.554164e+003, 7.796306e-002
3.556093e+003, 7.772092e-002
3.558021e+003, 7.811528e-002
3.559949e+003, 7.947642e-002
3.561878e+003, 7.999945e-002
3.563806e+003, 8.000084e-002
3.565735e+003, 8.070982e-002
3.567663e+003, 8.270267e-002
3.569592e+003, 8.604585e-002
3.571520e+003, 8.805133e-002
3.573449e+003, 8.893947e-002
3.575377e+003, 9.045053e-002
3.577306e+003, 9.329392e-002
3.579234e+003, 9.787729e-002
3.581163e+003, 1.014232e-001
3.583091e+003, 1.054217e-001
3.585020e+003, 1.140039e-001
3.586948e+003, 1.241470e-001
3.588876e+003, 1.323967e-001
3.590805e+003, 1.405816e-001
3.592733e+003, 1.469096e-001
3.594662e+003, 1.473264e-001
3.596590e+003, 1.415275e-001
3.598519e+003, 1.308915e-001
3.600447e+003, 1.175187e-001
3.602376e+003, 1.025940e-001
3.604304e+003, 8.773561e-002
3.606233e+003, 7.422321e-002
3.608161e+003, 6.447016e-002
3.610090e+003, 5.792744e-002
3.612018e+003, 5.022779e-002
3.613947e+003, 4.255283e-002
3.615875e+003, 3.748185e-002
3.617803e+003, 3.412212e-002
3.619732e+003, 3.192786e-002
3.621660e+003, 2.992230e-002
3.623589e+003, 2.730152e-002
3.625517e+003, 2.486562e-002
3.627446e+003, 2.283452e-002
3.629374e+003, 2.201262e-002
3.631303e+003, 2.277060e-002
3.633231e+003, 2.059211e-002
3.635160e+003, 1.828042e-002
3.637088e+003, 1.788278e-002
3.639017e+003, 1.641790e-002
3.640945e+003, 1.491044e-002
3.642874e+003, 1.443512e-002
3.644802e+003, 1.340090e-002
3.646730e+003, 1.155256e-002
3.648659e+003, 1.154774e-002
3.650587e+003, 1.144906e-002
3.652516e+003, 9.900302e-003
3.654444e+003, 9.319637e-003
3.656373e+003, 1.021950e-002
3.658301e+003, 9.695565e-003
3.660230e+003, 8.354190e-003
3.662158e+003, 6.918592e-003
3.664087e+003, 4.968058e-003
3.666015e+003, 5.259164e-003
3.667944e+003, 5.547090e-003
3.669872e+003, 6.003230e-003
3.671801e+003, 5.778555e-003
3.673729e+003, 5.229892e-003
3.675657e+003, 6.114080e-003
3.677586e+003, 5.795271e-003
3.679514e+003, 3.804238e-003
3.681443e+003, 3.677890e-003
3.683371e+003, 4.495976e-003
3.685300e+003, 5.036733e-003
3.687228e+003, 4.163056e-003
3.689157e+003, 3.021893e-003
3.691085e+003, 2.560193e-003
3.693014e+003, 3.583269e-003
3.694942e+003, 3.136119e-003
3.696871e+003, 2.174736e-003
3.698799e+003, 2.969561e-003
3.700728e+003, 3.729173e-003
3.702656e+003, 2.803883e-003
3.704584e+003, 3.888345e-003
3.706513e+003, 5.144567e-003
3.708441e+003, 5.241265e-003
3.710370e+003, 5.510134e-003
3.712298e+003, 4.897624e-003
3.714227e+003, 2.990579e-003
3.716155e+003, 2.642138e-003
3.718084e+003, 3.697077e-003
3.720012e+003, 4.217308e-003
3.721941e+003, 3.190891e-003
3.723869e+003, 3.204352e-003
3.725798e+003, 3.097019e-003
3.727726e+003, 2.477702e-003
3.729655e+003, 2.415265e-003
3.731583e+003, 3.135234e-003
3.733511e+003, 2.647784e-003
3.735440e+003, 2.301533e-003
3.737368e+003, 2.771222e-003
3.739297e+003, 3.887151e-003
3.741225e+003, 4.434776e-003
3.743154e+003, 3.650607e-003
3.745082e+003, 4.680406e-003
3.747011e+003, 5.295877e-003
3.748939e+003, 3.680158e-003
3.750868e+003, 3.487305e-003
3.752796e+003, 4.065612e-003
3.754725e+003, 4.819140e-003
3.756653e+003, 5.073006e-003
3.758582e+003, 4.093768e-003
3.760510e+003, 3.195814e-003
3.762438e+003, 3.959576e-003
3.764367e+003, 4.108767e-003
3.766295e+003, 4.029983e-003
3.768224e+003, 3.004404e-003
3.770152e+003, 2.776959e-003
3.772081e+003, 2.963319e-003
3.774009e+003, 3.049237e-003
3.775938e+003, 3.781630e-003
3.777866e+003, 4.000582e-003
3.779795e+003, 5.129659e-003
3.781723e+003, 5.022296e-003
3.783652e+003, 3.870660e-003
3.785580e+003, 4.373150e-003
3.787509e+003, 3.223025e-003
3.789437e+003, 2.639839e-003
3.791365e+003, 4.720771e-003
3.793294e+003, 4.124331e-003
3.795222e+003, 3.993518e-003
3.797151e+003, 5.716724e-003
3.799079e+003, 6.761740e-003
3.801008e+003, 5.920665e-003
3.802936e+003, 6.543295e-003
3.804865e+003, 5.415971e-003
3.806793e+003, 2.621952e-003
3.808722e+003, 2.261409e-003
3.810650e+003, 4.402650e-003
3.812579e+003, 6.318902e-003
3.814507e+003, 6.191388e-003
3.816436e+003, 5.850550e-003
3.818364e+003, 6.552367e-003
3.820292e+003, 6.897574e-003
3.822221e+003, 5.510930e-003
3.824149e+003, 5.079302e-003
3.826078e+003, 4.550064e-003
3.828006e+003, 4.931274e-003
3.829935e+003, 5.001837e-003
3.831863e+003, 3.934396e-003
3.833792e+003, 4.893686e-003
3.835720e+003, 5.710253e-003
3.837649e+003, 5.495679e-003
3.839577e+003, 5.344266e-003
3.841506e+003, 4.563772e-003
3.843434e+003, 4.762186e-003
3.845363e+003, 4.319916e-003
3.847291e+003, 4.557574e-003
3.849219e+003, 5.390823e-003
3.851148e+003, 4.373784e-003
3.853076e+003, 3.328714e-003
3.855005e+003, 4.240437e-003
3.856933e+003, 4.555705e-003
3.858862e+003, 3.887712e-003
3.860790e+003, 2.527484e-003
3.862719e+003, 2.382374e-003
3.864647e+003, 3.601231e-003
3.866576e+003, 3.718283e-003
3.868504e+003, 2.737466e-003
3.870433e+003, 2.898397e-003
3.872361e+003, 3.882279e-003
3.874290e+003, 4.600578e-003
3.876218e+003, 5.734731e-003
3.878146e+003, 7.135495e-003
3.880075e+003, 6.686452e-003
3.882003e+003, 6.168703e-003
3.883932e+003, 5.291425e-003
3.885860e+003, 5.047590e-003
3.887789e+003, 6.062518e-003
3.889717e+003, 7.393344e-003
3.891646e+003, 7.353747e-003
3.893574e+003, 5.479066e-003
3.895503e+003, 4.445690e-003
3.897431e+003, 4.825144e-003
3.899360e+003, 5.330605e-003
3.901288e+003, 5.306351e-003
3.903217e+003, 6.852621e-003
3.905145e+003, 7.585912e-003
3.907073e+003, 6.894924e-003
3.909002e+003, 5.402443e-003
3.910930e+003, 5.586049e-003
3.912859e+003, 5.221890e-003
3.914787e+003, 6.063332e-003
3.916716e+003, 7.520452e-003
3.918644e+003, 6.957076e-003
3.920573e+003, 5.857299e-003
3.922501e+003, 5.670638e-003
3.924430e+003, 6.731753e-003
3.926358e+003, 6.244219e-003
3.928287e+003, 5.732367e-003
3.930215e+003, 4.935137e-003
3.932144e+003, 2.892833e-003
3.934072e+003, 2.784600e-003
3.936000e+003, 3.468262e-003
3.937929e+003, 4.195961e-003
3.939857e+003, 3.907402e-003
3.941786e+003, 5.167297e-003
3.943714e+003, 6.572919e-003
3.945643e+003, 5.729354e-003
3.947571e+003, 5.167196e-003
3.949500e+003, 5.291844e-003
3.951428e+003, 4.720415e-003
3.953357e+003, 4.245775e-003
3.955285e+003, 5.700137e-003
3.957214e+003, 6.488531e-003
3.959142e+003, 7.058823e-003
3.961071e+003, 5.697414e-003
3.962999e+003, 5.081958e-003
3.964927e+003, 5.577989e-003
3.966856e+003, 6.545538e-003
3.968784e+003, 7.297913e-003
3.970713e+003, 8.232497e-003
3.972641e+003, 8.386897e-003
3.974570e+003, 5.960396e-003
3.976498e+003, 4.055307e-003
3.978427e+003, 4.681356e-003
3.980355e+003, 6.219522e-003
3.982284e+003, 6.203800e-003
3.984212e+003, 6.109940e-003
3.986141e+003, 6.982254e-003
3.988069e+003, 7.960302e-003
3.989998e+003, 6.283328e-003
3.991926e+003, 5.627662e-003
3.993854e+003, 5.673777e-003
3.995783e+003, 4.899753e-003
3.997711e+003, 6.672414e-003
3.999640e+003, 6.675632e-003
##END=



