##NAMES=Ullmannite
##RRUFFID=R050247
##IDEAL CHEMISTRY=NiSbS
##LOCALITY=Salchendorf, Siegerland, North Rhine-Westphalia, Germany
##OWNER=RRUFF
##SOURCE=Marcus Origlieri
##DESCRIPTION=Steel gray massive
##STATUS=The identification of this mineral has been confirmed by X-ray diffraction and chemical analysis
##URL=rruff.info/R050247
##MEASURED CHEMISTRY=Ni_1.00_(Sb_0.78_As_0.22_)S_1.00_
3.991926e+002, 3.805091e-001
4.011211e+002, 3.767594e-001
4.030495e+002, 3.698183e-001
4.049780e+002, 3.789768e-001
4.069065e+002, 3.807022e-001
4.088349e+002, 3.827498e-001
4.107634e+002, 3.912656e-001
4.126919e+002, 3.900528e-001
4.146203e+002, 3.906325e-001
4.165488e+002, 3.936678e-001
4.184773e+002, 3.940138e-001
4.204057e+002, 3.991308e-001
4.223342e+002, 4.018141e-001
4.242627e+002, 3.987445e-001
4.261911e+002, 4.008317e-001
4.281196e+002, 4.022416e-001
4.300481e+002, 4.015225e-001
4.319765e+002, 4.021626e-001
4.339050e+002, 4.034240e-001
4.358335e+002, 4.020012e-001
4.377619e+002, 4.011898e-001
4.396904e+002, 4.039604e-001
4.416189e+002, 4.049645e-001
4.435473e+002, 4.047109e-001
4.454758e+002, 4.013322e-001
4.474043e+002, 3.950024e-001
4.493327e+002, 3.899876e-001
4.512612e+002, 3.883268e-001
4.531897e+002, 3.877833e-001
4.551181e+002, 3.876580e-001
4.570466e+002, 3.884809e-001
4.589751e+002, 3.894069e-001
4.609035e+002, 3.892911e-001
4.628320e+002, 3.884843e-001
4.647605e+002, 3.865247e-001
4.666889e+002, 3.869236e-001
4.686174e+002, 3.887134e-001
4.705459e+002, 3.901162e-001
4.724743e+002, 3.903634e-001
4.744028e+002, 3.886637e-001
4.763313e+002, 3.877658e-001
4.782597e+002, 3.897746e-001
4.801882e+002, 3.919390e-001
4.821167e+002, 3.929979e-001
4.840451e+002, 3.938323e-001
4.859736e+002, 3.956947e-001
4.879021e+002, 3.961882e-001
4.898305e+002, 3.964623e-001
4.917590e+002, 3.978778e-001
4.936875e+002, 3.986330e-001
4.956159e+002, 3.985107e-001
4.975444e+002, 3.993414e-001
4.994729e+002, 3.993613e-001
5.014013e+002, 3.991917e-001
5.033298e+002, 3.995723e-001
5.052583e+002, 4.001954e-001
5.071867e+002, 4.016812e-001
5.091152e+002, 3.988977e-001
5.110437e+002, 3.988810e-001
5.129721e+002, 4.010308e-001
5.149006e+002, 4.019416e-001
5.168290e+002, 4.013402e-001
5.187575e+002, 4.003839e-001
5.206860e+002, 4.010286e-001
5.226144e+002, 4.018829e-001
5.245429e+002, 4.030490e-001
5.264714e+002, 4.031773e-001
5.283998e+002, 4.037894e-001
5.303283e+002, 4.051324e-001
5.322568e+002, 4.041936e-001
5.341852e+002, 4.058707e-001
5.361137e+002, 4.089324e-001
5.380422e+002, 4.099966e-001
5.399706e+002, 4.117472e-001
5.418991e+002, 4.159025e-001
5.438276e+002, 4.186900e-001
5.457560e+002, 4.189746e-001
5.476845e+002, 4.217818e-001
5.496130e+002, 4.242626e-001
5.515414e+002, 4.256508e-001
5.534699e+002, 4.281497e-001
5.553984e+002, 4.300518e-001
5.573268e+002, 4.325691e-001
5.592553e+002, 4.346357e-001
5.611838e+002, 4.364176e-001
5.631122e+002, 4.373652e-001
5.650407e+002, 4.401168e-001
5.669692e+002, 4.430160e-001
5.688976e+002, 4.447288e-001
5.708261e+002, 4.467645e-001
5.727546e+002, 4.470966e-001
5.746830e+002, 4.481602e-001
5.766115e+002, 4.494067e-001
5.785400e+002, 4.516818e-001
5.804684e+002, 4.537772e-001
5.823969e+002, 4.555335e-001
5.843254e+002, 4.558015e-001
5.862538e+002, 4.576653e-001
5.881823e+002, 4.590399e-001
5.901108e+002, 4.597698e-001
5.920392e+002, 4.610976e-001
5.939677e+002, 4.621851e-001
5.958962e+002, 4.647100e-001
5.978246e+002, 4.654840e-001
5.997531e+002, 4.652736e-001
6.016816e+002, 4.656545e-001
6.036100e+002, 4.671916e-001
6.055385e+002, 4.690277e-001
6.074670e+002, 4.697529e-001
6.093954e+002, 4.687259e-001
6.113239e+002, 4.698029e-001
6.132524e+002, 4.703461e-001
6.151808e+002, 4.716465e-001
6.171093e+002, 4.731461e-001
6.190378e+002, 4.743477e-001
6.209662e+002, 4.749663e-001
6.228947e+002, 4.759272e-001
6.248232e+002, 4.770408e-001
6.267516e+002, 4.782005e-001
6.286801e+002, 4.793901e-001
6.306086e+002, 4.805221e-001
6.325370e+002, 4.810469e-001
6.344655e+002, 4.819942e-001
6.363940e+002, 4.832399e-001
6.383224e+002, 4.843484e-001
6.402509e+002, 4.847963e-001
6.421794e+002, 4.853463e-001
6.441078e+002, 4.863285e-001
6.460363e+002, 4.870233e-001
6.479648e+002, 4.878195e-001
6.498932e+002, 4.886066e-001
6.518217e+002, 4.893944e-001
6.537502e+002, 4.903478e-001
6.556786e+002, 4.918275e-001
6.576071e+002, 4.935289e-001
6.595356e+002, 4.942505e-001
6.614641e+002, 4.959152e-001
6.633925e+002, 4.974762e-001
6.653210e+002, 4.989709e-001
6.672495e+002, 5.007168e-001
6.691779e+002, 5.019637e-001
6.711064e+002, 5.017000e-001
6.730349e+002, 5.022705e-001
6.749633e+002, 5.043273e-001
6.768918e+002, 5.060230e-001
6.788203e+002, 5.073707e-001
6.807487e+002, 5.088211e-001
6.826772e+002, 5.102262e-001
6.846057e+002, 5.115342e-001
6.865341e+002, 5.134801e-001
6.884626e+002, 5.146285e-001
6.903911e+002, 5.157390e-001
6.923195e+002, 5.161612e-001
6.942480e+002, 5.133601e-001
6.961765e+002, 5.099622e-001
6.981049e+002, 5.068539e-001
7.000334e+002, 5.067938e-001
7.019619e+002, 5.076438e-001
7.038903e+002, 5.097831e-001
7.058188e+002, 5.118588e-001
7.077473e+002, 5.131143e-001
7.096757e+002, 5.140924e-001
7.116042e+002, 5.170440e-001
7.135327e+002, 5.190988e-001
7.154611e+002, 5.203170e-001
7.173896e+002, 5.218979e-001
7.193181e+002, 5.229772e-001
7.212465e+002, 5.241399e-001
7.231750e+002, 5.261701e-001
7.251035e+002, 5.285248e-001
7.270319e+002, 5.293189e-001
7.289604e+002, 5.308496e-001
7.308889e+002, 5.329327e-001
7.328173e+002, 5.340104e-001
7.347458e+002, 5.350391e-001
7.366743e+002, 5.362762e-001
7.386027e+002, 5.373209e-001
7.405312e+002, 5.381005e-001
7.424597e+002, 5.387827e-001
7.443881e+002, 5.394884e-001
7.463166e+002, 5.413684e-001
7.482451e+002, 5.427160e-001
7.501735e+002, 5.446374e-001
7.521020e+002, 5.465513e-001
7.540305e+002, 5.481037e-001
7.559589e+002, 5.499738e-001
7.578874e+002, 5.510380e-001
7.598159e+002, 5.531697e-001
7.617443e+002, 5.559927e-001
7.636728e+002, 5.581287e-001
7.656013e+002, 5.595626e-001
7.675297e+002, 5.612825e-001
7.694582e+002, 5.621886e-001
7.713867e+002, 5.632902e-001
7.733151e+002, 5.632001e-001
7.752436e+002, 5.618976e-001
7.771721e+002, 5.587204e-001
7.791005e+002, 5.548251e-001
7.810290e+002, 5.516148e-001
7.829575e+002, 5.506374e-001
7.848859e+002, 5.505686e-001
7.868144e+002, 5.512018e-001
7.887429e+002, 5.525421e-001
7.906713e+002, 5.537230e-001
7.925998e+002, 5.525348e-001
7.945283e+002, 5.490820e-001
7.964567e+002, 5.448281e-001
7.983852e+002, 5.380607e-001
8.003137e+002, 5.305151e-001
8.022421e+002, 5.239272e-001
8.041706e+002, 5.194973e-001
8.060991e+002, 5.173631e-001
8.080275e+002, 5.174028e-001
8.099560e+002, 5.194353e-001
8.118845e+002, 5.219501e-001
8.138129e+002, 5.242159e-001
8.157414e+002, 5.271102e-001
8.176699e+002, 5.299025e-001
8.195983e+002, 5.330162e-001
8.215268e+002, 5.363013e-001
8.234553e+002, 5.393304e-001
8.253837e+002, 5.417671e-001
8.273122e+002, 5.447334e-001
8.292407e+002, 5.474634e-001
8.311691e+002, 5.495688e-001
8.330976e+002, 5.510734e-001
8.350261e+002, 5.539905e-001
8.369545e+002, 5.564489e-001
8.388830e+002, 5.579528e-001
8.408115e+002, 5.597392e-001
8.427399e+002, 5.623274e-001
8.446684e+002, 5.647992e-001
8.465969e+002, 5.670089e-001
8.485253e+002, 5.688555e-001
8.504538e+002, 5.709785e-001
8.523823e+002, 5.730742e-001
8.543107e+002, 5.752640e-001
8.562392e+002, 5.769796e-001
8.581677e+002, 5.801987e-001
8.600961e+002, 5.821479e-001
8.620246e+002, 5.825574e-001
8.639531e+002, 5.825649e-001
8.658815e+002, 5.832397e-001
8.678100e+002, 5.835865e-001
8.697385e+002, 5.830050e-001
8.716669e+002, 5.826435e-001
8.735954e+002, 5.830910e-001
8.755239e+002, 5.848262e-001
8.774523e+002, 5.872619e-001
8.793808e+002, 5.893477e-001
8.813093e+002, 5.910221e-001
8.832377e+002, 5.926805e-001
8.851662e+002, 5.951291e-001
8.870947e+002, 5.977251e-001
8.890231e+002, 5.997508e-001
8.909516e+002, 6.017047e-001
8.928801e+002, 6.036626e-001
8.948085e+002, 6.048709e-001
8.967370e+002, 6.058699e-001
8.986655e+002, 6.077759e-001
9.005939e+002, 6.095803e-001
9.025224e+002, 6.112288e-001
9.044509e+002, 6.129242e-001
9.063793e+002, 6.145977e-001
9.083078e+002, 6.164138e-001
9.102363e+002, 6.178904e-001
9.121647e+002, 6.190147e-001
9.140932e+002, 6.208373e-001
9.160217e+002, 6.228052e-001
9.179501e+002, 6.242488e-001
9.198786e+002, 6.256988e-001
9.218071e+002, 6.271845e-001
9.237355e+002, 6.283681e-001
9.256640e+002, 6.296973e-001
9.275925e+002, 6.310893e-001
9.295209e+002, 6.318479e-001
9.314494e+002, 6.327682e-001
9.333779e+002, 6.339198e-001
9.353063e+002, 6.351718e-001
9.372348e+002, 6.359361e-001
9.391633e+002, 6.370193e-001
9.410917e+002, 6.377903e-001
9.430202e+002, 6.386093e-001
9.449487e+002, 6.397894e-001
9.468771e+002, 6.413823e-001
9.488056e+002, 6.428325e-001
9.507341e+002, 6.437846e-001
9.526625e+002, 6.445065e-001
9.545910e+002, 6.455473e-001
9.565195e+002, 6.469590e-001
9.584479e+002, 6.483269e-001
9.603764e+002, 6.494685e-001
9.623049e+002, 6.509886e-001
9.642333e+002, 6.524937e-001
9.661618e+002, 6.533987e-001
9.680903e+002, 6.539891e-001
9.700187e+002, 6.552498e-001
9.719472e+002, 6.560404e-001
9.738757e+002, 6.566560e-001
9.758041e+002, 6.574728e-001
9.777326e+002, 6.579229e-001
9.796611e+002, 6.580477e-001
9.815895e+002, 6.587197e-001
9.835180e+002, 6.596217e-001
9.854465e+002, 6.607744e-001
9.873749e+002, 6.617494e-001
9.893034e+002, 6.623800e-001
9.912319e+002, 6.629260e-001
9.931603e+002, 6.638654e-001
9.950888e+002, 6.645738e-001
9.970173e+002, 6.654879e-001
9.989457e+002, 6.662972e-001
1.000874e+003, 6.672047e-001
1.002803e+003, 6.684270e-001
1.004731e+003, 6.691024e-001
1.006660e+003, 6.698685e-001
1.008588e+003, 6.704227e-001
1.010517e+003, 6.711368e-001
1.012445e+003, 6.720816e-001
1.014373e+003, 6.723086e-001
1.016302e+003, 6.728818e-001
1.018230e+003, 6.734989e-001
1.020159e+003, 6.739063e-001
1.022087e+003, 6.745460e-001
1.024016e+003, 6.753529e-001
1.025944e+003, 6.754649e-001
1.027873e+003, 6.757898e-001
1.029801e+003, 6.764610e-001
1.031730e+003, 6.770639e-001
1.033658e+003, 6.775666e-001
1.035587e+003, 6.779450e-001
1.037515e+003, 6.779132e-001
1.039443e+003, 6.778576e-001
1.041372e+003, 6.776055e-001
1.043300e+003, 6.776136e-001
1.045229e+003, 6.777511e-001
1.047157e+003, 6.773968e-001
1.049086e+003, 6.765019e-001
1.051014e+003, 6.754202e-001
1.052943e+003, 6.742222e-001
1.054871e+003, 6.724021e-001
1.056800e+003, 6.696333e-001
1.058728e+003, 6.660567e-001
1.060657e+003, 6.616544e-001
1.062585e+003, 6.577319e-001
1.064514e+003, 6.534848e-001
1.066442e+003, 6.496331e-001
1.068370e+003, 6.470222e-001
1.070299e+003, 6.444942e-001
1.072227e+003, 6.424798e-001
1.074156e+003, 6.407239e-001
1.076084e+003, 6.388289e-001
1.078013e+003, 6.363144e-001
1.079941e+003, 6.336246e-001
1.081870e+003, 6.310717e-001
1.083798e+003, 6.285821e-001
1.085727e+003, 6.261068e-001
1.087655e+003, 6.231858e-001
1.089584e+003, 6.200327e-001
1.091512e+003, 6.170776e-001
1.093441e+003, 6.142879e-001
1.095369e+003, 6.114311e-001
1.097297e+003, 6.089377e-001
1.099226e+003, 6.063703e-001
1.101154e+003, 6.042032e-001
1.103083e+003, 6.019620e-001
1.105011e+003, 5.998811e-001
1.106940e+003, 5.978501e-001
1.108868e+003, 5.960750e-001
1.110797e+003, 5.942263e-001
1.112725e+003, 5.921957e-001
1.114654e+003, 5.904990e-001
1.116582e+003, 5.887275e-001
1.118511e+003, 5.869842e-001
1.120439e+003, 5.856242e-001
1.122368e+003, 5.842902e-001
1.124296e+003, 5.829462e-001
1.126224e+003, 5.813733e-001
1.128153e+003, 5.802196e-001
1.130081e+003, 5.792629e-001
1.132010e+003, 5.782699e-001
1.133938e+003, 5.772709e-001
1.135867e+003, 5.762545e-001
1.137795e+003, 5.755445e-001
1.139724e+003, 5.749052e-001
1.141652e+003, 5.739192e-001
1.143581e+003, 5.729966e-001
1.145509e+003, 5.717300e-001
1.147438e+003, 5.704905e-001
1.149366e+003, 5.693020e-001
1.151295e+003, 5.679041e-001
1.153223e+003, 5.670494e-001
1.155151e+003, 5.672401e-001
1.157080e+003, 5.689636e-001
1.159008e+003, 5.716410e-001
1.160937e+003, 5.735211e-001
1.162865e+003, 5.731113e-001
1.164794e+003, 5.705150e-001
1.166722e+003, 5.674822e-001
1.168651e+003, 5.644904e-001
1.170579e+003, 5.617859e-001
1.172508e+003, 5.594555e-001
1.174436e+003, 5.575525e-001
1.176365e+003, 5.560094e-001
1.178293e+003, 5.542811e-001
1.180222e+003, 5.525307e-001
1.182150e+003, 5.510588e-001
1.184078e+003, 5.498174e-001
1.186007e+003, 5.488427e-001
1.187935e+003, 5.478670e-001
1.189864e+003, 5.467907e-001
1.191792e+003, 5.457754e-001
1.193721e+003, 5.451382e-001
1.195649e+003, 5.446500e-001
1.197578e+003, 5.441710e-001
1.199506e+003, 5.436606e-001
1.201435e+003, 5.435933e-001
1.203363e+003, 5.436609e-001
1.205292e+003, 5.438156e-001
1.207220e+003, 5.442192e-001
1.209149e+003, 5.450198e-001
1.211077e+003, 5.457783e-001
1.213005e+003, 5.465249e-001
1.214934e+003, 5.475056e-001
1.216862e+003, 5.486500e-001
1.218791e+003, 5.500930e-001
1.220719e+003, 5.518709e-001
1.222648e+003, 5.536776e-001
1.224576e+003, 5.552936e-001
1.226505e+003, 5.567855e-001
1.228433e+003, 5.584888e-001
1.230362e+003, 5.603301e-001
1.232290e+003, 5.618292e-001
1.234219e+003, 5.633699e-001
1.236147e+003, 5.650528e-001
1.238076e+003, 5.666289e-001
1.240004e+003, 5.681140e-001
1.241932e+003, 5.694444e-001
1.243861e+003, 5.709016e-001
1.245789e+003, 5.723082e-001
1.247718e+003, 5.735430e-001
1.249646e+003, 5.749007e-001
1.251575e+003, 5.762077e-001
1.253503e+003, 5.772116e-001
1.255432e+003, 5.781971e-001
1.257360e+003, 5.795060e-001
1.259289e+003, 5.806671e-001
1.261217e+003, 5.818266e-001
1.263146e+003, 5.831600e-001
1.265074e+003, 5.843748e-001
1.267003e+003, 5.857487e-001
1.268931e+003, 5.870823e-001
1.270859e+003, 5.882383e-001
1.272788e+003, 5.895997e-001
1.274716e+003, 5.910497e-001
1.276645e+003, 5.922303e-001
1.278573e+003, 5.934553e-001
1.280502e+003, 5.945009e-001
1.282430e+003, 5.955287e-001
1.284359e+003, 5.964025e-001
1.286287e+003, 5.976499e-001
1.288216e+003, 5.988809e-001
1.290144e+003, 5.999530e-001
1.292073e+003, 6.012797e-001
1.294001e+003, 6.024910e-001
1.295930e+003, 6.036698e-001
1.297858e+003, 6.047914e-001
1.299786e+003, 6.055591e-001
1.301715e+003, 6.062570e-001
1.303643e+003, 6.073756e-001
1.305572e+003, 6.088054e-001
1.307500e+003, 6.101073e-001
1.309429e+003, 6.111018e-001
1.311357e+003, 6.119624e-001
1.313286e+003, 6.129406e-001
1.315214e+003, 6.138450e-001
1.317143e+003, 6.147808e-001
1.319071e+003, 6.158485e-001
1.321000e+003, 6.170529e-001
1.322928e+003, 6.182206e-001
1.324857e+003, 6.190128e-001
1.326785e+003, 6.197367e-001
1.328714e+003, 6.209773e-001
1.330642e+003, 6.220819e-001
1.332570e+003, 6.231291e-001
1.334499e+003, 6.243559e-001
1.336427e+003, 6.255170e-001
1.338356e+003, 6.263922e-001
1.340284e+003, 6.270187e-001
1.342213e+003, 6.277016e-001
1.344141e+003, 6.288781e-001
1.346070e+003, 6.300938e-001
1.347998e+003, 6.310639e-001
1.349927e+003, 6.318264e-001
1.351855e+003, 6.325728e-001
1.353784e+003, 6.335143e-001
1.355712e+003, 6.347113e-001
1.357641e+003, 6.355142e-001
1.359569e+003, 6.363008e-001
1.361497e+003, 6.372518e-001
1.363426e+003, 6.381118e-001
1.365354e+003, 6.389558e-001
1.367283e+003, 6.399313e-001
1.369211e+003, 6.409623e-001
1.371140e+003, 6.417207e-001
1.373068e+003, 6.423842e-001
1.374997e+003, 6.432324e-001
1.376925e+003, 6.441466e-001
1.378854e+003, 6.449081e-001
1.380782e+003, 6.455809e-001
1.382711e+003, 6.465624e-001
1.384639e+003, 6.477225e-001
1.386568e+003, 6.486518e-001
1.388496e+003, 6.494361e-001
1.390424e+003, 6.503023e-001
1.392353e+003, 6.512728e-001
1.394281e+003, 6.520621e-001
1.396210e+003, 6.529700e-001
1.398138e+003, 6.540359e-001
1.400067e+003, 6.547657e-001
1.401995e+003, 6.555858e-001
1.403924e+003, 6.563384e-001
1.405852e+003, 6.570045e-001
1.407781e+003, 6.574119e-001
1.409709e+003, 6.576162e-001
1.411638e+003, 6.577829e-001
1.413566e+003, 6.580530e-001
1.415495e+003, 6.584291e-001
1.417423e+003, 6.586085e-001
1.419351e+003, 6.584992e-001
1.421280e+003, 6.585450e-001
1.423208e+003, 6.585886e-001
1.425137e+003, 6.584091e-001
1.427065e+003, 6.579853e-001
1.428994e+003, 6.576903e-001
1.430922e+003, 6.575760e-001
1.432851e+003, 6.577805e-001
1.434779e+003, 6.577146e-001
1.436708e+003, 6.572464e-001
1.438636e+003, 6.566681e-001
1.440565e+003, 6.565649e-001
1.442493e+003, 6.568059e-001
1.444422e+003, 6.567389e-001
1.446350e+003, 6.564954e-001
1.448278e+003, 6.565979e-001
1.450207e+003, 6.564128e-001
1.452135e+003, 6.559911e-001
1.454064e+003, 6.559831e-001
1.455992e+003, 6.560525e-001
1.457921e+003, 6.559980e-001
1.459849e+003, 6.559747e-001
1.461778e+003, 6.557925e-001
1.463706e+003, 6.556211e-001
1.465635e+003, 6.555557e-001
1.467563e+003, 6.555442e-001
1.469492e+003, 6.558585e-001
1.471420e+003, 6.560559e-001
1.473349e+003, 6.561120e-001
1.475277e+003, 6.564772e-001
1.477205e+003, 6.569551e-001
1.479134e+003, 6.571506e-001
1.481062e+003, 6.573763e-001
1.482991e+003, 6.578066e-001
1.484919e+003, 6.580452e-001
1.486848e+003, 6.582705e-001
1.488776e+003, 6.585652e-001
1.490705e+003, 6.587639e-001
1.492633e+003, 6.589469e-001
1.494562e+003, 6.594321e-001
1.496490e+003, 6.599125e-001
1.498419e+003, 6.603627e-001
1.500347e+003, 6.606835e-001
1.502276e+003, 6.612623e-001
1.504204e+003, 6.616752e-001
1.506132e+003, 6.618695e-001
1.508061e+003, 6.624330e-001
1.509989e+003, 6.631659e-001
1.511918e+003, 6.636936e-001
1.513846e+003, 6.641989e-001
1.515775e+003, 6.647438e-001
1.517703e+003, 6.652272e-001
1.519632e+003, 6.656007e-001
1.521560e+003, 6.659865e-001
1.523489e+003, 6.665071e-001
1.525417e+003, 6.671373e-001
1.527346e+003, 6.677846e-001
1.529274e+003, 6.683405e-001
1.531203e+003, 6.688225e-001
1.533131e+003, 6.690826e-001
1.535059e+003, 6.693594e-001
1.536988e+003, 6.696247e-001
1.538916e+003, 6.700157e-001
1.540845e+003, 6.706393e-001
1.542773e+003, 6.711161e-001
1.544702e+003, 6.717206e-001
1.546630e+003, 6.726531e-001
1.548559e+003, 6.731360e-001
1.550487e+003, 6.736362e-001
1.552416e+003, 6.741537e-001
1.554344e+003, 6.744412e-001
1.556273e+003, 6.747256e-001
1.558201e+003, 6.753147e-001
1.560130e+003, 6.760067e-001
1.562058e+003, 6.765499e-001
1.563986e+003, 6.770954e-001
1.565915e+003, 6.776869e-001
1.567843e+003, 6.782093e-001
1.569772e+003, 6.788729e-001
1.571700e+003, 6.795788e-001
1.573629e+003, 6.799424e-001
1.575557e+003, 6.802167e-001
1.577486e+003, 6.808318e-001
1.579414e+003, 6.813641e-001
1.581343e+003, 6.817809e-001
1.583271e+003, 6.819975e-001
1.585200e+003, 6.822843e-001
1.587128e+003, 6.828986e-001
1.589057e+003, 6.836067e-001
1.590985e+003, 6.840423e-001
1.592913e+003, 6.843015e-001
1.594842e+003, 6.846966e-001
1.596770e+003, 6.851254e-001
1.598699e+003, 6.856710e-001
1.600627e+003, 6.861334e-001
1.602556e+003, 6.862808e-001
1.604484e+003, 6.865132e-001
1.606413e+003, 6.870257e-001
1.608341e+003, 6.871080e-001
1.610270e+003, 6.872513e-001
1.612198e+003, 6.874338e-001
1.614127e+003, 6.877442e-001
1.616055e+003, 6.880149e-001
1.617984e+003, 6.880648e-001
1.619912e+003, 6.882021e-001
1.621840e+003, 6.883993e-001
1.623769e+003, 6.887303e-001
1.625697e+003, 6.889216e-001
1.627626e+003, 6.890519e-001
1.629554e+003, 6.893379e-001
1.631483e+003, 6.896581e-001
1.633411e+003, 6.898943e-001
1.635340e+003, 6.899667e-001
1.637268e+003, 6.900268e-001
1.639197e+003, 6.903171e-001
1.641125e+003, 6.907257e-001
1.643054e+003, 6.907398e-001
1.644982e+003, 6.908872e-001
1.646911e+003, 6.911479e-001
1.648839e+003, 6.909629e-001
1.650767e+003, 6.911305e-001
1.652696e+003, 6.912448e-001
1.654624e+003, 6.914077e-001
1.656553e+003, 6.921011e-001
1.658481e+003, 6.926336e-001
1.660410e+003, 6.930631e-001
1.662338e+003, 6.933514e-001
1.664267e+003, 6.936320e-001
1.666195e+003, 6.938710e-001
1.668124e+003, 6.941360e-001
1.670052e+003, 6.944990e-001
1.671981e+003, 6.949127e-001
1.673909e+003, 6.954535e-001
1.675838e+003, 6.958663e-001
1.677766e+003, 6.960745e-001
1.679694e+003, 6.962665e-001
1.681623e+003, 6.967006e-001
1.683551e+003, 6.970153e-001
1.685480e+003, 6.974289e-001
1.687408e+003, 6.976636e-001
1.689337e+003, 6.980414e-001
1.691265e+003, 6.987926e-001
1.693194e+003, 6.992495e-001
1.695122e+003, 6.996595e-001
1.697051e+003, 7.001088e-001
1.698979e+003, 7.004126e-001
1.700908e+003, 7.007445e-001
1.702836e+003, 7.009178e-001
1.704765e+003, 7.010721e-001
1.706693e+003, 7.016995e-001
1.708621e+003, 7.021320e-001
1.710550e+003, 7.023765e-001
1.712478e+003, 7.028348e-001
1.714407e+003, 7.034253e-001
1.716335e+003, 7.037103e-001
1.718264e+003, 7.039447e-001
1.720192e+003, 7.040877e-001
1.722121e+003, 7.043846e-001
1.724049e+003, 7.046798e-001
1.725978e+003, 7.050107e-001
1.727906e+003, 7.051669e-001
1.729835e+003, 7.055213e-001
1.731763e+003, 7.057539e-001
1.733692e+003, 7.058672e-001
1.735620e+003, 7.057534e-001
1.737548e+003, 7.060873e-001
1.739477e+003, 7.067754e-001
1.741405e+003, 7.069219e-001
1.743334e+003, 7.069291e-001
1.745262e+003, 7.074270e-001
1.747191e+003, 7.081414e-001
1.749119e+003, 7.092321e-001
1.751048e+003, 7.098445e-001
1.752976e+003, 7.101623e-001
1.754905e+003, 7.106971e-001
1.756833e+003, 7.113838e-001
1.758762e+003, 7.120872e-001
1.760690e+003, 7.128472e-001
1.762619e+003, 7.136152e-001
1.764547e+003, 7.143409e-001
1.766475e+003, 7.147198e-001
1.768404e+003, 7.147816e-001
1.770332e+003, 7.151031e-001
1.772261e+003, 7.155555e-001
1.774189e+003, 7.160303e-001
1.776118e+003, 7.165959e-001
1.778046e+003, 7.170056e-001
1.779975e+003, 7.172942e-001
1.781903e+003, 7.177571e-001
1.783832e+003, 7.180965e-001
1.785760e+003, 7.183362e-001
1.787689e+003, 7.186272e-001
1.789617e+003, 7.189401e-001
1.791546e+003, 7.193383e-001
1.793474e+003, 7.202142e-001
1.795402e+003, 7.210413e-001
1.797331e+003, 7.213279e-001
1.799259e+003, 7.212446e-001
1.801188e+003, 7.214192e-001
1.803116e+003, 7.220357e-001
1.805045e+003, 7.221533e-001
1.806973e+003, 7.223974e-001
1.808902e+003, 7.226477e-001
1.810830e+003, 7.226036e-001
1.812759e+003, 7.224085e-001
1.814687e+003, 7.227382e-001
1.816616e+003, 7.229280e-001
1.818544e+003, 7.230278e-001
1.820473e+003, 7.235024e-001
1.822401e+003, 7.236791e-001
1.824329e+003, 7.239659e-001
1.826258e+003, 7.246127e-001
1.828186e+003, 7.249882e-001
1.830115e+003, 7.249439e-001
1.832043e+003, 7.250735e-001
1.833972e+003, 7.259291e-001
1.835900e+003, 7.266470e-001
1.837829e+003, 7.270973e-001
1.839757e+003, 7.272911e-001
1.841686e+003, 7.276189e-001
1.843614e+003, 7.278989e-001
1.845543e+003, 7.281165e-001
1.847471e+003, 7.285581e-001
1.849400e+003, 7.284702e-001
1.851328e+003, 7.284017e-001
1.853256e+003, 7.290623e-001
1.855185e+003, 7.297157e-001
1.857113e+003, 7.296760e-001
1.859042e+003, 7.298537e-001
1.860970e+003, 7.303655e-001
1.862899e+003, 7.307921e-001
1.864827e+003, 7.313360e-001
1.866756e+003, 7.315649e-001
1.868684e+003, 7.311634e-001
1.870613e+003, 7.311173e-001
1.872541e+003, 7.317514e-001
1.874470e+003, 7.319576e-001
1.876398e+003, 7.322020e-001
1.878327e+003, 7.317035e-001
1.880255e+003, 7.322713e-001
1.882183e+003, 7.328332e-001
1.884112e+003, 7.320200e-001
1.886040e+003, 7.323633e-001
1.887969e+003, 7.331814e-001
1.889897e+003, 7.340332e-001
1.891826e+003, 7.348326e-001
1.893754e+003, 7.356495e-001
1.895683e+003, 7.349516e-001
1.897611e+003, 7.347571e-001
1.899540e+003, 7.358710e-001
1.901468e+003, 7.366343e-001
1.903397e+003, 7.360954e-001
1.905325e+003, 7.369040e-001
1.907254e+003, 7.379902e-001
1.909182e+003, 7.371848e-001
1.911110e+003, 7.368357e-001
1.913039e+003, 7.376718e-001
1.914967e+003, 7.379644e-001
1.916896e+003, 7.384200e-001
1.918824e+003, 7.387189e-001
1.920753e+003, 7.396827e-001
1.922681e+003, 7.403700e-001
1.924610e+003, 7.390544e-001
1.926538e+003, 7.390453e-001
1.928467e+003, 7.404955e-001
1.930395e+003, 7.409331e-001
1.932324e+003, 7.412955e-001
1.934252e+003, 7.424262e-001
1.936181e+003, 7.422892e-001
1.938109e+003, 7.414356e-001
1.940037e+003, 7.415556e-001
1.941966e+003, 7.425341e-001
1.943894e+003, 7.426171e-001
1.945823e+003, 7.421883e-001
1.947751e+003, 7.430010e-001
1.949680e+003, 7.442017e-001
1.951608e+003, 7.429011e-001
1.953537e+003, 7.433107e-001
1.955465e+003, 7.436522e-001
1.957394e+003, 7.449928e-001
1.959322e+003, 7.474501e-001
1.961251e+003, 7.482490e-001
1.963179e+003, 7.472280e-001
1.965108e+003, 7.487432e-001
1.967036e+003, 7.484535e-001
1.968964e+003, 7.459694e-001
1.970893e+003, 7.487791e-001
1.972821e+003, 7.507288e-001
1.974750e+003, 7.497849e-001
1.976678e+003, 7.497159e-001
1.978607e+003, 7.515361e-001
1.980535e+003, 7.523530e-001
1.982464e+003, 7.533412e-001
1.984392e+003, 7.534064e-001
1.986321e+003, 7.511848e-001
1.988249e+003, 7.494721e-001
1.990178e+003, 7.520263e-001
1.992106e+003, 7.553903e-001
1.994035e+003, 7.533987e-001
1.995963e+003, 7.521579e-001
1.997891e+003, 7.546533e-001
1.999820e+003, 7.554354e-001
2.001748e+003, 7.531593e-001
2.003677e+003, 7.510556e-001
2.005605e+003, 7.533847e-001
2.007534e+003, 7.578679e-001
2.009462e+003, 7.595335e-001
2.011391e+003, 7.584878e-001
2.013319e+003, 7.576032e-001
2.015248e+003, 7.557396e-001
2.017176e+003, 7.554162e-001
2.019105e+003, 7.555602e-001
2.021033e+003, 7.558187e-001
2.022962e+003, 7.562516e-001
2.024890e+003, 7.561730e-001
2.026818e+003, 7.551483e-001
2.028747e+003, 7.605431e-001
2.030675e+003, 7.645791e-001
2.032604e+003, 7.643319e-001
2.034532e+003, 7.603804e-001
2.036461e+003, 7.566893e-001
2.038389e+003, 7.578567e-001
2.040318e+003, 7.618886e-001
2.042246e+003, 7.632650e-001
2.044175e+003, 7.635024e-001
2.046103e+003, 7.617695e-001
2.048031e+003, 7.608323e-001
2.049960e+003, 7.619690e-001
2.051888e+003, 7.637684e-001
2.053817e+003, 7.647483e-001
2.055745e+003, 7.646065e-001
2.057674e+003, 7.655308e-001
2.059602e+003, 7.642044e-001
2.061531e+003, 7.617506e-001
2.063459e+003, 7.609068e-001
2.065388e+003, 7.621412e-001
2.067316e+003, 7.641129e-001
2.069245e+003, 7.659302e-001
2.071173e+003, 7.680354e-001
2.073102e+003, 7.673162e-001
2.075030e+003, 7.679531e-001
2.076958e+003, 7.674693e-001
2.078887e+003, 7.668214e-001
2.080815e+003, 7.683564e-001
2.082744e+003, 7.679426e-001
2.084672e+003, 7.682152e-001
2.086601e+003, 7.684090e-001
2.088529e+003, 7.691254e-001
2.090458e+003, 7.701118e-001
2.092386e+003, 7.716823e-001
2.094315e+003, 7.723068e-001
2.096243e+003, 7.721353e-001
2.098172e+003, 7.723221e-001
2.100100e+003, 7.728693e-001
2.102029e+003, 7.723577e-001
2.103957e+003, 7.731037e-001
2.105885e+003, 7.737907e-001
2.107814e+003, 7.730665e-001
2.109742e+003, 7.725533e-001
2.111671e+003, 7.739797e-001
2.113599e+003, 7.745882e-001
2.115528e+003, 7.744752e-001
2.117456e+003, 7.743744e-001
2.119385e+003, 7.750972e-001
2.121313e+003, 7.749201e-001
2.123242e+003, 7.765256e-001
2.125170e+003, 7.775451e-001
2.127099e+003, 7.769522e-001
2.129027e+003, 7.785576e-001
2.130956e+003, 7.816126e-001
2.132884e+003, 7.816607e-001
2.134813e+003, 7.803882e-001
2.136741e+003, 7.812460e-001
2.138669e+003, 7.812827e-001
2.140598e+003, 7.809576e-001
2.142526e+003, 7.811074e-001
2.144455e+003, 7.818034e-001
2.146383e+003, 7.825687e-001
2.148312e+003, 7.847652e-001
2.150240e+003, 7.847363e-001
2.152169e+003, 7.852915e-001
2.154097e+003, 7.898574e-001
2.156026e+003, 7.915784e-001
2.157954e+003, 7.895280e-001
2.159883e+003, 7.876657e-001
2.161811e+003, 7.861052e-001
2.163740e+003, 7.853510e-001
2.165668e+003, 7.881089e-001
2.167596e+003, 7.910619e-001
2.169525e+003, 7.911217e-001
2.171453e+003, 7.858143e-001
2.173382e+003, 7.857137e-001
2.175310e+003, 7.853369e-001
2.177239e+003, 7.865016e-001
2.179167e+003, 7.909282e-001
2.181096e+003, 7.900457e-001
2.183024e+003, 7.884348e-001
2.184953e+003, 7.898306e-001
2.186881e+003, 7.888404e-001
2.188810e+003, 7.893970e-001
2.190738e+003, 7.874444e-001
2.192667e+003, 7.846891e-001
2.194595e+003, 7.869692e-001
2.196523e+003, 7.901847e-001
2.198452e+003, 7.900826e-001
2.200380e+003, 7.904588e-001
2.202309e+003, 7.919867e-001
2.204237e+003, 7.921107e-001
2.206166e+003, 7.908307e-001
2.208094e+003, 7.904027e-001
2.210023e+003, 7.925342e-001
2.211951e+003, 7.918556e-001
2.213880e+003, 7.911996e-001
2.215808e+003, 7.915847e-001
2.217737e+003, 7.944820e-001
2.219665e+003, 7.960168e-001
2.221594e+003, 7.942109e-001
2.223522e+003, 7.937247e-001
2.225450e+003, 7.942139e-001
2.227379e+003, 7.945142e-001
2.229307e+003, 7.956843e-001
2.231236e+003, 7.949517e-001
2.233164e+003, 7.943141e-001
2.235093e+003, 7.961860e-001
2.237021e+003, 7.976172e-001
2.238950e+003, 7.984557e-001
2.240878e+003, 7.975904e-001
2.242807e+003, 7.962645e-001
2.244735e+003, 7.958346e-001
2.246664e+003, 7.959691e-001
2.248592e+003, 7.981754e-001
2.250521e+003, 7.999395e-001
2.252449e+003, 7.993332e-001
2.254377e+003, 7.983154e-001
2.256306e+003, 7.971385e-001
2.258234e+003, 7.965718e-001
2.260163e+003, 7.971193e-001
2.262091e+003, 7.971257e-001
2.264020e+003, 7.972811e-001
2.265948e+003, 7.970859e-001
2.267877e+003, 7.969231e-001
2.269805e+003, 7.989846e-001
2.271734e+003, 8.007948e-001
2.273662e+003, 8.018196e-001
2.275591e+003, 8.021017e-001
2.277519e+003, 8.013343e-001
2.279448e+003, 8.007153e-001
2.281376e+003, 8.010063e-001
2.283304e+003, 8.008047e-001
2.285233e+003, 8.002550e-001
2.287161e+003, 7.999967e-001
2.289090e+003, 7.998968e-001
2.291018e+003, 7.998892e-001
2.292947e+003, 7.998274e-001
2.294875e+003, 7.995666e-001
2.296804e+003, 7.999150e-001
2.298732e+003, 8.000869e-001
2.300661e+003, 8.014928e-001
2.302589e+003, 8.024082e-001
2.304518e+003, 8.017018e-001
2.306446e+003, 8.008578e-001
2.308375e+003, 8.007882e-001
2.310303e+003, 8.009980e-001
2.312231e+003, 8.015874e-001
2.314160e+003, 8.021293e-001
2.316088e+003, 8.021598e-001
2.318017e+003, 8.022088e-001
2.319945e+003, 8.033116e-001
2.321874e+003, 8.033790e-001
2.323802e+003, 8.026267e-001
2.325731e+003, 8.024501e-001
2.327659e+003, 8.028697e-001
2.329588e+003, 8.028921e-001
2.331516e+003, 8.026145e-001
2.333445e+003, 8.034829e-001
2.335373e+003, 8.047233e-001
2.337302e+003, 8.044801e-001
2.339230e+003, 8.040695e-001
2.341158e+003, 8.041101e-001
2.343087e+003, 8.051923e-001
2.345015e+003, 8.059608e-001
2.346944e+003, 8.070505e-001
2.348872e+003, 8.069305e-001
2.350801e+003, 8.064019e-001
2.352729e+003, 8.058006e-001
2.354658e+003, 8.052962e-001
2.356586e+003, 8.053364e-001
2.358515e+003, 8.053273e-001
2.360443e+003, 8.062153e-001
2.362372e+003, 8.070337e-001
2.364300e+003, 8.078323e-001
2.366229e+003, 8.081505e-001
2.368157e+003, 8.086028e-001
2.370085e+003, 8.091344e-001
2.372014e+003, 8.096430e-001
2.373942e+003, 8.105479e-001
2.375871e+003, 8.109429e-001
2.377799e+003, 8.104591e-001
2.379728e+003, 8.109728e-001
2.381656e+003, 8.119737e-001
2.383585e+003, 8.114135e-001
2.385513e+003, 8.116199e-001
2.387442e+003, 8.123389e-001
2.389370e+003, 8.128396e-001
2.391299e+003, 8.130667e-001
2.393227e+003, 8.138737e-001
2.395156e+003, 8.141835e-001
2.397084e+003, 8.132582e-001
2.399012e+003, 8.137500e-001
2.400941e+003, 8.141384e-001
2.402869e+003, 8.124453e-001
2.404798e+003, 8.128289e-001
2.406726e+003, 8.142722e-001
2.408655e+003, 8.151761e-001
2.410583e+003, 8.160163e-001
2.412512e+003, 8.162366e-001
2.414440e+003, 8.163030e-001
2.416369e+003, 8.164201e-001
2.418297e+003, 8.162648e-001
2.420226e+003, 8.157586e-001
2.422154e+003, 8.156592e-001
2.424083e+003, 8.167769e-001
2.426011e+003, 8.177100e-001
2.427939e+003, 8.180583e-001
2.429868e+003, 8.183415e-001
2.431796e+003, 8.186556e-001
2.433725e+003, 8.173559e-001
2.435653e+003, 8.180167e-001
2.437582e+003, 8.187324e-001
2.439510e+003, 8.188278e-001
2.441439e+003, 8.189256e-001
2.443367e+003, 8.188181e-001
2.445296e+003, 8.186411e-001
2.447224e+003, 8.194447e-001
2.449153e+003, 8.200845e-001
2.451081e+003, 8.200065e-001
2.453010e+003, 8.204955e-001
2.454938e+003, 8.212857e-001
2.456866e+003, 8.222432e-001
2.458795e+003, 8.223742e-001
2.460723e+003, 8.216600e-001
2.462652e+003, 8.215882e-001
2.464580e+003, 8.218424e-001
2.466509e+003, 8.220404e-001
2.468437e+003, 8.221002e-001
2.470366e+003, 8.218232e-001
2.472294e+003, 8.225802e-001
2.474223e+003, 8.235390e-001
2.476151e+003, 8.235539e-001
2.478080e+003, 8.239439e-001
2.480008e+003, 8.246174e-001
2.481937e+003, 8.245597e-001
2.483865e+003, 8.244968e-001
2.485793e+003, 8.246855e-001
2.487722e+003, 8.251097e-001
2.489650e+003, 8.260151e-001
2.491579e+003, 8.259758e-001
2.493507e+003, 8.257542e-001
2.495436e+003, 8.263117e-001
2.497364e+003, 8.268552e-001
2.499293e+003, 8.269988e-001
2.501221e+003, 8.274305e-001
2.503150e+003, 8.279056e-001
2.505078e+003, 8.284333e-001
2.507007e+003, 8.286912e-001
2.508935e+003, 8.288324e-001
2.510864e+003, 8.286051e-001
2.512792e+003, 8.285162e-001
2.514720e+003, 8.290141e-001
2.516649e+003, 8.294677e-001
2.518577e+003, 8.299484e-001
2.520506e+003, 8.302061e-001
2.522434e+003, 8.300282e-001
2.524363e+003, 8.305534e-001
2.526291e+003, 8.309407e-001
2.528220e+003, 8.304101e-001
2.530148e+003, 8.305992e-001
2.532077e+003, 8.310782e-001
2.534005e+003, 8.309029e-001
2.535934e+003, 8.315918e-001
2.537862e+003, 8.324863e-001
2.539791e+003, 8.329532e-001
2.541719e+003, 8.332226e-001
2.543647e+003, 8.328164e-001
2.545576e+003, 8.332310e-001
2.547504e+003, 8.340824e-001
2.549433e+003, 8.345652e-001
2.551361e+003, 8.344024e-001
2.553290e+003, 8.345106e-001
2.555218e+003, 8.354759e-001
2.557147e+003, 8.354720e-001
2.559075e+003, 8.350415e-001
2.561004e+003, 8.353341e-001
2.562932e+003, 8.356778e-001
2.564861e+003, 8.360618e-001
2.566789e+003, 8.359410e-001
2.568718e+003, 8.358248e-001
2.570646e+003, 8.370087e-001
2.572574e+003, 8.374416e-001
2.574503e+003, 8.375912e-001
2.576431e+003, 8.379536e-001
2.578360e+003, 8.383551e-001
2.580288e+003, 8.386843e-001
2.582217e+003, 8.390660e-001
2.584145e+003, 8.392420e-001
2.586074e+003, 8.394573e-001
2.588002e+003, 8.397881e-001
2.589931e+003, 8.404593e-001
2.591859e+003, 8.415608e-001
2.593788e+003, 8.418753e-001
2.595716e+003, 8.413193e-001
2.597645e+003, 8.412777e-001
2.599573e+003, 8.418890e-001
2.601501e+003, 8.428472e-001
2.603430e+003, 8.434663e-001
2.605358e+003, 8.435162e-001
2.607287e+003, 8.433468e-001
2.609215e+003, 8.435646e-001
2.611144e+003, 8.443508e-001
2.613072e+003, 8.445395e-001
2.615001e+003, 8.449319e-001
2.616929e+003, 8.453686e-001
2.618858e+003, 8.456291e-001
2.620786e+003, 8.457567e-001
2.622715e+003, 8.464582e-001
2.624643e+003, 8.465070e-001
2.626572e+003, 8.466922e-001
2.628500e+003, 8.473184e-001
2.630428e+003, 8.477302e-001
2.632357e+003, 8.475531e-001
2.634285e+003, 8.479549e-001
2.636214e+003, 8.484342e-001
2.638142e+003, 8.489882e-001
2.640071e+003, 8.498570e-001
2.641999e+003, 8.505067e-001
2.643928e+003, 8.505738e-001
2.645856e+003, 8.509603e-001
2.647785e+003, 8.509164e-001
2.649713e+003, 8.511922e-001
2.651642e+003, 8.517643e-001
2.653570e+003, 8.519527e-001
2.655499e+003, 8.520731e-001
2.657427e+003, 8.523120e-001
2.659355e+003, 8.527884e-001
2.661284e+003, 8.532474e-001
2.663212e+003, 8.536985e-001
2.665141e+003, 8.537644e-001
2.667069e+003, 8.535643e-001
2.668998e+003, 8.537639e-001
2.670926e+003, 8.546202e-001
2.672855e+003, 8.549258e-001
2.674783e+003, 8.547632e-001
2.676712e+003, 8.549717e-001
2.678640e+003, 8.553838e-001
2.680569e+003, 8.556191e-001
2.682497e+003, 8.562415e-001
2.684426e+003, 8.567929e-001
2.686354e+003, 8.567029e-001
2.688282e+003, 8.568320e-001
2.690211e+003, 8.570102e-001
2.692139e+003, 8.571501e-001
2.694068e+003, 8.573877e-001
2.695996e+003, 8.574176e-001
2.697925e+003, 8.575270e-001
2.699853e+003, 8.580819e-001
2.701782e+003, 8.584387e-001
2.703710e+003, 8.588667e-001
2.705639e+003, 8.592977e-001
2.707567e+003, 8.598243e-001
2.709496e+003, 8.601606e-001
2.711424e+003, 8.607602e-001
2.713353e+003, 8.609739e-001
2.715281e+003, 8.605771e-001
2.717209e+003, 8.605993e-001
2.719138e+003, 8.607706e-001
2.721066e+003, 8.609146e-001
2.722995e+003, 8.614196e-001
2.724923e+003, 8.618125e-001
2.726852e+003, 8.616341e-001
2.728780e+003, 8.616194e-001
2.730709e+003, 8.620401e-001
2.732637e+003, 8.623031e-001
2.734566e+003, 8.623962e-001
2.736494e+003, 8.624816e-001
2.738423e+003, 8.626676e-001
2.740351e+003, 8.630598e-001
2.742280e+003, 8.635305e-001
2.744208e+003, 8.637360e-001
2.746136e+003, 8.638251e-001
2.748065e+003, 8.642146e-001
2.749993e+003, 8.646737e-001
2.751922e+003, 8.647754e-001
2.753850e+003, 8.649311e-001
2.755779e+003, 8.650699e-001
2.757707e+003, 8.658049e-001
2.759636e+003, 8.665842e-001
2.761564e+003, 8.664272e-001
2.763493e+003, 8.658545e-001
2.765421e+003, 8.659059e-001
2.767350e+003, 8.665286e-001
2.769278e+003, 8.671022e-001
2.771207e+003, 8.674552e-001
2.773135e+003, 8.679113e-001
2.775063e+003, 8.682283e-001
2.776992e+003, 8.682945e-001
2.778920e+003, 8.687146e-001
2.780849e+003, 8.690255e-001
2.782777e+003, 8.691058e-001
2.784706e+003, 8.695500e-001
2.786634e+003, 8.694921e-001
2.788563e+003, 8.695030e-001
2.790491e+003, 8.695761e-001
2.792420e+003, 8.699010e-001
2.794348e+003, 8.703128e-001
2.796277e+003, 8.708566e-001
2.798205e+003, 8.710324e-001
2.800134e+003, 8.710898e-001
2.802062e+003, 8.714067e-001
2.803990e+003, 8.713800e-001
2.805919e+003, 8.714852e-001
2.807847e+003, 8.721751e-001
2.809776e+003, 8.727236e-001
2.811704e+003, 8.732626e-001
2.813633e+003, 8.731495e-001
2.815561e+003, 8.731539e-001
2.817490e+003, 8.737602e-001
2.819418e+003, 8.740514e-001
2.821347e+003, 8.737125e-001
2.823275e+003, 8.738288e-001
2.825204e+003, 8.741383e-001
2.827132e+003, 8.747463e-001
2.829061e+003, 8.754393e-001
2.830989e+003, 8.754857e-001
2.832917e+003, 8.751639e-001
2.834846e+003, 8.753470e-001
2.836774e+003, 8.756208e-001
2.838703e+003, 8.760793e-001
2.840631e+003, 8.765320e-001
2.842560e+003, 8.765898e-001
2.844488e+003, 8.765019e-001
2.846417e+003, 8.761983e-001
2.848345e+003, 8.760116e-001
2.850274e+003, 8.762073e-001
2.852202e+003, 8.764094e-001
2.854131e+003, 8.759468e-001
2.856059e+003, 8.754745e-001
2.857988e+003, 8.754933e-001
2.859916e+003, 8.757968e-001
2.861844e+003, 8.763024e-001
2.863773e+003, 8.766217e-001
2.865701e+003, 8.768550e-001
2.867630e+003, 8.769701e-001
2.869558e+003, 8.769959e-001
2.871487e+003, 8.771620e-001
2.873415e+003, 8.772215e-001
2.875344e+003, 8.776422e-001
2.877272e+003, 8.780715e-001
2.879201e+003, 8.780549e-001
2.881129e+003, 8.784767e-001
2.883058e+003, 8.787232e-001
2.884986e+003, 8.786697e-001
2.886915e+003, 8.790459e-001
2.888843e+003, 8.794506e-001
2.890771e+003, 8.801441e-001
2.892700e+003, 8.801873e-001
2.894628e+003, 8.801214e-001
2.896557e+003, 8.806651e-001
2.898485e+003, 8.808495e-001
2.900414e+003, 8.809237e-001
2.902342e+003, 8.815941e-001
2.904271e+003, 8.820564e-001
2.906199e+003, 8.815756e-001
2.908128e+003, 8.812727e-001
2.910056e+003, 8.813516e-001
2.911985e+003, 8.814852e-001
2.913913e+003, 8.812932e-001
2.915842e+003, 8.813334e-001
2.917770e+003, 8.812893e-001
2.919698e+003, 8.806390e-001
2.921627e+003, 8.803563e-001
2.923555e+003, 8.798330e-001
2.925484e+003, 8.790778e-001
2.927412e+003, 8.784967e-001
2.929341e+003, 8.785973e-001
2.931269e+003, 8.786054e-001
2.933198e+003, 8.783207e-001
2.935126e+003, 8.782921e-001
2.937055e+003, 8.785056e-001
2.938983e+003, 8.789361e-001
2.940912e+003, 8.791591e-001
2.942840e+003, 8.797815e-001
2.944769e+003, 8.803018e-001
2.946697e+003, 8.799052e-001
2.948625e+003, 8.799351e-001
2.950554e+003, 8.805476e-001
2.952482e+003, 8.808143e-001
2.954411e+003, 8.811395e-001
2.956339e+003, 8.813618e-001
2.958268e+003, 8.807005e-001
2.960196e+003, 8.796853e-001
2.962125e+003, 8.798923e-001
2.964053e+003, 8.800129e-001
2.965982e+003, 8.801382e-001
2.967910e+003, 8.802395e-001
2.969839e+003, 8.805553e-001
2.971767e+003, 8.812797e-001
2.973696e+003, 8.813528e-001
2.975624e+003, 8.814039e-001
2.977552e+003, 8.819299e-001
2.979481e+003, 8.822476e-001
2.981409e+003, 8.820991e-001
2.983338e+003, 8.824000e-001
2.985266e+003, 8.830249e-001
2.987195e+003, 8.837565e-001
2.989123e+003, 8.842595e-001
2.991052e+003, 8.842546e-001
2.992980e+003, 8.841486e-001
2.994909e+003, 8.843785e-001
2.996837e+003, 8.849325e-001
2.998766e+003, 8.849221e-001
3.000694e+003, 8.852006e-001
3.002623e+003, 8.855234e-001
3.004551e+003, 8.858422e-001
3.006479e+003, 8.860577e-001
3.008408e+003, 8.862588e-001
3.010336e+003, 8.868563e-001
3.012265e+003, 8.869808e-001
3.014193e+003, 8.871710e-001
3.016122e+003, 8.868152e-001
3.018050e+003, 8.861420e-001
3.019979e+003, 8.870798e-001
3.021907e+003, 8.879268e-001
3.023836e+003, 8.882389e-001
3.025764e+003, 8.881027e-001
3.027693e+003, 8.882935e-001
3.029621e+003, 8.890136e-001
3.031550e+003, 8.894142e-001
3.033478e+003, 8.894069e-001
3.035406e+003, 8.899134e-001
3.037335e+003, 8.895511e-001
3.039263e+003, 8.888464e-001
3.041192e+003, 8.889719e-001
3.043120e+003, 8.899308e-001
3.045049e+003, 8.909515e-001
3.046977e+003, 8.913676e-001
3.048906e+003, 8.911691e-001
3.050834e+003, 8.908812e-001
3.052763e+003, 8.912208e-001
3.054691e+003, 8.912404e-001
3.056620e+003, 8.908864e-001
3.058548e+003, 8.915026e-001
3.060477e+003, 8.917711e-001
3.062405e+003, 8.915463e-001
3.064333e+003, 8.915522e-001
3.066262e+003, 8.911229e-001
3.068190e+003, 8.914483e-001
3.070119e+003, 8.925931e-001
3.072047e+003, 8.925446e-001
3.073976e+003, 8.923226e-001
3.075904e+003, 8.925853e-001
3.077833e+003, 8.928332e-001
3.079761e+003, 8.931784e-001
3.081690e+003, 8.933682e-001
3.083618e+003, 8.930809e-001
3.085547e+003, 8.931670e-001
3.087475e+003, 8.941723e-001
3.089404e+003, 8.947622e-001
3.091332e+003, 8.942897e-001
3.093260e+003, 8.941140e-001
3.095189e+003, 8.940278e-001
3.097117e+003, 8.946854e-001
3.099046e+003, 8.950696e-001
3.100974e+003, 8.943133e-001
3.102903e+003, 8.940022e-001
3.104831e+003, 8.938572e-001
3.106760e+003, 8.940382e-001
3.108688e+003, 8.949538e-001
3.110617e+003, 8.957590e-001
3.112545e+003, 8.953173e-001
3.114474e+003, 8.947524e-001
3.116402e+003, 8.952460e-001
3.118331e+003, 8.958344e-001
3.120259e+003, 8.959322e-001
3.122188e+003, 8.958045e-001
3.124116e+003, 8.963464e-001
3.126044e+003, 8.959727e-001
3.127973e+003, 8.966967e-001
3.129901e+003, 8.973436e-001
3.131830e+003, 8.967283e-001
3.133758e+003, 8.967316e-001
3.135687e+003, 8.969620e-001
3.137615e+003, 8.972906e-001
3.139544e+003, 8.972751e-001
3.141472e+003, 8.973757e-001
3.143401e+003, 8.970262e-001
3.145329e+003, 8.968495e-001
3.147258e+003, 8.967421e-001
3.149186e+003, 8.968164e-001
3.151115e+003, 8.971229e-001
3.153043e+003, 8.970914e-001
3.154971e+003, 8.973556e-001
3.156900e+003, 8.976908e-001
3.158828e+003, 8.979095e-001
3.160757e+003, 8.982655e-001
3.162685e+003, 8.984752e-001
3.164614e+003, 8.983619e-001
3.166542e+003, 8.985575e-001
3.168471e+003, 8.986875e-001
3.170399e+003, 8.985336e-001
3.172328e+003, 8.989961e-001
3.174256e+003, 8.987644e-001
3.176185e+003, 8.985078e-001
3.178113e+003, 8.983646e-001
3.180042e+003, 8.984606e-001
3.181970e+003, 8.984553e-001
3.183898e+003, 8.987684e-001
3.185827e+003, 8.985621e-001
3.187755e+003, 8.978382e-001
3.189684e+003, 8.982940e-001
3.191612e+003, 8.986530e-001
3.193541e+003, 8.984334e-001
3.195469e+003, 8.988506e-001
3.197398e+003, 8.992152e-001
3.199326e+003, 8.997553e-001
3.201255e+003, 8.995448e-001
3.203183e+003, 8.984997e-001
3.205112e+003, 8.985108e-001
3.207040e+003, 8.987696e-001
3.208969e+003, 8.991882e-001
3.210897e+003, 8.999763e-001
3.212825e+003, 8.998922e-001
3.214754e+003, 8.988689e-001
3.216682e+003, 8.990098e-001
3.218611e+003, 9.001329e-001
3.220539e+003, 9.002126e-001
3.222468e+003, 8.998386e-001
3.224396e+003, 8.999174e-001
3.226325e+003, 8.995376e-001
3.228253e+003, 8.996572e-001
3.230182e+003, 8.999383e-001
3.232110e+003, 8.995537e-001
3.234039e+003, 8.992645e-001
3.235967e+003, 8.995415e-001
3.237896e+003, 9.000958e-001
3.239824e+003, 9.001139e-001
3.241752e+003, 9.000214e-001
3.243681e+003, 9.001880e-001
3.245609e+003, 9.005402e-001
3.247538e+003, 9.005386e-001
3.249466e+003, 9.002466e-001
3.251395e+003, 9.004183e-001
3.253323e+003, 9.005046e-001
3.255252e+003, 9.000844e-001
3.257180e+003, 8.993450e-001
3.259109e+003, 8.996270e-001
3.261037e+003, 9.001663e-001
3.262966e+003, 9.005345e-001
3.264894e+003, 9.006893e-001
3.266823e+003, 9.008499e-001
3.268751e+003, 9.011196e-001
3.270679e+003, 9.019570e-001
3.272608e+003, 9.015560e-001
3.274536e+003, 9.006020e-001
3.276465e+003, 9.000493e-001
3.278393e+003, 9.003374e-001
3.280322e+003, 9.002995e-001
3.282250e+003, 9.000487e-001
3.284179e+003, 9.004576e-001
3.286107e+003, 9.009475e-001
3.288036e+003, 9.010879e-001
3.289964e+003, 9.009500e-001
3.291893e+003, 9.006313e-001
3.293821e+003, 9.007820e-001
3.295750e+003, 9.015091e-001
3.297678e+003, 9.019081e-001
3.299606e+003, 9.017500e-001
3.301535e+003, 9.017861e-001
3.303463e+003, 9.017107e-001
3.305392e+003, 9.019600e-001
3.307320e+003, 9.021194e-001
3.309249e+003, 9.022125e-001
3.311177e+003, 9.016132e-001
3.313106e+003, 9.014347e-001
3.315034e+003, 9.012464e-001
3.316963e+003, 9.010156e-001
3.318891e+003, 9.011889e-001
3.320820e+003, 9.012434e-001
3.322748e+003, 9.017025e-001
3.324677e+003, 9.016659e-001
3.326605e+003, 9.008979e-001
3.328533e+003, 9.010085e-001
3.330462e+003, 9.015247e-001
3.332390e+003, 9.011358e-001
3.334319e+003, 9.004428e-001
3.336247e+003, 9.006878e-001
3.338176e+003, 9.008309e-001
3.340104e+003, 9.009261e-001
3.342033e+003, 9.010609e-001
3.343961e+003, 9.005315e-001
3.345890e+003, 9.006113e-001
3.347818e+003, 9.004158e-001
3.349747e+003, 8.992127e-001
3.351675e+003, 8.995511e-001
3.353604e+003, 9.001850e-001
3.355532e+003, 9.000750e-001
3.357460e+003, 8.996039e-001
3.359389e+003, 8.993562e-001
3.361317e+003, 8.996862e-001
3.363246e+003, 9.000466e-001
3.365174e+003, 8.999338e-001
3.367103e+003, 8.995022e-001
3.369031e+003, 8.991816e-001
3.370960e+003, 8.992543e-001
3.372888e+003, 8.991221e-001
3.374817e+003, 8.992432e-001
3.376745e+003, 8.990390e-001
3.378674e+003, 8.991201e-001
3.380602e+003, 8.996148e-001
3.382531e+003, 8.989084e-001
3.384459e+003, 8.989215e-001
3.386387e+003, 8.995882e-001
3.388316e+003, 8.989478e-001
3.390244e+003, 8.979920e-001
3.392173e+003, 8.971919e-001
3.394101e+003, 8.971872e-001
3.396030e+003, 8.973178e-001
3.397958e+003, 8.980026e-001
3.399887e+003, 8.978272e-001
3.401815e+003, 8.976782e-001
3.403744e+003, 8.978741e-001
3.405672e+003, 8.981394e-001
3.407601e+003, 8.973910e-001
3.409529e+003, 8.968989e-001
3.411458e+003, 8.973536e-001
3.413386e+003, 8.973332e-001
3.415314e+003, 8.958464e-001
3.417243e+003, 8.955887e-001
3.419171e+003, 8.960963e-001
3.421100e+003, 8.965710e-001
3.423028e+003, 8.972538e-001
3.424957e+003, 8.971699e-001
3.426885e+003, 8.968260e-001
3.428814e+003, 8.966154e-001
3.430742e+003, 8.958163e-001
3.432671e+003, 8.958654e-001
3.434599e+003, 8.963750e-001
3.436528e+003, 8.965957e-001
3.438456e+003, 8.963170e-001
3.440385e+003, 8.964230e-001
3.442313e+003, 8.964580e-001
3.444241e+003, 8.959181e-001
3.446170e+003, 8.953050e-001
3.448098e+003, 8.954934e-001
3.450027e+003, 8.957801e-001
3.451955e+003, 8.953747e-001
3.453884e+003, 8.952785e-001
3.455812e+003, 8.956620e-001
3.457741e+003, 8.954630e-001
3.459669e+003, 8.953095e-001
3.461598e+003, 8.956030e-001
3.463526e+003, 8.953391e-001
3.465455e+003, 8.947026e-001
3.467383e+003, 8.946195e-001
3.469312e+003, 8.949038e-001
3.471240e+003, 8.951685e-001
3.473168e+003, 8.948856e-001
3.475097e+003, 8.950968e-001
3.477025e+003, 8.957015e-001
3.478954e+003, 8.948476e-001
3.480882e+003, 8.941373e-001
3.482811e+003, 8.949739e-001
3.484739e+003, 8.950479e-001
3.486668e+003, 8.944976e-001
3.488596e+003, 8.938618e-001
3.490525e+003, 8.935448e-001
3.492453e+003, 8.936511e-001
3.494382e+003, 8.940554e-001
3.496310e+003, 8.941499e-001
3.498239e+003, 8.942193e-001
3.500167e+003, 8.948162e-001
3.502095e+003, 8.952253e-001
3.504024e+003, 8.942177e-001
3.505952e+003, 8.934295e-001
3.507881e+003, 8.935792e-001
3.509809e+003, 8.941050e-001
3.511738e+003, 8.937119e-001
3.513666e+003, 8.939700e-001
3.515595e+003, 8.939531e-001
3.517523e+003, 8.945618e-001
3.519452e+003, 8.946155e-001
3.521380e+003, 8.944069e-001
3.523309e+003, 8.954467e-001
3.525237e+003, 8.952551e-001
3.527166e+003, 8.936986e-001
3.529094e+003, 8.938270e-001
3.531022e+003, 8.950930e-001
3.532951e+003, 8.943419e-001
3.534879e+003, 8.933871e-001
3.536808e+003, 8.932010e-001
3.538736e+003, 8.931184e-001
3.540665e+003, 8.942792e-001
3.542593e+003, 8.957427e-001
3.544522e+003, 8.950949e-001
3.546450e+003, 8.940063e-001
3.548379e+003, 8.950830e-001
3.550307e+003, 8.952219e-001
3.552236e+003, 8.941527e-001
3.554164e+003, 8.940671e-001
3.556093e+003, 8.941312e-001
3.558021e+003, 8.940448e-001
3.559949e+003, 8.941958e-001
3.561878e+003, 8.941965e-001
3.563806e+003, 8.940696e-001
3.565735e+003, 8.943080e-001
3.567663e+003, 8.948041e-001
3.569592e+003, 8.948295e-001
3.571520e+003, 8.943393e-001
3.573449e+003, 8.938887e-001
3.575377e+003, 8.940461e-001
3.577306e+003, 8.947734e-001
3.579234e+003, 8.956479e-001
3.581163e+003, 8.952351e-001
3.583091e+003, 8.951665e-001
3.585020e+003, 8.956197e-001
3.586948e+003, 8.964059e-001
3.588876e+003, 8.971798e-001
3.590805e+003, 8.974348e-001
3.592733e+003, 8.968327e-001
3.594662e+003, 8.970599e-001
3.596590e+003, 8.973122e-001
3.598519e+003, 8.974093e-001
3.600447e+003, 8.982019e-001
3.602376e+003, 8.980722e-001
3.604304e+003, 8.972583e-001
3.606233e+003, 8.984360e-001
3.608161e+003, 8.991529e-001
3.610090e+003, 8.989518e-001
3.612018e+003, 8.994969e-001
3.613947e+003, 9.001551e-001
3.615875e+003, 9.000412e-001
3.617803e+003, 9.003915e-001
3.619732e+003, 9.002037e-001
3.621660e+003, 9.005368e-001
3.623589e+003, 9.014737e-001
3.625517e+003, 9.014065e-001
3.627446e+003, 9.008546e-001
3.629374e+003, 9.017051e-001
3.631303e+003, 9.024510e-001
3.633231e+003, 9.025833e-001
3.635160e+003, 9.027022e-001
3.637088e+003, 9.028347e-001
3.639017e+003, 9.036525e-001
3.640945e+003, 9.056577e-001
3.642874e+003, 9.063917e-001
3.644802e+003, 9.053237e-001
3.646730e+003, 9.045325e-001
3.648659e+003, 9.043957e-001
3.650587e+003, 9.053700e-001
3.652516e+003, 9.062758e-001
3.654444e+003, 9.054814e-001
3.656373e+003, 9.050055e-001
3.658301e+003, 9.056287e-001
3.660230e+003, 9.065737e-001
3.662158e+003, 9.073665e-001
3.664087e+003, 9.079633e-001
3.666015e+003, 9.076435e-001
3.667944e+003, 9.079179e-001
3.669872e+003, 9.083601e-001
3.671801e+003, 9.089376e-001
3.673729e+003, 9.091375e-001
3.675657e+003, 9.098846e-001
3.677586e+003, 9.100580e-001
3.679514e+003, 9.095789e-001
3.681443e+003, 9.094575e-001
3.683371e+003, 9.105527e-001
3.685300e+003, 9.118652e-001
3.687228e+003, 9.120809e-001
3.689157e+003, 9.125209e-001
3.691085e+003, 9.116997e-001
3.693014e+003, 9.110646e-001
3.694942e+003, 9.127359e-001
3.696871e+003, 9.139974e-001
3.698799e+003, 9.132626e-001
3.700728e+003, 9.128582e-001
3.702656e+003, 9.131640e-001
3.704584e+003, 9.138762e-001
3.706513e+003, 9.149421e-001
3.708441e+003, 9.145611e-001
3.710370e+003, 9.151838e-001
3.712298e+003, 9.157418e-001
3.714227e+003, 9.151145e-001
3.716155e+003, 9.152030e-001
3.718084e+003, 9.159591e-001
3.720012e+003, 9.162226e-001
3.721941e+003, 9.160996e-001
3.723869e+003, 9.164701e-001
3.725798e+003, 9.172762e-001
3.727726e+003, 9.179975e-001
3.729655e+003, 9.189019e-001
3.731583e+003, 9.184023e-001
3.733511e+003, 9.183454e-001
3.735440e+003, 9.188625e-001
3.737368e+003, 9.193155e-001
3.739297e+003, 9.187244e-001
3.741225e+003, 9.185407e-001
3.743154e+003, 9.187790e-001
3.745082e+003, 9.196773e-001
3.747011e+003, 9.201967e-001
3.748939e+003, 9.199198e-001
3.750868e+003, 9.199129e-001
3.752796e+003, 9.206570e-001
3.754725e+003, 9.204287e-001
3.756653e+003, 9.203177e-001
3.758582e+003, 9.210984e-001
3.760510e+003, 9.222266e-001
3.762438e+003, 9.220731e-001
3.764367e+003, 9.213820e-001
3.766295e+003, 9.220919e-001
3.768224e+003, 9.223866e-001
3.770152e+003, 9.220996e-001
3.772081e+003, 9.227794e-001
3.774009e+003, 9.229350e-001
3.775938e+003, 9.231843e-001
3.777866e+003, 9.229708e-001
3.779795e+003, 9.230924e-001
3.781723e+003, 9.232727e-001
3.783652e+003, 9.240271e-001
3.785580e+003, 9.239417e-001
3.787509e+003, 9.246862e-001
3.789437e+003, 9.257469e-001
3.791365e+003, 9.254352e-001
3.793294e+003, 9.248512e-001
3.795222e+003, 9.252087e-001
3.797151e+003, 9.261962e-001
3.799079e+003, 9.253401e-001
3.801008e+003, 9.251984e-001
3.802936e+003, 9.266719e-001
3.804865e+003, 9.268930e-001
3.806793e+003, 9.269443e-001
3.808722e+003, 9.271581e-001
3.810650e+003, 9.268766e-001
3.812579e+003, 9.264809e-001
3.814507e+003, 9.263144e-001
3.816436e+003, 9.258536e-001
3.818364e+003, 9.264699e-001
3.820292e+003, 9.283314e-001
3.822221e+003, 9.294105e-001
3.824149e+003, 9.289920e-001
3.826078e+003, 9.278167e-001
3.828006e+003, 9.271663e-001
3.829935e+003, 9.276942e-001
3.831863e+003, 9.282218e-001
3.833792e+003, 9.291959e-001
3.835720e+003, 9.294747e-001
3.837649e+003, 9.283559e-001
3.839577e+003, 9.279940e-001
3.841506e+003, 9.295686e-001
3.843434e+003, 9.298663e-001
3.845363e+003, 9.288661e-001
3.847291e+003, 9.288898e-001
3.849219e+003, 9.292867e-001
3.851148e+003, 9.292766e-001
3.853076e+003, 9.281053e-001
3.855005e+003, 9.281204e-001
3.856933e+003, 9.292065e-001
3.858862e+003, 9.293344e-001
3.860790e+003, 9.286572e-001
3.862719e+003, 9.281090e-001
3.864647e+003, 9.293110e-001
3.866576e+003, 9.297361e-001
3.868504e+003, 9.302747e-001
3.870433e+003, 9.304304e-001
3.872361e+003, 9.306010e-001
3.874290e+003, 9.312719e-001
3.876218e+003, 9.309426e-001
3.878146e+003, 9.309320e-001
3.880075e+003, 9.309059e-001
3.882003e+003, 9.307897e-001
3.883932e+003, 9.311317e-001
3.885860e+003, 9.318213e-001
3.887789e+003, 9.326756e-001
3.889717e+003, 9.333321e-001
3.891646e+003, 9.325471e-001
3.893574e+003, 9.321992e-001
3.895503e+003, 9.329005e-001
3.897431e+003, 9.329262e-001
3.899360e+003, 9.331124e-001
3.901288e+003, 9.328472e-001
3.903217e+003, 9.325384e-001
3.905145e+003, 9.331406e-001
3.907073e+003, 9.339027e-001
3.909002e+003, 9.344324e-001
3.910930e+003, 9.347730e-001
3.912859e+003, 9.335647e-001
3.914787e+003, 9.329615e-001
3.916716e+003, 9.334959e-001
3.918644e+003, 9.337026e-001
3.920573e+003, 9.336756e-001
3.922501e+003, 9.337433e-001
3.924430e+003, 9.351948e-001
3.926358e+003, 9.358105e-001
3.928287e+003, 9.351929e-001
3.930215e+003, 9.347310e-001
3.932144e+003, 9.342021e-001
3.934072e+003, 9.336608e-001
3.936000e+003, 9.343383e-001
3.937929e+003, 9.340301e-001
3.939857e+003, 9.330151e-001
3.941786e+003, 9.326426e-001
3.943714e+003, 9.330981e-001
3.945643e+003, 9.343471e-001
3.947571e+003, 9.356389e-001
3.949500e+003, 9.364582e-001
3.951428e+003, 9.356408e-001
3.953357e+003, 9.355366e-001
3.955285e+003, 9.352815e-001
3.957214e+003, 9.351856e-001
3.959142e+003, 9.352605e-001
3.961071e+003, 9.356529e-001
3.962999e+003, 9.369377e-001
3.964927e+003, 9.366957e-001
3.966856e+003, 9.370739e-001
3.968784e+003, 9.372718e-001
3.970713e+003, 9.367990e-001
3.972641e+003, 9.378280e-001
3.974570e+003, 9.373359e-001
3.976498e+003, 9.361981e-001
3.978427e+003, 9.358149e-001
3.980355e+003, 9.351075e-001
3.982284e+003, 9.349779e-001
3.984212e+003, 9.368088e-001
3.986141e+003, 9.378881e-001
3.988069e+003, 9.379042e-001
3.989998e+003, 9.379383e-001
3.991926e+003, 9.382195e-001
3.993854e+003, 9.370861e-001
3.995783e+003, 9.370773e-001
3.997711e+003, 9.373137e-001
3.999640e+003, 9.377528e-001
4.001568e+003, 0.000000e+000
##END=



