##NAMES=Vanadinite
##RRUFFID=R050376
##IDEAL CHEMISTRY=Pb^2+^_5_(V^5+^O_4_)_3_Cl
##LOCALITY=Morocco
##OWNER=RRUFF
##SOURCE=Eugene Schlepp
##DESCRIPTION=Red hoppered crystal
##STATUS=The identification of this mineral has been confirmed by X-ray diffraction and chemical analysis
##URL=rruff.info/R050376
##MEASURED CHEMISTRY=Pb_5.00_(V_1.00_O_4_)_3_Cl_1.00_
399.1926, 0.1670532
401.1211, 0.1636982
403.0496, 0.1644852
404.9780, 0.1674887
406.9065, 0.1742451
408.8350, 0.1745715
410.7634, 0.1745791
412.6919, 0.1809001
414.6204, 0.1847315
416.5488, 0.1838266
418.4773, 0.1865609
420.4058, 0.1888897
422.3342, 0.1917815
424.2627, 0.1974836
426.1912, 0.2013661
428.1196, 0.2042583
430.0481, 0.2079096
431.9766, 0.2136173
433.9050, 0.2175813
435.8335, 0.2222104
437.7620, 0.2255728
439.6904, 0.2249644
441.6189, 0.2286494
443.5474, 0.2341204
445.4758, 0.2382465
447.4043, 0.2410057
449.3328, 0.2413979
451.2612, 0.2434037
453.1897, 0.2489059
455.1182, 0.2525130
457.0466, 0.2555833
458.9751, 0.2579080
460.9036, 0.2612136
462.8320, 0.2628372
464.7605, 0.2640772
466.6890, 0.2679461
468.6174, 0.2733014
470.5459, 0.2760452
472.4744, 0.2782041
474.4028, 0.2813593
476.3313, 0.2848400
478.2598, 0.2864838
480.1882, 0.2877505
482.1167, 0.2899625
484.0452, 0.2946456
485.9736, 0.2993669
487.9021, 0.3030918
489.8306, 0.3085069
491.7590, 0.3120313
493.6875, 0.3127693
495.6160, 0.3140956
497.5444, 0.3184850
499.4729, 0.3234030
501.4014, 0.3258514
503.3298, 0.3280835
505.2583, 0.3325323
507.1868, 0.3375177
509.1152, 0.3404735
511.0437, 0.3429480
512.9722, 0.3465052
514.9006, 0.3498528
516.8291, 0.3529375
518.7576, 0.3550798
520.6860, 0.3579582
522.6145, 0.3606646
524.5430, 0.3637893
526.4714, 0.3669281
528.3999, 0.3707084
530.3284, 0.3768073
532.2568, 0.3828410
534.1853, 0.3885837
536.1138, 0.3953210
538.0422, 0.3994420
539.9707, 0.4041821
541.8992, 0.4107278
543.8276, 0.4151640
545.7561, 0.4159266
547.6846, 0.4139979
549.6130, 0.4152418
551.5415, 0.4181266
553.4700, 0.4207118
555.3984, 0.4239219
557.3269, 0.4312112
559.2554, 0.4387550
561.1838, 0.4442865
563.1123, 0.4469036
565.0408, 0.4443582
566.9692, 0.4405931
568.8977, 0.4403438
570.8262, 0.4432509
572.7546, 0.4466493
574.6831, 0.4489861
576.6116, 0.4508456
578.5400, 0.4520998
580.4685, 0.4551246
582.3970, 0.4591393
584.3254, 0.4630681
586.2539, 0.4667008
588.1824, 0.4702867
590.1108, 0.4731364
592.0393, 0.4773142
593.9678, 0.4802094
595.8962, 0.4805890
597.8247, 0.4845636
599.7532, 0.4906019
601.6816, 0.4960721
603.6101, 0.4996484
605.5386, 0.5046766
607.4670, 0.5108413
609.3955, 0.5152988
611.3240, 0.5181618
613.2524, 0.5193864
615.1809, 0.5207561
617.1094, 0.5267062
619.0378, 0.5334537
620.9663, 0.5380800
622.8948, 0.5438865
624.8232, 0.5500451
626.7517, 0.5563699
628.6802, 0.5590506
630.6086, 0.5610061
632.5371, 0.5647705
634.4656, 0.5690187
636.3940, 0.5733715
638.3225, 0.5770651
640.2510, 0.5835081
642.1794, 0.5879959
644.1079, 0.5901610
646.0364, 0.5952899
647.9648, 0.5980188
649.8933, 0.6014251
651.8218, 0.6040001
653.7502, 0.6056519
655.6787, 0.6096520
657.6072, 0.6156463
659.5356, 0.6195328
661.4641, 0.6214678
663.3926, 0.6213583
665.3210, 0.6232858
667.2495, 0.6290272
669.1780, 0.6332395
671.1064, 0.6356891
673.0349, 0.6347463
674.9634, 0.6321520
676.8918, 0.6347035
678.8203, 0.6382861
680.7488, 0.6398891
682.6772, 0.6417173
684.6057, 0.6420891
686.5342, 0.6409990
688.4626, 0.6416295
690.3911, 0.6422716
692.3196, 0.6432849
694.2480, 0.6421967
696.1765, 0.6395794
698.1050, 0.6389166
700.0334, 0.6379954
701.9619, 0.6350399
703.8904, 0.6306126
705.8188, 0.6248056
707.7473, 0.6199949
709.6758, 0.6152213
711.6042, 0.6081284
713.5327, 0.5975037
715.4612, 0.5858400
717.3896, 0.5744870
719.3181, 0.5619608
721.2466, 0.5492749
723.1750, 0.5379428
725.1035, 0.5248617
727.0320, 0.5104824
728.9604, 0.4980893
730.8889, 0.4864237
732.8174, 0.4735606
734.7458, 0.4618865
736.6743, 0.4503039
738.6028, 0.4385808
740.5313, 0.4272190
742.4597, 0.4158162
744.3882, 0.4055875
746.3167, 0.3960420
748.2451, 0.3862202
750.1736, 0.3772112
752.1021, 0.3702331
754.0305, 0.3641988
755.9590, 0.3585741
757.8875, 0.3549848
759.8159, 0.3529513
761.7444, 0.3522654
763.6729, 0.3532842
765.6013, 0.3554072
767.5298, 0.3590911
769.4583, 0.3646632
771.3867, 0.3719790
773.3152, 0.3805194
775.2437, 0.3880435
777.1721, 0.3954456
779.1006, 0.4021605
781.0291, 0.4079300
782.9575, 0.4134642
784.8860, 0.4179871
786.8145, 0.4204045
788.7429, 0.4211171
790.6714, 0.4204020
792.5999, 0.4171202
794.5283, 0.4110078
796.4568, 0.4025351
798.3853, 0.3914523
800.3137, 0.3772789
802.2422, 0.3613742
804.1707, 0.3458624
806.0991, 0.3301762
808.0276, 0.3139425
809.9561, 0.2985504
811.8845, 0.2857580
813.8130, 0.2744435
815.7415, 0.2649930
817.6699, 0.2579419
819.5984, 0.2524124
821.5269, 0.2479175
823.4553, 0.2441850
825.3838, 0.2401395
827.3123, 0.2349606
829.2407, 0.2287742
831.1692, 0.2215085
833.0977, 0.2133169
835.0261, 0.2042239
836.9546, 0.1944200
838.8831, 0.1851823
840.8115, 0.1758345
842.7400, 0.1659224
844.6685, 0.1565860
846.5969, 0.1477864
848.5254, 0.1393258
850.4539, 0.1306950
852.3823, 0.1221717
854.3108, 0.1141402
856.2393, 0.1062734
858.1677, 9.8314866E-02
860.0962, 9.1058306E-02
862.0247, 8.4545597E-02
863.9531, 7.8373767E-02
865.8816, 7.2899662E-02
867.8101, 6.8260223E-02
869.7385, 6.3823387E-02
871.6670, 5.9811860E-02
873.5955, 5.6444760E-02
875.5239, 5.3145390E-02
877.4524, 4.9929369E-02
879.3809, 4.7165520E-02
881.3093, 4.4794921E-02
883.2378, 4.2370480E-02
885.1663, 3.9975360E-02
887.0947, 3.7674621E-02
889.0232, 3.5681501E-02
890.9517, 3.4177061E-02
892.8801, 3.2630380E-02
894.8085, 3.1123741E-02
896.7370, 2.9885311E-02
898.6655, 2.8445579E-02
900.5939, 2.7459050E-02
902.5224, 2.6739551E-02
904.4509, 2.5509991E-02
906.3793, 2.4471620E-02
908.3078, 2.3810970E-02
910.2363, 2.3559891E-02
912.1647, 2.3105860E-02
914.0932, 2.2486910E-02
916.0217, 2.2229999E-02
917.9501, 2.2317750E-02
919.8786, 2.2194089E-02
921.8071, 2.1754520E-02
923.7355, 2.1282980E-02
925.6640, 2.0890940E-02
927.5925, 2.0828450E-02
929.5209, 2.0763179E-02
931.4494, 2.0900751E-02
933.3779, 2.1100800E-02
935.3063, 2.1295059E-02
937.2348, 2.2012031E-02
939.1633, 2.2827171E-02
941.0917, 2.3924859E-02
943.0202, 2.5301350E-02
944.9487, 2.6886400E-02
946.8771, 2.9309830E-02
948.8056, 3.2080151E-02
950.7341, 3.4602780E-02
952.6625, 3.7252750E-02
954.5910, 3.9124541E-02
956.5195, 3.9503470E-02
958.4479, 3.8820140E-02
960.3764, 3.7561949E-02
962.3049, 3.6205549E-02
964.2333, 3.5045281E-02
966.1618, 3.4000039E-02
968.0903, 3.3537529E-02
970.0187, 3.3825021E-02
971.9472, 3.4344599E-02
973.8757, 3.4929391E-02
975.8041, 3.5503451E-02
977.7326, 3.5590030E-02
979.6611, 3.5336841E-02
981.5895, 3.5098519E-02
983.5180, 3.4912679E-02
985.4465, 3.4740999E-02
987.3749, 3.4787841E-02
989.3034, 3.5606690E-02
991.2319, 3.6980718E-02
993.1603, 3.8616959E-02
995.0888, 3.9731231E-02
997.0173, 4.0955819E-02
998.9457, 4.2035401E-02
1000.874, 4.2148892E-02
1002.803, 4.1535091E-02
1004.731, 4.0561602E-02
1006.660, 3.9141819E-02
1008.588, 3.7346762E-02
1010.517, 3.6045719E-02
1012.445, 3.5114881E-02
1014.373, 3.4035780E-02
1016.302, 3.2899082E-02
1018.230, 3.2111321E-02
1020.159, 3.1584889E-02
1022.087, 3.0791311E-02
1024.016, 3.0040840E-02
1025.944, 3.0127561E-02
1027.873, 3.0270780E-02
1029.801, 3.0073240E-02
1031.730, 2.9722899E-02
1033.658, 2.9896580E-02
1035.587, 3.0541360E-02
1037.515, 3.1300381E-02
1039.444, 3.1615399E-02
1041.372, 3.1863201E-02
1043.301, 3.2287572E-02
1045.229, 3.2502279E-02
1047.157, 3.2552298E-02
1049.086, 3.2769550E-02
1051.014, 3.3287302E-02
1052.943, 3.3638600E-02
1054.871, 3.3780579E-02
1056.800, 3.4089789E-02
1058.728, 3.4443788E-02
1060.657, 3.4686029E-02
1062.585, 3.4913830E-02
1064.514, 3.5483241E-02
1066.442, 3.6130309E-02
1068.371, 3.6585908E-02
1070.299, 3.6918059E-02
1072.228, 3.7336972E-02
1074.156, 3.7972491E-02
1076.084, 3.8693979E-02
1078.013, 3.9469119E-02
1079.941, 4.0194210E-02
1081.870, 4.0600099E-02
1083.798, 4.1134380E-02
1085.727, 4.1609369E-02
1087.655, 4.2289861E-02
1089.584, 4.2994469E-02
1091.512, 4.3369371E-02
1093.441, 4.3640569E-02
1095.369, 4.4112630E-02
1097.298, 4.4678129E-02
1099.226, 4.5405880E-02
1101.155, 4.6190869E-02
1103.083, 4.6984099E-02
1105.011, 4.7650591E-02
1106.940, 4.8238311E-02
1108.868, 4.8875939E-02
1110.797, 4.9355600E-02
1112.725, 4.9648020E-02
1114.654, 4.9860690E-02
1116.582, 5.0150570E-02
1118.511, 5.0474960E-02
1120.439, 5.0884400E-02
1122.368, 5.1157270E-02
1124.296, 5.1487699E-02
1126.225, 5.2056462E-02
1128.153, 5.2725911E-02
1130.082, 5.3325359E-02
1132.010, 5.3819649E-02
1133.938, 5.4546472E-02
1135.867, 5.5311952E-02
1137.795, 5.5585541E-02
1139.724, 5.6022178E-02
1141.652, 5.6454651E-02
1143.581, 5.6798011E-02
1145.509, 5.7351422E-02
1147.438, 5.8033928E-02
1149.366, 5.8650099E-02
1151.295, 5.9135679E-02
1153.223, 5.9571989E-02
1155.152, 6.0014449E-02
1157.080, 6.0458928E-02
1159.009, 6.0988590E-02
1160.937, 6.1300091E-02
1162.865, 6.1763231E-02
1164.794, 6.2467132E-02
1166.722, 6.3068248E-02
1168.651, 6.3625917E-02
1170.579, 6.4495221E-02
1172.508, 6.5343820E-02
1174.436, 6.5644354E-02
1176.365, 6.5947473E-02
1178.293, 6.6693284E-02
1180.222, 6.7461483E-02
1182.150, 6.7845121E-02
1184.079, 6.8409942E-02
1186.007, 6.9246113E-02
1187.936, 7.0236802E-02
1189.864, 7.1049146E-02
1191.792, 7.1523823E-02
1193.721, 7.2051577E-02
1195.649, 7.2766967E-02
1197.578, 7.3300637E-02
1199.506, 7.3797390E-02
1201.435, 7.4534997E-02
1203.363, 7.5338058E-02
1205.292, 7.5953223E-02
1207.220, 7.6575778E-02
1209.149, 7.7427089E-02
1211.077, 7.7862293E-02
1213.006, 7.8283779E-02
1214.934, 7.9101048E-02
1216.863, 7.9871073E-02
1218.791, 8.0534719E-02
1220.719, 8.0805793E-02
1222.648, 8.1414253E-02
1224.576, 8.2341433E-02
1226.505, 8.3269157E-02
1228.433, 8.4045790E-02
1230.362, 8.4645957E-02
1232.290, 8.5402951E-02
1234.219, 8.6350657E-02
1236.147, 8.7091677E-02
1238.076, 8.7925710E-02
1240.004, 8.8790633E-02
1241.933, 8.9714542E-02
1243.861, 9.0635620E-02
1245.790, 9.1550067E-02
1247.718, 9.2445731E-02
1249.646, 9.3255959E-02
1251.575, 9.4315998E-02
1253.503, 9.5336922E-02
1255.432, 9.6193723E-02
1257.360, 9.7240172E-02
1259.289, 9.8125957E-02
1261.217, 9.8889202E-02
1263.146, 9.9770293E-02
1265.074, 0.1013155
1267.003, 0.1033518
1268.931, 0.1049396
1270.860, 0.1065221
1272.788, 0.1085552
1274.717, 0.1102393
1276.645, 0.1117024
1278.573, 0.1126362
1280.502, 0.1126587
1282.430, 0.1122733
1284.359, 0.1123414
1286.287, 0.1123284
1288.216, 0.1120436
1290.144, 0.1122204
1292.073, 0.1124524
1294.001, 0.1128905
1295.930, 0.1136435
1297.858, 0.1144086
1299.787, 0.1149890
1301.715, 0.1156970
1303.644, 0.1167128
1305.572, 0.1173440
1307.500, 0.1181247
1309.429, 0.1187622
1311.357, 0.1191795
1313.286, 0.1198882
1315.214, 0.1207859
1317.143, 0.1215091
1319.071, 0.1219576
1321.000, 0.1221137
1322.928, 0.1224608
1324.857, 0.1228055
1326.785, 0.1235111
1328.714, 0.1242601
1330.642, 0.1252199
1332.571, 0.1261645
1334.499, 0.1268786
1336.427, 0.1277883
1338.356, 0.1286614
1340.284, 0.1291505
1342.213, 0.1299584
1344.141, 0.1308803
1346.070, 0.1316443
1347.998, 0.1326560
1349.927, 0.1338946
1351.855, 0.1349092
1353.784, 0.1356523
1355.712, 0.1366855
1357.641, 0.1374649
1359.569, 0.1384550
1361.498, 0.1399324
1363.426, 0.1412539
1365.354, 0.1424768
1367.283, 0.1433576
1369.211, 0.1441964
1371.140, 0.1455784
1373.068, 0.1470784
1374.997, 0.1483480
1376.925, 0.1495406
1378.854, 0.1506499
1380.782, 0.1514525
1382.711, 0.1522639
1384.639, 0.1531005
1386.568, 0.1539667
1388.496, 0.1546749
1390.424, 0.1554686
1392.353, 0.1563793
1394.281, 0.1570499
1396.210, 0.1575992
1398.138, 0.1583905
1400.067, 0.1594115
1401.995, 0.1601087
1403.924, 0.1604374
1405.852, 0.1607762
1407.781, 0.1610276
1409.709, 0.1615768
1411.638, 0.1622040
1413.566, 0.1624641
1415.495, 0.1628743
1417.423, 0.1633779
1419.351, 0.1640254
1421.280, 0.1645683
1423.208, 0.1652159
1425.137, 0.1660196
1427.065, 0.1668375
1428.994, 0.1676339
1430.922, 0.1688139
1432.851, 0.1698356
1434.779, 0.1706316
1436.708, 0.1719121
1438.636, 0.1731476
1440.565, 0.1735709
1442.493, 0.1739681
1444.422, 0.1749349
1446.350, 0.1759642
1448.278, 0.1768690
1450.207, 0.1776179
1452.135, 0.1785119
1454.064, 0.1792887
1455.992, 0.1801353
1457.921, 0.1807830
1459.849, 0.1813346
1461.778, 0.1817605
1463.706, 0.1822255
1465.635, 0.1825511
1467.563, 0.1824019
1469.492, 0.1822478
1471.420, 0.1820990
1473.349, 0.1819637
1475.277, 0.1823301
1477.205, 0.1826088
1479.134, 0.1827671
1481.062, 0.1833467
1482.991, 0.1842132
1484.919, 0.1852333
1486.848, 0.1860110
1488.776, 0.1867172
1490.705, 0.1874598
1492.633, 0.1882128
1494.562, 0.1890139
1496.490, 0.1901118
1498.419, 0.1915949
1500.347, 0.1930679
1502.276, 0.1938244
1504.204, 0.1943101
1506.132, 0.1950632
1508.061, 0.1957691
1509.989, 0.1968708
1511.918, 0.1980036
1513.846, 0.1987408
1515.775, 0.1996549
1517.703, 0.2006458
1519.632, 0.2015746
1521.560, 0.2019307
1523.489, 0.2021282
1525.417, 0.2024115
1527.346, 0.2024752
1529.274, 0.2025765
1531.203, 0.2027076
1533.131, 0.2030494
1535.059, 0.2032896
1536.988, 0.2035744
1538.916, 0.2039011
1540.845, 0.2038586
1542.773, 0.2040350
1544.702, 0.2041875
1546.630, 0.2042812
1548.559, 0.2042188
1550.487, 0.2040743
1552.416, 0.2043398
1554.344, 0.2047623
1556.273, 0.2048899
1558.201, 0.2055081
1560.130, 0.2053216
1562.058, 0.2052694
1563.986, 0.2058462
1565.915, 0.2064499
1567.843, 0.2068951
1569.772, 0.2072458
1571.700, 0.2074780
1573.629, 0.2081776
1575.557, 0.2089798
1577.486, 0.2093135
1579.414, 0.2098812
1581.343, 0.2101515
1583.271, 0.2102443
1585.200, 0.2104752
1587.128, 0.2105437
1589.057, 0.2105424
1590.985, 0.2106254
1592.913, 0.2108935
1594.842, 0.2112057
1596.770, 0.2114428
1598.699, 0.2117428
1600.627, 0.2118685
1602.556, 0.2119894
1604.484, 0.2121882
1606.413, 0.2127380
1608.341, 0.2134040
1610.270, 0.2140209
1612.198, 0.2144474
1614.127, 0.2148167
1616.055, 0.2155232
1617.984, 0.2161013
1619.912, 0.2160770
1621.840, 0.2163510
1623.769, 0.2169884
1625.697, 0.2173222
1627.626, 0.2176910
1629.554, 0.2183018
1631.483, 0.2190735
1633.411, 0.2195586
1635.340, 0.2199028
1637.268, 0.2204026
1639.197, 0.2210479
1641.125, 0.2214938
1643.054, 0.2216241
1644.982, 0.2220958
1646.911, 0.2225523
1648.839, 0.2226779
1650.767, 0.2228584
1652.696, 0.2232925
1654.624, 0.2235664
1656.553, 0.2242240
1658.481, 0.2246166
1660.410, 0.2250286
1662.338, 0.2254190
1664.267, 0.2252575
1666.195, 0.2251736
1668.124, 0.2257402
1670.052, 0.2262847
1671.981, 0.2265474
1673.909, 0.2267224
1675.838, 0.2268703
1677.766, 0.2271702
1679.694, 0.2277451
1681.623, 0.2278903
1683.551, 0.2282774
1685.480, 0.2285751
1687.408, 0.2286105
1689.337, 0.2292093
1691.265, 0.2300467
1693.194, 0.2303499
1695.122, 0.2306347
1697.051, 0.2312891
1698.979, 0.2319552
1700.908, 0.2325027
1702.836, 0.2325478
1704.765, 0.2330362
1706.693, 0.2339512
1708.621, 0.2344639
1710.550, 0.2346706
1712.478, 0.2350887
1714.407, 0.2357786
1716.335, 0.2371934
1718.264, 0.2381790
1720.192, 0.2388921
1722.121, 0.2402068
1724.049, 0.2412108
1725.978, 0.2416649
1727.906, 0.2417994
1729.835, 0.2421907
1731.763, 0.2422872
1733.692, 0.2423801
1735.620, 0.2418655
1737.548, 0.2407306
1739.477, 0.2404455
1741.405, 0.2403930
1743.334, 0.2405592
1745.262, 0.2407863
1747.191, 0.2408419
1749.119, 0.2410304
1751.048, 0.2416799
1752.976, 0.2421030
1754.905, 0.2427544
1756.833, 0.2429318
1758.762, 0.2427440
1760.690, 0.2432300
1762.619, 0.2437755
1764.547, 0.2446728
1766.475, 0.2458266
1768.404, 0.2462715
1770.332, 0.2470436
1772.261, 0.2480927
1774.189, 0.2481151
1776.118, 0.2480282
1778.046, 0.2487873
1779.975, 0.2496651
1781.903, 0.2500780
1783.832, 0.2503518
1785.760, 0.2512758
1787.689, 0.2519791
1789.617, 0.2520148
1791.546, 0.2524841
1793.474, 0.2534133
1795.402, 0.2532309
1797.331, 0.2533760
1799.259, 0.2545767
1801.188, 0.2549108
1803.116, 0.2550984
1805.045, 0.2558475
1806.973, 0.2570014
1808.902, 0.2578161
1810.830, 0.2578509
1812.759, 0.2580989
1814.687, 0.2585489
1816.616, 0.2591758
1818.544, 0.2598409
1820.473, 0.2608475
1822.401, 0.2617041
1824.329, 0.2618789
1826.258, 0.2615558
1828.186, 0.2626106
1830.115, 0.2641923
1832.043, 0.2649630
1833.972, 0.2647741
1835.900, 0.2649409
1837.829, 0.2655762
1839.757, 0.2664333
1841.686, 0.2672426
1843.614, 0.2679204
1845.543, 0.2685834
1847.471, 0.2691678
1849.400, 0.2698023
1851.328, 0.2707151
1853.256, 0.2718925
1855.185, 0.2712197
1857.113, 0.2705976
1859.042, 0.2714818
1860.970, 0.2720478
1862.899, 0.2729235
1864.827, 0.2738259
1866.756, 0.2745959
1868.684, 0.2754830
1870.613, 0.2765054
1872.541, 0.2769390
1874.470, 0.2768553
1876.398, 0.2774569
1878.327, 0.2781725
1880.255, 0.2794638
1882.183, 0.2804078
1884.112, 0.2800191
1886.040, 0.2796092
1887.969, 0.2801071
1889.897, 0.2803293
1891.826, 0.2810409
1893.754, 0.2824189
1895.683, 0.2827904
1897.611, 0.2818794
1899.540, 0.2819558
1901.468, 0.2831524
1903.397, 0.2843439
1905.325, 0.2853000
1907.254, 0.2863187
1909.182, 0.2872652
1911.110, 0.2874536
1913.039, 0.2865801
1914.967, 0.2868012
1916.896, 0.2880466
1918.824, 0.2892328
1920.753, 0.2894110
1922.681, 0.2897284
1924.610, 0.2905181
1926.538, 0.2917790
1928.467, 0.2932063
1930.395, 0.2935761
1932.324, 0.2938877
1934.252, 0.2941432
1936.181, 0.2939281
1938.109, 0.2938457
1940.037, 0.2937688
1941.966, 0.2933394
1943.894, 0.2946005
1945.823, 0.2963769
1947.751, 0.2973419
1949.680, 0.2967074
1951.608, 0.2969635
1953.537, 0.2974414
1955.465, 0.2985750
1957.394, 0.3005054
1959.322, 0.3020283
1961.251, 0.3042457
1963.179, 0.3036064
1965.108, 0.3001118
1967.036, 0.2998363
1968.964, 0.3010886
1970.893, 0.3013962
1972.821, 0.3008481
1974.750, 0.3017659
1976.678, 0.3056811
1978.607, 0.3095764
1980.535, 0.3082661
1982.464, 0.3044298
1984.392, 0.3050265
1986.321, 0.3060709
1988.249, 0.3076841
1990.178, 0.3101293
1992.106, 0.3078247
1994.035, 0.3051089
1995.963, 0.3051617
1997.891, 0.3061987
1999.820, 0.3100707
2001.748, 0.3110626
2003.677, 0.3093777
2005.605, 0.3088556
2007.534, 0.3086796
2009.462, 0.3092186
2011.391, 0.3100422
2013.319, 0.3101648
2015.248, 0.3112163
2017.176, 0.3139633
2019.105, 0.3133254
2021.033, 0.3149707
2022.962, 0.3154405
2024.890, 0.3130903
2026.818, 0.3129941
2028.747, 0.3131834
2030.675, 0.3153291
2032.604, 0.3162716
2034.532, 0.3167968
2036.461, 0.3184491
2038.389, 0.3197073
2040.318, 0.3215479
2042.246, 0.3238031
2044.175, 0.3251987
2046.103, 0.3242145
2048.032, 0.3228252
2049.960, 0.3215742
2051.889, 0.3209155
2053.817, 0.3231264
2055.746, 0.3230060
2057.674, 0.3229814
2059.603, 0.3261396
2061.531, 0.3252023
2063.459, 0.3233955
2065.388, 0.3238218
2067.316, 0.3260798
2069.245, 0.3258506
2071.173, 0.3271332
2073.102, 0.3295528
2075.030, 0.3293883
2076.959, 0.3274838
2078.887, 0.3259418
2080.816, 0.3255675
2082.744, 0.3269855
2084.673, 0.3271509
2086.601, 0.3281311
2088.530, 0.3297811
2090.458, 0.3308124
2092.386, 0.3287425
2094.315, 0.3265685
2096.243, 0.3282102
2098.172, 0.3294057
2100.100, 0.3299345
2102.029, 0.3306899
2103.957, 0.3318191
2105.886, 0.3333509
2107.814, 0.3337383
2109.743, 0.3345678
2111.671, 0.3360610
2113.600, 0.3348428
2115.528, 0.3333501
2117.457, 0.3340979
2119.385, 0.3359907
2121.313, 0.3367279
2123.242, 0.3372425
2125.170, 0.3376361
2127.099, 0.3383035
2129.027, 0.3373511
2130.956, 0.3371633
2132.884, 0.3387293
2134.813, 0.3395697
2136.741, 0.3392440
2138.670, 0.3401417
2140.598, 0.3411007
2142.527, 0.3387416
2144.455, 0.3381104
2146.384, 0.3388056
2148.312, 0.3402804
2150.240, 0.3430696
2152.169, 0.3409457
2154.097, 0.3393955
2156.026, 0.3415670
2157.954, 0.3437971
2159.883, 0.3501150
2161.811, 0.3534962
2163.740, 0.3530936
2165.668, 0.3529172
2167.597, 0.3526330
2169.525, 0.3514771
2171.454, 0.3513255
2173.382, 0.3492063
2175.311, 0.3493388
2177.239, 0.3509816
2179.167, 0.3497925
2181.096, 0.3488632
2183.024, 0.3488865
2184.953, 0.3491122
2186.881, 0.3509779
2188.810, 0.3556674
2190.738, 0.3562475
2192.667, 0.3542918
2194.595, 0.3542648
2196.524, 0.3534377
2198.452, 0.3523018
2200.381, 0.3532872
2202.309, 0.3566292
2204.238, 0.3580628
2206.166, 0.3582635
2208.094, 0.3567145
2210.023, 0.3549363
2211.951, 0.3559487
2213.880, 0.3577246
2215.808, 0.3590335
2217.737, 0.3601520
2219.665, 0.3595138
2221.594, 0.3607385
2223.522, 0.3607777
2225.451, 0.3587201
2227.379, 0.3569703
2229.308, 0.3581402
2231.236, 0.3601140
2233.165, 0.3620341
2235.093, 0.3614675
2237.021, 0.3598641
2238.950, 0.3618106
2240.878, 0.3635510
2242.807, 0.3638602
2244.735, 0.3656659
2246.664, 0.3649688
2248.592, 0.3635615
2250.521, 0.3653993
2252.449, 0.3660898
2254.378, 0.3650104
2256.306, 0.3658635
2258.235, 0.3676797
2260.163, 0.3676618
2262.092, 0.3650343
2264.020, 0.3641260
2265.948, 0.3659051
2267.877, 0.3680266
2269.805, 0.3676704
2271.734, 0.3684488
2273.662, 0.3691699
2275.591, 0.3684806
2277.519, 0.3680264
2279.448, 0.3684661
2281.376, 0.3705559
2283.305, 0.3721034
2285.233, 0.3716047
2287.162, 0.3703877
2289.090, 0.3698065
2291.019, 0.3704704
2292.947, 0.3721119
2294.875, 0.3723864
2296.804, 0.3714343
2298.732, 0.3710222
2300.661, 0.3710276
2302.589, 0.3713833
2304.518, 0.3727226
2306.446, 0.3735651
2308.375, 0.3721517
2310.303, 0.3732392
2312.232, 0.3753145
2314.160, 0.3758291
2316.089, 0.3758017
2318.017, 0.3752736
2319.946, 0.3760390
2321.874, 0.3772243
2323.802, 0.3769040
2325.731, 0.3763379
2327.659, 0.3763965
2329.588, 0.3762100
2331.516, 0.3769937
2333.445, 0.3774918
2335.373, 0.3777188
2337.302, 0.3782079
2339.230, 0.3776279
2341.159, 0.3777942
2343.087, 0.3776898
2345.016, 0.3769040
2346.944, 0.3770755
2348.873, 0.3787387
2350.801, 0.3797997
2352.729, 0.3799016
2354.658, 0.3805286
2356.586, 0.3818958
2358.515, 0.3835433
2360.443, 0.3845665
2362.372, 0.3848644
2364.300, 0.3842216
2366.229, 0.3853607
2368.157, 0.3859109
2370.086, 0.3850017
2372.014, 0.3851084
2373.942, 0.3843161
2375.871, 0.3831714
2377.799, 0.3830732
2379.728, 0.3840189
2381.656, 0.3844025
2383.585, 0.3846758
2385.513, 0.3857441
2387.442, 0.3863904
2389.370, 0.3861789
2391.299, 0.3856517
2393.227, 0.3866116
2395.156, 0.3879098
2397.084, 0.3883673
2399.012, 0.3886285
2400.941, 0.3897797
2402.869, 0.3910302
2404.798, 0.3914531
2406.726, 0.3912436
2408.655, 0.3907291
2410.583, 0.3916358
2412.512, 0.3928161
2414.440, 0.3932500
2416.369, 0.3936765
2418.297, 0.3925404
2420.226, 0.3927623
2422.154, 0.3942179
2424.083, 0.3948903
2426.011, 0.3948905
2427.939, 0.3965603
2429.868, 0.3970983
2431.796, 0.3972064
2433.725, 0.3974051
2435.653, 0.3975563
2437.582, 0.3981425
2439.510, 0.3976591
2441.439, 0.3978462
2443.367, 0.3989387
2445.296, 0.3993194
2447.224, 0.4007223
2449.153, 0.4013631
2451.081, 0.4009726
2453.010, 0.4015795
2454.938, 0.4013063
2456.866, 0.4005903
2458.795, 0.4011064
2460.723, 0.4022622
2462.652, 0.4027905
2464.580, 0.4040986
2466.509, 0.4032196
2468.437, 0.4034311
2470.366, 0.4041537
2472.294, 0.4048081
2474.223, 0.4058317
2476.151, 0.4059396
2478.080, 0.4060735
2480.008, 0.4050161
2481.937, 0.4050874
2483.865, 0.4064725
2485.793, 0.4076542
2487.722, 0.4075131
2489.650, 0.4074514
2491.579, 0.4083923
2493.507, 0.4091888
2495.436, 0.4098203
2497.364, 0.4102481
2499.293, 0.4113728
2501.221, 0.4120992
2503.150, 0.4110392
2505.078, 0.4098932
2507.007, 0.4104682
2508.935, 0.4119969
2510.864, 0.4142524
2512.792, 0.4148889
2514.720, 0.4139782
2516.649, 0.4137979
2518.577, 0.4131811
2520.506, 0.4126100
2522.434, 0.4145044
2524.363, 0.4145186
2526.291, 0.4143971
2528.220, 0.4164831
2530.148, 0.4176435
2532.077, 0.4180967
2534.005, 0.4177126
2535.934, 0.4163834
2537.862, 0.4154392
2539.791, 0.4175108
2541.719, 0.4202707
2543.647, 0.4208424
2545.576, 0.4202827
2547.504, 0.4199119
2549.433, 0.4199516
2551.361, 0.4207169
2553.290, 0.4214453
2555.218, 0.4223632
2557.147, 0.4235279
2559.075, 0.4231266
2561.004, 0.4237484
2562.932, 0.4247593
2564.861, 0.4241343
2566.789, 0.4232791
2568.718, 0.4233177
2570.646, 0.4238649
2572.574, 0.4244036
2574.503, 0.4245132
2576.431, 0.4248787
2578.360, 0.4266596
2580.288, 0.4282461
2582.217, 0.4287731
2584.145, 0.4281625
2586.074, 0.4267171
2588.002, 0.4267286
2589.931, 0.4278156
2591.859, 0.4288354
2593.788, 0.4282536
2595.716, 0.4278342
2597.645, 0.4279995
2599.573, 0.4275561
2601.501, 0.4291222
2603.430, 0.4295658
2605.358, 0.4290790
2607.287, 0.4291574
2609.215, 0.4306562
2611.144, 0.4321243
2613.072, 0.4318876
2615.001, 0.4324494
2616.929, 0.4336275
2618.858, 0.4330322
2620.786, 0.4329570
2622.715, 0.4335672
2624.643, 0.4337361
2626.572, 0.4349580
2628.500, 0.4351823
2630.428, 0.4345980
2632.357, 0.4351877
2634.285, 0.4358599
2636.214, 0.4357466
2638.142, 0.4347777
2640.071, 0.4347719
2641.999, 0.4346109
2643.928, 0.4354031
2645.856, 0.4367852
2647.785, 0.4370176
2649.713, 0.4364050
2651.642, 0.4364539
2653.570, 0.4374593
2655.499, 0.4380422
2657.427, 0.4384333
2659.355, 0.4382748
2661.284, 0.4386175
2663.212, 0.4387029
2665.141, 0.4385609
2667.069, 0.4383465
2668.998, 0.4385451
2670.926, 0.4390120
2672.855, 0.4399838
2674.783, 0.4407840
2676.712, 0.4414661
2678.640, 0.4416168
2680.569, 0.4409920
2682.497, 0.4416572
2684.426, 0.4428602
2686.354, 0.4427236
2688.282, 0.4419212
2690.211, 0.4418443
2692.139, 0.4425993
2694.068, 0.4432619
2695.996, 0.4441657
2697.925, 0.4442146
2699.853, 0.4438180
2701.782, 0.4444943
2703.710, 0.4460538
2705.639, 0.4470090
2707.567, 0.4473470
2709.496, 0.4474949
2711.424, 0.4475870
2713.353, 0.4468677
2715.281, 0.4461628
2717.209, 0.4481094
2719.138, 0.4499228
2721.066, 0.4500382
2722.995, 0.4498585
2724.923, 0.4496157
2726.852, 0.4498255
2728.780, 0.4501583
2730.709, 0.4508477
2732.637, 0.4518996
2734.566, 0.4528333
2736.494, 0.4520687
2738.423, 0.4520305
2740.351, 0.4532544
2742.280, 0.4537241
2744.208, 0.4533542
2746.136, 0.4529839
2748.065, 0.4537804
2749.993, 0.4551593
2751.922, 0.4552534
2753.850, 0.4544524
2755.779, 0.4549336
2757.707, 0.4561969
2759.636, 0.4565687
2761.564, 0.4570433
2763.493, 0.4577059
2765.421, 0.4577164
2767.350, 0.4590275
2769.278, 0.4605635
2771.207, 0.4607493
2773.135, 0.4599110
2775.063, 0.4592409
2776.992, 0.4600923
2778.920, 0.4611943
2780.849, 0.4608318
2782.777, 0.4604629
2784.706, 0.4607361
2786.634, 0.4625743
2788.563, 0.4630390
2790.491, 0.4638298
2792.420, 0.4646947
2794.348, 0.4635955
2796.277, 0.4634126
2798.205, 0.4646351
2800.134, 0.4651503
2802.062, 0.4649189
2803.990, 0.4650825
2805.919, 0.4658205
2807.847, 0.4668820
2809.776, 0.4675362
2811.704, 0.4680527
2813.633, 0.4683593
2815.561, 0.4698133
2817.490, 0.4697182
2819.418, 0.4695858
2821.347, 0.4703095
2823.275, 0.4713613
2825.204, 0.4726382
2827.132, 0.4736371
2829.061, 0.4739722
2830.989, 0.4738594
2832.917, 0.4741936
2834.846, 0.4747037
2836.774, 0.4762316
2838.703, 0.4779322
2840.631, 0.4789167
2842.560, 0.4795801
2844.488, 0.4799269
2846.417, 0.4804286
2848.345, 0.4814131
2850.274, 0.4809039
2852.202, 0.4790775
2854.131, 0.4789824
2856.059, 0.4800920
2857.988, 0.4778117
2859.916, 0.4774268
2861.844, 0.4806654
2863.773, 0.4818408
2865.701, 0.4821644
2867.630, 0.4808006
2869.558, 0.4811929
2871.487, 0.4832093
2873.415, 0.4837427
2875.344, 0.4844376
2877.272, 0.4841467
2879.201, 0.4828222
2881.129, 0.4815067
2883.058, 0.4837669
2884.986, 0.4855535
2886.915, 0.4863790
2888.843, 0.4874007
2890.771, 0.4878388
2892.700, 0.4886041
2894.628, 0.4891509
2896.557, 0.4896191
2898.485, 0.4897845
2900.414, 0.4905187
2902.342, 0.4916251
2904.271, 0.4925059
2906.199, 0.4934691
2908.128, 0.4933293
2910.056, 0.4926822
2911.985, 0.4932421
2913.913, 0.4932294
2915.842, 0.4919657
2917.770, 0.4932359
2919.698, 0.4942600
2921.627, 0.4945557
2923.555, 0.4937599
2925.484, 0.4915482
2927.412, 0.4905161
2929.341, 0.4910609
2931.269, 0.4908176
2933.198, 0.4888777
2935.126, 0.4880420
2937.055, 0.4877471
2938.983, 0.4875589
2940.912, 0.4876035
2942.840, 0.4896337
2944.769, 0.4914922
2946.697, 0.4925961
2948.625, 0.4920823
2950.554, 0.4926967
2952.482, 0.4936691
2954.411, 0.4943010
2956.339, 0.4947043
2958.268, 0.4946133
2960.196, 0.4936883
2962.125, 0.4926862
2964.053, 0.4923856
2965.982, 0.4920237
2967.910, 0.4913251
2969.839, 0.4920584
2971.767, 0.4923095
2973.696, 0.4914880
2975.624, 0.4902753
2977.552, 0.4902998
2979.481, 0.4924119
2981.409, 0.4942595
2983.338, 0.4947789
2985.266, 0.4939609
2987.195, 0.4936033
2989.123, 0.4945591
2991.052, 0.4936067
2992.980, 0.4935060
2994.909, 0.4953622
2996.837, 0.4961690
2998.766, 0.4953083
3000.694, 0.4948213
3002.623, 0.4967988
3004.551, 0.4991041
3006.479, 0.4983943
3008.408, 0.4979215
3010.336, 0.5003162
3012.265, 0.5011138
3014.193, 0.5003524
3016.122, 0.5001421
3018.050, 0.5003949
3019.979, 0.4996421
3021.907, 0.4991253
3023.836, 0.5022246
3025.764, 0.5028942
3027.693, 0.5011981
3029.621, 0.4996149
3031.550, 0.5015023
3033.478, 0.5047352
3035.406, 0.5039738
3037.335, 0.5035401
3039.263, 0.5036860
3041.192, 0.5043683
3043.120, 0.5062099
3045.049, 0.5066186
3046.977, 0.5055320
3048.906, 0.5070457
3050.834, 0.5090747
3052.763, 0.5084633
3054.691, 0.5085601
3056.620, 0.5097764
3058.548, 0.5117838
3060.477, 0.5125057
3062.405, 0.5129205
3064.333, 0.5150112
3066.262, 0.5146172
3068.190, 0.5126010
3070.119, 0.5126954
3072.047, 0.5133011
3073.976, 0.5128199
3075.904, 0.5126447
3077.833, 0.5134382
3079.761, 0.5139550
3081.690, 0.5146133
3083.618, 0.5159526
3085.547, 0.5174288
3087.475, 0.5172234
3089.404, 0.5179772
3091.332, 0.5192759
3093.260, 0.5191846
3095.189, 0.5191503
3097.117, 0.5180553
3099.046, 0.5180599
3100.974, 0.5180287
3102.903, 0.5169603
3104.831, 0.5190278
3106.760, 0.5217238
3108.688, 0.5206329
3110.617, 0.5215247
3112.545, 0.5216265
3114.474, 0.5214279
3116.402, 0.5228307
3118.331, 0.5247390
3120.259, 0.5246711
3122.188, 0.5252398
3124.116, 0.5266467
3126.044, 0.5249217
3127.973, 0.5234025
3129.901, 0.5254486
3131.830, 0.5276214
3133.758, 0.5288143
3135.687, 0.5285071
3137.615, 0.5284367
3139.544, 0.5295283
3141.472, 0.5291778
3143.401, 0.5282085
3145.329, 0.5280452
3147.258, 0.5274861
3149.186, 0.5283234
3151.115, 0.5291202
3153.043, 0.5301374
3154.971, 0.5312085
3156.900, 0.5313748
3158.828, 0.5331126
3160.757, 0.5340074
3162.685, 0.5340660
3164.614, 0.5352694
3166.542, 0.5352407
3168.471, 0.5345617
3170.399, 0.5370436
3172.328, 0.5374181
3174.256, 0.5360755
3176.185, 0.5354818
3178.113, 0.5344251
3180.042, 0.5354679
3181.970, 0.5387955
3183.898, 0.5388238
3185.827, 0.5382339
3187.755, 0.5401674
3189.684, 0.5390893
3191.612, 0.5372109
3193.541, 0.5380329
3195.469, 0.5404609
3197.398, 0.5416301
3199.326, 0.5401247
3201.255, 0.5403918
3203.183, 0.5413339
3205.112, 0.5407386
3207.040, 0.5404833
3208.969, 0.5411572
3210.897, 0.5427182
3212.825, 0.5446174
3214.754, 0.5439918
3216.682, 0.5437900
3218.611, 0.5451767
3220.539, 0.5457667
3222.468, 0.5458528
3224.396, 0.5434604
3226.325, 0.5442298
3228.253, 0.5468299
3230.182, 0.5470945
3232.110, 0.5476069
3234.039, 0.5473763
3235.967, 0.5456740
3237.896, 0.5465384
3239.824, 0.5500388
3241.752, 0.5535894
3243.681, 0.5531979
3245.609, 0.5502136
3247.538, 0.5484499
3249.466, 0.5505223
3251.395, 0.5534747
3253.323, 0.5510157
3255.252, 0.5494461
3257.180, 0.5517850
3259.109, 0.5527480
3261.037, 0.5544653
3262.966, 0.5551881
3264.894, 0.5521555
3266.823, 0.5517916
3268.751, 0.5527920
3270.679, 0.5517582
3272.608, 0.5537516
3274.536, 0.5563102
3276.465, 0.5562934
3278.393, 0.5574907
3280.322, 0.5596945
3282.250, 0.5595075
3284.179, 0.5598800
3286.107, 0.5601698
3288.036, 0.5620349
3289.964, 0.5638283
3291.893, 0.5608249
3293.821, 0.5582369
3295.750, 0.5585899
3297.678, 0.5600364
3299.606, 0.5591155
3301.535, 0.5601349
3303.463, 0.5626374
3305.392, 0.5625125
3307.320, 0.5627608
3309.249, 0.5660082
3311.177, 0.5664891
3313.106, 0.5658583
3315.034, 0.5651178
3316.963, 0.5657964
3318.891, 0.5653155
3320.820, 0.5637472
3322.748, 0.5633076
3324.677, 0.5630044
3326.605, 0.5644140
3328.533, 0.5670828
3330.462, 0.5689419
3332.390, 0.5692694
3334.319, 0.5670324
3336.247, 0.5646616
3338.176, 0.5661279
3340.104, 0.5671499
3342.033, 0.5669842
3343.961, 0.5681121
3345.890, 0.5686407
3347.818, 0.5690786
3349.747, 0.5702143
3351.675, 0.5706406
3353.604, 0.5693702
3355.532, 0.5678657
3357.460, 0.5702130
3359.389, 0.5725986
3361.317, 0.5734200
3363.246, 0.5752478
3365.174, 0.5752215
3367.103, 0.5753274
3369.031, 0.5756837
3370.960, 0.5766023
3372.888, 0.5754481
3374.817, 0.5744669
3376.745, 0.5761895
3378.674, 0.5761876
3380.602, 0.5753556
3382.531, 0.5773627
3384.459, 0.5784331
3386.387, 0.5785040
3388.316, 0.5773383
3390.244, 0.5789286
3392.173, 0.5824125
3394.101, 0.5827632
3396.030, 0.5806789
3397.958, 0.5796959
3399.887, 0.5780231
3401.815, 0.5776886
3403.744, 0.5806566
3405.672, 0.5806050
3407.601, 0.5779294
3409.529, 0.5793045
3411.458, 0.5835881
3413.386, 0.5852384
3415.314, 0.5819927
3417.243, 0.5802498
3419.171, 0.5799158
3421.100, 0.5808880
3423.028, 0.5801123
3424.957, 0.5816728
3426.885, 0.5839234
3428.814, 0.5833105
3430.742, 0.5846195
3432.671, 0.5845306
3434.599, 0.5825673
3436.528, 0.5845585
3438.456, 0.5875615
3440.385, 0.5865574
3442.313, 0.5859971
3444.241, 0.5869284
3446.170, 0.5853543
3448.098, 0.5847810
3450.027, 0.5856237
3451.955, 0.5852876
3453.884, 0.5861231
3455.812, 0.5871522
3457.741, 0.5881156
3459.669, 0.5887536
3461.598, 0.5904029
3463.526, 0.5930002
3465.455, 0.5928254
3467.383, 0.5908526
3469.312, 0.5907572
3471.240, 0.5912234
3473.168, 0.5926304
3475.097, 0.5923365
3477.025, 0.5914566
3478.954, 0.5915307
3480.882, 0.5938069
3482.811, 0.5937739
3484.739, 0.5939348
3486.668, 0.5914887
3488.596, 0.5908598
3490.525, 0.5920156
3492.453, 0.5950307
3494.382, 0.5961925
3496.310, 0.5954643
3498.239, 0.5930043
3500.167, 0.5922313
3502.095, 0.5925428
3504.024, 0.5928127
3505.952, 0.5957294
3507.881, 0.5961316
3509.809, 0.5954248
3511.738, 0.5954828
3513.666, 0.5944855
3515.595, 0.5973456
3517.523, 0.5982784
3519.452, 0.5976865
3521.380, 0.5984386
3523.309, 0.6004336
3525.237, 0.6010343
3527.166, 0.5984393
3529.094, 0.5978857
3531.022, 0.5967431
3532.951, 0.5964780
3534.879, 0.6001314
3536.808, 0.5983815
3538.736, 0.5974549
3540.665, 0.5989791
3542.593, 0.6010435
3544.522, 0.6029799
3546.450, 0.6027924
3548.379, 0.6055149
3550.307, 0.6041218
3552.236, 0.6000970
3554.164, 0.6015900
3556.093, 0.6037283
3558.021, 0.6050303
3559.949, 0.6035408
3561.878, 0.6033161
3563.806, 0.6061333
3565.735, 0.6049705
3567.663, 0.6060669
3569.592, 0.6069081
3571.520, 0.6067045
3573.449, 0.6052781
3575.377, 0.6059340
3577.306, 0.6075696
3579.234, 0.6063969
3581.163, 0.6065627
3583.091, 0.6109444
3585.020, 0.6144069
3586.948, 0.6127498
3588.876, 0.6051230
3590.805, 0.6034880
3592.733, 0.6061451
3594.662, 0.6064083
3596.590, 0.6080102
3598.519, 0.6120102
3600.447, 0.6169075
3602.376, 0.6177991
3604.304, 0.6136722
3606.233, 0.6130555
3608.161, 0.6174963
3610.090, 0.6152216
3612.018, 0.6128556
3613.947, 0.6130949
3615.875, 0.6151448
3617.803, 0.6184205
3619.732, 0.6203219
3621.660, 0.6195631
3623.589, 0.6184794
3625.517, 0.6213895
3627.446, 0.6185652
3629.374, 0.6132723
3631.303, 0.6131352
3633.231, 0.6134964
3635.160, 0.6142796
3637.088, 0.6183212
3639.017, 0.6176566
3640.945, 0.6179311
3642.874, 0.6232025
3644.802, 0.6224172
3646.730, 0.6203483
3648.659, 0.6199725
3650.587, 0.6234272
3652.516, 0.6278563
3654.444, 0.6266614
3656.373, 0.6260720
3658.301, 0.6248318
3660.230, 0.6246924
3662.158, 0.6262909
3664.087, 0.6263893
3666.015, 0.6264375
3667.944, 0.6253418
3669.872, 0.6266173
3671.801, 0.6255352
3673.729, 0.6265895
3675.657, 0.6295156
3677.586, 0.6288581
3679.514, 0.6270159
3681.443, 0.6291311
3683.371, 0.6284621
3685.300, 0.6248777
3687.228, 0.6285275
3689.157, 0.6323792
3691.085, 0.6305763
3693.014, 0.6325676
3694.942, 0.6351225
3696.871, 0.6329354
3698.799, 0.6317666
3700.728, 0.6324841
3702.656, 0.6348212
3704.584, 0.6362522
3706.513, 0.6309141
3708.441, 0.6262558
3710.370, 0.6310066
3712.298, 0.6339419
3714.227, 0.6366913
3716.155, 0.6385813
3718.084, 0.6357013
3720.012, 0.6366712
3721.941, 0.6354917
3723.869, 0.6333815
3725.798, 0.6367474
3727.726, 0.6376990
3729.655, 0.6382860
3731.583, 0.6381232
3733.511, 0.6366526
3735.440, 0.6361886
3737.368, 0.6351573
3739.297, 0.6321205
3741.225, 0.6374629
3743.154, 0.6442279
3745.082, 0.6424912
3747.011, 0.6419476
3748.939, 0.6438653
3750.868, 0.6438485
3752.796, 0.6483747
3754.725, 0.6512904
3756.653, 0.6536793
3758.582, 0.6543118
3760.510, 0.6528250
3762.438, 0.6489601
3764.367, 0.6470167
3766.295, 0.6476945
3768.224, 0.6470623
3770.152, 0.6480765
3772.081, 0.6482549
3774.009, 0.6448076
3775.938, 0.6458675
3777.866, 0.6453696
3779.795, 0.6471196
3781.723, 0.6517021
3783.652, 0.6495394
3785.580, 0.6495870
3787.509, 0.6495696
3789.437, 0.6489569
3791.365, 0.6520896
3793.294, 0.6503079
3795.222, 0.6454114
3797.151, 0.6481936
3799.079, 0.6530180
3801.008, 0.6512045
3802.936, 0.6516231
3804.865, 0.6534033
3806.793, 0.6557855
3808.722, 0.6574159
3810.650, 0.6561952
3812.579, 0.6545138
3814.507, 0.6521873
3816.436, 0.6488963
3818.364, 0.6527381
3820.292, 0.6577775
3822.221, 0.6572323
3824.149, 0.6579357
3826.078, 0.6603780
3828.006, 0.6624860
3829.935, 0.6593096
3831.863, 0.6566008
3833.792, 0.6555030
3835.720, 0.6523175
3837.649, 0.6573626
3839.577, 0.6671638
3841.506, 0.6695190
3843.434, 0.6656022
3845.363, 0.6654617
3847.291, 0.6682351
3849.219, 0.6638849
3851.148, 0.6606135
3853.076, 0.6643215
3855.005, 0.6593212
3856.933, 0.6572922
3858.862, 0.6602999
3860.790, 0.6629835
3862.719, 0.6640038
3864.647, 0.6619274
3866.576, 0.6630822
3868.504, 0.6663433
3870.433, 0.6649022
3872.361, 0.6627521
3874.290, 0.6628217
3876.218, 0.6619197
3878.146, 0.6628883
3880.075, 0.6681356
3882.003, 0.6707782
3883.932, 0.6724538
3885.860, 0.6694073
3887.789, 0.6667531
3889.717, 0.6678930
3891.646, 0.6657991
3893.574, 0.6650171
3895.503, 0.6699213
3897.431, 0.6759307
3899.360, 0.6745325
3901.288, 0.6725404
3903.217, 0.6734800
3905.145, 0.6689814
3907.073, 0.6689715
3909.002, 0.6735907
3910.930, 0.6737335
3912.859, 0.6740660
3914.787, 0.6776553
3916.716, 0.6827133
3918.644, 0.6796655
3920.573, 0.6747477
3922.501, 0.6746113
3924.430, 0.6754883
3926.358, 0.6771391
3928.287, 0.6781341
3930.215, 0.6776652
3932.144, 0.6767056
3934.072, 0.6776388
3936.000, 0.6763354
3937.929, 0.6721877
3939.857, 0.6747587
3941.786, 0.6769614
3943.714, 0.6745981
3945.643, 0.6765796
3947.571, 0.6789791
3949.500, 0.6852800
3951.428, 0.6913967
3953.357, 0.6904064
3955.285, 0.6843433
3957.214, 0.6820371
3959.142, 0.6821570
3961.071, 0.6834337
3962.999, 0.6853275
3964.927, 0.6869380
3966.856, 0.6868960
3968.784, 0.6862782
3970.713, 0.6900155
3972.641, 0.6938646
3974.570, 0.6918144
3976.498, 0.6896349
3978.427, 0.6904076
3980.355, 0.6884795
3982.284, 0.6885789
3984.212, 0.6902757
3986.141, 0.6896587
3988.069, 0.6935313
3989.998, 0.6941608
3991.926, 0.6914066
3993.854, 0.6928821
3995.783, 0.6947812
3997.711, 0.6940055
3999.640, 0.6943403
##END=



