##NAMES=Vayrynenite
##RRUFFID=R050243
##IDEAL CHEMISTRY=Mn^2+^Be(PO_4_)OH
##LOCALITY=Viitaniemi pegmatite, Erajarvi, Orivesi, Finland
##OWNER=RRUFF
##SOURCE=Marcus Origlieri
##DESCRIPTION=Pink massive with defined cleavage planes
##STATUS=The identification of this mineral has been confirmed by X-ray diffraction and chemical analysis
##URL=rruff.info/R050243
##MEASURED CHEMISTRY=(Mn^2+^_0.95_Fe^2+^_0.05_)_Σ=1_Be_1.00_(P_1.00_O_4_)((OH)_0.94_F_0.06_)_Σ=1_ ; Be not measured but estimated by difference and charge balance.
5.014013e+001, 7.036751e-003
5.206860e+001, 9.217052e-003
5.399707e+001, 1.382556e-002
5.592553e+001, 7.462911e-003
5.785400e+001, 9.791690e-003
5.978246e+001, 9.302122e-003
6.171093e+001, 7.713547e-003
6.363940e+001, 7.293559e-003
6.556786e+001, 7.436265e-003
6.749633e+001, 8.130277e-003
6.942480e+001, 9.248575e-003
7.135326e+001, 1.155147e-002
7.328172e+001, 1.292785e-002
7.521019e+001, 1.164327e-002
7.713866e+001, 1.151779e-002
7.906712e+001, 1.212296e-002
8.099559e+001, 1.446811e-002
8.292406e+001, 1.438494e-002
8.485252e+001, 1.456022e-002
8.678099e+001, 1.530463e-002
8.870946e+001, 1.654282e-002
9.063792e+001, 1.750851e-002
9.256638e+001, 1.682099e-002
9.449485e+001, 1.546524e-002
9.642332e+001, 1.613061e-002
9.835178e+001, 1.734478e-002
1.002803e+002, 1.861840e-002
1.022087e+002, 1.922750e-002
1.041372e+002, 2.061917e-002
1.060657e+002, 2.145074e-002
1.079941e+002, 2.120108e-002
1.099226e+002, 2.101729e-002
1.118510e+002, 2.152876e-002
1.137795e+002, 2.256079e-002
1.157080e+002, 2.335414e-002
1.176364e+002, 2.349844e-002
1.195649e+002, 2.427141e-002
1.214934e+002, 2.530511e-002
1.234218e+002, 2.648957e-002
1.253503e+002, 2.752527e-002
1.272788e+002, 2.815962e-002
1.292072e+002, 2.958782e-002
1.311357e+002, 3.106385e-002
1.330642e+002, 3.239743e-002
1.349926e+002, 3.347502e-002
1.369211e+002, 3.514122e-002
1.388496e+002, 3.623426e-002
1.407780e+002, 3.331075e-002
1.427065e+002, 2.956508e-002
1.446350e+002, 2.850350e-002
1.465634e+002, 3.002068e-002
1.484919e+002, 3.231213e-002
1.504204e+002, 3.456929e-002
1.523488e+002, 3.653064e-002
1.542773e+002, 3.683325e-002
1.562058e+002, 3.376608e-002
1.581342e+002, 3.053780e-002
1.600627e+002, 3.062569e-002
1.619912e+002, 3.209734e-002
1.639196e+002, 3.372270e-002
1.658481e+002, 3.564866e-002
1.677766e+002, 3.726446e-002
1.697050e+002, 3.888153e-002
1.716335e+002, 4.007598e-002
1.735620e+002, 4.136558e-002
1.754904e+002, 4.251768e-002
1.774189e+002, 4.331890e-002
1.793474e+002, 4.375966e-002
1.812758e+002, 4.412038e-002
1.832043e+002, 4.441220e-002
1.851328e+002, 4.394091e-002
1.870612e+002, 4.197228e-002
1.889897e+002, 3.844954e-002
1.909182e+002, 3.342949e-002
1.928466e+002, 2.795351e-002
1.947751e+002, 2.511662e-002
1.967036e+002, 2.658123e-002
1.986320e+002, 3.102852e-002
2.005605e+002, 3.594023e-002
2.024890e+002, 4.064685e-002
2.044174e+002, 4.405424e-002
2.063459e+002, 4.614576e-002
2.082744e+002, 4.740227e-002
2.102028e+002, 4.667614e-002
2.121313e+002, 4.463998e-002
2.140598e+002, 4.234031e-002
2.159882e+002, 4.009049e-002
2.179167e+002, 3.825453e-002
2.198452e+002, 3.711000e-002
2.217736e+002, 3.691829e-002
2.237021e+002, 3.764980e-002
2.256305e+002, 3.811288e-002
2.275590e+002, 3.836487e-002
2.294875e+002, 3.868931e-002
2.314159e+002, 3.872910e-002
2.333444e+002, 3.871600e-002
2.352729e+002, 3.865267e-002
2.372013e+002, 3.861477e-002
2.391298e+002, 3.838442e-002
2.410583e+002, 3.760335e-002
2.429867e+002, 3.706871e-002
2.449152e+002, 3.670739e-002
2.468437e+002, 3.642804e-002
2.487721e+002, 3.634131e-002
2.507006e+002, 3.605685e-002
2.526291e+002, 3.619459e-002
2.545575e+002, 3.734173e-002
2.564860e+002, 3.868025e-002
2.584145e+002, 3.968859e-002
2.603429e+002, 3.968917e-002
2.622714e+002, 3.784844e-002
2.641999e+002, 3.431814e-002
2.661283e+002, 3.100173e-002
2.680568e+002, 2.976385e-002
2.699853e+002, 3.035039e-002
2.719137e+002, 3.190159e-002
2.738422e+002, 3.367442e-002
2.757707e+002, 3.445359e-002
2.776991e+002, 3.366216e-002
2.796276e+002, 3.106662e-002
2.815561e+002, 2.813537e-002
2.834845e+002, 2.582439e-002
2.854130e+002, 2.504110e-002
2.873415e+002, 2.537487e-002
2.892699e+002, 2.613640e-002
2.911984e+002, 2.627495e-002
2.931269e+002, 2.641548e-002
2.950553e+002, 2.711272e-002
2.969838e+002, 2.819768e-002
2.989123e+002, 2.984667e-002
3.008407e+002, 3.162332e-002
3.027692e+002, 3.314872e-002
3.046977e+002, 3.441926e-002
3.066261e+002, 3.622803e-002
3.085546e+002, 3.805619e-002
3.104831e+002, 3.976871e-002
3.124115e+002, 4.171666e-002
3.143400e+002, 4.332450e-002
3.162685e+002, 4.483191e-002
3.181969e+002, 4.639613e-002
3.201254e+002, 4.785351e-002
3.220539e+002, 4.896072e-002
3.239823e+002, 4.944358e-002
3.259108e+002, 4.926966e-002
3.278392e+002, 4.877703e-002
3.297677e+002, 4.799256e-002
3.316962e+002, 4.702633e-002
3.336246e+002, 4.587119e-002
3.355531e+002, 4.439496e-002
3.374816e+002, 4.240458e-002
3.394100e+002, 3.992602e-002
3.413385e+002, 3.749931e-002
3.432670e+002, 3.572177e-002
3.451954e+002, 3.431507e-002
3.471239e+002, 3.331764e-002
3.490524e+002, 3.329380e-002
3.509808e+002, 3.378795e-002
3.529093e+002, 3.412158e-002
3.548378e+002, 3.396550e-002
3.567662e+002, 3.347699e-002
3.586947e+002, 3.309157e-002
3.606232e+002, 3.312242e-002
3.625516e+002, 3.332362e-002
3.644801e+002, 3.392044e-002
3.664086e+002, 3.490703e-002
3.683370e+002, 3.566458e-002
3.702655e+002, 3.621884e-002
3.721940e+002, 3.722336e-002
3.741224e+002, 3.855844e-002
3.760509e+002, 3.958856e-002
3.779794e+002, 4.063137e-002
3.799078e+002, 4.184079e-002
3.818363e+002, 4.305716e-002
3.837648e+002, 4.445261e-002
3.856932e+002, 4.599668e-002
3.876217e+002, 4.729408e-002
3.895502e+002, 4.794665e-002
3.914786e+002, 4.736434e-002
3.934071e+002, 4.579904e-002
3.953356e+002, 4.377879e-002
3.972640e+002, 4.165990e-002
3.991925e+002, 3.975409e-002
4.011210e+002, 3.832468e-002
4.030494e+002, 3.767104e-002
4.049779e+002, 3.784720e-002
4.069064e+002, 3.846968e-002
4.088348e+002, 3.984873e-002
4.107633e+002, 4.177222e-002
4.126917e+002, 4.400945e-002
4.146202e+002, 4.633073e-002
4.165487e+002, 4.708318e-002
4.184771e+002, 4.453709e-002
4.204056e+002, 4.047099e-002
4.223341e+002, 3.765100e-002
4.242625e+002, 3.695881e-002
4.261910e+002, 3.716635e-002
4.281195e+002, 3.762867e-002
4.300479e+002, 3.858129e-002
4.319764e+002, 3.968592e-002
4.339049e+002, 4.066803e-002
4.358333e+002, 4.169456e-002
4.377618e+002, 4.269179e-002
4.396903e+002, 4.361772e-002
4.416187e+002, 4.455646e-002
4.435472e+002, 4.574883e-002
4.454757e+002, 4.680740e-002
4.474041e+002, 4.761806e-002
4.493326e+002, 4.855393e-002
4.512611e+002, 5.011637e-002
4.531895e+002, 5.174170e-002
4.551180e+002, 5.294446e-002
4.570465e+002, 5.414033e-002
4.589749e+002, 5.571213e-002
4.609034e+002, 5.724030e-002
4.628319e+002, 5.935925e-002
4.647603e+002, 6.182903e-002
4.666888e+002, 6.415320e-002
4.686173e+002, 6.574573e-002
4.705457e+002, 6.543238e-002
4.724742e+002, 6.151944e-002
4.744027e+002, 5.517941e-002
4.763311e+002, 4.914604e-002
4.782596e+002, 4.556452e-002
4.801881e+002, 4.444623e-002
4.821165e+002, 4.443779e-002
4.840450e+002, 4.504152e-002
4.859735e+002, 4.606966e-002
4.879019e+002, 4.745227e-002
4.898304e+002, 4.902653e-002
4.917589e+002, 5.055315e-002
4.936873e+002, 5.208924e-002
4.956158e+002, 5.355686e-002
4.975443e+002, 5.514672e-002
4.994727e+002, 5.670846e-002
5.014012e+002, 5.846981e-002
5.033297e+002, 5.995238e-002
5.052581e+002, 6.147161e-002
5.071866e+002, 6.337113e-002
5.091151e+002, 6.516469e-002
5.110435e+002, 6.668055e-002
5.129720e+002, 6.745846e-002
5.149005e+002, 6.602829e-002
5.168289e+002, 6.277928e-002
5.187574e+002, 5.968708e-002
5.206859e+002, 5.803124e-002
5.226143e+002, 5.756123e-002
5.245428e+002, 5.747860e-002
5.264713e+002, 5.723456e-002
5.283997e+002, 5.772855e-002
5.303282e+002, 5.888090e-002
5.322567e+002, 6.049648e-002
5.341851e+002, 6.301434e-002
5.361136e+002, 6.556305e-002
5.380421e+002, 6.739481e-002
5.399705e+002, 6.855045e-002
5.418990e+002, 6.862351e-002
5.438275e+002, 6.827726e-002
5.457559e+002, 6.649652e-002
5.476844e+002, 6.389166e-002
5.496129e+002, 6.118855e-002
5.515413e+002, 5.824021e-002
5.534698e+002, 5.539191e-002
5.553983e+002, 5.357505e-002
5.573267e+002, 5.269240e-002
5.592552e+002, 5.268274e-002
5.611837e+002, 5.310069e-002
5.631121e+002, 5.400218e-002
5.650406e+002, 5.543531e-002
5.669691e+002, 5.736259e-002
5.688975e+002, 5.855958e-002
5.708260e+002, 5.907284e-002
5.727545e+002, 6.051400e-002
5.746829e+002, 6.282780e-002
5.766114e+002, 6.494092e-002
5.785399e+002, 6.673340e-002
5.804683e+002, 6.865456e-002
5.823968e+002, 7.074865e-002
5.843253e+002, 7.258149e-002
5.862537e+002, 7.292559e-002
5.881822e+002, 7.088447e-002
5.901107e+002, 6.759528e-002
5.920391e+002, 6.495452e-002
5.939676e+002, 6.482883e-002
5.958961e+002, 6.713533e-002
5.978245e+002, 7.010644e-002
5.997530e+002, 7.245094e-002
6.016815e+002, 7.316432e-002
6.036099e+002, 7.254740e-002
6.055384e+002, 7.179014e-002
6.074669e+002, 7.201670e-002
6.093953e+002, 7.173323e-002
6.113238e+002, 6.998120e-002
6.132523e+002, 6.810864e-002
6.151807e+002, 6.597297e-002
6.171091e+002, 6.355927e-002
6.190376e+002, 6.064149e-002
6.209661e+002, 5.801934e-002
6.228945e+002, 5.669897e-002
6.248230e+002, 5.663922e-002
6.267515e+002, 5.810547e-002
6.286799e+002, 6.038182e-002
6.306084e+002, 6.314476e-002
6.325369e+002, 6.627056e-002
6.344653e+002, 6.849431e-002
6.363938e+002, 7.030792e-002
6.383223e+002, 7.207280e-002
6.402507e+002, 7.376639e-002
6.421792e+002, 7.516094e-002
6.441077e+002, 7.631920e-002
6.460361e+002, 7.695628e-002
6.479646e+002, 7.718273e-002
6.498931e+002, 7.743181e-002
6.518215e+002, 7.774130e-002
6.537500e+002, 7.768945e-002
6.556785e+002, 7.720239e-002
6.576069e+002, 7.682791e-002
6.595354e+002, 7.673166e-002
6.614639e+002, 7.596967e-002
6.633923e+002, 7.491940e-002
6.653208e+002, 7.449330e-002
6.672493e+002, 7.402081e-002
6.691777e+002, 7.304335e-002
6.711062e+002, 7.190115e-002
6.730347e+002, 7.094409e-002
6.749631e+002, 6.986561e-002
6.768916e+002, 6.898834e-002
6.788201e+002, 6.869461e-002
6.807485e+002, 6.800815e-002
6.826770e+002, 6.694251e-002
6.846055e+002, 6.577800e-002
6.865339e+002, 6.486258e-002
6.884624e+002, 6.432927e-002
6.903909e+002, 6.457170e-002
6.923193e+002, 6.502673e-002
6.942478e+002, 6.534203e-002
6.961763e+002, 6.570313e-002
6.981047e+002, 6.609882e-002
7.000332e+002, 6.490652e-002
##END=



