##NAMES=Vermiculite
##RRUFFID=R050490
##IDEAL CHEMISTRY=Mg_0.7_(Mg,Fe^3+^,Al)_6_(Si,Al)_8_O_20_(OH)_4_&#183;8H_2_O
##LOCALITY=near Tonopah, Nevada, USA
##OWNER=RRUFF
##SOURCE=California Institute of Technology
##DESCRIPTION=Dark green micaceous fragment
##STATUS=The identification of this mineral has been confirmed by X-ray diffraction and chemical analysis
##URL=rruff.info/R050490
##MEASURED CHEMISTRY=(Mg_2.26_Fe^3+^_0.25_Al_0.25_Ca_0.24_)_Σ=3_(Si_3.50_Al_0.50_)_Σ=4_O_10_((OH)_1.90_F_0.10_)_Σ=2_·4H_2_O
3.953357e+002, 4.250257e-002
3.972641e+002, 4.357813e-002
3.991926e+002, 4.760378e-002
4.011211e+002, 4.929223e-002
4.030495e+002, 4.827309e-002
4.049780e+002, 4.915380e-002
4.069065e+002, 5.202544e-002
4.088349e+002, 5.131112e-002
4.107634e+002, 5.253165e-002
4.126919e+002, 5.408986e-002
4.146203e+002, 5.245834e-002
4.165488e+002, 5.293611e-002
4.184773e+002, 5.488121e-002
4.204057e+002, 5.536076e-002
4.223342e+002, 5.649594e-002
4.242627e+002, 5.762495e-002
4.261911e+002, 5.866450e-002
4.281196e+002, 6.021282e-002
4.300481e+002, 6.057754e-002
4.319765e+002, 6.172081e-002
4.339050e+002, 6.300472e-002
4.358335e+002, 6.377224e-002
4.377619e+002, 6.390948e-002
4.396904e+002, 6.511407e-002
4.416189e+002, 6.589703e-002
4.435473e+002, 6.696452e-002
4.454758e+002, 6.807393e-002
4.474043e+002, 6.808906e-002
4.493327e+002, 6.803378e-002
4.512612e+002, 6.829388e-002
4.531897e+002, 6.900381e-002
4.551181e+002, 6.881917e-002
4.570466e+002, 6.845791e-002
4.589751e+002, 6.815024e-002
4.609035e+002, 6.716391e-002
4.628320e+002, 6.606098e-002
4.647605e+002, 6.491923e-002
4.666889e+002, 6.276149e-002
4.686174e+002, 6.024179e-002
4.705459e+002, 5.795550e-002
4.724743e+002, 5.514878e-002
4.744028e+002, 5.209606e-002
4.763313e+002, 4.931479e-002
4.782597e+002, 4.676098e-002
4.801882e+002, 4.509533e-002
4.821167e+002, 4.410298e-002
4.840451e+002, 4.340426e-002
4.859736e+002, 4.291978e-002
4.879021e+002, 4.229991e-002
4.898305e+002, 4.169868e-002
4.917590e+002, 4.120445e-002
4.936875e+002, 4.001825e-002
4.956159e+002, 3.862923e-002
4.975444e+002, 3.730218e-002
4.994729e+002, 3.562776e-002
5.014013e+002, 3.422522e-002
5.033298e+002, 3.318875e-002
5.052583e+002, 3.224394e-002
5.071867e+002, 3.123040e-002
5.091152e+002, 3.032997e-002
5.110437e+002, 3.007277e-002
5.129721e+002, 3.013192e-002
5.149006e+002, 2.970889e-002
5.168290e+002, 2.937555e-002
5.187575e+002, 2.928949e-002
5.206860e+002, 2.891803e-002
5.226144e+002, 2.848408e-002
5.245429e+002, 2.884773e-002
5.264714e+002, 2.916675e-002
5.283998e+002, 2.893716e-002
5.303283e+002, 2.898062e-002
5.322568e+002, 2.870595e-002
5.341852e+002, 2.829859e-002
5.361137e+002, 2.839480e-002
5.380422e+002, 2.867071e-002
5.399706e+002, 2.876460e-002
5.418991e+002, 2.893597e-002
5.438276e+002, 2.924620e-002
5.457560e+002, 2.943741e-002
5.476845e+002, 3.020761e-002
5.496130e+002, 3.080568e-002
5.515414e+002, 3.121702e-002
5.534699e+002, 3.196581e-002
5.553984e+002, 3.255744e-002
5.573268e+002, 3.279406e-002
5.592553e+002, 3.345896e-002
5.611838e+002, 3.425514e-002
5.631122e+002, 3.514941e-002
5.650407e+002, 3.586910e-002
5.669692e+002, 3.653773e-002
5.688976e+002, 3.714822e-002
5.708261e+002, 3.774929e-002
5.727546e+002, 3.866102e-002
5.746830e+002, 3.965345e-002
5.766115e+002, 4.019843e-002
5.785400e+002, 4.051034e-002
5.804684e+002, 4.118369e-002
5.823969e+002, 4.198677e-002
5.843254e+002, 4.253570e-002
5.862538e+002, 4.345791e-002
5.881823e+002, 4.455556e-002
5.901108e+002, 4.535540e-002
5.920392e+002, 4.622659e-002
5.939677e+002, 4.697423e-002
5.958962e+002, 4.777274e-002
5.978246e+002, 4.889123e-002
5.997531e+002, 4.964904e-002
6.016816e+002, 5.027905e-002
6.036100e+002, 5.096207e-002
6.055385e+002, 5.176163e-002
6.074670e+002, 5.271144e-002
6.093954e+002, 5.328498e-002
6.113239e+002, 5.369999e-002
6.132524e+002, 5.393370e-002
6.151808e+002, 5.404911e-002
6.171093e+002, 5.399432e-002
6.190378e+002, 5.378290e-002
6.209662e+002, 5.334217e-002
6.228947e+002, 5.250455e-002
6.248232e+002, 5.192203e-002
6.267516e+002, 5.153404e-002
6.286801e+002, 5.110627e-002
6.306086e+002, 5.116526e-002
6.325370e+002, 5.181537e-002
6.344655e+002, 5.293471e-002
6.363940e+002, 5.420680e-002
6.383224e+002, 5.523346e-002
6.402509e+002, 5.585957e-002
6.421794e+002, 5.637916e-002
6.441078e+002, 5.690493e-002
6.460363e+002, 5.725012e-002
6.479648e+002, 5.754071e-002
6.498932e+002, 5.784880e-002
6.518217e+002, 5.791666e-002
6.537502e+002, 5.764543e-002
6.556786e+002, 5.741946e-002
6.576071e+002, 5.723953e-002
6.595356e+002, 5.700916e-002
6.614641e+002, 5.693478e-002
6.633925e+002, 5.663298e-002
6.653210e+002, 5.624743e-002
6.672495e+002, 5.584438e-002
6.691779e+002, 5.520076e-002
6.711064e+002, 5.467911e-002
6.730349e+002, 5.428475e-002
6.749633e+002, 5.379164e-002
6.768918e+002, 5.321537e-002
6.788203e+002, 5.267627e-002
6.807487e+002, 5.206606e-002
6.826772e+002, 5.139050e-002
6.846057e+002, 5.079623e-002
6.865341e+002, 5.033318e-002
6.884626e+002, 4.983108e-002
6.903911e+002, 4.915407e-002
6.923195e+002, 4.843353e-002
6.942480e+002, 4.771047e-002
6.961765e+002, 4.722491e-002
6.981049e+002, 4.685659e-002
7.000334e+002, 4.635699e-002
7.019619e+002, 4.572354e-002
7.038903e+002, 4.511643e-002
7.058188e+002, 4.478748e-002
7.077473e+002, 4.457277e-002
7.096757e+002, 4.420008e-002
7.116042e+002, 4.361251e-002
7.135327e+002, 4.301858e-002
7.154611e+002, 4.258314e-002
7.173896e+002, 4.218503e-002
7.193181e+002, 4.149296e-002
7.212465e+002, 4.097530e-002
7.231750e+002, 4.076636e-002
7.251035e+002, 4.059903e-002
7.270319e+002, 4.010153e-002
7.289604e+002, 3.954414e-002
7.308889e+002, 3.894591e-002
7.328173e+002, 3.848227e-002
7.347458e+002, 3.815649e-002
7.366743e+002, 3.765713e-002
7.386027e+002, 3.726785e-002
7.405312e+002, 3.703934e-002
7.424597e+002, 3.649862e-002
7.443881e+002, 3.582841e-002
7.463166e+002, 3.531676e-002
7.482451e+002, 3.494577e-002
7.501735e+002, 3.482229e-002
7.521020e+002, 3.437532e-002
7.540305e+002, 3.383750e-002
7.559589e+002, 3.361364e-002
7.578874e+002, 3.320932e-002
7.598159e+002, 3.267988e-002
7.617443e+002, 3.217990e-002
7.636728e+002, 3.178516e-002
7.656013e+002, 3.136551e-002
7.675297e+002, 3.102176e-002
7.694582e+002, 3.076701e-002
7.713867e+002, 3.046812e-002
7.733151e+002, 3.004013e-002
7.752436e+002, 2.966646e-002
7.771721e+002, 2.928517e-002
7.791005e+002, 2.893322e-002
7.810290e+002, 2.847413e-002
7.829575e+002, 2.814081e-002
7.848859e+002, 2.790918e-002
7.868144e+002, 2.762591e-002
7.887429e+002, 2.727342e-002
7.906713e+002, 2.696223e-002
7.925998e+002, 2.667448e-002
7.945283e+002, 2.643449e-002
7.964567e+002, 2.628417e-002
7.983852e+002, 2.594932e-002
8.003137e+002, 2.566147e-002
8.022421e+002, 2.550242e-002
8.041706e+002, 2.527318e-002
8.060991e+002, 2.513742e-002
8.080275e+002, 2.503230e-002
8.099560e+002, 2.486326e-002
8.118845e+002, 2.455683e-002
8.138129e+002, 2.429198e-002
8.157414e+002, 2.427074e-002
8.176699e+002, 2.427072e-002
8.195983e+002, 2.397471e-002
8.215268e+002, 2.361899e-002
8.234553e+002, 2.347062e-002
8.253837e+002, 2.328617e-002
8.273122e+002, 2.310613e-002
8.292407e+002, 2.291787e-002
8.311691e+002, 2.252819e-002
8.330976e+002, 2.216062e-002
8.350261e+002, 2.183523e-002
8.369545e+002, 2.135048e-002
8.388830e+002, 2.094931e-002
8.408115e+002, 2.058180e-002
8.427399e+002, 2.010231e-002
8.446684e+002, 1.957019e-002
8.465969e+002, 1.902502e-002
8.485253e+002, 1.855369e-002
8.504538e+002, 1.816485e-002
8.523823e+002, 1.783982e-002
8.543107e+002, 1.735117e-002
8.562392e+002, 1.703383e-002
8.581677e+002, 1.676849e-002
8.600961e+002, 1.627685e-002
8.620246e+002, 1.566895e-002
8.639531e+002, 1.507707e-002
8.658815e+002, 1.448183e-002
8.678100e+002, 1.413116e-002
8.697385e+002, 1.389757e-002
8.716669e+002, 1.357503e-002
8.735954e+002, 1.319555e-002
8.755239e+002, 1.290463e-002
8.774523e+002, 1.249469e-002
8.793808e+002, 1.198495e-002
8.813093e+002, 1.146494e-002
8.832377e+002, 1.123494e-002
8.851662e+002, 1.110889e-002
8.870947e+002, 1.093739e-002
8.890231e+002, 1.072415e-002
8.909516e+002, 1.062856e-002
8.928801e+002, 1.061772e-002
8.948085e+002, 1.061506e-002
8.967370e+002, 1.072102e-002
8.986655e+002, 1.092855e-002
9.005939e+002, 1.105014e-002
9.025224e+002, 1.108536e-002
9.044509e+002, 1.113518e-002
9.063793e+002, 1.132569e-002
9.083078e+002, 1.153802e-002
9.102363e+002, 1.187562e-002
9.121647e+002, 1.211791e-002
9.140932e+002, 1.232456e-002
9.160217e+002, 1.268584e-002
9.179501e+002, 1.305881e-002
9.198786e+002, 1.328306e-002
9.218071e+002, 1.355799e-002
9.237355e+002, 1.394024e-002
9.256640e+002, 1.434393e-002
9.275925e+002, 1.483035e-002
9.295209e+002, 1.537934e-002
9.314494e+002, 1.592260e-002
9.333779e+002, 1.649746e-002
9.353063e+002, 1.714151e-002
9.372348e+002, 1.798602e-002
9.391633e+002, 1.890971e-002
9.410917e+002, 1.985074e-002
9.430202e+002, 2.079855e-002
9.449487e+002, 2.187845e-002
9.468771e+002, 2.305536e-002
9.488056e+002, 2.432411e-002
9.507341e+002, 2.584544e-002
9.526625e+002, 2.736226e-002
9.545910e+002, 2.879318e-002
9.565195e+002, 3.029932e-002
9.584479e+002, 3.177021e-002
9.603764e+002, 3.318579e-002
9.623049e+002, 3.452541e-002
9.642333e+002, 3.589194e-002
9.661618e+002, 3.735891e-002
9.680903e+002, 3.865591e-002
9.700187e+002, 3.988444e-002
9.719472e+002, 4.106833e-002
9.738757e+002, 4.208912e-002
9.758041e+002, 4.296610e-002
9.777326e+002, 4.370061e-002
9.796611e+002, 4.433525e-002
9.815895e+002, 4.479545e-002
9.835180e+002, 4.518560e-002
9.854465e+002, 4.553183e-002
9.873749e+002, 4.582421e-002
9.893034e+002, 4.618143e-002
9.912319e+002, 4.623789e-002
9.931603e+002, 4.612134e-002
9.950888e+002, 4.605431e-002
9.970173e+002, 4.581219e-002
9.989457e+002, 4.536506e-002
1.000874e+003, 4.478909e-002
1.002803e+003, 4.396527e-002
1.004731e+003, 4.289717e-002
1.006660e+003, 4.171876e-002
1.008588e+003, 4.046705e-002
1.010517e+003, 3.905402e-002
1.012445e+003, 3.754647e-002
1.014373e+003, 3.586178e-002
1.016302e+003, 3.387723e-002
1.018230e+003, 3.197611e-002
1.020159e+003, 3.020858e-002
1.022087e+003, 2.849246e-002
1.024016e+003, 2.692541e-002
1.025944e+003, 2.559370e-002
1.027873e+003, 2.429006e-002
1.029801e+003, 2.309482e-002
1.031730e+003, 2.204834e-002
1.033658e+003, 2.100578e-002
1.035587e+003, 2.006590e-002
1.037515e+003, 1.931495e-002
1.039443e+003, 1.881172e-002
1.041372e+003, 1.830795e-002
1.043300e+003, 1.757624e-002
1.045229e+003, 1.701345e-002
1.047157e+003, 1.644504e-002
1.049086e+003, 1.592827e-002
1.051014e+003, 1.531355e-002
1.052943e+003, 1.484382e-002
1.054871e+003, 1.461814e-002
1.056800e+003, 1.440527e-002
1.058728e+003, 1.405636e-002
1.060657e+003, 1.367670e-002
1.062585e+003, 1.332912e-002
1.064514e+003, 1.307728e-002
1.066442e+003, 1.285671e-002
1.068370e+003, 1.260143e-002
1.070299e+003, 1.232760e-002
1.072227e+003, 1.199482e-002
1.074156e+003, 1.172957e-002
1.076084e+003, 1.142415e-002
1.078013e+003, 1.110474e-002
1.079941e+003, 1.078417e-002
1.081870e+003, 1.036713e-002
1.083798e+003, 1.001917e-002
1.085727e+003, 9.680483e-003
1.087655e+003, 9.475384e-003
1.089584e+003, 9.117430e-003
1.091512e+003, 8.718736e-003
1.093441e+003, 8.469610e-003
1.095369e+003, 8.100335e-003
1.097297e+003, 7.663582e-003
1.099226e+003, 7.446547e-003
1.101154e+003, 7.125630e-003
1.103083e+003, 6.730121e-003
1.105011e+003, 6.456569e-003
1.106940e+003, 6.098944e-003
1.108868e+003, 5.851501e-003
1.110797e+003, 5.647122e-003
1.112725e+003, 5.330216e-003
1.114654e+003, 5.125704e-003
1.116582e+003, 4.981019e-003
1.118511e+003, 4.825373e-003
1.120439e+003, 4.605090e-003
1.122368e+003, 4.448898e-003
1.124296e+003, 4.310986e-003
1.126224e+003, 4.090433e-003
1.128153e+003, 3.824750e-003
1.130081e+003, 3.743088e-003
1.132010e+003, 3.637413e-003
1.133938e+003, 3.325946e-003
1.135867e+003, 3.204368e-003
1.137795e+003, 3.231915e-003
1.139724e+003, 3.149846e-003
1.141652e+003, 3.054443e-003
1.143581e+003, 2.957499e-003
1.145509e+003, 2.822370e-003
1.147438e+003, 2.609407e-003
1.149366e+003, 2.604703e-003
1.151295e+003, 2.703437e-003
1.153223e+003, 2.652365e-003
1.155151e+003, 2.488401e-003
1.157080e+003, 2.390642e-003
1.159008e+003, 2.414716e-003
1.160937e+003, 2.394295e-003
1.162865e+003, 2.242965e-003
1.164794e+003, 2.142443e-003
1.166722e+003, 2.043655e-003
1.168651e+003, 2.063543e-003
1.170579e+003, 2.106969e-003
1.172508e+003, 2.059132e-003
1.174436e+003, 1.895859e-003
1.176365e+003, 1.777812e-003
1.178293e+003, 1.743693e-003
1.180222e+003, 1.684465e-003
1.182150e+003, 1.658637e-003
1.184078e+003, 1.542006e-003
1.186007e+003, 1.405233e-003
1.187935e+003, 1.417215e-003
1.189864e+003, 1.440851e-003
1.191792e+003, 1.439693e-003
1.193721e+003, 1.401437e-003
1.195649e+003, 1.304035e-003
1.197578e+003, 1.243556e-003
1.199506e+003, 1.142855e-003
1.201435e+003, 1.009695e-003
1.203363e+003, 8.789311e-004
1.205292e+003, 8.180496e-004
1.207220e+003, 8.778419e-004
1.209149e+003, 8.252603e-004
1.211077e+003, 7.638340e-004
1.213005e+003, 7.015716e-004
1.214934e+003, 6.760345e-004
1.216862e+003, 6.093998e-004
1.218791e+003, 5.718695e-004
1.220719e+003, 5.219933e-004
1.222648e+003, 4.113059e-004
1.224576e+003, 3.385360e-004
1.226505e+003, 4.039237e-004
1.228433e+003, 2.937277e-004
1.230362e+003, 1.336599e-004
1.232290e+003, 1.024971e-004
1.234219e+003, 6.538766e-005
1.236147e+003, 8.850166e-005
1.238076e+003, 1.922403e-004
1.240004e+003, 2.205222e-004
1.241932e+003, 2.217204e-004
1.243861e+003, 2.766490e-004
1.245789e+003, 2.937537e-004
1.247718e+003, 1.357198e-004
1.249646e+003, 2.175098e-005
1.251575e+003, 3.861515e-005
1.253503e+003, 2.026812e-005
1.255432e+003, -1.844564e-004
1.257360e+003, -2.607872e-004
1.259289e+003, -2.362136e-004
1.261217e+003, -1.692435e-004
1.263146e+003, -1.521883e-004
1.265074e+003, -5.796546e-005
1.267003e+003, -1.414586e-004
1.268931e+003, -1.567690e-004
1.270859e+003, -1.350821e-004
1.272788e+003, -2.042219e-004
1.274716e+003, -3.004941e-004
1.276645e+003, -2.747838e-004
1.278573e+003, -2.980700e-004
1.280502e+003, -2.051858e-004
1.282430e+003, -6.943350e-005
1.284359e+003, -1.867122e-004
1.286287e+003, -4.001503e-004
1.288216e+003, -2.738084e-004
1.290144e+003, -2.435442e-004
1.292073e+003, -2.667644e-004
1.294001e+003, -2.300104e-004
1.295930e+003, -2.913460e-004
1.297858e+003, -3.947111e-004
1.299786e+003, -3.116753e-004
1.301715e+003, -2.507541e-004
1.303643e+003, -2.878693e-004
1.305572e+003, -3.135924e-004
1.307500e+003, -4.029855e-004
1.309429e+003, -4.148132e-004
1.311357e+003, -2.955802e-004
1.313286e+003, -2.831003e-004
1.315214e+003, -2.988497e-004
1.317143e+003, -2.725075e-004
1.319071e+003, -1.972437e-004
1.321000e+003, -1.743875e-004
1.322928e+003, -2.285834e-004
1.324857e+003, -3.208405e-004
1.326785e+003, -3.037799e-004
1.328714e+003, -3.587804e-004
1.330642e+003, -3.997931e-004
1.332570e+003, -3.598258e-004
1.334499e+003, -3.835481e-004
1.336427e+003, -4.087506e-004
1.338356e+003, -4.549393e-004
1.340284e+003, -4.810652e-004
1.342213e+003, -4.439865e-004
1.344141e+003, -4.127621e-004
1.346070e+003, -3.991816e-004
1.347998e+003, -4.891920e-004
1.349927e+003, -3.786021e-004
1.351855e+003, -2.749277e-004
1.353784e+003, -3.690611e-004
1.355712e+003, -3.826065e-004
1.357641e+003, -3.971756e-004
1.359569e+003, -3.344419e-004
1.361497e+003, -1.621673e-004
1.363426e+003, -4.514210e-005
1.365354e+003, -1.760133e-004
1.367283e+003, -3.236140e-004
1.369211e+003, -3.002640e-004
1.371140e+003, -1.933792e-004
1.373068e+003, -1.543082e-004
1.374997e+003, -2.340423e-004
1.376925e+003, -2.390659e-004
1.378854e+003, -1.262703e-004
1.380782e+003, -7.992671e-005
1.382711e+003, -1.033518e-004
1.384639e+003, -3.945745e-005
1.386568e+003, 1.319583e-004
1.388496e+003, 1.126341e-004
1.390424e+003, -3.418026e-005
1.392353e+003, -1.370880e-004
1.394281e+003, -1.773176e-004
1.396210e+003, -1.303388e-004
1.398138e+003, -1.058309e-004
1.400067e+003, -7.271732e-005
1.401995e+003, -1.100173e-004
1.403924e+003, -1.107249e-004
1.405852e+003, -5.381936e-005
1.407781e+003, 9.393275e-005
1.409709e+003, 1.678809e-004
1.411638e+003, 2.126074e-004
1.413566e+003, 2.708148e-004
1.415495e+003, 4.212135e-004
1.417423e+003, 5.493516e-004
1.419351e+003, 5.655429e-004
1.421280e+003, 4.581501e-004
1.423208e+003, 4.840245e-004
1.425137e+003, 5.104863e-004
1.427065e+003, 4.495692e-004
1.428994e+003, 3.827137e-004
1.430922e+003, 3.200932e-004
1.432851e+003, 3.816181e-004
1.434779e+003, 5.801489e-004
1.436708e+003, 6.188631e-004
1.438636e+003, 4.821046e-004
1.440565e+003, 4.182257e-004
1.442493e+003, 3.680016e-004
1.444422e+003, 3.821460e-004
1.446350e+003, 3.956576e-004
1.448278e+003, 3.695909e-004
1.450207e+003, 4.455280e-004
1.452135e+003, 3.672166e-004
1.454064e+003, 2.683174e-004
1.455992e+003, 4.901968e-004
1.457921e+003, 5.432095e-004
1.459849e+003, 3.311539e-004
1.461778e+003, 1.329953e-004
1.463706e+003, 1.618451e-004
1.465635e+003, 1.748896e-004
1.467563e+003, 8.413033e-005
1.469492e+003, 8.079126e-005
1.471420e+003, 1.343949e-004
1.473349e+003, 2.511502e-005
1.475277e+003, -1.350122e-004
1.477205e+003, -2.258051e-004
1.479134e+003, -2.526445e-004
1.481062e+003, -2.589009e-004
1.482991e+003, -2.363405e-004
1.484919e+003, -2.679696e-004
1.486848e+003, -3.096233e-004
1.488776e+003, -3.788419e-004
1.490705e+003, -5.336175e-004
1.492633e+003, -5.316302e-004
1.494562e+003, -4.339348e-004
1.496490e+003, -3.350289e-004
1.498419e+003, -3.814017e-004
1.500347e+003, -4.998690e-004
1.502276e+003, -5.780382e-004
1.504204e+003, -5.092520e-004
1.506132e+003, -4.012305e-004
1.508061e+003, -5.582714e-004
1.509989e+003, -6.899327e-004
1.511918e+003, -5.973172e-004
1.513846e+003, -6.366049e-004
1.515775e+003, -8.341103e-004
1.517703e+003, -8.371699e-004
1.519632e+003, -5.951911e-004
1.521560e+003, -6.355789e-004
1.523489e+003, -7.836132e-004
1.525417e+003, -7.456706e-004
1.527346e+003, -7.534263e-004
1.529274e+003, -8.554832e-004
1.531203e+003, -9.398959e-004
1.533131e+003, -8.977462e-004
1.535059e+003, -8.656986e-004
1.536988e+003, -8.802522e-004
1.538916e+003, -6.250523e-004
1.540845e+003, -5.264051e-004
1.542773e+003, -5.853325e-004
1.544702e+003, -5.624736e-004
1.546630e+003, -6.258363e-004
1.548559e+003, -6.838647e-004
1.550487e+003, -5.297474e-004
1.552416e+003, -5.857456e-004
1.554344e+003, -6.566434e-004
1.556273e+003, -5.327160e-004
1.558201e+003, -3.151611e-004
1.560130e+003, -4.306500e-004
1.562058e+003, -6.945475e-004
1.563986e+003, -7.559570e-004
1.565915e+003, -7.224100e-004
1.567843e+003, -6.342313e-004
1.569772e+003, -5.323092e-004
1.571700e+003, -6.224448e-004
1.573629e+003, -5.885038e-004
1.575557e+003, -3.366619e-004
1.577486e+003, -2.860695e-004
1.579414e+003, -4.373550e-004
1.581343e+003, -4.131068e-004
1.583271e+003, -4.259165e-004
1.585200e+003, -4.715090e-004
1.587128e+003, -5.374913e-004
1.589057e+003, -5.880587e-004
1.590985e+003, -4.646549e-004
1.592913e+003, -3.882458e-004
1.594842e+003, -4.426739e-004
1.596770e+003, -5.207016e-004
1.598699e+003, -5.003011e-004
1.600627e+003, -3.722546e-004
1.602556e+003, -2.369773e-004
1.604484e+003, -1.006521e-004
1.606413e+003, -1.177870e-004
1.608341e+003, -2.045426e-004
1.610270e+003, -7.738751e-005
1.612198e+003, 1.296879e-005
1.614127e+003, 1.294964e-004
1.616055e+003, 4.178535e-004
1.617984e+003, 3.813568e-004
1.619912e+003, 1.971679e-004
1.621840e+003, 1.329728e-004
1.623769e+003, 2.535349e-004
1.625697e+003, 4.198378e-004
1.627626e+003, 5.601771e-004
1.629554e+003, 6.576973e-004
1.631483e+003, 6.308987e-004
1.633411e+003, 6.760279e-004
1.635340e+003, 9.086888e-004
1.637268e+003, 8.462284e-004
1.639197e+003, 7.164772e-004
1.641125e+003, 7.185317e-004
1.643054e+003, 9.388773e-004
1.644982e+003, 1.045228e-003
1.646911e+003, 9.951590e-004
1.648839e+003, 9.080487e-004
1.650767e+003, 1.038059e-003
1.652696e+003, 1.330711e-003
1.654624e+003, 1.101189e-003
1.656553e+003, 7.273495e-004
1.658481e+003, 6.041292e-004
1.660410e+003, 6.595290e-004
1.662338e+003, 5.162187e-004
1.664267e+003, 3.466174e-004
1.666195e+003, 4.455822e-004
1.668124e+003, 5.743226e-004
1.670052e+003, 4.339693e-004
1.671981e+003, 2.550780e-004
1.673909e+003, 2.044053e-004
1.675838e+003, 1.543408e-004
1.677766e+003, -6.283534e-005
1.679694e+003, -1.573750e-004
1.681623e+003, -1.899041e-004
1.683551e+003, -1.739289e-004
1.685480e+003, -1.983390e-004
1.687408e+003, -3.810205e-004
1.689337e+003, -4.644533e-004
1.691265e+003, -5.171555e-004
1.693194e+003, -5.201353e-004
1.695122e+003, -4.708689e-004
1.697051e+003, -6.188778e-004
1.698979e+003, -7.454288e-004
1.700908e+003, -5.955216e-004
1.702836e+003, -7.331003e-004
1.704765e+003, -8.752514e-004
1.706693e+003, -9.610520e-004
1.708621e+003, -8.872576e-004
1.710550e+003, -8.179821e-004
1.712478e+003, -7.646392e-004
1.714407e+003, -8.311314e-004
1.716335e+003, -7.530240e-004
1.718264e+003, -8.572401e-004
1.720192e+003, -1.161277e-003
1.722121e+003, -1.226708e-003
1.724049e+003, -1.212148e-003
1.725978e+003, -1.191042e-003
1.727906e+003, -1.134558e-003
1.729835e+003, -1.160696e-003
1.731763e+003, -1.147702e-003
1.733692e+003, -1.093549e-003
1.735620e+003, -1.121620e-003
1.737548e+003, -1.232120e-003
1.739477e+003, -1.218504e-003
1.741405e+003, -1.115211e-003
1.743334e+003, -1.125305e-003
1.745262e+003, -1.196852e-003
1.747191e+003, -1.286522e-003
1.749119e+003, -1.440418e-003
1.751048e+003, -1.511528e-003
1.752976e+003, -1.575829e-003
1.754905e+003, -1.535120e-003
1.756833e+003, -1.401297e-003
1.758762e+003, -1.458534e-003
1.760690e+003, -1.505292e-003
1.762619e+003, -1.432075e-003
1.764547e+003, -1.472715e-003
1.766475e+003, -1.460397e-003
1.768404e+003, -1.538341e-003
1.770332e+003, -1.755803e-003
1.772261e+003, -1.935309e-003
1.774189e+003, -1.977732e-003
1.776118e+003, -1.739862e-003
1.778046e+003, -1.626096e-003
1.779975e+003, -1.698102e-003
1.781903e+003, -1.737383e-003
1.783832e+003, -1.717064e-003
1.785760e+003, -1.802725e-003
1.787689e+003, -1.937721e-003
1.789617e+003, -1.809943e-003
1.791546e+003, -1.553021e-003
1.793474e+003, -1.434918e-003
1.795402e+003, -1.435010e-003
1.797331e+003, -1.628265e-003
1.799259e+003, -1.868513e-003
1.801188e+003, -1.803749e-003
1.803116e+003, -1.716894e-003
1.805045e+003, -1.823848e-003
1.806973e+003, -1.927668e-003
1.808902e+003, -1.856214e-003
1.810830e+003, -1.737363e-003
1.812759e+003, -1.700410e-003
1.814687e+003, -1.731954e-003
1.816616e+003, -1.811541e-003
1.818544e+003, -1.827684e-003
1.820473e+003, -1.687136e-003
1.822401e+003, -1.655575e-003
1.824329e+003, -1.741623e-003
1.826258e+003, -1.744342e-003
1.828186e+003, -1.711647e-003
1.830115e+003, -1.678027e-003
1.832043e+003, -1.502142e-003
1.833972e+003, -1.564592e-003
1.835900e+003, -1.918984e-003
1.837829e+003, -1.920486e-003
1.839757e+003, -1.887079e-003
1.841686e+003, -1.865594e-003
1.843614e+003, -1.850820e-003
1.845543e+003, -1.834669e-003
1.847471e+003, -1.934697e-003
1.849400e+003, -1.907039e-003
1.851328e+003, -1.973926e-003
1.853256e+003, -1.944345e-003
1.855185e+003, -1.769595e-003
1.857113e+003, -1.723698e-003
1.859042e+003, -1.816423e-003
1.860970e+003, -2.101048e-003
1.862899e+003, -2.114955e-003
1.864827e+003, -2.102077e-003
1.866756e+003, -2.086824e-003
1.868684e+003, -2.054122e-003
1.870613e+003, -1.837696e-003
1.872541e+003, -1.803284e-003
1.874470e+003, -1.912066e-003
1.876398e+003, -1.996411e-003
1.878327e+003, -1.766220e-003
1.880255e+003, -1.649752e-003
1.882183e+003, -1.946374e-003
1.884112e+003, -2.229905e-003
1.886040e+003, -2.397339e-003
1.887969e+003, -2.463766e-003
1.889897e+003, -2.212133e-003
1.891826e+003, -2.082730e-003
1.893754e+003, -2.280036e-003
1.895683e+003, -2.101896e-003
1.897611e+003, -1.986936e-003
1.899540e+003, -2.080754e-003
1.901468e+003, -1.960069e-003
1.903397e+003, -1.898274e-003
1.905325e+003, -2.021462e-003
1.907254e+003, -2.149689e-003
1.909182e+003, -2.362269e-003
1.911110e+003, -2.222549e-003
1.913039e+003, -1.474869e-003
1.914967e+003, -1.307561e-003
1.916896e+003, -1.733996e-003
1.918824e+003, -2.174260e-003
1.920753e+003, -2.269797e-003
1.922681e+003, -2.217259e-003
1.924610e+003, -2.525813e-003
1.926538e+003, -2.407314e-003
1.928467e+003, -1.911924e-003
1.930395e+003, -1.956216e-003
1.932324e+003, -2.156127e-003
1.934252e+003, -2.180381e-003
1.936181e+003, -2.191236e-003
1.938109e+003, -2.234302e-003
1.940037e+003, -2.206107e-003
1.941966e+003, -2.096837e-003
1.943894e+003, -1.988036e-003
1.945823e+003, -2.541961e-003
1.947751e+003, -2.985184e-003
1.949680e+003, -2.765360e-003
1.951608e+003, -2.421294e-003
1.953537e+003, -2.260329e-003
1.955465e+003, -2.192595e-003
1.957394e+003, -1.955780e-003
1.959322e+003, -1.611156e-003
1.961251e+003, -1.714049e-003
1.963179e+003, -2.429666e-003
1.965108e+003, -2.811808e-003
1.967036e+003, -2.773999e-003
1.968964e+003, -3.037569e-003
1.970893e+003, -3.248054e-003
1.972821e+003, -2.588343e-003
1.974750e+003, -1.887947e-003
1.976678e+003, -3.163341e-003
1.978607e+003, -3.643727e-003
1.980535e+003, -3.147021e-003
1.982464e+003, -3.181902e-003
1.984392e+003, -2.402150e-003
1.986321e+003, -2.244660e-003
1.988249e+003, -3.553101e-003
1.990178e+003, -4.447563e-003
1.992106e+003, -3.466754e-003
1.994035e+003, -2.840234e-003
1.995963e+003, -3.163595e-003
1.997891e+003, -3.759551e-003
1.999820e+003, -3.439438e-003
2.001748e+003, -3.002903e-003
2.003677e+003, -3.500066e-003
2.005605e+003, -3.613740e-003
2.007534e+003, -3.700136e-003
2.009462e+003, -4.296373e-003
2.011391e+003, -4.410826e-003
2.013319e+003, -3.436359e-003
2.015248e+003, -2.710104e-003
2.017176e+003, -2.917568e-003
2.019105e+003, -3.672019e-003
2.021033e+003, -3.960325e-003
2.022962e+003, -3.734817e-003
2.024890e+003, -3.129380e-003
2.026818e+003, -3.336450e-003
2.028747e+003, -3.031923e-003
2.030675e+003, -2.845487e-003
2.032604e+003, -3.294757e-003
2.034532e+003, -3.720309e-003
2.036461e+003, -4.524861e-003
2.038389e+003, -4.350393e-003
2.040318e+003, -3.461213e-003
2.042246e+003, -3.615005e-003
2.044175e+003, -3.838497e-003
2.046103e+003, -3.624418e-003
2.048031e+003, -3.763537e-003
2.049960e+003, -3.985944e-003
2.051888e+003, -3.064069e-003
2.053817e+003, -2.095181e-003
2.055745e+003, -2.529882e-003
2.057674e+003, -2.830108e-003
2.059602e+003, -2.679500e-003
2.061531e+003, -2.707897e-003
2.063459e+003, -2.744413e-003
2.065388e+003, -3.332795e-003
2.067316e+003, -4.039066e-003
2.069245e+003, -3.944233e-003
2.071173e+003, -3.714756e-003
2.073102e+003, -3.489059e-003
2.075030e+003, -3.119201e-003
2.076958e+003, -3.121669e-003
2.078887e+003, -3.066431e-003
2.080815e+003, -3.453093e-003
2.082744e+003, -3.189760e-003
2.084672e+003, -2.763116e-003
2.086601e+003, -3.149490e-003
2.088529e+003, -2.987052e-003
2.090458e+003, -2.732374e-003
2.092386e+003, -2.881469e-003
2.094315e+003, -3.005278e-003
2.096243e+003, -2.630829e-003
2.098172e+003, -2.097426e-003
2.100100e+003, -2.043519e-003
2.102029e+003, -2.450493e-003
2.103957e+003, -2.925849e-003
2.105885e+003, -2.766588e-003
2.107814e+003, -2.648633e-003
2.109742e+003, -3.079370e-003
2.111671e+003, -3.395971e-003
2.113599e+003, -3.126863e-003
2.115528e+003, -2.647201e-003
2.117456e+003, -1.991627e-003
2.119385e+003, -1.889299e-003
2.121313e+003, -2.139862e-003
2.123242e+003, -1.826253e-003
2.125170e+003, -2.335937e-003
2.127099e+003, -3.010282e-003
2.129027e+003, -2.597919e-003
2.130956e+003, -1.878459e-003
2.132884e+003, -1.309998e-003
2.134813e+003, -1.790996e-003
2.136741e+003, -2.156488e-003
2.138669e+003, -1.826335e-003
2.140598e+003, -1.174024e-003
2.142526e+003, -5.170419e-004
2.144455e+003, -5.548142e-004
2.146383e+003, -8.696994e-004
2.148312e+003, -1.534763e-003
2.150240e+003, -2.953052e-003
2.152169e+003, -2.505210e-003
2.154097e+003, -1.448618e-003
2.156026e+003, -9.222121e-004
2.157954e+003, -1.344980e-003
2.159883e+003, -2.588504e-003
2.161811e+003, -3.471354e-003
2.163740e+003, -2.759867e-003
2.165668e+003, -1.977928e-003
2.167596e+003, -2.560501e-003
2.169525e+003, -2.461345e-003
2.171453e+003, -2.063216e-003
2.173382e+003, -2.235570e-003
2.175310e+003, -1.968202e-003
2.177239e+003, -2.609839e-003
2.179167e+003, -2.527327e-003
2.181096e+003, -1.781000e-003
2.183024e+003, -1.566277e-003
2.184953e+003, -2.695886e-003
2.186881e+003, -3.328871e-003
2.188810e+003, -3.115707e-003
2.190738e+003, -2.793561e-003
2.192667e+003, -3.070404e-003
2.194595e+003, -3.527888e-003
2.196523e+003, -3.725067e-003
2.198452e+003, -3.196775e-003
2.200380e+003, -2.778198e-003
2.202309e+003, -2.762547e-003
2.204237e+003, -3.038209e-003
2.206166e+003, -3.337794e-003
2.208094e+003, -3.566418e-003
2.210023e+003, -3.183163e-003
2.211951e+003, -2.925745e-003
2.213880e+003, -3.734015e-003
2.215808e+003, -4.218781e-003
2.217737e+003, -3.499078e-003
2.219665e+003, -2.216355e-003
2.221594e+003, -2.192704e-003
2.223522e+003, -2.848022e-003
2.225450e+003, -3.059102e-003
2.227379e+003, -3.269020e-003
2.229307e+003, -3.543553e-003
2.231236e+003, -3.763549e-003
2.233164e+003, -3.652989e-003
2.235093e+003, -3.122230e-003
2.237021e+003, -2.366412e-003
2.238950e+003, -2.536322e-003
2.240878e+003, -2.985840e-003
2.242807e+003, -3.010013e-003
2.244735e+003, -2.926738e-003
2.246664e+003, -3.193343e-003
2.248592e+003, -3.563974e-003
2.250521e+003, -3.476940e-003
2.252449e+003, -3.430441e-003
2.254377e+003, -3.570878e-003
2.256306e+003, -3.823037e-003
2.258234e+003, -3.788449e-003
2.260163e+003, -3.391327e-003
2.262091e+003, -3.047490e-003
2.264020e+003, -2.843039e-003
2.265948e+003, -3.513369e-003
2.267877e+003, -3.614390e-003
2.269805e+003, -3.792310e-003
2.271734e+003, -4.228118e-003
2.273662e+003, -3.762939e-003
2.275591e+003, -3.304231e-003
2.277519e+003, -3.410958e-003
2.279448e+003, -3.872628e-003
2.281376e+003, -4.278927e-003
2.283304e+003, -4.372299e-003
2.285233e+003, -3.982764e-003
2.287161e+003, -3.798679e-003
2.289090e+003, -3.879324e-003
2.291018e+003, -3.611746e-003
2.292947e+003, -3.200733e-003
2.294875e+003, -3.035433e-003
2.296804e+003, -3.211423e-003
2.298732e+003, -3.488404e-003
2.300661e+003, -3.496954e-003
2.302589e+003, -3.438239e-003
2.304518e+003, -3.304662e-003
2.306446e+003, -3.285057e-003
2.308375e+003, -3.364587e-003
2.310303e+003, -3.457254e-003
2.312231e+003, -3.399500e-003
2.314160e+003, -3.201507e-003
2.316088e+003, -3.138874e-003
2.318017e+003, -2.986623e-003
2.319945e+003, -3.212879e-003
2.321874e+003, -3.521928e-003
2.323802e+003, -3.293683e-003
2.325731e+003, -2.713908e-003
2.327659e+003, -2.304647e-003
2.329588e+003, -2.217783e-003
2.331516e+003, -2.381543e-003
2.333445e+003, -2.349427e-003
2.335373e+003, -2.089401e-003
2.337302e+003, -1.916536e-003
2.339230e+003, -1.936520e-003
2.341158e+003, -2.080061e-003
2.343087e+003, -2.095152e-003
2.345015e+003, -1.957026e-003
2.346944e+003, -2.175252e-003
2.348872e+003, -2.608089e-003
2.350801e+003, -2.531621e-003
2.352729e+003, -2.181361e-003
2.354658e+003, -1.886763e-003
2.356586e+003, -1.738863e-003
2.358515e+003, -1.647025e-003
2.360443e+003, -1.380032e-003
2.362372e+003, -1.107317e-003
2.364300e+003, -9.010126e-004
2.366229e+003, -1.011144e-003
2.368157e+003, -1.383651e-003
2.370085e+003, -1.708241e-003
2.372014e+003, -2.011854e-003
2.373942e+003, -2.324643e-003
2.375871e+003, -2.245918e-003
2.377799e+003, -2.316036e-003
2.379728e+003, -2.688161e-003
2.381656e+003, -2.932377e-003
2.383585e+003, -3.088380e-003
2.385513e+003, -3.160421e-003
2.387442e+003, -2.929718e-003
2.389370e+003, -2.820042e-003
2.391299e+003, -2.597629e-003
2.393227e+003, -2.333967e-003
2.395156e+003, -2.507030e-003
2.397084e+003, -2.835144e-003
2.399012e+003, -2.956562e-003
2.400941e+003, -3.052094e-003
2.402869e+003, -3.227221e-003
2.404798e+003, -2.893337e-003
2.406726e+003, -2.847906e-003
2.408655e+003, -3.193784e-003
2.410583e+003, -2.913533e-003
2.412512e+003, -2.984378e-003
2.414440e+003, -3.025980e-003
2.416369e+003, -2.976905e-003
2.418297e+003, -3.147974e-003
2.420226e+003, -3.100180e-003
2.422154e+003, -2.868130e-003
2.424083e+003, -2.741625e-003
2.426011e+003, -3.027162e-003
2.427939e+003, -3.202342e-003
2.429868e+003, -3.043472e-003
2.431796e+003, -3.128167e-003
2.433725e+003, -3.492819e-003
2.435653e+003, -3.224105e-003
2.437582e+003, -2.683426e-003
2.439510e+003, -2.711933e-003
2.441439e+003, -2.914104e-003
2.443367e+003, -3.068357e-003
2.445296e+003, -3.067005e-003
2.447224e+003, -3.236388e-003
2.449153e+003, -3.192195e-003
2.451081e+003, -2.941185e-003
2.453010e+003, -2.952921e-003
2.454938e+003, -3.082609e-003
2.456866e+003, -3.209557e-003
2.458795e+003, -2.989278e-003
2.460723e+003, -2.813489e-003
2.462652e+003, -3.008079e-003
2.464580e+003, -2.916074e-003
2.466509e+003, -2.391010e-003
2.468437e+003, -2.260692e-003
2.470366e+003, -2.867063e-003
2.472294e+003, -3.522051e-003
2.474223e+003, -3.628259e-003
2.476151e+003, -3.213849e-003
2.478080e+003, -2.711163e-003
2.480008e+003, -2.600175e-003
2.481937e+003, -2.668668e-003
2.483865e+003, -2.683485e-003
2.485793e+003, -3.122833e-003
2.487722e+003, -2.941237e-003
2.489650e+003, -2.543395e-003
2.491579e+003, -2.465989e-003
2.493507e+003, -2.418375e-003
2.495436e+003, -2.473725e-003
2.497364e+003, -2.763167e-003
2.499293e+003, -3.112683e-003
2.501221e+003, -2.974859e-003
2.503150e+003, -2.526300e-003
2.505078e+003, -2.549799e-003
2.507007e+003, -3.129492e-003
2.508935e+003, -3.534782e-003
2.510864e+003, -3.185696e-003
2.512792e+003, -3.055499e-003
2.514720e+003, -2.971859e-003
2.516649e+003, -2.833862e-003
2.518577e+003, -2.812997e-003
2.520506e+003, -3.086690e-003
2.522434e+003, -3.090074e-003
2.524363e+003, -2.822521e-003
2.526291e+003, -2.923965e-003
2.528220e+003, -3.300020e-003
2.530148e+003, -3.460601e-003
2.532077e+003, -3.438418e-003
2.534005e+003, -3.644759e-003
2.535934e+003, -3.725185e-003
2.537862e+003, -3.480115e-003
2.539791e+003, -3.131319e-003
2.541719e+003, -3.008245e-003
2.543647e+003, -3.387537e-003
2.545576e+003, -3.301746e-003
2.547504e+003, -2.872039e-003
2.549433e+003, -2.970869e-003
2.551361e+003, -3.545110e-003
2.553290e+003, -3.785595e-003
2.555218e+003, -3.919922e-003
2.557147e+003, -4.009016e-003
2.559075e+003, -3.719952e-003
2.561004e+003, -3.386634e-003
2.562932e+003, -3.741002e-003
2.564861e+003, -4.115852e-003
2.566789e+003, -4.024144e-003
2.568718e+003, -3.985291e-003
2.570646e+003, -4.055521e-003
2.572574e+003, -3.705984e-003
2.574503e+003, -3.454034e-003
2.576431e+003, -3.768330e-003
2.578360e+003, -4.361566e-003
2.580288e+003, -4.188125e-003
2.582217e+003, -4.082844e-003
2.584145e+003, -4.295078e-003
2.586074e+003, -3.909938e-003
2.588002e+003, -3.591954e-003
2.589931e+003, -3.760926e-003
2.591859e+003, -4.135234e-003
2.593788e+003, -4.330462e-003
2.595716e+003, -4.221116e-003
2.597645e+003, -4.347229e-003
2.599573e+003, -4.451545e-003
2.601501e+003, -4.054528e-003
2.603430e+003, -3.922255e-003
2.605358e+003, -4.204728e-003
2.607287e+003, -4.558279e-003
2.609215e+003, -4.616861e-003
2.611144e+003, -4.294368e-003
2.613072e+003, -4.138841e-003
2.615001e+003, -4.241191e-003
2.616929e+003, -4.103089e-003
2.618858e+003, -4.141665e-003
2.620786e+003, -4.245095e-003
2.622715e+003, -4.274555e-003
2.624643e+003, -4.443014e-003
2.626572e+003, -4.569735e-003
2.628500e+003, -4.441077e-003
2.630428e+003, -4.236932e-003
2.632357e+003, -4.161151e-003
2.634285e+003, -3.855014e-003
2.636214e+003, -3.908083e-003
2.638142e+003, -4.033173e-003
2.640071e+003, -4.225974e-003
2.641999e+003, -4.228294e-003
2.643928e+003, -3.833857e-003
2.645856e+003, -3.884642e-003
2.647785e+003, -4.685143e-003
2.649713e+003, -4.630776e-003
2.651642e+003, -4.083625e-003
2.653570e+003, -3.990499e-003
2.655499e+003, -4.060320e-003
2.657427e+003, -4.049687e-003
2.659355e+003, -4.055804e-003
2.661284e+003, -3.932052e-003
2.663212e+003, -3.789626e-003
2.665141e+003, -3.722416e-003
2.667069e+003, -3.792687e-003
2.668998e+003, -3.831237e-003
2.670926e+003, -3.677976e-003
2.672855e+003, -3.552370e-003
2.674783e+003, -3.687125e-003
2.676712e+003, -3.596262e-003
2.678640e+003, -3.375266e-003
2.680569e+003, -3.382141e-003
2.682497e+003, -3.442199e-003
2.684426e+003, -3.419062e-003
2.686354e+003, -3.477889e-003
2.688282e+003, -3.658271e-003
2.690211e+003, -3.640209e-003
2.692139e+003, -3.712019e-003
2.694068e+003, -3.646712e-003
2.695996e+003, -3.251578e-003
2.697925e+003, -3.131609e-003
2.699853e+003, -3.360097e-003
2.701782e+003, -3.491230e-003
2.703710e+003, -3.411296e-003
2.705639e+003, -3.367000e-003
2.707567e+003, -3.331756e-003
2.709496e+003, -3.410420e-003
2.711424e+003, -3.587979e-003
2.713353e+003, -3.539100e-003
2.715281e+003, -3.491221e-003
2.717209e+003, -3.556821e-003
2.719138e+003, -3.597810e-003
2.721066e+003, -3.676778e-003
2.722995e+003, -3.499777e-003
2.724923e+003, -3.386951e-003
2.726852e+003, -3.186914e-003
2.728780e+003, -3.194415e-003
2.730709e+003, -3.389776e-003
2.732637e+003, -3.311836e-003
2.734566e+003, -3.323497e-003
2.736494e+003, -3.392767e-003
2.738423e+003, -3.337089e-003
2.740351e+003, -3.338189e-003
2.742280e+003, -3.263808e-003
2.744208e+003, -3.165102e-003
2.746136e+003, -3.154460e-003
2.748065e+003, -3.229886e-003
2.749993e+003, -3.409995e-003
2.751922e+003, -3.367214e-003
2.753850e+003, -3.267228e-003
2.755779e+003, -3.291296e-003
2.757707e+003, -3.492064e-003
2.759636e+003, -3.428973e-003
2.761564e+003, -3.226628e-003
2.763493e+003, -3.326973e-003
2.765421e+003, -3.483905e-003
2.767350e+003, -3.466789e-003
2.769278e+003, -3.394288e-003
2.771207e+003, -3.406099e-003
2.773135e+003, -3.462455e-003
2.775063e+003, -3.207862e-003
2.776992e+003, -3.198549e-003
2.778920e+003, -3.169656e-003
2.780849e+003, -3.183639e-003
2.782777e+003, -3.349451e-003
2.784706e+003, -3.150265e-003
2.786634e+003, -2.950863e-003
2.788563e+003, -3.009329e-003
2.790491e+003, -3.001374e-003
2.792420e+003, -2.812954e-003
2.794348e+003, -2.753858e-003
2.796277e+003, -2.913007e-003
2.798205e+003, -2.844832e-003
2.800134e+003, -2.639546e-003
2.802062e+003, -2.951874e-003
2.803990e+003, -3.064954e-003
2.805919e+003, -2.929449e-003
2.807847e+003, -2.975846e-003
2.809776e+003, -3.150263e-003
2.811704e+003, -3.248802e-003
2.813633e+003, -3.371076e-003
2.815561e+003, -3.028668e-003
2.817490e+003, -2.749030e-003
2.819418e+003, -2.735268e-003
2.821347e+003, -2.402637e-003
2.823275e+003, -2.407190e-003
2.825204e+003, -2.590457e-003
2.827132e+003, -2.579253e-003
2.829061e+003, -2.386636e-003
2.830989e+003, -2.437057e-003
2.832917e+003, -2.552924e-003
2.834846e+003, -2.300823e-003
2.836774e+003, -2.232228e-003
2.838703e+003, -2.275822e-003
2.840631e+003, -2.298244e-003
2.842560e+003, -2.698258e-003
2.844488e+003, -2.927295e-003
2.846417e+003, -2.579611e-003
2.848345e+003, -2.318684e-003
2.850274e+003, -2.523108e-003
2.852202e+003, -2.744841e-003
2.854131e+003, -2.602906e-003
2.856059e+003, -2.556897e-003
2.857988e+003, -2.575654e-003
2.859916e+003, -2.396779e-003
2.861844e+003, -2.253228e-003
2.863773e+003, -2.190260e-003
2.865701e+003, -2.436653e-003
2.867630e+003, -2.562431e-003
2.869558e+003, -2.491297e-003
2.871487e+003, -2.323964e-003
2.873415e+003, -2.262440e-003
2.875344e+003, -2.436474e-003
2.877272e+003, -2.414528e-003
2.879201e+003, -2.659034e-003
2.881129e+003, -2.870385e-003
2.883058e+003, -2.807130e-003
2.884986e+003, -2.501974e-003
2.886915e+003, -2.327329e-003
2.888843e+003, -2.416798e-003
2.890771e+003, -2.581220e-003
2.892700e+003, -2.873318e-003
2.894628e+003, -2.937348e-003
2.896557e+003, -2.593713e-003
2.898485e+003, -2.541022e-003
2.900414e+003, -2.428977e-003
2.902342e+003, -2.364959e-003
2.904271e+003, -2.384220e-003
2.906199e+003, -2.524792e-003
2.908128e+003, -2.474650e-003
2.910056e+003, -2.533082e-003
2.911985e+003, -2.708383e-003
2.913913e+003, -2.622422e-003
2.915842e+003, -2.226798e-003
2.917770e+003, -1.503890e-003
2.919698e+003, -1.306709e-003
2.921627e+003, -1.767142e-003
2.923555e+003, -2.055203e-003
2.925484e+003, -1.758668e-003
2.927412e+003, -1.416906e-003
2.929341e+003, -1.419701e-003
2.931269e+003, -1.919893e-003
2.933198e+003, -2.024326e-003
2.935126e+003, -1.784267e-003
2.937055e+003, -2.144000e-003
2.938983e+003, -2.409431e-003
2.940912e+003, -2.224081e-003
2.942840e+003, -2.227506e-003
2.944769e+003, -2.142973e-003
2.946697e+003, -1.834204e-003
2.948625e+003, -1.480647e-003
2.950554e+003, -1.487982e-003
2.952482e+003, -1.611789e-003
2.954411e+003, -1.577368e-003
2.956339e+003, -1.651008e-003
2.958268e+003, -1.682838e-003
2.960196e+003, -1.944192e-003
2.962125e+003, -2.146158e-003
2.964053e+003, -2.396687e-003
2.965982e+003, -2.480652e-003
2.967910e+003, -2.385698e-003
2.969839e+003, -2.837920e-003
2.971767e+003, -2.956788e-003
2.973696e+003, -2.727789e-003
2.975624e+003, -3.121187e-003
2.977552e+003, -3.138779e-003
2.979481e+003, -2.848796e-003
2.981409e+003, -2.834490e-003
2.983338e+003, -2.727941e-003
2.985266e+003, -2.612058e-003
2.987195e+003, -2.808243e-003
2.989123e+003, -2.589077e-003
2.991052e+003, -2.260173e-003
2.992980e+003, -2.562559e-003
2.994909e+003, -2.918730e-003
2.996837e+003, -2.909136e-003
2.998766e+003, -2.753978e-003
3.000694e+003, -2.751105e-003
3.002623e+003, -3.079970e-003
3.004551e+003, -2.901194e-003
3.006479e+003, -2.829322e-003
3.008408e+003, -2.568644e-003
3.010336e+003, -2.542333e-003
3.012265e+003, -2.789801e-003
3.014193e+003, -2.462591e-003
3.016122e+003, -1.587902e-003
3.018050e+003, -1.758419e-003
3.019979e+003, -2.927008e-003
3.021907e+003, -3.316766e-003
3.023836e+003, -2.934380e-003
3.025764e+003, -2.675960e-003
3.027693e+003, -2.405945e-003
3.029621e+003, -2.380840e-003
3.031550e+003, -2.339360e-003
3.033478e+003, -1.822346e-003
3.035406e+003, -1.395194e-003
3.037335e+003, -1.700474e-003
3.039263e+003, -2.402574e-003
3.041192e+003, -2.626085e-003
3.043120e+003, -2.600289e-003
3.045049e+003, -2.591383e-003
3.046977e+003, -2.526133e-003
3.048906e+003, -2.662448e-003
3.050834e+003, -2.830798e-003
3.052763e+003, -2.885693e-003
3.054691e+003, -2.454505e-003
3.056620e+003, -2.549980e-003
3.058548e+003, -3.043595e-003
3.060477e+003, -2.999798e-003
3.062405e+003, -2.503508e-003
3.064333e+003, -2.208443e-003
3.066262e+003, -1.937079e-003
3.068190e+003, -2.146601e-003
3.070119e+003, -2.466016e-003
3.072047e+003, -2.557294e-003
3.073976e+003, -2.569588e-003
3.075904e+003, -2.476612e-003
3.077833e+003, -2.196192e-003
3.079761e+003, -2.166816e-003
3.081690e+003, -2.545020e-003
3.083618e+003, -2.785744e-003
3.085547e+003, -2.420375e-003
3.087475e+003, -2.257283e-003
3.089404e+003, -2.180227e-003
3.091332e+003, -2.130467e-003
3.093260e+003, -2.002769e-003
3.095189e+003, -1.310900e-003
3.097117e+003, -1.256473e-003
3.099046e+003, -1.743962e-003
3.100974e+003, -2.055331e-003
3.102903e+003, -1.804794e-003
3.104831e+003, -2.034501e-003
3.106760e+003, -2.399789e-003
3.108688e+003, -2.169728e-003
3.110617e+003, -2.089280e-003
3.112545e+003, -1.896583e-003
3.114474e+003, -1.974027e-003
3.116402e+003, -1.881540e-003
3.118331e+003, -1.578099e-003
3.120259e+003, -1.454132e-003
3.122188e+003, -1.422498e-003
3.124116e+003, -1.270756e-003
3.126044e+003, -1.440947e-003
3.127973e+003, -1.780253e-003
3.129901e+003, -1.656976e-003
3.131830e+003, -1.302470e-003
3.133758e+003, -1.232746e-003
3.135687e+003, -1.941483e-003
3.137615e+003, -2.198463e-003
3.139544e+003, -1.747979e-003
3.141472e+003, -1.370409e-003
3.143401e+003, -1.391450e-003
3.145329e+003, -1.258426e-003
3.147258e+003, -1.179304e-003
3.149186e+003, -1.493707e-003
3.151115e+003, -1.706338e-003
3.153043e+003, -1.732651e-003
3.154971e+003, -1.666800e-003
3.156900e+003, -1.388240e-003
3.158828e+003, -1.433016e-003
3.160757e+003, -9.625228e-004
3.162685e+003, -6.877930e-004
3.164614e+003, -1.311769e-003
3.166542e+003, -1.155872e-003
3.168471e+003, -1.021685e-003
3.170399e+003, -1.097796e-003
3.172328e+003, -1.483560e-003
3.174256e+003, -1.417764e-003
3.176185e+003, -1.159574e-003
3.178113e+003, -9.308007e-004
3.180042e+003, -8.547264e-004
3.181970e+003, -7.864539e-004
3.183898e+003, -8.274350e-004
3.185827e+003, -7.216074e-004
3.187755e+003, -2.782920e-004
3.189684e+003, -5.563459e-004
3.191612e+003, -1.359525e-003
3.193541e+003, -1.540166e-003
3.195469e+003, -1.020034e-003
3.197398e+003, -1.011881e-003
3.199326e+003, -1.236314e-003
3.201255e+003, -9.080914e-004
3.203183e+003, -8.036454e-004
3.205112e+003, -4.240184e-004
3.207040e+003, -3.407932e-004
3.208969e+003, -4.160577e-004
3.210897e+003, -2.562488e-004
3.212825e+003, -1.283718e-004
3.214754e+003, -3.359236e-004
3.216682e+003, -4.017796e-004
3.218611e+003, 5.872035e-005
3.220539e+003, -1.735539e-004
3.222468e+003, -4.840936e-004
3.224396e+003, -4.318550e-004
3.226325e+003, -4.125707e-004
3.228253e+003, -1.801305e-004
3.230182e+003, -6.036442e-004
3.232110e+003, -8.114586e-004
3.234039e+003, -5.390588e-004
3.235967e+003, -3.725074e-004
3.237896e+003, -3.807914e-004
3.239824e+003, -3.361726e-004
3.241752e+003, -6.792319e-004
3.243681e+003, -7.601043e-004
3.245609e+003, -3.300422e-004
3.247538e+003, -1.287483e-004
3.249466e+003, 7.260218e-005
3.251395e+003, 1.649776e-005
3.253323e+003, -3.955950e-005
3.255252e+003, 1.581126e-004
3.257180e+003, 1.486939e-004
3.259109e+003, -1.479794e-004
3.261037e+003, -2.929579e-004
3.262966e+003, -2.024532e-004
3.264894e+003, -9.150312e-005
3.266823e+003, -2.630395e-005
3.268751e+003, -6.347637e-004
3.270679e+003, -1.021591e-003
3.272608e+003, -7.865173e-004
3.274536e+003, -5.762848e-004
3.276465e+003, -5.423462e-004
3.278393e+003, -7.072873e-004
3.280322e+003, -1.091040e-003
3.282250e+003, -9.045574e-004
3.284179e+003, -6.530022e-004
3.286107e+003, -4.602147e-004
3.288036e+003, -1.182628e-004
3.289964e+003, 3.414895e-004
3.291893e+003, 3.006514e-004
3.293821e+003, -2.473869e-004
3.295750e+003, -3.318353e-004
3.297678e+003, 6.138108e-005
3.299606e+003, 2.649921e-004
3.301535e+003, 4.681077e-004
3.303463e+003, 2.105268e-005
3.305392e+003, -3.301460e-004
3.307320e+003, 1.775812e-005
3.309249e+003, 1.608503e-004
3.311177e+003, -1.838914e-004
3.313106e+003, -5.273098e-004
3.315034e+003, -5.637542e-004
3.316963e+003, -2.329383e-004
3.318891e+003, 3.917780e-004
3.320820e+003, 6.950260e-004
3.322748e+003, 9.308181e-004
3.324677e+003, 1.136938e-003
3.326605e+003, 5.424711e-004
3.328533e+003, -4.764131e-004
3.330462e+003, -1.020782e-003
3.332390e+003, -1.537726e-004
3.334319e+003, 1.519292e-004
3.336247e+003, -2.657242e-004
3.338176e+003, -2.524000e-004
3.340104e+003, -3.094368e-004
3.342033e+003, -2.760836e-004
3.343961e+003, -3.008916e-005
3.345890e+003, 3.780117e-004
3.347818e+003, 7.201076e-004
3.349747e+003, 3.184674e-004
3.351675e+003, 1.118244e-004
3.353604e+003, 2.368936e-004
3.355532e+003, 3.948169e-004
3.357460e+003, 2.560536e-004
3.359389e+003, -6.485380e-005
3.361317e+003, -4.701175e-004
3.363246e+003, -4.766430e-004
3.365174e+003, 7.648511e-005
3.367103e+003, 4.065751e-004
3.369031e+003, 3.352221e-004
3.370960e+003, 7.104904e-004
3.372888e+003, 1.068382e-003
3.374817e+003, 1.360178e-003
3.376745e+003, 6.696851e-004
3.378674e+003, 5.638823e-004
3.380602e+003, 9.753751e-004
3.382531e+003, 6.199952e-004
3.384459e+003, 4.884049e-004
3.386387e+003, 1.288044e-003
3.388316e+003, 1.358770e-003
3.390244e+003, 1.051485e-003
3.392173e+003, 9.825610e-004
3.394101e+003, 1.096879e-003
3.396030e+003, 1.146924e-003
3.397958e+003, 8.893340e-004
3.399887e+003, 5.573413e-004
3.401815e+003, 4.379002e-004
3.403744e+003, 7.969182e-004
3.405672e+003, 6.404284e-004
3.407601e+003, 1.992960e-004
3.409529e+003, 4.833561e-004
3.411458e+003, 4.622457e-004
3.413386e+003, 4.811570e-004
3.415314e+003, 7.337576e-004
3.417243e+003, 2.831333e-004
3.419171e+003, -1.368075e-005
3.421100e+003, -4.585458e-004
3.423028e+003, -5.911297e-004
3.424957e+003, -6.186291e-005
3.426885e+003, 3.214528e-004
3.428814e+003, -1.179465e-006
3.430742e+003, -2.219347e-004
3.432671e+003, 1.698684e-005
3.434599e+003, 2.911551e-004
3.436528e+003, 8.231406e-004
3.438456e+003, 9.639161e-004
3.440385e+003, 6.473718e-004
3.442313e+003, 6.462379e-004
3.444241e+003, 6.576576e-004
3.446170e+003, 3.592074e-004
3.448098e+003, 4.253302e-004
3.450027e+003, 6.484298e-004
3.451955e+003, 6.284075e-004
3.453884e+003, -1.107813e-004
3.455812e+003, 1.518199e-004
3.457741e+003, 5.679842e-004
3.459669e+003, 1.503541e-004
3.461598e+003, 2.646738e-004
3.463526e+003, 1.626573e-004
3.465455e+003, -2.255948e-004
3.467383e+003, -4.210005e-004
3.469312e+003, -6.192410e-004
3.471240e+003, -6.416721e-004
3.473168e+003, -5.795790e-004
3.475097e+003, -4.818189e-005
3.477025e+003, 1.191781e-004
3.478954e+003, -6.138916e-004
3.480882e+003, -1.228721e-003
3.482811e+003, -1.026929e-003
3.484739e+003, -8.154196e-004
3.486668e+003, -1.125066e-003
3.488596e+003, -8.990681e-004
3.490525e+003, -1.021863e-003
3.492453e+003, -1.000704e-003
3.494382e+003, -7.866201e-004
3.496310e+003, -6.302848e-004
3.498239e+003, -5.041190e-004
3.500167e+003, -9.240383e-004
3.502095e+003, -1.192541e-003
3.504024e+003, -6.164123e-004
3.505952e+003, -7.886140e-004
3.507881e+003, -1.313707e-003
3.509809e+003, -1.318509e-003
3.511738e+003, -9.302060e-004
3.513666e+003, -5.064581e-004
3.515595e+003, -1.552770e-004
3.517523e+003, -5.488704e-004
3.519452e+003, -1.216761e-003
3.521380e+003, -1.623445e-003
3.523309e+003, -1.271311e-003
3.525237e+003, -1.249261e-003
3.527166e+003, -1.238981e-003
3.529094e+003, -6.660108e-004
3.531022e+003, -6.063936e-004
3.532951e+003, -7.921972e-004
3.534879e+003, -8.723608e-004
3.536808e+003, -8.973316e-004
3.538736e+003, -1.868860e-003
3.540665e+003, -2.536580e-003
3.542593e+003, -2.297141e-003
3.544522e+003, -1.994063e-003
3.546450e+003, -2.093857e-003
3.548379e+003, -1.695519e-003
3.550307e+003, -8.709922e-004
3.552236e+003, -9.646403e-004
3.554164e+003, -1.018842e-003
3.556093e+003, -8.405403e-004
3.558021e+003, -1.477731e-003
3.559949e+003, -1.876921e-003
3.561878e+003, -1.661398e-003
3.563806e+003, -7.105904e-004
3.565735e+003, -1.131221e-003
3.567663e+003, -2.541723e-003
3.569592e+003, -2.708417e-003
3.571520e+003, -2.162020e-003
3.573449e+003, -1.997423e-003
3.575377e+003, -2.099668e-003
3.577306e+003, -2.268775e-003
3.579234e+003, -2.663473e-003
3.581163e+003, -2.875755e-003
3.583091e+003, -3.005061e-003
3.585020e+003, -2.817345e-003
3.586948e+003, -2.544689e-003
3.588876e+003, -2.093565e-003
3.590805e+003, -2.816593e-003
3.592733e+003, -3.646236e-003
3.594662e+003, -2.989532e-003
3.596590e+003, -2.239618e-003
3.598519e+003, -2.910051e-003
3.600447e+003, -3.536763e-003
3.602376e+003, -3.060804e-003
3.604304e+003, -3.410816e-003
3.606233e+003, -3.588743e-003
3.608161e+003, -3.085334e-003
3.610090e+003, -3.722927e-003
3.612018e+003, -4.094893e-003
3.613947e+003, -3.979093e-003
3.615875e+003, -3.877376e-003
3.617803e+003, -3.165788e-003
3.619732e+003, -3.031869e-003
3.621660e+003, -4.188720e-003
3.623589e+003, -4.935951e-003
3.625517e+003, -4.756798e-003
3.627446e+003, -4.143784e-003
3.629374e+003, -4.235471e-003
3.631303e+003, -4.849240e-003
3.633231e+003, -5.714607e-003
3.635160e+003, -5.950342e-003
3.637088e+003, -5.987487e-003
3.639017e+003, -5.943347e-003
3.640945e+003, -5.758891e-003
3.642874e+003, -5.894479e-003
3.644802e+003, -6.196816e-003
3.646730e+003, -5.904722e-003
3.648659e+003, -5.866784e-003
3.650587e+003, -6.608579e-003
3.652516e+003, -6.877923e-003
3.654444e+003, -7.051313e-003
3.656373e+003, -7.037919e-003
3.658301e+003, -6.664848e-003
3.660230e+003, -6.707261e-003
3.662158e+003, -6.687974e-003
3.664087e+003, -6.878281e-003
3.666015e+003, -7.249787e-003
3.667944e+003, -7.333220e-003
3.669872e+003, -7.177067e-003
3.671801e+003, -6.738726e-003
3.673729e+003, -6.382236e-003
3.675657e+003, -6.697561e-003
3.677586e+003, -7.828567e-003
3.679514e+003, -7.909842e-003
3.681443e+003, -7.758876e-003
3.683371e+003, -8.288395e-003
3.685300e+003, -9.040146e-003
3.687228e+003, -8.436382e-003
3.689157e+003, -8.228858e-003
3.691085e+003, -8.768932e-003
3.693014e+003, -9.008992e-003
3.694942e+003, -8.817695e-003
3.696871e+003, -8.794169e-003
3.698799e+003, -8.445991e-003
3.700728e+003, -8.845319e-003
3.702656e+003, -9.312172e-003
3.704584e+003, -9.363043e-003
3.706513e+003, -9.161696e-003
3.708441e+003, -9.088157e-003
3.710370e+003, -9.564456e-003
3.712298e+003, -9.770327e-003
3.714227e+003, -9.729421e-003
3.716155e+003, -9.446234e-003
3.718084e+003, -8.591264e-003
3.720012e+003, -8.367795e-003
3.721941e+003, -8.932723e-003
3.723869e+003, -9.032086e-003
3.725798e+003, -9.359367e-003
3.727726e+003, -8.732041e-003
3.729655e+003, -8.325746e-003
3.731583e+003, -8.966381e-003
3.733511e+003, -9.100200e-003
3.735440e+003, -8.944659e-003
3.737368e+003, -9.431971e-003
3.739297e+003, -9.613233e-003
3.741225e+003, -9.292347e-003
3.743154e+003, -9.150270e-003
3.745082e+003, -9.163136e-003
3.747011e+003, -9.556457e-003
3.748939e+003, -9.293634e-003
3.750868e+003, -8.778343e-003
3.752796e+003, -8.594617e-003
3.754725e+003, -9.292041e-003
3.756653e+003, -1.028442e-002
3.758582e+003, -1.048857e-002
3.760510e+003, -1.029227e-002
3.762438e+003, -9.951395e-003
3.764367e+003, -9.590749e-003
3.766295e+003, -9.742058e-003
3.768224e+003, -9.946989e-003
3.770152e+003, -9.476352e-003
3.772081e+003, -8.950021e-003
3.774009e+003, -8.297198e-003
3.775938e+003, -8.496366e-003
3.777866e+003, -9.375167e-003
3.779795e+003, -9.689628e-003
3.781723e+003, -1.017085e-002
3.783652e+003, -1.048027e-002
3.785580e+003, -1.032645e-002
3.787509e+003, -9.979503e-003
3.789437e+003, -9.792012e-003
3.791365e+003, -9.852570e-003
3.793294e+003, -9.981021e-003
3.795222e+003, -1.016383e-002
3.797151e+003, -1.001107e-002
3.799079e+003, -9.479692e-003
3.801008e+003, -9.027268e-003
3.802936e+003, -9.109923e-003
3.804865e+003, -9.572107e-003
3.806793e+003, -9.441648e-003
3.808722e+003, -9.672031e-003
3.810650e+003, -1.052339e-002
3.812579e+003, -1.141770e-002
3.814507e+003, -1.130963e-002
3.816436e+003, -1.057531e-002
3.818364e+003, -1.018864e-002
3.820292e+003, -1.004571e-002
3.822221e+003, -1.015753e-002
3.824149e+003, -1.041968e-002
3.826078e+003, -1.020533e-002
3.828006e+003, -9.469084e-003
3.829935e+003, -9.203934e-003
3.831863e+003, -9.946294e-003
3.833792e+003, -1.015308e-002
3.835720e+003, -9.254372e-003
3.837649e+003, -8.747452e-003
3.839577e+003, -9.364135e-003
3.841506e+003, -1.000322e-002
3.843434e+003, -1.053641e-002
3.845363e+003, -1.048372e-002
3.847291e+003, -1.042665e-002
3.849219e+003, -1.030157e-002
3.851148e+003, -9.683680e-003
3.853076e+003, -8.438809e-003
3.855005e+003, -8.312638e-003
3.856933e+003, -9.044390e-003
3.858862e+003, -9.708551e-003
3.860790e+003, -9.770251e-003
3.862719e+003, -9.804270e-003
3.864647e+003, -1.035586e-002
3.866576e+003, -1.123311e-002
3.868504e+003, -1.023243e-002
3.870433e+003, -9.301552e-003
3.872361e+003, -9.695193e-003
3.874290e+003, -9.895798e-003
3.876218e+003, -9.791551e-003
3.878146e+003, -9.755416e-003
3.880075e+003, -9.925401e-003
3.882003e+003, -1.023682e-002
3.883932e+003, -9.851852e-003
3.885860e+003, -1.009430e-002
3.887789e+003, -1.059773e-002
3.889717e+003, -1.016504e-002
3.891646e+003, -9.819495e-003
3.893574e+003, -1.003187e-002
3.895503e+003, -9.720786e-003
3.897431e+003, -9.672823e-003
3.899360e+003, -9.837415e-003
3.901288e+003, -9.648720e-003
3.903217e+003, -9.466241e-003
3.905145e+003, -9.883780e-003
3.907073e+003, -1.013717e-002
3.909002e+003, -9.383667e-003
3.910930e+003, -9.587388e-003
3.912859e+003, -1.045926e-002
3.914787e+003, -1.057824e-002
3.916716e+003, -1.048956e-002
3.918644e+003, -1.066517e-002
3.920573e+003, -1.046102e-002
3.922501e+003, -1.001387e-002
3.924430e+003, -9.833275e-003
3.926358e+003, -1.062927e-002
3.928287e+003, -1.094310e-002
3.930215e+003, -1.018501e-002
3.932144e+003, -9.999612e-003
3.934072e+003, -1.063369e-002
3.936000e+003, -1.037124e-002
3.937929e+003, -9.855012e-003
3.939857e+003, -1.049869e-002
3.941786e+003, -1.120115e-002
3.943714e+003, -1.061000e-002
3.945643e+003, -9.815678e-003
3.947571e+003, -9.950647e-003
3.949500e+003, -1.047832e-002
3.951428e+003, -1.082486e-002
3.953357e+003, -1.042605e-002
3.955285e+003, -1.027155e-002
3.957214e+003, -9.943382e-003
3.959142e+003, -9.957612e-003
3.961071e+003, -1.034827e-002
3.962999e+003, -1.063038e-002
3.964927e+003, -1.078791e-002
3.966856e+003, -1.049793e-002
3.968784e+003, -1.064771e-002
3.970713e+003, -1.109112e-002
3.972641e+003, -1.074373e-002
3.974570e+003, -1.038808e-002
3.976498e+003, -1.065686e-002
3.978427e+003, -1.091224e-002
3.980355e+003, -1.069078e-002
3.982284e+003, -1.053924e-002
3.984212e+003, -1.044671e-002
3.986141e+003, -1.104689e-002
3.988069e+003, -1.026135e-002
3.989998e+003, -9.440898e-003
3.991926e+003, -1.022077e-002
3.993854e+003, -1.083312e-002
3.995783e+003, -1.106476e-002
3.997711e+003, -1.165294e-002
##END=



