##NAMES=Vesuvianite
##RRUFFID=R050233
##IDEAL CHEMISTRY=(Ca,Na)_19_(Al,Mg,Fe^3+^)_13_(SiO_4_)_10_(Si_2_O_7_)_4_(OH,F,O)_10_
##LOCALITY=Ludwig, Nevada, USA
##OWNER=RRUFF
##SOURCE=Marcus Origlieri
##DESCRIPTION=Pale green euhedral single crystal
##STATUS=The identification of this mineral has been confirmed by X-ray diffraction and chemical analysis
##URL=rruff.info/R050233
##MEASURED CHEMISTRY=Ca_19.00_(Al_10.04_Mg_2.54_Fe^2+^_0.42_)_Σ=13_(Si_17.96_Al_0.04_)_Σ=18_O_68_((OH)_9.66_F_0.34_)_Σ=10_ ; Boron not analyzed.
5.014013e+001, 3.867840e-002
5.206860e+001, 2.050386e-002
5.399707e+001, 1.533696e-002
5.592553e+001, 1.480832e-002
5.785400e+001, 2.109275e-002
5.978246e+001, 2.202018e-002
6.171093e+001, 2.432558e-002
6.363940e+001, 2.538422e-002
6.556786e+001, 2.458874e-002
6.749633e+001, 2.547581e-002
6.942480e+001, 2.785463e-002
7.135326e+001, 2.681062e-002
7.328172e+001, 2.698065e-002
7.521019e+001, 3.013057e-002
7.713866e+001, 3.256148e-002
7.906712e+001, 3.598882e-002
8.099559e+001, 3.812264e-002
8.292406e+001, 3.737072e-002
8.485252e+001, 3.759715e-002
8.678099e+001, 3.922211e-002
8.870946e+001, 4.113362e-002
9.063792e+001, 4.237663e-002
9.256638e+001, 4.367932e-002
9.449485e+001, 4.402969e-002
9.642332e+001, 4.519890e-002
9.835178e+001, 4.583391e-002
1.002803e+002, 4.631349e-002
1.022087e+002, 4.623944e-002
1.041372e+002, 4.664265e-002
1.060657e+002, 4.736913e-002
1.079941e+002, 4.857113e-002
1.099226e+002, 4.853577e-002
1.118510e+002, 5.033029e-002
1.137795e+002, 5.160967e-002
1.157080e+002, 5.198157e-002
1.176364e+002, 5.166370e-002
1.195649e+002, 5.189620e-002
1.214934e+002, 5.253593e-002
1.234218e+002, 5.288228e-002
1.253503e+002, 5.308678e-002
1.272788e+002, 5.455747e-002
1.292072e+002, 5.601718e-002
1.311357e+002, 5.807260e-002
1.330642e+002, 5.861035e-002
1.349926e+002, 5.884665e-002
1.369211e+002, 5.926789e-002
1.388496e+002, 6.065725e-002
1.407780e+002, 6.090397e-002
1.427065e+002, 6.091223e-002
1.446350e+002, 6.049611e-002
1.465634e+002, 6.189212e-002
1.484919e+002, 6.313399e-002
1.504204e+002, 6.297018e-002
1.523488e+002, 6.284705e-002
1.542773e+002, 6.348374e-002
1.562058e+002, 6.435554e-002
1.581342e+002, 6.510719e-002
1.600627e+002, 6.492079e-002
1.619912e+002, 6.573568e-002
1.639196e+002, 6.663331e-002
1.658481e+002, 6.782264e-002
1.677766e+002, 6.876458e-002
1.697050e+002, 6.999055e-002
1.716335e+002, 7.065687e-002
1.735620e+002, 7.109448e-002
1.754904e+002, 7.154161e-002
1.774189e+002, 7.270122e-002
1.793474e+002, 7.314520e-002
1.812758e+002, 7.312580e-002
1.832043e+002, 7.254260e-002
1.851328e+002, 7.116207e-002
1.870612e+002, 6.888871e-002
1.889897e+002, 6.620321e-002
1.909182e+002, 6.458605e-002
1.928466e+002, 6.487410e-002
1.947751e+002, 6.564840e-002
1.967036e+002, 6.693064e-002
1.986320e+002, 6.856232e-002
2.005605e+002, 7.023671e-002
2.024890e+002, 7.180574e-002
2.044174e+002, 7.304509e-002
2.063459e+002, 7.421747e-002
2.082744e+002, 7.560357e-002
2.102028e+002, 7.652178e-002
2.121313e+002, 7.715154e-002
2.140598e+002, 7.774203e-002
2.159882e+002, 7.868503e-002
2.179167e+002, 7.944455e-002
2.198452e+002, 8.065426e-002
2.217736e+002, 8.191966e-002
2.237021e+002, 8.308110e-002
2.256305e+002, 8.492079e-002
2.275590e+002, 8.613211e-002
2.294875e+002, 8.502449e-002
2.314159e+002, 8.412650e-002
2.333444e+002, 8.285291e-002
2.352729e+002, 8.096947e-002
2.372013e+002, 7.893541e-002
2.391298e+002, 7.745008e-002
2.410583e+002, 7.604299e-002
2.429867e+002, 7.524443e-002
2.449152e+002, 7.499555e-002
2.468437e+002, 7.563247e-002
2.487721e+002, 7.626708e-002
2.507006e+002, 7.725131e-002
2.526291e+002, 7.836474e-002
2.545575e+002, 7.934344e-002
2.564860e+002, 7.953925e-002
2.584145e+002, 7.997446e-002
2.603429e+002, 8.073401e-002
2.622714e+002, 8.090026e-002
2.641999e+002, 8.009689e-002
2.661283e+002, 7.955114e-002
2.680568e+002, 7.893512e-002
2.699853e+002, 7.856970e-002
2.719137e+002, 7.806458e-002
2.738422e+002, 7.749276e-002
2.757707e+002, 7.719105e-002
2.776991e+002, 7.745340e-002
2.796276e+002, 7.773691e-002
2.815561e+002, 7.811573e-002
2.834845e+002, 7.874238e-002
2.854130e+002, 7.991873e-002
2.873415e+002, 8.159161e-002
2.892699e+002, 8.341495e-002
2.911984e+002, 8.508798e-002
2.931269e+002, 8.690775e-002
2.950553e+002, 8.871736e-002
2.969838e+002, 9.024180e-002
2.989123e+002, 9.114450e-002
3.008407e+002, 9.259816e-002
3.027692e+002, 9.414034e-002
3.046977e+002, 9.498250e-002
3.066261e+002, 9.545477e-002
3.085546e+002, 9.619664e-002
3.104831e+002, 9.633825e-002
3.124115e+002, 9.631943e-002
3.143400e+002, 9.581716e-002
3.162685e+002, 9.496313e-002
3.181969e+002, 9.424644e-002
3.201254e+002, 9.358616e-002
3.220539e+002, 9.293134e-002
3.239823e+002, 9.273370e-002
3.259108e+002, 9.270091e-002
3.278392e+002, 9.269546e-002
3.297677e+002, 9.296066e-002
3.316962e+002, 9.389905e-002
3.336246e+002, 9.508770e-002
3.355531e+002, 9.596498e-002
3.374816e+002, 9.692460e-002
3.394100e+002, 9.806152e-002
3.413385e+002, 9.911240e-002
3.432670e+002, 1.003641e-001
3.451954e+002, 1.014190e-001
3.471239e+002, 1.019475e-001
3.490524e+002, 1.023401e-001
3.509808e+002, 1.030008e-001
3.529093e+002, 1.032562e-001
3.548378e+002, 1.033205e-001
3.567662e+002, 1.034440e-001
3.586947e+002, 1.035148e-001
3.606232e+002, 1.034430e-001
3.625516e+002, 1.034785e-001
3.644801e+002, 1.033691e-001
3.664086e+002, 1.033403e-001
3.683370e+002, 1.037820e-001
3.702655e+002, 1.044767e-001
3.721940e+002, 1.053331e-001
3.741224e+002, 1.060114e-001
3.760509e+002, 1.065815e-001
3.779794e+002, 1.070875e-001
3.799078e+002, 1.070847e-001
3.818363e+002, 1.066582e-001
3.837648e+002, 1.061430e-001
3.856932e+002, 1.058979e-001
3.876217e+002, 1.055203e-001
3.895502e+002, 1.059107e-001
3.914786e+002, 1.066300e-001
3.934071e+002, 1.072750e-001
3.953356e+002, 1.083352e-001
3.972640e+002, 1.098785e-001
3.991925e+002, 1.114796e-001
4.011210e+002, 1.132216e-001
4.030494e+002, 1.148771e-001
4.049779e+002, 1.161476e-001
4.069064e+002, 1.168081e-001
4.088348e+002, 1.167799e-001
4.107633e+002, 1.165947e-001
4.126917e+002, 1.164310e-001
4.146202e+002, 1.165413e-001
4.165487e+002, 1.167867e-001
4.184771e+002, 1.173740e-001
4.204056e+002, 1.187421e-001
4.223341e+002, 1.203531e-001
4.242625e+002, 1.222290e-001
4.261910e+002, 1.234588e-001
4.281195e+002, 1.240638e-001
4.300479e+002, 1.240038e-001
4.319764e+002, 1.236144e-001
4.339049e+002, 1.230661e-001
4.358333e+002, 1.226982e-001
4.377618e+002, 1.219124e-001
4.396903e+002, 1.210775e-001
4.416187e+002, 1.200357e-001
4.435472e+002, 1.187622e-001
4.454757e+002, 1.173450e-001
4.474041e+002, 1.161161e-001
4.493326e+002, 1.148275e-001
4.512611e+002, 1.135877e-001
4.531895e+002, 1.125300e-001
4.551180e+002, 1.117703e-001
4.570465e+002, 1.115612e-001
4.589749e+002, 1.111500e-001
4.609034e+002, 1.110496e-001
4.628319e+002, 1.117813e-001
4.647603e+002, 1.120666e-001
4.666888e+002, 1.117795e-001
4.686173e+002, 1.115982e-001
4.705457e+002, 1.114800e-001
4.724742e+002, 1.113650e-001
4.744027e+002, 1.116868e-001
4.763311e+002, 1.117236e-001
4.782596e+002, 1.118565e-001
4.801881e+002, 1.118135e-001
4.821165e+002, 1.119856e-001
4.840450e+002, 1.127797e-001
4.859735e+002, 1.130109e-001
4.879019e+002, 1.127420e-001
4.898304e+002, 1.120382e-001
4.917589e+002, 1.100785e-001
4.936873e+002, 1.077694e-001
4.956158e+002, 1.058578e-001
4.975443e+002, 1.042333e-001
4.994727e+002, 1.024836e-001
5.014012e+002, 1.005697e-001
5.033297e+002, 9.822485e-002
5.052581e+002, 9.566902e-002
5.071866e+002, 9.340661e-002
5.091151e+002, 9.080784e-002
5.110435e+002, 8.829707e-002
5.129720e+002, 8.639581e-002
5.149005e+002, 8.476213e-002
5.168289e+002, 8.420739e-002
5.187574e+002, 8.396934e-002
5.206859e+002, 8.370094e-002
5.226143e+002, 8.343274e-002
5.245428e+002, 8.301387e-002
5.264713e+002, 8.222522e-002
5.283997e+002, 8.146599e-002
5.303282e+002, 8.046079e-002
5.322567e+002, 7.961278e-002
5.341851e+002, 7.905563e-002
5.361136e+002, 7.882298e-002
5.380421e+002, 7.804699e-002
5.399705e+002, 7.725572e-002
5.418990e+002, 7.658080e-002
5.438275e+002, 7.638703e-002
5.457559e+002, 7.652255e-002
5.476844e+002, 7.655381e-002
5.496129e+002, 7.618903e-002
5.515413e+002, 7.633983e-002
5.534698e+002, 7.707585e-002
5.553983e+002, 7.736725e-002
5.573267e+002, 7.784291e-002
5.592552e+002, 7.911125e-002
5.611837e+002, 8.041125e-002
5.631121e+002, 8.148339e-002
5.650406e+002, 8.252002e-002
5.669691e+002, 8.389696e-002
5.688975e+002, 8.497655e-002
5.708260e+002, 8.561719e-002
5.727545e+002, 8.578311e-002
5.746829e+002, 8.561648e-002
5.766114e+002, 8.460086e-002
5.785399e+002, 8.366168e-002
5.804683e+002, 8.258083e-002
5.823968e+002, 8.118485e-002
5.843253e+002, 7.998180e-002
5.862537e+002, 7.939696e-002
5.881822e+002, 7.908199e-002
5.901107e+002, 7.927369e-002
5.920391e+002, 7.980910e-002
5.939676e+002, 8.076837e-002
5.958961e+002, 8.212195e-002
5.978245e+002, 8.385924e-002
5.997530e+002, 8.508950e-002
6.016815e+002, 8.531325e-002
6.036099e+002, 8.534504e-002
6.055384e+002, 8.559770e-002
6.074669e+002, 8.512263e-002
6.093953e+002, 8.456594e-002
6.113238e+002, 8.329672e-002
6.132523e+002, 8.246341e-002
6.151807e+002, 8.149689e-002
6.171091e+002, 8.063527e-002
6.190376e+002, 7.892356e-002
6.209661e+002, 7.696551e-002
6.228945e+002, 7.643574e-002
6.248230e+002, 7.594559e-002
6.267515e+002, 7.523511e-002
6.286799e+002, 7.513580e-002
6.306084e+002, 7.494597e-002
6.325369e+002, 7.448661e-002
6.344653e+002, 7.361459e-002
6.363938e+002, 7.271060e-002
6.383223e+002, 7.166856e-002
6.402507e+002, 7.124209e-002
6.421792e+002, 7.088213e-002
6.441077e+002, 7.019203e-002
6.460361e+002, 6.961096e-002
6.479646e+002, 6.946964e-002
6.498931e+002, 6.958991e-002
6.518215e+002, 6.950709e-002
6.537500e+002, 6.922919e-002
6.556785e+002, 6.890763e-002
6.576069e+002, 6.858045e-002
6.595354e+002, 6.844133e-002
6.614639e+002, 6.817441e-002
6.633923e+002, 6.765470e-002
6.653208e+002, 6.725745e-002
6.672493e+002, 6.682673e-002
6.691777e+002, 6.617068e-002
6.711062e+002, 6.566980e-002
6.730347e+002, 6.589849e-002
6.749631e+002, 6.606758e-002
6.768916e+002, 6.638082e-002
6.788201e+002, 6.711782e-002
6.807485e+002, 6.780867e-002
6.826770e+002, 6.864206e-002
6.846055e+002, 6.865774e-002
6.865339e+002, 6.885175e-002
6.884624e+002, 6.896573e-002
6.903909e+002, 6.888134e-002
6.923193e+002, 6.820295e-002
6.942478e+002, 6.817237e-002
6.961763e+002, 6.773022e-002
6.981047e+002, 6.727472e-002
7.000332e+002, 6.610528e-002
##END=



