##NAMES=Vonsenite
##RRUFFID=R050221
##IDEAL CHEMISTRY=Fe^2+^_2_Fe^3+^O_2_(BO_3_)
##LOCALITY=Monchi mine, Burguillos del Cerro, Badajoz, Extremadura, Spain
##OWNER=RRUFF
##SOURCE=Marcus Origlieri
##DESCRIPTION=Mass of thin bladed black crystals
##STATUS=The identification of this mineral has been confirmed by X-ray diffraction and chemical analysis
##URL=rruff.info/R050221
##MEASURED CHEMISTRY=(Fe^2+^_1.96_Mg_0.03_Mn_0.01_)_Σ=2_(Fe^3+^_0.98_Al_0.02_)_Σ=1_BO_5_
5.014013e+001, 1.725091e-002
5.206860e+001, 1.681834e-002
5.399707e+001, 1.539040e-002
5.592553e+001, 1.965068e-002
5.785400e+001, 2.436748e-002
5.978246e+001, 3.369642e-002
6.171093e+001, 2.816042e-002
6.363940e+001, 2.845989e-002
6.556786e+001, 2.882271e-002
6.749633e+001, 2.508724e-002
6.942480e+001, 2.444230e-002
7.135326e+001, 2.726522e-002
7.328172e+001, 2.906306e-002
7.521019e+001, 2.891471e-002
7.713866e+001, 2.981719e-002
7.906712e+001, 3.300639e-002
8.099559e+001, 3.300142e-002
8.292406e+001, 3.235834e-002
8.485252e+001, 3.269031e-002
8.678099e+001, 3.227881e-002
8.870946e+001, 3.217666e-002
9.063792e+001, 3.286912e-002
9.256638e+001, 3.368739e-002
9.449485e+001, 3.470352e-002
9.642332e+001, 3.558228e-002
9.835178e+001, 3.578437e-002
1.002803e+002, 3.466967e-002
1.022087e+002, 3.525535e-002
1.041372e+002, 3.620788e-002
1.060657e+002, 3.678483e-002
1.079941e+002, 3.673836e-002
1.099226e+002, 3.735185e-002
1.118510e+002, 3.797507e-002
1.137795e+002, 3.845077e-002
1.157080e+002, 3.859631e-002
1.176364e+002, 3.889439e-002
1.195649e+002, 3.923944e-002
1.214934e+002, 4.019094e-002
1.234218e+002, 4.053333e-002
1.253503e+002, 4.104557e-002
1.272788e+002, 4.150451e-002
1.292072e+002, 4.186435e-002
1.311357e+002, 4.219631e-002
1.330642e+002, 4.278969e-002
1.349926e+002, 4.327841e-002
1.369211e+002, 4.397186e-002
1.388496e+002, 4.394405e-002
1.407780e+002, 4.457526e-002
1.427065e+002, 4.495525e-002
1.446350e+002, 4.505116e-002
1.465634e+002, 4.581757e-002
1.484919e+002, 4.654991e-002
1.504204e+002, 4.627295e-002
1.523488e+002, 4.666506e-002
1.542773e+002, 4.726763e-002
1.562058e+002, 4.766539e-002
1.581342e+002, 4.741795e-002
1.600627e+002, 4.769543e-002
1.619912e+002, 4.811778e-002
1.639196e+002, 4.859316e-002
1.658481e+002, 4.922768e-002
1.677766e+002, 4.973020e-002
1.697050e+002, 5.037586e-002
1.716335e+002, 5.095533e-002
1.735620e+002, 5.080470e-002
1.754904e+002, 5.078596e-002
1.774189e+002, 5.141708e-002
1.793474e+002, 5.232698e-002
1.812758e+002, 5.256082e-002
1.832043e+002, 5.240786e-002
1.851328e+002, 5.263102e-002
1.870612e+002, 5.275315e-002
1.889897e+002, 5.274110e-002
1.909182e+002, 5.267494e-002
1.928466e+002, 5.297438e-002
1.947751e+002, 5.363793e-002
1.967036e+002, 5.385890e-002
1.986320e+002, 5.395471e-002
2.005605e+002, 5.399521e-002
2.024890e+002, 5.415350e-002
2.044174e+002, 5.392625e-002
2.063459e+002, 5.351809e-002
2.082744e+002, 5.333797e-002
2.102028e+002, 5.397371e-002
2.121313e+002, 5.492092e-002
2.140598e+002, 5.558973e-002
2.159882e+002, 5.564299e-002
2.179167e+002, 5.579937e-002
2.198452e+002, 5.616839e-002
2.217736e+002, 5.642360e-002
2.237021e+002, 5.621654e-002
2.256305e+002, 5.614866e-002
2.275590e+002, 5.628429e-002
2.294875e+002, 5.653084e-002
2.314159e+002, 5.645625e-002
2.333444e+002, 5.664415e-002
2.352729e+002, 5.677591e-002
2.372013e+002, 5.651411e-002
2.391298e+002, 5.621590e-002
2.410583e+002, 5.655012e-002
2.429867e+002, 5.642552e-002
2.449152e+002, 5.663158e-002
2.468437e+002, 5.706469e-002
2.487721e+002, 5.719383e-002
2.507006e+002, 5.719544e-002
2.526291e+002, 5.692512e-002
2.545575e+002, 5.693967e-002
2.564860e+002, 5.726972e-002
2.584145e+002, 5.756905e-002
2.603429e+002, 5.760167e-002
2.622714e+002, 5.768575e-002
2.641999e+002, 5.769787e-002
2.661283e+002, 5.745438e-002
2.680568e+002, 5.760101e-002
2.699853e+002, 5.782026e-002
2.719137e+002, 5.816032e-002
2.738422e+002, 5.826027e-002
2.757707e+002, 5.801826e-002
2.776991e+002, 5.798890e-002
2.796276e+002, 5.783570e-002
2.815561e+002, 5.737268e-002
2.834845e+002, 5.666582e-002
2.854130e+002, 5.634444e-002
2.873415e+002, 5.623860e-002
2.892699e+002, 5.581127e-002
2.911984e+002, 5.547622e-002
2.931269e+002, 5.568386e-002
2.950553e+002, 5.615265e-002
2.969838e+002, 5.657975e-002
2.989123e+002, 5.695970e-002
3.008407e+002, 5.747367e-002
3.027692e+002, 5.858839e-002
3.046977e+002, 5.949328e-002
3.066261e+002, 6.007187e-002
3.085546e+002, 6.099950e-002
3.104831e+002, 6.184811e-002
3.124115e+002, 6.226456e-002
3.143400e+002, 6.254335e-002
3.162685e+002, 6.293222e-002
3.181969e+002, 6.323449e-002
3.201254e+002, 6.381322e-002
3.220539e+002, 6.440616e-002
3.239823e+002, 6.501281e-002
3.259108e+002, 6.554406e-002
3.278392e+002, 6.575041e-002
3.297677e+002, 6.612207e-002
3.316962e+002, 6.633179e-002
3.336246e+002, 6.650062e-002
3.355531e+002, 6.684093e-002
3.374816e+002, 6.685409e-002
3.394100e+002, 6.673512e-002
3.413385e+002, 6.699909e-002
3.432670e+002, 6.724434e-002
3.451954e+002, 6.729848e-002
3.471239e+002, 6.756762e-002
3.490524e+002, 6.763261e-002
3.509808e+002, 6.781929e-002
3.529093e+002, 6.822563e-002
3.548378e+002, 6.823783e-002
3.567662e+002, 6.837072e-002
3.586947e+002, 6.855686e-002
3.606232e+002, 6.833081e-002
3.625516e+002, 6.799822e-002
3.644801e+002, 6.770077e-002
3.664086e+002, 6.738306e-002
3.683370e+002, 6.717084e-002
3.702655e+002, 6.708239e-002
3.721940e+002, 6.742854e-002
3.741224e+002, 6.771895e-002
3.760509e+002, 6.808203e-002
3.779794e+002, 6.838353e-002
3.799078e+002, 6.838811e-002
3.818363e+002, 6.856419e-002
3.837648e+002, 6.878891e-002
3.856932e+002, 6.915083e-002
3.876217e+002, 6.951224e-002
3.895502e+002, 6.965567e-002
3.914786e+002, 6.972896e-002
3.934071e+002, 6.951053e-002
3.953356e+002, 6.948514e-002
3.972640e+002, 6.955535e-002
3.991925e+002, 6.948741e-002
4.011210e+002, 6.958753e-002
4.030494e+002, 6.978647e-002
4.049779e+002, 6.984977e-002
4.069064e+002, 6.962796e-002
4.088348e+002, 6.941634e-002
4.107633e+002, 6.935845e-002
4.126917e+002, 6.957239e-002
4.146202e+002, 6.965308e-002
4.165487e+002, 6.984989e-002
4.184771e+002, 6.998215e-002
4.204056e+002, 7.029519e-002
4.223341e+002, 7.041220e-002
4.242625e+002, 7.079233e-002
4.261910e+002, 7.120360e-002
4.281195e+002, 7.143547e-002
4.300479e+002, 7.183354e-002
4.319764e+002, 7.219978e-002
4.339049e+002, 7.228212e-002
4.358333e+002, 7.258176e-002
4.377618e+002, 7.263874e-002
4.396903e+002, 7.234208e-002
4.416187e+002, 7.172830e-002
4.435472e+002, 7.128405e-002
4.454757e+002, 7.087940e-002
4.474041e+002, 7.044691e-002
4.493326e+002, 6.987276e-002
4.512611e+002, 6.938772e-002
4.531895e+002, 6.894474e-002
4.551180e+002, 6.831265e-002
4.570465e+002, 6.770089e-002
4.589749e+002, 6.723995e-002
4.609034e+002, 6.681372e-002
4.628319e+002, 6.661454e-002
4.647603e+002, 6.615959e-002
4.666888e+002, 6.572028e-002
4.686173e+002, 6.507007e-002
4.705457e+002, 6.431473e-002
4.724742e+002, 6.405156e-002
4.744027e+002, 6.389838e-002
4.763311e+002, 6.379668e-002
4.782596e+002, 6.389472e-002
4.801881e+002, 6.403654e-002
4.821165e+002, 6.380047e-002
4.840450e+002, 6.352180e-002
4.859735e+002, 6.339617e-002
4.879019e+002, 6.294190e-002
4.898304e+002, 6.239612e-002
4.917589e+002, 6.170170e-002
4.936873e+002, 6.104264e-002
4.956158e+002, 6.027889e-002
4.975443e+002, 5.934713e-002
4.994727e+002, 5.863229e-002
5.014012e+002, 5.794614e-002
5.033297e+002, 5.676830e-002
5.052581e+002, 5.571809e-002
5.071866e+002, 5.500923e-002
5.091151e+002, 5.418149e-002
5.110435e+002, 5.341403e-002
5.129720e+002, 5.277770e-002
5.149005e+002, 5.222016e-002
5.168289e+002, 5.209001e-002
5.187574e+002, 5.174213e-002
5.206859e+002, 5.126492e-002
5.226143e+002, 5.102597e-002
5.245428e+002, 5.071844e-002
5.264713e+002, 5.035507e-002
5.283997e+002, 5.003042e-002
5.303282e+002, 4.970258e-002
5.322567e+002, 4.948803e-002
5.341851e+002, 4.957590e-002
5.361136e+002, 4.989142e-002
5.380421e+002, 4.964353e-002
5.399705e+002, 4.947811e-002
5.418990e+002, 4.989234e-002
5.438275e+002, 5.034024e-002
5.457559e+002, 5.073610e-002
5.476844e+002, 5.160418e-002
5.496129e+002, 5.226137e-002
5.515413e+002, 5.307421e-002
5.534698e+002, 5.374340e-002
5.553983e+002, 5.428584e-002
5.573267e+002, 5.504141e-002
5.592552e+002, 5.578615e-002
5.611837e+002, 5.661699e-002
5.631121e+002, 5.758352e-002
5.650406e+002, 5.875565e-002
5.669691e+002, 5.976405e-002
5.688975e+002, 6.062788e-002
5.708260e+002, 6.177585e-002
5.727545e+002, 6.291937e-002
5.746829e+002, 6.392503e-002
5.766114e+002, 6.472707e-002
5.785399e+002, 6.529144e-002
5.804683e+002, 6.565672e-002
5.823968e+002, 6.607632e-002
5.843253e+002, 6.643368e-002
5.862537e+002, 6.662229e-002
5.881822e+002, 6.672184e-002
5.901107e+002, 6.656469e-002
5.920391e+002, 6.608966e-002
5.939676e+002, 6.544498e-002
5.958961e+002, 6.471461e-002
5.978245e+002, 6.374241e-002
5.997530e+002, 6.228718e-002
6.016815e+002, 6.056103e-002
6.036099e+002, 5.877562e-002
6.055384e+002, 5.724144e-002
6.074669e+002, 5.593381e-002
6.093953e+002, 5.444448e-002
6.113238e+002, 5.311558e-002
6.132523e+002, 5.254116e-002
6.151807e+002, 5.211381e-002
6.171091e+002, 5.136428e-002
6.190376e+002, 5.060190e-002
6.209661e+002, 5.080740e-002
6.228945e+002, 5.107527e-002
6.248230e+002, 5.207256e-002
6.267515e+002, 5.338115e-002
6.286799e+002, 5.438106e-002
6.306084e+002, 5.538344e-002
6.325369e+002, 5.594984e-002
6.344653e+002, 5.642376e-002
6.363938e+002, 5.711284e-002
6.383223e+002, 5.767748e-002
6.402507e+002, 5.810679e-002
6.421792e+002, 5.906707e-002
6.441077e+002, 6.011564e-002
6.460361e+002, 6.109922e-002
6.479646e+002, 6.198580e-002
6.498931e+002, 6.277215e-002
6.518215e+002, 6.322481e-002
6.537500e+002, 6.386412e-002
6.556785e+002, 6.459457e-002
6.576069e+002, 6.528576e-002
6.595354e+002, 6.598300e-002
6.614639e+002, 6.678416e-002
6.633923e+002, 6.792798e-002
6.653208e+002, 6.885894e-002
6.672493e+002, 6.971114e-002
6.691777e+002, 7.072733e-002
6.711062e+002, 7.191150e-002
6.730347e+002, 7.368532e-002
6.749631e+002, 7.576147e-002
6.768916e+002, 7.747985e-002
6.788201e+002, 7.809472e-002
6.807485e+002, 7.800419e-002
6.826770e+002, 7.770872e-002
6.846055e+002, 7.642749e-002
6.865339e+002, 7.520063e-002
6.884624e+002, 7.414399e-002
6.903909e+002, 7.315900e-002
6.923193e+002, 7.217391e-002
6.942478e+002, 7.118756e-002
6.961763e+002, 6.966086e-002
6.981047e+002, 6.919201e-002
7.000332e+002, 6.782144e-002
##END=



