##NAMES=Vuagnatite
##RRUFFID=R050397
##IDEAL CHEMISTRY=CaAlSiO_4_(OH)
##LOCALITY=Red Mountain, Mendocino County, California, USA
##OWNER=RRUFF
##SOURCE=Marcus Origlieri
##DESCRIPTION=Colorless prismatic crystals
##STATUS=The identification of this mineral has been confirmed by X-ray diffraction and chemical analysis
##URL=rruff.info/R050397
##MEASURED CHEMISTRY=Ca_1.00_Al_1.00_(Si_1.00_O_4_)(OH)
3.741225e+002, 1.941102e-001
3.760510e+002, 2.029310e-001
3.779795e+002, 1.974435e-001
3.799079e+002, 1.951269e-001
3.818364e+002, 2.050657e-001
3.837649e+002, 2.218268e-001
3.856933e+002, 2.501458e-001
3.876218e+002, 2.557287e-001
3.895503e+002, 2.444675e-001
3.914787e+002, 2.316479e-001
3.934072e+002, 2.182782e-001
3.953357e+002, 2.169296e-001
3.972641e+002, 2.168450e-001
3.991926e+002, 2.132181e-001
4.011211e+002, 2.151585e-001
4.030495e+002, 2.226750e-001
4.049780e+002, 2.295223e-001
4.069065e+002, 2.267672e-001
4.088349e+002, 2.090667e-001
4.107634e+002, 1.962867e-001
4.126919e+002, 2.001816e-001
4.146203e+002, 2.144881e-001
4.165488e+002, 2.354633e-001
4.184773e+002, 2.544822e-001
4.204057e+002, 2.658165e-001
4.223342e+002, 2.761437e-001
4.242627e+002, 2.889156e-001
4.261911e+002, 2.982123e-001
4.281196e+002, 3.012479e-001
4.300481e+002, 3.042125e-001
4.319765e+002, 3.104653e-001
4.339050e+002, 3.125454e-001
4.358335e+002, 3.155887e-001
4.377619e+002, 3.211197e-001
4.396904e+002, 3.233836e-001
4.416189e+002, 3.216087e-001
4.435473e+002, 3.149059e-001
4.454758e+002, 2.980022e-001
4.474043e+002, 2.823895e-001
4.493327e+002, 2.732922e-001
4.512612e+002, 2.668788e-001
4.531897e+002, 2.588301e-001
4.551181e+002, 2.500905e-001
4.570466e+002, 2.426591e-001
4.589751e+002, 2.339921e-001
4.609035e+002, 2.244531e-001
4.628320e+002, 2.174894e-001
4.647605e+002, 2.116499e-001
4.666889e+002, 2.039088e-001
4.686174e+002, 1.954435e-001
4.705459e+002, 1.882553e-001
4.724743e+002, 1.819093e-001
4.744028e+002, 1.780577e-001
4.763313e+002, 1.764616e-001
4.782597e+002, 1.768010e-001
4.801882e+002, 1.817247e-001
4.821167e+002, 1.936994e-001
4.840451e+002, 2.099940e-001
4.859736e+002, 2.242912e-001
4.879021e+002, 2.308083e-001
4.898305e+002, 2.310977e-001
4.917590e+002, 2.273430e-001
4.936875e+002, 2.201957e-001
4.956159e+002, 2.112846e-001
4.975444e+002, 2.004015e-001
4.994729e+002, 1.891755e-001
5.014013e+002, 1.796324e-001
5.033298e+002, 1.713257e-001
5.052583e+002, 1.643616e-001
5.071867e+002, 1.595813e-001
5.091152e+002, 1.561169e-001
5.110437e+002, 1.537266e-001
5.129721e+002, 1.517525e-001
5.149006e+002, 1.510667e-001
5.168290e+002, 1.523536e-001
5.187575e+002, 1.549507e-001
5.206860e+002, 1.580906e-001
5.226144e+002, 1.619566e-001
5.245429e+002, 1.693799e-001
5.264714e+002, 1.794500e-001
5.283998e+002, 1.850916e-001
5.303283e+002, 1.843274e-001
5.322568e+002, 1.807832e-001
5.341852e+002, 1.770108e-001
5.361137e+002, 1.727664e-001
5.380422e+002, 1.695515e-001
5.399706e+002, 1.694528e-001
5.418991e+002, 1.725663e-001
5.438276e+002, 1.787255e-001
5.457560e+002, 1.875414e-001
5.476845e+002, 1.958321e-001
5.496130e+002, 1.983750e-001
5.515414e+002, 1.932213e-001
5.534699e+002, 1.831096e-001
5.553984e+002, 1.723585e-001
5.573268e+002, 1.680822e-001
5.592553e+002, 1.740319e-001
5.611838e+002, 1.799974e-001
5.631122e+002, 1.750567e-001
5.650407e+002, 1.656191e-001
5.669692e+002, 1.633140e-001
5.688976e+002, 1.707787e-001
5.708261e+002, 1.795554e-001
5.727546e+002, 1.812974e-001
5.746830e+002, 1.769471e-001
5.766115e+002, 1.707402e-001
5.785400e+002, 1.654198e-001
5.804684e+002, 1.618879e-001
5.823969e+002, 1.597008e-001
5.843254e+002, 1.570276e-001
5.862538e+002, 1.531312e-001
5.881823e+002, 1.472416e-001
5.901108e+002, 1.397050e-001
5.920392e+002, 1.341804e-001
5.939677e+002, 1.357868e-001
5.958962e+002, 1.462555e-001
5.978246e+002, 1.605142e-001
5.997531e+002, 1.670167e-001
6.016816e+002, 1.602629e-001
6.036100e+002, 1.476796e-001
6.055385e+002, 1.378602e-001
6.074670e+002, 1.308172e-001
6.093954e+002, 1.236209e-001
6.113239e+002, 1.150810e-001
6.132524e+002, 1.059087e-001
6.151808e+002, 9.673373e-002
6.171093e+002, 8.881084e-002
6.190378e+002, 8.279324e-002
6.209662e+002, 7.864889e-002
6.228947e+002, 7.596209e-002
6.248232e+002, 7.440410e-002
6.267516e+002, 7.435325e-002
6.286801e+002, 7.632780e-002
6.306086e+002, 7.998211e-002
6.325370e+002, 8.571324e-002
6.344655e+002, 9.386510e-002
6.363940e+002, 1.044836e-001
6.383224e+002, 1.181000e-001
6.402509e+002, 1.343710e-001
6.421794e+002, 1.523905e-001
6.441078e+002, 1.709515e-001
6.460363e+002, 1.883796e-001
6.479648e+002, 2.019867e-001
6.498932e+002, 2.099189e-001
6.518217e+002, 2.117277e-001
6.537502e+002, 2.083857e-001
6.556786e+002, 2.013691e-001
6.576071e+002, 1.917381e-001
6.595356e+002, 1.809539e-001
6.614641e+002, 1.693593e-001
6.633925e+002, 1.571733e-001
6.653210e+002, 1.453722e-001
6.672495e+002, 1.338856e-001
6.691779e+002, 1.224272e-001
6.711064e+002, 1.119538e-001
6.730349e+002, 1.031036e-001
6.749633e+002, 9.608056e-002
6.768918e+002, 9.112403e-002
6.788203e+002, 8.800178e-002
6.807487e+002, 8.649350e-002
6.826772e+002, 8.654634e-002
6.846057e+002, 8.769017e-002
6.865341e+002, 8.973926e-002
6.884626e+002, 9.225884e-002
6.903911e+002, 9.491631e-002
6.923195e+002, 9.796685e-002
6.942480e+002, 1.015478e-001
6.961765e+002, 1.053808e-001
6.981049e+002, 1.095814e-001
7.000334e+002, 1.141568e-001
7.019619e+002, 1.190807e-001
7.038903e+002, 1.244644e-001
7.058188e+002, 1.305599e-001
7.077473e+002, 1.370663e-001
7.096757e+002, 1.439847e-001
7.116042e+002, 1.516747e-001
7.135327e+002, 1.597256e-001
7.154611e+002, 1.679770e-001
7.173896e+002, 1.761374e-001
7.193181e+002, 1.836818e-001
7.212465e+002, 1.902924e-001
7.231750e+002, 1.949871e-001
7.251035e+002, 1.971782e-001
7.270319e+002, 1.966704e-001
7.289604e+002, 1.933316e-001
7.308889e+002, 1.869613e-001
7.328173e+002, 1.775045e-001
7.347458e+002, 1.650434e-001
7.366743e+002, 1.509040e-001
7.386027e+002, 1.367978e-001
7.405312e+002, 1.241690e-001
7.424597e+002, 1.138924e-001
7.443881e+002, 1.067409e-001
7.463166e+002, 1.030082e-001
7.482451e+002, 1.024068e-001
7.501735e+002, 1.045899e-001
7.521020e+002, 1.092240e-001
7.540305e+002, 1.158935e-001
7.559589e+002, 1.240440e-001
7.578874e+002, 1.334014e-001
7.598159e+002, 1.436991e-001
7.617443e+002, 1.543831e-001
7.636728e+002, 1.652097e-001
7.656013e+002, 1.762091e-001
7.675297e+002, 1.872466e-001
7.694582e+002, 1.979814e-001
7.713867e+002, 2.086730e-001
7.733151e+002, 2.192770e-001
7.752436e+002, 2.293806e-001
7.771721e+002, 2.385178e-001
7.791005e+002, 2.463234e-001
7.810290e+002, 2.526277e-001
7.829575e+002, 2.575040e-001
7.848859e+002, 2.609501e-001
7.868144e+002, 2.629497e-001
7.887429e+002, 2.639883e-001
7.906713e+002, 2.640503e-001
7.925998e+002, 2.629161e-001
7.945283e+002, 2.611876e-001
7.964567e+002, 2.589713e-001
7.983852e+002, 2.560861e-001
8.003137e+002, 2.528388e-001
8.022421e+002, 2.489799e-001
8.041706e+002, 2.446727e-001
8.060991e+002, 2.401639e-001
8.080275e+002, 2.346213e-001
8.099560e+002, 2.276409e-001
8.118845e+002, 2.200609e-001
8.138129e+002, 2.129972e-001
8.157414e+002, 2.070123e-001
8.176699e+002, 2.022882e-001
8.195983e+002, 1.984889e-001
8.215268e+002, 1.953041e-001
8.234553e+002, 1.925513e-001
8.253837e+002, 1.903004e-001
8.273122e+002, 1.885047e-001
8.292407e+002, 1.872454e-001
8.311691e+002, 1.866538e-001
8.330976e+002, 1.869495e-001
8.350261e+002, 1.882091e-001
8.369545e+002, 1.903860e-001
8.388830e+002, 1.933269e-001
8.408115e+002, 1.971267e-001
8.427399e+002, 2.021306e-001
8.446684e+002, 2.082667e-001
8.465969e+002, 2.153743e-001
8.485253e+002, 2.238458e-001
8.504538e+002, 2.338625e-001
8.523823e+002, 2.446630e-001
8.543107e+002, 2.555620e-001
8.562392e+002, 2.663341e-001
8.581677e+002, 2.763700e-001
8.600961e+002, 2.853835e-001
8.620246e+002, 2.934839e-001
8.639531e+002, 2.995842e-001
8.658815e+002, 3.031383e-001
8.678100e+002, 3.039927e-001
8.697385e+002, 3.013185e-001
8.716669e+002, 2.943620e-001
8.735954e+002, 2.832525e-001
8.755239e+002, 2.688472e-001
8.774523e+002, 2.524704e-001
8.793808e+002, 2.363329e-001
8.813093e+002, 2.227110e-001
8.832377e+002, 2.132264e-001
8.851662e+002, 2.096353e-001
8.870947e+002, 2.120514e-001
8.890231e+002, 2.177249e-001
8.909516e+002, 2.232801e-001
8.928801e+002, 2.274731e-001
8.948085e+002, 2.293968e-001
8.967370e+002, 2.277685e-001
8.986655e+002, 2.222800e-001
9.005939e+002, 2.142110e-001
9.025224e+002, 2.059338e-001
9.044509e+002, 1.993611e-001
9.063793e+002, 1.950781e-001
9.083078e+002, 1.928146e-001
9.102363e+002, 1.917901e-001
9.121647e+002, 1.914102e-001
9.140932e+002, 1.912681e-001
9.160217e+002, 1.911935e-001
9.179501e+002, 1.913658e-001
9.198786e+002, 1.917042e-001
9.218071e+002, 1.922039e-001
9.237355e+002, 1.930324e-001
9.256640e+002, 1.943774e-001
9.275925e+002, 1.960589e-001
9.295209e+002, 1.979347e-001
9.314494e+002, 2.004309e-001
9.333779e+002, 2.037483e-001
9.353063e+002, 2.079011e-001
9.372348e+002, 2.131222e-001
9.391633e+002, 2.195274e-001
9.410917e+002, 2.271489e-001
9.430202e+002, 2.357230e-001
9.449487e+002, 2.448491e-001
9.468771e+002, 2.530124e-001
9.488056e+002, 2.583908e-001
9.507341e+002, 2.600603e-001
9.526625e+002, 2.578305e-001
9.545910e+002, 2.523005e-001
9.565195e+002, 2.438818e-001
9.584479e+002, 2.335104e-001
9.603764e+002, 2.220931e-001
9.623049e+002, 2.101885e-001
9.642333e+002, 1.984134e-001
9.661618e+002, 1.871659e-001
9.680903e+002, 1.767579e-001
9.700187e+002, 1.670703e-001
9.719472e+002, 1.582539e-001
9.738757e+002, 1.502592e-001
9.758041e+002, 1.428953e-001
9.777326e+002, 1.362114e-001
9.796611e+002, 1.303363e-001
9.815895e+002, 1.250789e-001
9.835180e+002, 1.204380e-001
9.854465e+002, 1.162872e-001
9.873749e+002, 1.124503e-001
9.893034e+002, 1.091673e-001
9.912319e+002, 1.061827e-001
9.931603e+002, 1.028010e-001
9.950888e+002, 9.825059e-002
9.970173e+002, 9.254768e-002
9.989457e+002, 8.657128e-002
1.000874e+003, 8.070619e-002
1.002803e+003, 7.530082e-002
1.004731e+003, 7.063471e-002
1.006660e+003, 6.631681e-002
1.008588e+003, 6.218717e-002
1.010517e+003, 5.820217e-002
1.012445e+003, 5.455242e-002
1.014373e+003, 5.112404e-002
1.016302e+003, 4.774659e-002
1.018230e+003, 4.466859e-002
1.020159e+003, 4.182663e-002
1.022087e+003, 3.919131e-002
1.024016e+003, 3.673375e-002
1.025944e+003, 3.447680e-002
1.027873e+003, 3.255085e-002
1.029801e+003, 3.088287e-002
1.031730e+003, 2.953247e-002
1.033658e+003, 2.841217e-002
1.035587e+003, 2.736460e-002
1.037515e+003, 2.651423e-002
1.039443e+003, 2.589864e-002
1.041372e+003, 2.547477e-002
1.043300e+003, 2.500723e-002
1.045229e+003, 2.442167e-002
1.047157e+003, 2.389119e-002
1.049086e+003, 2.352041e-002
1.051014e+003, 2.330044e-002
1.052943e+003, 2.309755e-002
1.054871e+003, 2.275331e-002
1.056800e+003, 2.243416e-002
1.058728e+003, 2.220634e-002
1.060657e+003, 2.199970e-002
1.062585e+003, 2.177189e-002
1.064514e+003, 2.170167e-002
1.066442e+003, 2.163612e-002
1.068370e+003, 2.136996e-002
1.070299e+003, 2.128764e-002
1.072227e+003, 2.124868e-002
1.074156e+003, 2.108399e-002
1.076084e+003, 2.103351e-002
1.078013e+003, 2.102040e-002
1.079941e+003, 2.100493e-002
1.081870e+003, 2.099749e-002
1.083798e+003, 2.078891e-002
1.085727e+003, 2.053058e-002
1.087655e+003, 2.051789e-002
1.089584e+003, 2.060223e-002
1.091512e+003, 2.051968e-002
1.093441e+003, 2.031655e-002
1.095369e+003, 2.033045e-002
1.097297e+003, 2.054272e-002
1.099226e+003, 2.065922e-002
1.101154e+003, 2.047857e-002
1.103083e+003, 2.040878e-002
1.105011e+003, 2.069535e-002
1.106940e+003, 2.090666e-002
1.108868e+003, 2.094170e-002
1.110797e+003, 2.102855e-002
1.112725e+003, 2.114937e-002
1.114654e+003, 2.124209e-002
1.116582e+003, 2.150202e-002
1.118511e+003, 2.181178e-002
1.120439e+003, 2.211054e-002
1.122368e+003, 2.259484e-002
1.124296e+003, 2.330991e-002
1.126224e+003, 2.416984e-002
1.128153e+003, 2.509333e-002
1.130081e+003, 2.640697e-002
1.132010e+003, 2.793974e-002
1.133938e+003, 2.978926e-002
1.135867e+003, 3.236087e-002
1.137795e+003, 3.580872e-002
1.139724e+003, 4.016217e-002
1.141652e+003, 4.594724e-002
1.143581e+003, 5.385275e-002
1.145509e+003, 6.429521e-002
1.147438e+003, 7.736450e-002
1.149366e+003, 9.275559e-002
1.151295e+003, 1.095191e-001
1.153223e+003, 1.242726e-001
1.155151e+003, 1.319547e-001
1.157080e+003, 1.299454e-001
1.159008e+003, 1.208495e-001
1.160937e+003, 1.097870e-001
1.162865e+003, 9.889384e-002
1.164794e+003, 8.657909e-002
1.166722e+003, 7.442478e-002
1.168651e+003, 6.798042e-002
1.170579e+003, 6.731923e-002
1.172508e+003, 6.400499e-002
1.174436e+003, 5.321950e-002
1.176365e+003, 4.080880e-002
1.178293e+003, 3.192142e-002
1.180222e+003, 2.623568e-002
1.182150e+003, 2.245926e-002
1.184078e+003, 2.007065e-002
1.186007e+003, 1.848426e-002
1.187935e+003, 1.740528e-002
1.189864e+003, 1.659920e-002
1.191792e+003, 1.588997e-002
1.193721e+003, 1.545639e-002
1.195649e+003, 1.520601e-002
1.197578e+003, 1.498131e-002
1.199506e+003, 1.493897e-002
1.201435e+003, 1.496918e-002
1.203363e+003, 1.503465e-002
1.205292e+003, 1.533202e-002
1.207220e+003, 1.580253e-002
1.209149e+003, 1.642289e-002
1.211077e+003, 1.726651e-002
1.213005e+003, 1.832037e-002
1.214934e+003, 1.950560e-002
1.216862e+003, 2.104181e-002
1.218791e+003, 2.303925e-002
1.220719e+003, 2.554235e-002
1.222648e+003, 2.863195e-002
1.224576e+003, 3.274213e-002
1.226505e+003, 3.834460e-002
1.228433e+003, 4.586341e-002
1.230362e+003, 5.579770e-002
1.232290e+003, 6.860219e-002
1.234219e+003, 8.487348e-002
1.236147e+003, 1.048936e-001
1.238076e+003, 1.267617e-001
1.240004e+003, 1.443397e-001
1.241932e+003, 1.491443e-001
1.243861e+003, 1.423507e-001
1.245789e+003, 1.324572e-001
1.247718e+003, 1.232651e-001
1.249646e+003, 1.133049e-001
1.251575e+003, 1.001115e-001
1.253503e+003, 8.408047e-002
1.255432e+003, 6.733465e-002
1.257360e+003, 5.211469e-002
1.259289e+003, 3.969207e-002
1.261217e+003, 3.045375e-002
1.263146e+003, 2.401429e-002
1.265074e+003, 1.961614e-002
1.267003e+003, 1.648419e-002
1.268931e+003, 1.428923e-002
1.270859e+003, 1.265158e-002
1.272788e+003, 1.138462e-002
1.274716e+003, 1.050429e-002
1.276645e+003, 9.788643e-003
1.278573e+003, 9.226324e-003
1.280502e+003, 8.716563e-003
1.282430e+003, 8.249100e-003
1.284359e+003, 7.981439e-003
1.286287e+003, 7.827861e-003
1.288216e+003, 7.671932e-003
1.290144e+003, 7.429817e-003
1.292073e+003, 7.450164e-003
1.294001e+003, 7.493001e-003
1.295930e+003, 7.386079e-003
1.297858e+003, 7.301135e-003
1.299786e+003, 7.401821e-003
1.301715e+003, 7.500167e-003
1.303643e+003, 7.540212e-003
1.305572e+003, 7.538872e-003
1.307500e+003, 7.632946e-003
1.309429e+003, 7.742626e-003
1.311357e+003, 7.708312e-003
1.313286e+003, 7.707078e-003
1.315214e+003, 7.893693e-003
1.317143e+003, 8.043962e-003
1.319071e+003, 8.061501e-003
1.321000e+003, 8.106714e-003
1.322928e+003, 8.252516e-003
1.324857e+003, 8.414374e-003
1.326785e+003, 8.497912e-003
1.328714e+003, 8.565803e-003
1.330642e+003, 8.641424e-003
1.332570e+003, 8.823880e-003
1.334499e+003, 8.927573e-003
1.336427e+003, 8.971503e-003
1.338356e+003, 9.080834e-003
1.340284e+003, 9.179360e-003
1.342213e+003, 9.241589e-003
1.344141e+003, 9.273691e-003
1.346070e+003, 9.357102e-003
1.347998e+003, 9.561568e-003
1.349927e+003, 9.707929e-003
1.351855e+003, 9.739513e-003
1.353784e+003, 9.975825e-003
1.355712e+003, 1.020148e-002
1.357641e+003, 1.033262e-002
1.359569e+003, 1.055813e-002
1.361497e+003, 1.087735e-002
1.363426e+003, 1.115496e-002
1.365354e+003, 1.136172e-002
1.367283e+003, 1.165227e-002
1.369211e+003, 1.192564e-002
1.371140e+003, 1.216886e-002
1.373068e+003, 1.255213e-002
1.374997e+003, 1.288577e-002
1.376925e+003, 1.320293e-002
1.378854e+003, 1.341645e-002
1.380782e+003, 1.371334e-002
1.382711e+003, 1.412158e-002
1.384639e+003, 1.439854e-002
1.386568e+003, 1.469027e-002
1.388496e+003, 1.506135e-002
1.390424e+003, 1.546987e-002
1.392353e+003, 1.584438e-002
1.394281e+003, 1.620498e-002
1.396210e+003, 1.641531e-002
1.398138e+003, 1.672625e-002
1.400067e+003, 1.708641e-002
1.401995e+003, 1.738578e-002
1.403924e+003, 1.777439e-002
1.405852e+003, 1.800084e-002
1.407781e+003, 1.820913e-002
1.409709e+003, 1.851743e-002
1.411638e+003, 1.877107e-002
1.413566e+003, 1.897050e-002
1.415495e+003, 1.925770e-002
1.417423e+003, 1.954141e-002
1.419351e+003, 1.981864e-002
1.421280e+003, 1.991959e-002
1.423208e+003, 1.999099e-002
1.425137e+003, 2.010324e-002
1.427065e+003, 2.016375e-002
1.428994e+003, 2.033033e-002
1.430922e+003, 2.039651e-002
1.432851e+003, 2.046492e-002
1.434779e+003, 2.077188e-002
1.436708e+003, 2.093895e-002
1.438636e+003, 2.081052e-002
1.440565e+003, 2.069705e-002
1.442493e+003, 2.084817e-002
1.444422e+003, 2.092399e-002
1.446350e+003, 2.096887e-002
1.448278e+003, 2.109875e-002
1.450207e+003, 2.112481e-002
1.452135e+003, 2.113837e-002
1.454064e+003, 2.134393e-002
1.455992e+003, 2.168125e-002
1.457921e+003, 2.173007e-002
1.459849e+003, 2.156952e-002
1.461778e+003, 2.148677e-002
1.463706e+003, 2.161366e-002
1.465635e+003, 2.173519e-002
1.467563e+003, 2.168253e-002
1.469492e+003, 2.182705e-002
1.471420e+003, 2.217053e-002
1.473349e+003, 2.233202e-002
1.475277e+003, 2.228209e-002
1.477205e+003, 2.232743e-002
1.479134e+003, 2.238794e-002
1.481062e+003, 2.248294e-002
1.482991e+003, 2.250555e-002
1.484919e+003, 2.263224e-002
1.486848e+003, 2.293968e-002
1.488776e+003, 2.314794e-002
1.490705e+003, 2.330408e-002
1.492633e+003, 2.333053e-002
1.494562e+003, 2.329112e-002
1.496490e+003, 2.350407e-002
1.498419e+003, 2.361415e-002
1.500347e+003, 2.343359e-002
1.502276e+003, 2.324589e-002
1.504204e+003, 2.340626e-002
1.506132e+003, 2.372692e-002
1.508061e+003, 2.363342e-002
1.509989e+003, 2.329023e-002
1.511918e+003, 2.314243e-002
1.513846e+003, 2.301307e-002
1.515775e+003, 2.303630e-002
1.517703e+003, 2.315983e-002
1.519632e+003, 2.313116e-002
1.521560e+003, 2.310199e-002
1.523489e+003, 2.296254e-002
1.525417e+003, 2.290015e-002
1.527346e+003, 2.284429e-002
1.529274e+003, 2.287313e-002
1.531203e+003, 2.286165e-002
1.533131e+003, 2.291336e-002
1.535059e+003, 2.292892e-002
1.536988e+003, 2.313765e-002
1.538916e+003, 2.364380e-002
1.540845e+003, 2.371474e-002
1.542773e+003, 2.345117e-002
1.544702e+003, 2.342165e-002
1.546630e+003, 2.349537e-002
1.548559e+003, 2.364471e-002
1.550487e+003, 2.396092e-002
1.552416e+003, 2.415369e-002
1.554344e+003, 2.437535e-002
1.556273e+003, 2.463108e-002
1.558201e+003, 2.510789e-002
1.560130e+003, 2.524772e-002
1.562058e+003, 2.497208e-002
1.563986e+003, 2.488098e-002
1.565915e+003, 2.485182e-002
1.567843e+003, 2.499607e-002
1.569772e+003, 2.519767e-002
1.571700e+003, 2.511775e-002
1.573629e+003, 2.523139e-002
1.575557e+003, 2.562458e-002
1.577486e+003, 2.561725e-002
1.579414e+003, 2.556768e-002
1.581343e+003, 2.578308e-002
1.583271e+003, 2.588342e-002
1.585200e+003, 2.595329e-002
1.587128e+003, 2.611900e-002
1.589057e+003, 2.635424e-002
1.590985e+003, 2.651735e-002
1.592913e+003, 2.676458e-002
1.594842e+003, 2.685757e-002
1.596770e+003, 2.688812e-002
1.598699e+003, 2.699097e-002
1.600627e+003, 2.706593e-002
1.602556e+003, 2.713923e-002
1.604484e+003, 2.717841e-002
1.606413e+003, 2.708014e-002
1.608341e+003, 2.709554e-002
1.610270e+003, 2.721095e-002
1.612198e+003, 2.733552e-002
1.614127e+003, 2.751755e-002
1.616055e+003, 2.794521e-002
1.617984e+003, 2.805728e-002
1.619912e+003, 2.806832e-002
1.621840e+003, 2.821125e-002
1.623769e+003, 2.850244e-002
1.625697e+003, 2.876365e-002
1.627626e+003, 2.888664e-002
1.629554e+003, 2.905007e-002
1.631483e+003, 2.920595e-002
1.633411e+003, 2.953770e-002
1.635340e+003, 3.011146e-002
1.637268e+003, 3.028803e-002
1.639197e+003, 3.041139e-002
1.641125e+003, 3.066302e-002
1.643054e+003, 3.091449e-002
1.644982e+003, 3.128786e-002
1.646911e+003, 3.155851e-002
1.648839e+003, 3.158895e-002
1.650767e+003, 3.207900e-002
1.652696e+003, 3.293179e-002
1.654624e+003, 3.280756e-002
1.656553e+003, 3.262763e-002
1.658481e+003, 3.295473e-002
1.660410e+003, 3.328544e-002
1.662338e+003, 3.363859e-002
1.664267e+003, 3.374169e-002
1.666195e+003, 3.377125e-002
1.668124e+003, 3.405378e-002
1.670052e+003, 3.437340e-002
1.671981e+003, 3.436395e-002
1.673909e+003, 3.446784e-002
1.675838e+003, 3.469441e-002
1.677766e+003, 3.470315e-002
1.679694e+003, 3.477391e-002
1.681623e+003, 3.489034e-002
1.683551e+003, 3.525699e-002
1.685480e+003, 3.533136e-002
1.687408e+003, 3.508891e-002
1.689337e+003, 3.507910e-002
1.691265e+003, 3.514607e-002
1.693194e+003, 3.523446e-002
1.695122e+003, 3.563264e-002
1.697051e+003, 3.573898e-002
1.698979e+003, 3.582953e-002
1.700908e+003, 3.589741e-002
1.702836e+003, 3.569033e-002
1.704765e+003, 3.594608e-002
1.706693e+003, 3.603637e-002
1.708621e+003, 3.586066e-002
1.710550e+003, 3.589210e-002
1.712478e+003, 3.617282e-002
1.714407e+003, 3.636326e-002
1.716335e+003, 3.670053e-002
1.718264e+003, 3.681635e-002
1.720192e+003, 3.670487e-002
1.722121e+003, 3.689462e-002
1.724049e+003, 3.717741e-002
1.725978e+003, 3.749262e-002
1.727906e+003, 3.777217e-002
1.729835e+003, 3.786388e-002
1.731763e+003, 3.821205e-002
1.733692e+003, 3.876723e-002
1.735620e+003, 3.872922e-002
1.737548e+003, 3.850430e-002
1.739477e+003, 3.855437e-002
1.741405e+003, 3.848515e-002
1.743334e+003, 3.863043e-002
1.745262e+003, 3.882848e-002
1.747191e+003, 3.896151e-002
1.749119e+003, 3.948005e-002
1.751048e+003, 3.982493e-002
1.752976e+003, 3.987681e-002
1.754905e+003, 4.014424e-002
1.756833e+003, 4.039933e-002
1.758762e+003, 4.041646e-002
1.760690e+003, 4.065284e-002
1.762619e+003, 4.106737e-002
1.764547e+003, 4.103995e-002
1.766475e+003, 4.097977e-002
1.768404e+003, 4.128328e-002
1.770332e+003, 4.169105e-002
1.772261e+003, 4.187553e-002
1.774189e+003, 4.181545e-002
1.776118e+003, 4.181828e-002
1.778046e+003, 4.213933e-002
1.779975e+003, 4.240437e-002
1.781903e+003, 4.275287e-002
1.783832e+003, 4.317719e-002
1.785760e+003, 4.347584e-002
1.787689e+003, 4.355361e-002
1.789617e+003, 4.376237e-002
1.791546e+003, 4.406007e-002
1.793474e+003, 4.425549e-002
1.795402e+003, 4.446165e-002
1.797331e+003, 4.466351e-002
1.799259e+003, 4.488770e-002
1.801188e+003, 4.506142e-002
1.803116e+003, 4.514321e-002
1.805045e+003, 4.528495e-002
1.806973e+003, 4.561375e-002
1.808902e+003, 4.591892e-002
1.810830e+003, 4.627638e-002
1.812759e+003, 4.657938e-002
1.814687e+003, 4.670025e-002
1.816616e+003, 4.693824e-002
1.818544e+003, 4.734755e-002
1.820473e+003, 4.781840e-002
1.822401e+003, 4.806383e-002
1.824329e+003, 4.857550e-002
1.826258e+003, 4.891101e-002
1.828186e+003, 4.922409e-002
1.830115e+003, 4.961532e-002
1.832043e+003, 4.982437e-002
1.833972e+003, 5.007597e-002
1.835900e+003, 5.054734e-002
1.837829e+003, 5.097942e-002
1.839757e+003, 5.146163e-002
1.841686e+003, 5.183591e-002
1.843614e+003, 5.217473e-002
1.845543e+003, 5.236481e-002
1.847471e+003, 5.264704e-002
1.849400e+003, 5.296521e-002
1.851328e+003, 5.347550e-002
1.853256e+003, 5.407846e-002
1.855185e+003, 5.470130e-002
1.857113e+003, 5.523353e-002
1.859042e+003, 5.551684e-002
1.860970e+003, 5.562304e-002
1.862899e+003, 5.573173e-002
1.864827e+003, 5.598757e-002
1.866756e+003, 5.650293e-002
1.868684e+003, 5.683234e-002
1.870613e+003, 5.715169e-002
1.872541e+003, 5.729829e-002
1.874470e+003, 5.724308e-002
1.876398e+003, 5.740116e-002
1.878327e+003, 5.779158e-002
1.880255e+003, 5.775315e-002
1.882183e+003, 5.767069e-002
1.884112e+003, 5.787228e-002
1.886040e+003, 5.814141e-002
1.887969e+003, 5.841888e-002
1.889897e+003, 5.884902e-002
1.891826e+003, 5.935763e-002
1.893754e+003, 5.953348e-002
1.895683e+003, 5.976430e-002
1.897611e+003, 6.032041e-002
1.899540e+003, 6.086151e-002
1.901468e+003, 6.161949e-002
1.903397e+003, 6.180690e-002
1.905325e+003, 6.193531e-002
1.907254e+003, 6.235898e-002
1.909182e+003, 6.318212e-002
1.911110e+003, 6.373961e-002
1.913039e+003, 6.411042e-002
1.914967e+003, 6.472458e-002
1.916896e+003, 6.517466e-002
1.918824e+003, 6.561022e-002
1.920753e+003, 6.591237e-002
1.922681e+003, 6.621408e-002
1.924610e+003, 6.685754e-002
1.926538e+003, 6.751569e-002
1.928467e+003, 6.760129e-002
1.930395e+003, 6.778094e-002
1.932324e+003, 6.813859e-002
1.934252e+003, 6.827763e-002
1.936181e+003, 6.865452e-002
1.938109e+003, 6.884534e-002
1.940037e+003, 6.906579e-002
1.941966e+003, 6.909051e-002
1.943894e+003, 6.929350e-002
1.945823e+003, 6.925315e-002
1.947751e+003, 6.924718e-002
1.949680e+003, 6.978934e-002
1.951608e+003, 7.017113e-002
1.953537e+003, 6.959281e-002
1.955465e+003, 6.894114e-002
1.957394e+003, 6.892901e-002
1.959322e+003, 6.882621e-002
1.961251e+003, 6.947142e-002
1.963179e+003, 7.000452e-002
1.965108e+003, 7.001067e-002
1.967036e+003, 7.002503e-002
1.968964e+003, 6.964210e-002
1.970893e+003, 7.003122e-002
1.972821e+003, 7.079744e-002
1.974750e+003, 7.123720e-002
1.976678e+003, 7.227556e-002
1.978607e+003, 7.292180e-002
1.980535e+003, 7.205308e-002
1.982464e+003, 7.225197e-002
1.984392e+003, 7.342395e-002
1.986321e+003, 7.329236e-002
1.988249e+003, 7.222828e-002
1.990178e+003, 7.242662e-002
1.992106e+003, 7.387477e-002
1.994035e+003, 7.485886e-002
1.995963e+003, 7.430611e-002
1.997891e+003, 7.379311e-002
1.999820e+003, 7.340916e-002
2.001748e+003, 7.363398e-002
2.003677e+003, 7.381086e-002
2.005605e+003, 7.418606e-002
2.007534e+003, 7.497721e-002
2.009462e+003, 7.575169e-002
2.011391e+003, 7.539294e-002
2.013319e+003, 7.444748e-002
2.015248e+003, 7.402364e-002
2.017176e+003, 7.464069e-002
2.019105e+003, 7.495897e-002
2.021033e+003, 7.499476e-002
2.022962e+003, 7.515290e-002
2.024890e+003, 7.532754e-002
2.026818e+003, 7.532297e-002
2.028747e+003, 7.542466e-002
2.030675e+003, 7.610875e-002
2.032604e+003, 7.664067e-002
2.034532e+003, 7.643689e-002
2.036461e+003, 7.629219e-002
2.038389e+003, 7.618834e-002
2.040318e+003, 7.591530e-002
2.042246e+003, 7.566613e-002
2.044175e+003, 7.517332e-002
2.046103e+003, 7.465275e-002
2.048031e+003, 7.440195e-002
2.049960e+003, 7.438310e-002
2.051888e+003, 7.370651e-002
2.053817e+003, 7.275429e-002
2.055745e+003, 7.266209e-002
2.057674e+003, 7.212274e-002
2.059602e+003, 7.148129e-002
2.061531e+003, 7.066612e-002
2.063459e+003, 7.007657e-002
2.065388e+003, 7.033508e-002
2.067316e+003, 7.035290e-002
2.069245e+003, 7.010848e-002
2.071173e+003, 7.031457e-002
2.073102e+003, 7.055409e-002
2.075030e+003, 7.015584e-002
2.076958e+003, 6.982336e-002
2.078887e+003, 6.985590e-002
2.080815e+003, 6.966791e-002
2.082744e+003, 6.904101e-002
2.084672e+003, 6.866824e-002
2.086601e+003, 6.878614e-002
2.088529e+003, 6.860389e-002
2.090458e+003, 6.832910e-002
2.092386e+003, 6.799763e-002
2.094315e+003, 6.777331e-002
2.096243e+003, 6.802835e-002
2.098172e+003, 6.777059e-002
2.100100e+003, 6.722493e-002
2.102029e+003, 6.710187e-002
2.103957e+003, 6.693515e-002
2.105885e+003, 6.714682e-002
2.107814e+003, 6.723958e-002
2.109742e+003, 6.703527e-002
2.111671e+003, 6.623432e-002
2.113599e+003, 6.596192e-002
2.115528e+003, 6.590500e-002
2.117456e+003, 6.589528e-002
2.119385e+003, 6.564581e-002
2.121313e+003, 6.503919e-002
2.123242e+003, 6.444836e-002
2.125170e+003, 6.380715e-002
2.127099e+003, 6.285412e-002
2.129027e+003, 6.226405e-002
2.130956e+003, 6.176920e-002
2.132884e+003, 6.138143e-002
2.134813e+003, 6.122503e-002
2.136741e+003, 6.080503e-002
2.138669e+003, 5.995143e-002
2.140598e+003, 6.014213e-002
2.142526e+003, 6.052878e-002
2.144455e+003, 5.988012e-002
2.146383e+003, 5.929371e-002
2.148312e+003, 5.911769e-002
2.150240e+003, 5.825153e-002
2.152169e+003, 5.798551e-002
2.154097e+003, 5.792630e-002
2.156026e+003, 5.764373e-002
2.157954e+003, 5.901700e-002
2.159883e+003, 6.164224e-002
2.161811e+003, 6.181157e-002
2.163740e+003, 6.090285e-002
2.165668e+003, 5.967628e-002
2.167596e+003, 5.838353e-002
2.169525e+003, 5.732869e-002
2.171453e+003, 5.601868e-002
2.173382e+003, 5.497664e-002
2.175310e+003, 5.491954e-002
2.177239e+003, 5.534975e-002
2.179167e+003, 5.485239e-002
2.181096e+003, 5.392893e-002
2.183024e+003, 5.385074e-002
2.184953e+003, 5.328725e-002
2.186881e+003, 5.235281e-002
2.188810e+003, 5.129747e-002
2.190738e+003, 5.017549e-002
2.192667e+003, 4.978735e-002
2.194595e+003, 4.902155e-002
2.196523e+003, 4.757344e-002
2.198452e+003, 4.627475e-002
2.200380e+003, 4.524249e-002
2.202309e+003, 4.419938e-002
2.204237e+003, 4.266858e-002
2.206166e+003, 4.197222e-002
2.208094e+003, 4.120091e-002
2.210023e+003, 4.003995e-002
2.211951e+003, 3.926991e-002
2.213880e+003, 3.842485e-002
2.215808e+003, 3.759372e-002
2.217737e+003, 3.685562e-002
2.219665e+003, 3.612611e-002
2.221594e+003, 3.557756e-002
2.223522e+003, 3.420690e-002
2.225450e+003, 3.291260e-002
2.227379e+003, 3.267894e-002
2.229307e+003, 3.203718e-002
2.231236e+003, 3.123643e-002
2.233164e+003, 3.084963e-002
2.235093e+003, 2.976019e-002
2.237021e+003, 2.841478e-002
2.238950e+003, 2.762174e-002
2.240878e+003, 2.728276e-002
2.242807e+003, 2.654976e-002
2.244735e+003, 2.539830e-002
2.246664e+003, 2.489123e-002
2.248592e+003, 2.467622e-002
2.250521e+003, 2.414018e-002
2.252449e+003, 2.303690e-002
2.254377e+003, 2.274564e-002
2.256306e+003, 2.274092e-002
2.258234e+003, 2.204328e-002
2.260163e+003, 2.151303e-002
2.262091e+003, 2.112902e-002
2.264020e+003, 2.027648e-002
2.265948e+003, 2.002660e-002
2.267877e+003, 2.027075e-002
2.269805e+003, 2.022742e-002
2.271734e+003, 1.986236e-002
2.273662e+003, 1.995962e-002
2.275591e+003, 2.099529e-002
2.277519e+003, 2.140236e-002
2.279448e+003, 2.128542e-002
2.281376e+003, 2.151894e-002
2.283304e+003, 2.197352e-002
2.285233e+003, 2.244971e-002
2.287161e+003, 2.261068e-002
2.289090e+003, 2.231693e-002
2.291018e+003, 2.237774e-002
2.292947e+003, 2.290449e-002
2.294875e+003, 2.310405e-002
2.296804e+003, 2.333986e-002
2.298732e+003, 2.379907e-002
2.300661e+003, 2.431927e-002
2.302589e+003, 2.467109e-002
2.304518e+003, 2.469433e-002
2.306446e+003, 2.491398e-002
2.308375e+003, 2.561746e-002
2.310303e+003, 2.666862e-002
2.312231e+003, 2.743749e-002
2.314160e+003, 2.805668e-002
2.316088e+003, 2.874158e-002
2.318017e+003, 2.930394e-002
2.319945e+003, 3.018117e-002
2.321874e+003, 3.120368e-002
2.323802e+003, 3.210634e-002
2.325731e+003, 3.212845e-002
2.327659e+003, 3.195002e-002
2.329588e+003, 3.238136e-002
2.331516e+003, 3.299270e-002
2.333445e+003, 3.371012e-002
2.335373e+003, 3.455116e-002
2.337302e+003, 3.521242e-002
2.339230e+003, 3.556210e-002
2.341158e+003, 3.571007e-002
2.343087e+003, 3.593676e-002
2.345015e+003, 3.618465e-002
2.346944e+003, 3.676482e-002
2.348872e+003, 3.755344e-002
2.350801e+003, 3.823194e-002
2.352729e+003, 3.910379e-002
2.354658e+003, 3.990907e-002
2.356586e+003, 4.055509e-002
2.358515e+003, 4.126871e-002
2.360443e+003, 4.189378e-002
2.362372e+003, 4.222575e-002
2.364300e+003, 4.228218e-002
2.366229e+003, 4.268593e-002
2.368157e+003, 4.320105e-002
2.370085e+003, 4.340200e-002
2.372014e+003, 4.367664e-002
2.373942e+003, 4.362378e-002
2.375871e+003, 4.363096e-002
2.377799e+003, 4.396033e-002
2.379728e+003, 4.396792e-002
2.381656e+003, 4.377441e-002
2.383585e+003, 4.415143e-002
2.385513e+003, 4.453530e-002
2.387442e+003, 4.451763e-002
2.389370e+003, 4.438708e-002
2.391299e+003, 4.430614e-002
2.393227e+003, 4.429594e-002
2.395156e+003, 4.431831e-002
2.397084e+003, 4.419114e-002
2.399012e+003, 4.394823e-002
2.400941e+003, 4.373423e-002
2.402869e+003, 4.332094e-002
2.404798e+003, 4.281415e-002
2.406726e+003, 4.264337e-002
2.408655e+003, 4.253772e-002
2.410583e+003, 4.223659e-002
2.412512e+003, 4.212183e-002
2.414440e+003, 4.226943e-002
2.416369e+003, 4.217050e-002
2.418297e+003, 4.188181e-002
2.420226e+003, 4.176291e-002
2.422154e+003, 4.182600e-002
2.424083e+003, 4.140057e-002
2.426011e+003, 4.060594e-002
2.427939e+003, 3.980840e-002
2.429868e+003, 3.900360e-002
2.431796e+003, 3.784237e-002
2.433725e+003, 3.665765e-002
2.435653e+003, 3.524316e-002
2.437582e+003, 3.410375e-002
2.439510e+003, 3.319903e-002
2.441439e+003, 3.196630e-002
2.443367e+003, 3.027182e-002
2.445296e+003, 2.849592e-002
2.447224e+003, 2.682268e-002
2.449153e+003, 2.551422e-002
2.451081e+003, 2.449491e-002
2.453010e+003, 2.332186e-002
2.454938e+003, 2.222617e-002
2.456866e+003, 2.135071e-002
2.458795e+003, 2.061968e-002
2.460723e+003, 1.988119e-002
2.462652e+003, 1.928636e-002
2.464580e+003, 1.909910e-002
2.466509e+003, 1.913043e-002
2.468437e+003, 1.907279e-002
2.470366e+003, 1.886707e-002
2.472294e+003, 1.865506e-002
2.474223e+003, 1.903187e-002
2.476151e+003, 1.964397e-002
2.478080e+003, 2.037967e-002
2.480008e+003, 2.086510e-002
2.481937e+003, 2.111427e-002
2.483865e+003, 2.162714e-002
2.485793e+003, 2.251806e-002
2.487722e+003, 2.315466e-002
2.489650e+003, 2.353271e-002
2.491579e+003, 2.428742e-002
2.493507e+003, 2.499102e-002
2.495436e+003, 2.533574e-002
2.497364e+003, 2.588358e-002
2.499293e+003, 2.690574e-002
2.501221e+003, 2.784798e-002
2.503150e+003, 2.856412e-002
2.505078e+003, 2.902532e-002
2.507007e+003, 3.020316e-002
2.508935e+003, 3.133729e-002
2.510864e+003, 3.188244e-002
2.512792e+003, 3.245727e-002
2.514720e+003, 3.318843e-002
2.516649e+003, 3.407502e-002
2.518577e+003, 3.514835e-002
2.520506e+003, 3.613400e-002
2.522434e+003, 3.704519e-002
2.524363e+003, 3.792294e-002
2.526291e+003, 3.864067e-002
2.528220e+003, 3.933244e-002
2.530148e+003, 4.008649e-002
2.532077e+003, 4.047439e-002
2.534005e+003, 4.118549e-002
2.535934e+003, 4.210563e-002
2.537862e+003, 4.297844e-002
2.539791e+003, 4.333996e-002
2.541719e+003, 4.370735e-002
2.543647e+003, 4.431974e-002
2.545576e+003, 4.467227e-002
2.547504e+003, 4.501456e-002
2.549433e+003, 4.539797e-002
2.551361e+003, 4.545671e-002
2.553290e+003, 4.596539e-002
2.555218e+003, 4.639438e-002
2.557147e+003, 4.684310e-002
2.559075e+003, 4.707967e-002
2.561004e+003, 4.700794e-002
2.562932e+003, 4.741103e-002
2.564861e+003, 4.784221e-002
2.566789e+003, 4.774928e-002
2.568718e+003, 4.803872e-002
2.570646e+003, 4.870917e-002
2.572574e+003, 4.898562e-002
2.574503e+003, 4.899997e-002
2.576431e+003, 4.890244e-002
2.578360e+003, 4.903151e-002
2.580288e+003, 4.942786e-002
2.582217e+003, 4.929679e-002
2.584145e+003, 4.924736e-002
2.586074e+003, 4.974574e-002
2.588002e+003, 5.023747e-002
2.589931e+003, 5.044425e-002
2.591859e+003, 5.066748e-002
2.593788e+003, 5.051649e-002
2.595716e+003, 5.023747e-002
2.597645e+003, 5.025310e-002
2.599573e+003, 5.045280e-002
2.601501e+003, 5.086426e-002
2.603430e+003, 5.122289e-002
2.605358e+003, 5.100379e-002
2.607287e+003, 5.078302e-002
2.609215e+003, 5.086941e-002
2.611144e+003, 5.122793e-002
2.613072e+003, 5.131975e-002
2.615001e+003, 5.128728e-002
2.616929e+003, 5.113516e-002
2.618858e+003, 5.112701e-002
2.620786e+003, 5.103868e-002
2.622715e+003, 5.111777e-002
2.624643e+003, 5.115800e-002
2.626572e+003, 5.113405e-002
2.628500e+003, 5.098434e-002
2.630428e+003, 5.069552e-002
2.632357e+003, 5.035819e-002
2.634285e+003, 5.040822e-002
2.636214e+003, 5.039090e-002
2.638142e+003, 5.020947e-002
2.640071e+003, 4.984155e-002
2.641999e+003, 4.994396e-002
2.643928e+003, 5.016636e-002
2.645856e+003, 4.987853e-002
2.647785e+003, 4.951794e-002
2.649713e+003, 4.956162e-002
2.651642e+003, 4.953449e-002
2.653570e+003, 4.935135e-002
2.655499e+003, 4.885128e-002
2.657427e+003, 4.845821e-002
2.659355e+003, 4.813918e-002
2.661284e+003, 4.786285e-002
2.663212e+003, 4.775112e-002
2.665141e+003, 4.759024e-002
2.667069e+003, 4.725430e-002
2.668998e+003, 4.725743e-002
2.670926e+003, 4.707018e-002
2.672855e+003, 4.652428e-002
2.674783e+003, 4.613808e-002
2.676712e+003, 4.582146e-002
2.678640e+003, 4.513688e-002
2.680569e+003, 4.494439e-002
2.682497e+003, 4.515041e-002
2.684426e+003, 4.512360e-002
2.686354e+003, 4.456403e-002
2.688282e+003, 4.412850e-002
2.690211e+003, 4.422801e-002
2.692139e+003, 4.402618e-002
2.694068e+003, 4.355415e-002
2.695996e+003, 4.334383e-002
2.697925e+003, 4.328031e-002
2.699853e+003, 4.316942e-002
2.701782e+003, 4.278971e-002
2.703710e+003, 4.243854e-002
2.705639e+003, 4.219706e-002
2.707567e+003, 4.182854e-002
2.709496e+003, 4.157018e-002
2.711424e+003, 4.141372e-002
2.713353e+003, 4.125071e-002
2.715281e+003, 4.109835e-002
2.717209e+003, 4.087456e-002
2.719138e+003, 4.069121e-002
2.721066e+003, 4.059875e-002
2.722995e+003, 4.041680e-002
2.724923e+003, 4.031397e-002
2.726852e+003, 4.012742e-002
2.728780e+003, 3.972208e-002
2.730709e+003, 3.930085e-002
2.732637e+003, 3.901707e-002
2.734566e+003, 3.878414e-002
2.736494e+003, 3.860466e-002
2.738423e+003, 3.843927e-002
2.740351e+003, 3.826051e-002
2.742280e+003, 3.824764e-002
2.744208e+003, 3.831924e-002
2.746136e+003, 3.801630e-002
2.748065e+003, 3.774768e-002
2.749993e+003, 3.770176e-002
2.751922e+003, 3.749662e-002
2.753850e+003, 3.727068e-002
2.755779e+003, 3.699218e-002
2.757707e+003, 3.678013e-002
2.759636e+003, 3.664123e-002
2.761564e+003, 3.669853e-002
2.763493e+003, 3.653262e-002
2.765421e+003, 3.647480e-002
2.767350e+003, 3.632832e-002
2.769278e+003, 3.608970e-002
2.771207e+003, 3.591029e-002
2.773135e+003, 3.567014e-002
2.775063e+003, 3.534323e-002
2.776992e+003, 3.497436e-002
2.778920e+003, 3.492187e-002
2.780849e+003, 3.506362e-002
2.782777e+003, 3.508196e-002
2.784706e+003, 3.504463e-002
2.786634e+003, 3.476678e-002
2.788563e+003, 3.460943e-002
2.790491e+003, 3.455820e-002
2.792420e+003, 3.436590e-002
2.794348e+003, 3.400156e-002
2.796277e+003, 3.387124e-002
2.798205e+003, 3.377801e-002
2.800134e+003, 3.353383e-002
2.802062e+003, 3.334841e-002
2.803990e+003, 3.327826e-002
2.805919e+003, 3.331299e-002
2.807847e+003, 3.338141e-002
2.809776e+003, 3.321566e-002
2.811704e+003, 3.295416e-002
2.813633e+003, 3.270354e-002
2.815561e+003, 3.285762e-002
2.817490e+003, 3.305640e-002
2.819418e+003, 3.287250e-002
2.821347e+003, 3.272349e-002
2.823275e+003, 3.287692e-002
2.825204e+003, 3.290014e-002
2.827132e+003, 3.276000e-002
2.829061e+003, 3.269465e-002
2.830989e+003, 3.273553e-002
2.832917e+003, 3.246432e-002
2.834846e+003, 3.237832e-002
2.836774e+003, 3.244502e-002
2.838703e+003, 3.204814e-002
2.840631e+003, 3.169922e-002
2.842560e+003, 3.165039e-002
2.844488e+003, 3.164740e-002
2.846417e+003, 3.156174e-002
2.848345e+003, 3.124644e-002
2.850274e+003, 3.099091e-002
2.852202e+003, 3.104821e-002
2.854131e+003, 3.111149e-002
2.856059e+003, 3.084831e-002
2.857988e+003, 3.092118e-002
2.859916e+003, 3.107525e-002
2.861844e+003, 3.114384e-002
2.863773e+003, 3.092336e-002
2.865701e+003, 3.094799e-002
2.867630e+003, 3.119794e-002
2.869558e+003, 3.132587e-002
2.871487e+003, 3.122371e-002
2.873415e+003, 3.108176e-002
2.875344e+003, 3.098268e-002
2.877272e+003, 3.104480e-002
2.879201e+003, 3.097543e-002
2.881129e+003, 3.089138e-002
2.883058e+003, 3.063509e-002
2.884986e+003, 3.025528e-002
2.886915e+003, 3.010227e-002
2.888843e+003, 3.035643e-002
2.890771e+003, 3.061458e-002
2.892700e+003, 3.054063e-002
2.894628e+003, 3.045683e-002
2.896557e+003, 3.053189e-002
2.898485e+003, 3.034786e-002
2.900414e+003, 3.017904e-002
2.902342e+003, 3.025703e-002
2.904271e+003, 3.019237e-002
2.906199e+003, 3.012336e-002
2.908128e+003, 2.994599e-002
2.910056e+003, 2.982427e-002
2.911985e+003, 2.983435e-002
2.913913e+003, 2.952566e-002
2.915842e+003, 2.941328e-002
2.917770e+003, 2.921368e-002
2.919698e+003, 2.909440e-002
2.921627e+003, 2.915304e-002
2.923555e+003, 2.920321e-002
2.925484e+003, 2.920184e-002
2.927412e+003, 2.896723e-002
2.929341e+003, 2.889179e-002
2.931269e+003, 2.909572e-002
2.933198e+003, 2.901215e-002
2.935126e+003, 2.916614e-002
2.937055e+003, 2.920751e-002
2.938983e+003, 2.924074e-002
2.940912e+003, 2.943322e-002
2.942840e+003, 2.923152e-002
2.944769e+003, 2.879234e-002
2.946697e+003, 2.883627e-002
2.948625e+003, 2.918524e-002
2.950554e+003, 2.926874e-002
2.952482e+003, 2.919649e-002
2.954411e+003, 2.913815e-002
2.956339e+003, 2.919174e-002
2.958268e+003, 2.943712e-002
2.960196e+003, 2.952395e-002
2.962125e+003, 2.962704e-002
2.964053e+003, 2.965980e-002
2.965982e+003, 2.944460e-002
2.967910e+003, 2.905462e-002
2.969839e+003, 2.897054e-002
2.971767e+003, 2.889469e-002
2.973696e+003, 2.864907e-002
2.975624e+003, 2.878671e-002
2.977552e+003, 2.884229e-002
2.979481e+003, 2.858985e-002
2.981409e+003, 2.840497e-002
2.983338e+003, 2.835585e-002
2.985266e+003, 2.836548e-002
2.987195e+003, 2.829064e-002
2.989123e+003, 2.834210e-002
2.991052e+003, 2.826396e-002
2.992980e+003, 2.821843e-002
2.994909e+003, 2.850275e-002
2.996837e+003, 2.862869e-002
2.998766e+003, 2.845465e-002
3.000694e+003, 2.850557e-002
3.002623e+003, 2.867847e-002
3.004551e+003, 2.866788e-002
3.006479e+003, 2.855035e-002
3.008408e+003, 2.843999e-002
3.010336e+003, 2.863448e-002
3.012265e+003, 2.871292e-002
3.014193e+003, 2.857195e-002
3.016122e+003, 2.886298e-002
3.018050e+003, 2.877092e-002
3.019979e+003, 2.867506e-002
3.021907e+003, 2.881957e-002
3.023836e+003, 2.888087e-002
3.025764e+003, 2.896621e-002
3.027693e+003, 2.899575e-002
3.029621e+003, 2.895809e-002
3.031550e+003, 2.877805e-002
3.033478e+003, 2.839884e-002
3.035406e+003, 2.854793e-002
3.037335e+003, 2.864063e-002
3.039263e+003, 2.869617e-002
3.041192e+003, 2.872520e-002
3.043120e+003, 2.850570e-002
3.045049e+003, 2.866398e-002
3.046977e+003, 2.896041e-002
3.048906e+003, 2.907684e-002
3.050834e+003, 2.919164e-002
3.052763e+003, 2.920544e-002
3.054691e+003, 2.870169e-002
3.056620e+003, 2.856602e-002
3.058548e+003, 2.868822e-002
3.060477e+003, 2.902280e-002
3.062405e+003, 2.966287e-002
3.064333e+003, 2.986294e-002
3.066262e+003, 2.977732e-002
3.068190e+003, 2.933308e-002
3.070119e+003, 2.917330e-002
3.072047e+003, 2.922075e-002
3.073976e+003, 2.925846e-002
3.075904e+003, 2.947112e-002
3.077833e+003, 2.952223e-002
3.079761e+003, 2.953039e-002
3.081690e+003, 2.955943e-002
3.083618e+003, 2.985518e-002
3.085547e+003, 3.011170e-002
3.087475e+003, 3.004641e-002
3.089404e+003, 2.985917e-002
3.091332e+003, 2.950470e-002
3.093260e+003, 2.940514e-002
3.095189e+003, 2.927819e-002
3.097117e+003, 2.917320e-002
3.099046e+003, 2.937397e-002
3.100974e+003, 2.954474e-002
3.102903e+003, 2.936734e-002
3.104831e+003, 2.937340e-002
3.106760e+003, 2.985705e-002
3.108688e+003, 3.020766e-002
3.110617e+003, 3.016063e-002
3.112545e+003, 2.997865e-002
3.114474e+003, 2.977800e-002
3.116402e+003, 2.965130e-002
3.118331e+003, 2.989357e-002
3.120259e+003, 3.016838e-002
3.122188e+003, 2.981241e-002
3.124116e+003, 3.000776e-002
3.126044e+003, 3.081458e-002
3.127973e+003, 3.099571e-002
3.129901e+003, 3.053194e-002
3.131830e+003, 3.026455e-002
3.133758e+003, 3.035953e-002
3.135687e+003, 3.038884e-002
3.137615e+003, 3.007610e-002
3.139544e+003, 3.011330e-002
3.141472e+003, 3.018437e-002
3.143401e+003, 3.032344e-002
3.145329e+003, 3.097664e-002
3.147258e+003, 3.140543e-002
3.149186e+003, 3.095037e-002
3.151115e+003, 3.054870e-002
3.153043e+003, 3.062125e-002
3.154971e+003, 3.090928e-002
3.156900e+003, 3.089062e-002
3.158828e+003, 3.108882e-002
3.160757e+003, 3.112419e-002
3.162685e+003, 3.112442e-002
3.164614e+003, 3.104011e-002
3.166542e+003, 3.110141e-002
3.168471e+003, 3.137198e-002
3.170399e+003, 3.132520e-002
3.172328e+003, 3.121866e-002
3.174256e+003, 3.131123e-002
3.176185e+003, 3.143404e-002
3.178113e+003, 3.146713e-002
3.180042e+003, 3.165742e-002
3.181970e+003, 3.176875e-002
3.183898e+003, 3.155560e-002
3.185827e+003, 3.151500e-002
3.187755e+003, 3.150177e-002
3.189684e+003, 3.141606e-002
3.191612e+003, 3.184337e-002
3.193541e+003, 3.226599e-002
3.195469e+003, 3.227627e-002
3.197398e+003, 3.220900e-002
3.199326e+003, 3.172706e-002
3.201255e+003, 3.183756e-002
3.203183e+003, 3.233495e-002
3.205112e+003, 3.204467e-002
3.207040e+003, 3.247504e-002
3.208969e+003, 3.253571e-002
3.210897e+003, 3.224459e-002
3.212825e+003, 3.208324e-002
3.214754e+003, 3.224234e-002
3.216682e+003, 3.243490e-002
3.218611e+003, 3.224741e-002
3.220539e+003, 3.277121e-002
3.222468e+003, 3.314656e-002
3.224396e+003, 3.297070e-002
3.226325e+003, 3.259384e-002
3.228253e+003, 3.251019e-002
3.230182e+003, 3.248163e-002
3.232110e+003, 3.261194e-002
3.234039e+003, 3.279055e-002
3.235967e+003, 3.289506e-002
3.237896e+003, 3.285382e-002
3.239824e+003, 3.296470e-002
3.241752e+003, 3.297069e-002
3.243681e+003, 3.297457e-002
3.245609e+003, 3.290677e-002
3.247538e+003, 3.265616e-002
3.249466e+003, 3.307769e-002
3.251395e+003, 3.293918e-002
3.253323e+003, 3.251456e-002
3.255252e+003, 3.306835e-002
3.257180e+003, 3.324195e-002
3.259109e+003, 3.273372e-002
3.261037e+003, 3.262747e-002
3.262966e+003, 3.302541e-002
3.264894e+003, 3.301227e-002
3.266823e+003, 3.314423e-002
3.268751e+003, 3.335849e-002
3.270679e+003, 3.339082e-002
3.272608e+003, 3.344192e-002
3.274536e+003, 3.328080e-002
3.276465e+003, 3.352002e-002
3.278393e+003, 3.386097e-002
3.280322e+003, 3.358395e-002
3.282250e+003, 3.322583e-002
3.284179e+003, 3.326585e-002
3.286107e+003, 3.308935e-002
3.288036e+003, 3.293919e-002
3.289964e+003, 3.297267e-002
3.291893e+003, 3.323055e-002
3.293821e+003, 3.365299e-002
3.295750e+003, 3.413406e-002
3.297678e+003, 3.402077e-002
3.299606e+003, 3.372610e-002
3.301535e+003, 3.388704e-002
3.303463e+003, 3.389036e-002
3.305392e+003, 3.361806e-002
3.307320e+003, 3.361209e-002
3.309249e+003, 3.381433e-002
3.311177e+003, 3.400646e-002
3.313106e+003, 3.402829e-002
3.315034e+003, 3.398635e-002
3.316963e+003, 3.421297e-002
3.318891e+003, 3.443400e-002
3.320820e+003, 3.420926e-002
3.322748e+003, 3.379447e-002
3.324677e+003, 3.329453e-002
3.326605e+003, 3.359721e-002
3.328533e+003, 3.350979e-002
3.330462e+003, 3.330142e-002
3.332390e+003, 3.348059e-002
3.334319e+003, 3.384441e-002
3.336247e+003, 3.438471e-002
3.338176e+003, 3.454051e-002
3.340104e+003, 3.457316e-002
3.342033e+003, 3.452372e-002
3.343961e+003, 3.408576e-002
3.345890e+003, 3.417056e-002
3.347818e+003, 3.458712e-002
3.349747e+003, 3.457715e-002
3.351675e+003, 3.469941e-002
3.353604e+003, 3.464609e-002
3.355532e+003, 3.441646e-002
3.357460e+003, 3.432484e-002
3.359389e+003, 3.459883e-002
3.361317e+003, 3.453350e-002
3.363246e+003, 3.456472e-002
3.365174e+003, 3.462872e-002
3.367103e+003, 3.450989e-002
3.369031e+003, 3.476501e-002
3.370960e+003, 3.490466e-002
3.372888e+003, 3.480057e-002
3.374817e+003, 3.499132e-002
3.376745e+003, 3.528051e-002
3.378674e+003, 3.569795e-002
3.380602e+003, 3.588763e-002
3.382531e+003, 3.562732e-002
3.384459e+003, 3.468203e-002
3.386387e+003, 3.419122e-002
3.388316e+003, 3.456144e-002
3.390244e+003, 3.465126e-002
3.392173e+003, 3.440967e-002
3.394101e+003, 3.426174e-002
3.396030e+003, 3.422789e-002
3.397958e+003, 3.442306e-002
3.399887e+003, 3.503841e-002
3.401815e+003, 3.550273e-002
3.403744e+003, 3.531366e-002
3.405672e+003, 3.504812e-002
3.407601e+003, 3.467481e-002
3.409529e+003, 3.449136e-002
3.411458e+003, 3.450532e-002
3.413386e+003, 3.464361e-002
3.415314e+003, 3.479373e-002
3.417243e+003, 3.495689e-002
3.419171e+003, 3.498648e-002
3.421100e+003, 3.451398e-002
3.423028e+003, 3.432252e-002
3.424957e+003, 3.447100e-002
3.426885e+003, 3.461279e-002
3.428814e+003, 3.481205e-002
3.430742e+003, 3.500455e-002
3.432671e+003, 3.529067e-002
3.434599e+003, 3.541072e-002
3.436528e+003, 3.559723e-002
3.438456e+003, 3.557964e-002
3.440385e+003, 3.518125e-002
3.442313e+003, 3.526741e-002
3.444241e+003, 3.538521e-002
3.446170e+003, 3.470017e-002
3.448098e+003, 3.411647e-002
3.450027e+003, 3.418057e-002
3.451955e+003, 3.489574e-002
3.453884e+003, 3.527453e-002
3.455812e+003, 3.503365e-002
3.457741e+003, 3.462626e-002
3.459669e+003, 3.493265e-002
3.461598e+003, 3.526853e-002
3.463526e+003, 3.497394e-002
3.465455e+003, 3.466227e-002
3.467383e+003, 3.462959e-002
3.469312e+003, 3.457334e-002
3.471240e+003, 3.414130e-002
3.473168e+003, 3.406080e-002
3.475097e+003, 3.477355e-002
3.477025e+003, 3.500602e-002
3.478954e+003, 3.451610e-002
3.480882e+003, 3.438774e-002
3.482811e+003, 3.400145e-002
3.484739e+003, 3.439608e-002
3.486668e+003, 3.526769e-002
3.488596e+003, 3.527844e-002
3.490525e+003, 3.501587e-002
3.492453e+003, 3.493208e-002
3.494382e+003, 3.482365e-002
3.496310e+003, 3.468285e-002
3.498239e+003, 3.417210e-002
3.500167e+003, 3.377704e-002
3.502095e+003, 3.363477e-002
3.504024e+003, 3.382197e-002
3.505952e+003, 3.355175e-002
3.507881e+003, 3.325643e-002
3.509809e+003, 3.318438e-002
3.511738e+003, 3.312615e-002
3.513666e+003, 3.328343e-002
3.515595e+003, 3.360139e-002
3.517523e+003, 3.375196e-002
3.519452e+003, 3.385571e-002
3.521380e+003, 3.370297e-002
3.523309e+003, 3.358109e-002
3.525237e+003, 3.367015e-002
3.527166e+003, 3.278816e-002
3.529094e+003, 3.208853e-002
3.531022e+003, 3.251758e-002
3.532951e+003, 3.324264e-002
3.534879e+003, 3.328604e-002
3.536808e+003, 3.345390e-002
3.538736e+003, 3.332499e-002
3.540665e+003, 3.295956e-002
3.542593e+003, 3.231340e-002
3.544522e+003, 3.188848e-002
3.546450e+003, 3.240954e-002
3.548379e+003, 3.285612e-002
3.550307e+003, 3.265805e-002
3.552236e+003, 3.289400e-002
3.554164e+003, 3.305021e-002
3.556093e+003, 3.245037e-002
3.558021e+003, 3.164793e-002
3.559949e+003, 3.127445e-002
3.561878e+003, 3.160550e-002
3.563806e+003, 3.207994e-002
3.565735e+003, 3.288335e-002
3.567663e+003, 3.332344e-002
3.569592e+003, 3.292242e-002
3.571520e+003, 3.224978e-002
3.573449e+003, 3.190577e-002
3.575377e+003, 3.177692e-002
3.577306e+003, 3.238529e-002
3.579234e+003, 3.222451e-002
3.581163e+003, 3.168834e-002
3.583091e+003, 3.103356e-002
3.585020e+003, 3.064473e-002
3.586948e+003, 3.126812e-002
3.588876e+003, 3.187505e-002
3.590805e+003, 3.149343e-002
3.592733e+003, 3.098920e-002
3.594662e+003, 3.051107e-002
3.596590e+003, 3.051079e-002
3.598519e+003, 3.085437e-002
3.600447e+003, 3.075824e-002
3.602376e+003, 3.021508e-002
3.604304e+003, 3.022809e-002
3.606233e+003, 3.027375e-002
3.608161e+003, 3.025215e-002
3.610090e+003, 2.980547e-002
3.612018e+003, 2.965051e-002
3.613947e+003, 2.979704e-002
3.615875e+003, 3.011139e-002
3.617803e+003, 3.041182e-002
3.619732e+003, 2.990012e-002
3.621660e+003, 2.963856e-002
3.623589e+003, 2.977645e-002
3.625517e+003, 2.939240e-002
3.627446e+003, 2.903887e-002
3.629374e+003, 2.895901e-002
3.631303e+003, 2.923091e-002
3.633231e+003, 2.904986e-002
3.635160e+003, 2.839434e-002
3.637088e+003, 2.838805e-002
3.639017e+003, 2.813305e-002
3.640945e+003, 2.806531e-002
3.642874e+003, 2.808595e-002
3.644802e+003, 2.839662e-002
3.646730e+003, 2.904187e-002
3.648659e+003, 2.896931e-002
3.650587e+003, 2.894410e-002
3.652516e+003, 2.895642e-002
3.654444e+003, 2.850453e-002
3.656373e+003, 2.791554e-002
3.658301e+003, 2.744872e-002
3.660230e+003, 2.731674e-002
3.662158e+003, 2.796119e-002
3.664087e+003, 2.848099e-002
3.666015e+003, 2.830789e-002
3.667944e+003, 2.862628e-002
3.669872e+003, 2.903433e-002
3.671801e+003, 2.848868e-002
3.673729e+003, 2.808596e-002
3.675657e+003, 2.822181e-002
3.677586e+003, 2.776973e-002
3.679514e+003, 2.764002e-002
3.681443e+003, 2.717725e-002
3.683371e+003, 2.698407e-002
3.685300e+003, 2.734583e-002
3.687228e+003, 2.778945e-002
3.689157e+003, 2.806483e-002
3.691085e+003, 2.777509e-002
3.693014e+003, 2.735477e-002
3.694942e+003, 2.728002e-002
3.696871e+003, 2.691841e-002
3.698799e+003, 2.693581e-002
3.700728e+003, 2.782158e-002
3.702656e+003, 2.822857e-002
3.704584e+003, 2.810125e-002
3.706513e+003, 2.822686e-002
3.708441e+003, 2.798972e-002
3.710370e+003, 2.772721e-002
3.712298e+003, 2.771234e-002
3.714227e+003, 2.733302e-002
3.716155e+003, 2.713157e-002
3.718084e+003, 2.758496e-002
3.720012e+003, 2.746499e-002
3.721941e+003, 2.776675e-002
3.723869e+003, 2.846966e-002
3.725798e+003, 2.893477e-002
3.727726e+003, 2.827377e-002
3.729655e+003, 2.742343e-002
3.731583e+003, 2.759720e-002
3.733511e+003, 2.856239e-002
3.735440e+003, 2.915747e-002
3.737368e+003, 2.887210e-002
3.739297e+003, 2.867941e-002
3.741225e+003, 2.876903e-002
3.743154e+003, 2.988720e-002
3.745082e+003, 2.932863e-002
3.747011e+003, 2.809386e-002
3.748939e+003, 2.873845e-002
3.750868e+003, 2.887720e-002
3.752796e+003, 2.845317e-002
3.754725e+003, 2.805462e-002
3.756653e+003, 2.812348e-002
3.758582e+003, 2.826716e-002
3.760510e+003, 2.822677e-002
3.762438e+003, 2.802221e-002
3.764367e+003, 2.862873e-002
3.766295e+003, 2.858180e-002
3.768224e+003, 2.809908e-002
3.770152e+003, 2.804128e-002
3.772081e+003, 2.832519e-002
3.774009e+003, 2.795269e-002
3.775938e+003, 2.762454e-002
3.777866e+003, 2.799590e-002
3.779795e+003, 2.820715e-002
3.781723e+003, 2.838893e-002
3.783652e+003, 2.853492e-002
3.785580e+003, 2.812183e-002
3.787509e+003, 2.810973e-002
3.789437e+003, 2.848375e-002
3.791365e+003, 2.822321e-002
3.793294e+003, 2.772135e-002
3.795222e+003, 2.842936e-002
3.797151e+003, 2.876628e-002
3.799079e+003, 2.839115e-002
3.801008e+003, 2.906632e-002
3.802936e+003, 2.859804e-002
3.804865e+003, 2.886013e-002
3.806793e+003, 2.846214e-002
3.808722e+003, 2.789403e-002
3.810650e+003, 2.832785e-002
3.812579e+003, 2.855950e-002
3.814507e+003, 2.890754e-002
3.816436e+003, 2.928932e-002
3.818364e+003, 2.887137e-002
3.820292e+003, 2.925012e-002
3.822221e+003, 2.913780e-002
3.824149e+003, 2.875383e-002
3.826078e+003, 2.910089e-002
3.828006e+003, 2.945933e-002
3.829935e+003, 2.923587e-002
3.831863e+003, 2.911918e-002
3.833792e+003, 2.921928e-002
3.835720e+003, 2.930810e-002
3.837649e+003, 2.973313e-002
3.839577e+003, 2.926299e-002
3.841506e+003, 2.899428e-002
3.843434e+003, 2.893019e-002
3.845363e+003, 2.903830e-002
3.847291e+003, 2.813528e-002
3.849219e+003, 2.775823e-002
3.851148e+003, 2.890074e-002
3.853076e+003, 3.012327e-002
3.855005e+003, 2.977879e-002
3.856933e+003, 2.919993e-002
3.858862e+003, 2.873828e-002
3.860790e+003, 2.831127e-002
3.862719e+003, 2.935040e-002
3.864647e+003, 3.000996e-002
3.866576e+003, 3.005689e-002
3.868504e+003, 3.035886e-002
3.870433e+003, 3.036120e-002
3.872361e+003, 2.997281e-002
3.874290e+003, 2.937026e-002
3.876218e+003, 2.899467e-002
3.878146e+003, 2.925528e-002
3.880075e+003, 2.933458e-002
3.882003e+003, 2.886521e-002
3.883932e+003, 2.878438e-002
3.885860e+003, 2.938448e-002
3.887789e+003, 2.962086e-002
3.889717e+003, 2.947476e-002
3.891646e+003, 2.956351e-002
3.893574e+003, 2.973610e-002
3.895503e+003, 2.971852e-002
3.897431e+003, 2.965779e-002
3.899360e+003, 3.050616e-002
3.901288e+003, 3.044860e-002
3.903217e+003, 2.996665e-002
3.905145e+003, 2.968818e-002
3.907073e+003, 2.908402e-002
3.909002e+003, 2.878653e-002
3.910930e+003, 2.926289e-002
3.912859e+003, 2.935237e-002
3.914787e+003, 2.911849e-002
3.916716e+003, 2.926683e-002
3.918644e+003, 2.980745e-002
3.920573e+003, 2.936530e-002
3.922501e+003, 2.901140e-002
3.924430e+003, 2.955772e-002
3.926358e+003, 3.002461e-002
3.928287e+003, 3.006281e-002
3.930215e+003, 3.039569e-002
3.932144e+003, 3.076065e-002
3.934072e+003, 3.044396e-002
3.936000e+003, 2.997292e-002
3.937929e+003, 3.064835e-002
3.939857e+003, 3.049764e-002
3.941786e+003, 2.972977e-002
3.943714e+003, 2.951470e-002
3.945643e+003, 2.968556e-002
3.947571e+003, 3.049197e-002
3.949500e+003, 3.050501e-002
3.951428e+003, 2.994718e-002
3.953357e+003, 3.044079e-002
3.955285e+003, 3.059558e-002
3.957214e+003, 2.999396e-002
3.959142e+003, 3.023312e-002
3.961071e+003, 3.033988e-002
3.962999e+003, 3.109829e-002
3.964927e+003, 3.152616e-002
3.966856e+003, 3.098295e-002
3.968784e+003, 3.039375e-002
3.970713e+003, 3.004366e-002
3.972641e+003, 2.989404e-002
3.974570e+003, 3.020645e-002
3.976498e+003, 3.009213e-002
3.978427e+003, 3.050744e-002
3.980355e+003, 3.057740e-002
3.982284e+003, 3.062015e-002
3.984212e+003, 3.077177e-002
3.986141e+003, 3.068328e-002
3.988069e+003, 3.055529e-002
3.989998e+003, 3.071781e-002
3.991926e+003, 3.044187e-002
3.993854e+003, 2.994071e-002
3.995783e+003, 3.022917e-002
3.997711e+003, 3.044245e-002
3.999640e+003, 3.059444e-002
##END=



