##NAMES=Warwickite
##RRUFFID=R050674
##IDEAL CHEMISTRY=(Mg,Ti^4+^,Fe^3+^,Cr^3+^,Al)_2_O(BO_3_)
##LOCALITY=Edenville, Orange County, New York, USA
##OWNER=RRUFF
##SOURCE=University of Arizona Mineral Museum
##DESCRIPTION=Black prismatic crystals embedded in matrix
##STATUS=The identification of this mineral has been confirmed by X-ray diffraction and chemical analysis
##URL=rruff.info/R050674
##MEASURED CHEMISTRY=(Mg_1.23_Ti_0.39_Fe^2+^_0.17_Al_0.19_Fe^3+^_0.02_)_Î£=2_O(BO_3_) ; B not measured but estimated by difference and charge balance
3.991926e+002, 3.364754e-001
4.011211e+002, 3.378956e-001
4.030495e+002, 3.336536e-001
4.049780e+002, 3.217015e-001
4.069065e+002, 2.963428e-001
4.088349e+002, 2.945391e-001
4.107634e+002, 3.115560e-001
4.126919e+002, 3.111669e-001
4.146203e+002, 3.014781e-001
4.165488e+002, 2.977608e-001
4.184773e+002, 2.876333e-001
4.204057e+002, 2.851805e-001
4.223342e+002, 2.958641e-001
4.242627e+002, 2.913517e-001
4.261911e+002, 2.784460e-001
4.281196e+002, 2.783035e-001
4.300481e+002, 2.769812e-001
4.319765e+002, 2.742631e-001
4.339050e+002, 2.709247e-001
4.358335e+002, 2.569622e-001
4.377619e+002, 2.487916e-001
4.396904e+002, 2.436069e-001
4.416189e+002, 2.409121e-001
4.435473e+002, 2.385194e-001
4.454758e+002, 2.369361e-001
4.474043e+002, 2.358628e-001
4.493327e+002, 2.341298e-001
4.512612e+002, 2.306666e-001
4.531897e+002, 2.255536e-001
4.551181e+002, 2.229933e-001
4.570466e+002, 2.211989e-001
4.589751e+002, 2.235720e-001
4.609035e+002, 2.245085e-001
4.628320e+002, 2.238436e-001
4.647605e+002, 2.256680e-001
4.666889e+002, 2.254398e-001
4.686174e+002, 2.211832e-001
4.705459e+002, 2.188443e-001
4.724743e+002, 2.217204e-001
4.744028e+002, 2.222790e-001
4.763313e+002, 2.197311e-001
4.782597e+002, 2.182245e-001
4.801882e+002, 2.180220e-001
4.821167e+002, 2.175870e-001
4.840451e+002, 2.151380e-001
4.859736e+002, 2.133007e-001
4.879021e+002, 2.139998e-001
4.898305e+002, 2.131708e-001
4.917590e+002, 2.106956e-001
4.936875e+002, 2.103977e-001
4.956159e+002, 2.112535e-001
4.975444e+002, 2.122506e-001
4.994729e+002, 2.136245e-001
5.014013e+002, 2.116478e-001
5.033298e+002, 2.085949e-001
5.052583e+002, 2.068558e-001
5.071867e+002, 2.049698e-001
5.091152e+002, 2.015057e-001
5.110437e+002, 1.976625e-001
5.129721e+002, 1.954631e-001
5.149006e+002, 1.924748e-001
5.168290e+002, 1.882253e-001
5.187575e+002, 1.849238e-001
5.206860e+002, 1.814178e-001
5.226144e+002, 1.793890e-001
5.245429e+002, 1.768174e-001
5.264714e+002, 1.718352e-001
5.283998e+002, 1.691659e-001
5.303283e+002, 1.680779e-001
5.322568e+002, 1.659752e-001
5.341852e+002, 1.647785e-001
5.361137e+002, 1.628956e-001
5.380422e+002, 1.598604e-001
5.399706e+002, 1.574166e-001
5.418991e+002, 1.545471e-001
5.438276e+002, 1.521699e-001
5.457560e+002, 1.501929e-001
5.476845e+002, 1.475030e-001
5.496130e+002, 1.447898e-001
5.515414e+002, 1.426508e-001
5.534699e+002, 1.404994e-001
5.553984e+002, 1.380270e-001
5.573268e+002, 1.345626e-001
5.592553e+002, 1.322185e-001
5.611838e+002, 1.311922e-001
5.631122e+002, 1.299773e-001
5.650407e+002, 1.295847e-001
5.669692e+002, 1.294109e-001
5.688976e+002, 1.288308e-001
5.708261e+002, 1.287551e-001
5.727546e+002, 1.303860e-001
5.746830e+002, 1.321656e-001
5.766115e+002, 1.338202e-001
5.785400e+002, 1.368132e-001
5.804684e+002, 1.390284e-001
5.823969e+002, 1.420905e-001
5.843254e+002, 1.462105e-001
5.862538e+002, 1.502323e-001
5.881823e+002, 1.555260e-001
5.901108e+002, 1.587174e-001
5.920392e+002, 1.598152e-001
5.939677e+002, 1.608526e-001
5.958962e+002, 1.622830e-001
5.978246e+002, 1.622158e-001
5.997531e+002, 1.621600e-001
6.016816e+002, 1.630258e-001
6.036100e+002, 1.624652e-001
6.055385e+002, 1.613758e-001
6.074670e+002, 1.612044e-001
6.093954e+002, 1.605758e-001
6.113239e+002, 1.597347e-001
6.132524e+002, 1.582535e-001
6.151808e+002, 1.567483e-001
6.171093e+002, 1.556734e-001
6.190378e+002, 1.542091e-001
6.209662e+002, 1.522414e-001
6.228947e+002, 1.500014e-001
6.248232e+002, 1.484162e-001
6.267516e+002, 1.473574e-001
6.286801e+002, 1.464055e-001
6.306086e+002, 1.458784e-001
6.325370e+002, 1.451505e-001
6.344655e+002, 1.446246e-001
6.363940e+002, 1.440611e-001
6.383224e+002, 1.428519e-001
6.402509e+002, 1.417918e-001
6.421794e+002, 1.408044e-001
6.441078e+002, 1.399854e-001
6.460363e+002, 1.391653e-001
6.479648e+002, 1.383280e-001
6.498932e+002, 1.377447e-001
6.518217e+002, 1.376696e-001
6.537502e+002, 1.374071e-001
6.556786e+002, 1.371700e-001
6.576071e+002, 1.369617e-001
6.595356e+002, 1.368402e-001
6.614641e+002, 1.371614e-001
6.633925e+002, 1.379836e-001
6.653210e+002, 1.390903e-001
6.672495e+002, 1.404211e-001
6.691779e+002, 1.426843e-001
6.711064e+002, 1.455519e-001
6.730349e+002, 1.485121e-001
6.749633e+002, 1.511595e-001
6.768918e+002, 1.537802e-001
6.788203e+002, 1.554990e-001
6.807487e+002, 1.565240e-001
6.826772e+002, 1.566431e-001
6.846057e+002, 1.567042e-001
6.865341e+002, 1.581025e-001
6.884626e+002, 1.602818e-001
6.903911e+002, 1.626754e-001
6.923195e+002, 1.655058e-001
6.942480e+002, 1.691846e-001
6.961765e+002, 1.730862e-001
6.981049e+002, 1.769509e-001
7.000334e+002, 1.813368e-001
7.019619e+002, 1.862570e-001
7.038903e+002, 1.914970e-001
7.058188e+002, 1.965021e-001
7.077473e+002, 2.015965e-001
7.096757e+002, 2.066871e-001
7.116042e+002, 2.113095e-001
7.135327e+002, 2.145496e-001
7.154611e+002, 2.162411e-001
7.173896e+002, 2.163806e-001
7.193181e+002, 2.157975e-001
7.212465e+002, 2.142688e-001
7.231750e+002, 2.118300e-001
7.251035e+002, 2.092549e-001
7.270319e+002, 2.071891e-001
7.289604e+002, 2.048419e-001
7.308889e+002, 2.018584e-001
7.328173e+002, 1.987189e-001
7.347458e+002, 1.961756e-001
7.366743e+002, 1.947349e-001
7.386027e+002, 1.925837e-001
7.405312e+002, 1.903074e-001
7.424597e+002, 1.880655e-001
7.443881e+002, 1.846718e-001
7.463166e+002, 1.814959e-001
7.482451e+002, 1.779463e-001
7.501735e+002, 1.736110e-001
7.521020e+002, 1.694594e-001
7.540305e+002, 1.651695e-001
7.559589e+002, 1.604233e-001
7.578874e+002, 1.556202e-001
7.598159e+002, 1.505449e-001
7.617443e+002, 1.457012e-001
7.636728e+002, 1.408561e-001
7.656013e+002, 1.360874e-001
7.675297e+002, 1.313970e-001
7.694582e+002, 1.265525e-001
7.713867e+002, 1.224515e-001
7.733151e+002, 1.185102e-001
7.752436e+002, 1.140542e-001
7.771721e+002, 1.095287e-001
7.791005e+002, 1.055018e-001
7.810290e+002, 1.016594e-001
7.829575e+002, 9.763655e-002
7.848859e+002, 9.381742e-002
7.868144e+002, 9.012924e-002
7.887429e+002, 8.687715e-002
7.906713e+002, 8.356789e-002
7.925998e+002, 8.022217e-002
7.945283e+002, 7.739241e-002
7.964567e+002, 7.479566e-002
7.983852e+002, 7.220610e-002
8.003137e+002, 6.953074e-002
8.022421e+002, 6.692837e-002
8.041706e+002, 6.449518e-002
8.060991e+002, 6.242487e-002
8.080275e+002, 6.063463e-002
8.099560e+002, 5.958446e-002
8.118845e+002, 5.857448e-002
8.138129e+002, 5.720768e-002
8.157414e+002, 5.618481e-002
8.176699e+002, 5.539339e-002
8.195983e+002, 5.437540e-002
8.215268e+002, 5.304040e-002
8.234553e+002, 5.136548e-002
8.253837e+002, 4.926040e-002
8.273122e+002, 4.799452e-002
8.292407e+002, 4.758918e-002
8.311691e+002, 4.718944e-002
8.330976e+002, 4.681539e-002
8.350261e+002, 4.644372e-002
8.369545e+002, 4.587745e-002
8.388830e+002, 4.560080e-002
8.408115e+002, 4.542905e-002
8.427399e+002, 4.504238e-002
8.446684e+002, 4.435209e-002
8.465969e+002, 4.399541e-002
8.485253e+002, 4.404673e-002
8.504538e+002, 4.403215e-002
8.523823e+002, 4.389435e-002
8.543107e+002, 4.379899e-002
8.562392e+002, 4.378908e-002
8.581677e+002, 4.370957e-002
8.600961e+002, 4.377709e-002
8.620246e+002, 4.430241e-002
8.639531e+002, 4.461020e-002
8.658815e+002, 4.474205e-002
8.678100e+002, 4.513083e-002
8.697385e+002, 4.667623e-002
8.716669e+002, 4.941464e-002
8.735954e+002, 5.237047e-002
8.755239e+002, 5.545603e-002
8.774523e+002, 5.817673e-002
8.793808e+002, 6.049332e-002
8.813093e+002, 6.252489e-002
8.832377e+002, 6.335436e-002
8.851662e+002, 6.108520e-002
8.870947e+002, 5.578614e-002
8.890231e+002, 5.047208e-002
8.909516e+002, 4.661054e-002
8.928801e+002, 4.441756e-002
8.948085e+002, 4.337175e-002
8.967370e+002, 4.307739e-002
8.986655e+002, 4.334182e-002
9.005939e+002, 4.419897e-002
9.025224e+002, 4.547993e-002
9.044509e+002, 4.675284e-002
9.063793e+002, 4.786155e-002
9.083078e+002, 4.924081e-002
9.102363e+002, 5.111242e-002
9.121647e+002, 5.324370e-002
9.140932e+002, 5.554156e-002
9.160217e+002, 5.813139e-002
9.179501e+002, 6.058209e-002
9.198786e+002, 6.281409e-002
9.218071e+002, 6.496084e-002
9.237355e+002, 6.647366e-002
9.256640e+002, 6.696297e-002
9.275925e+002, 6.717186e-002
9.295209e+002, 6.756258e-002
9.314494e+002, 6.830897e-002
9.333779e+002, 6.950025e-002
9.353063e+002, 7.082384e-002
9.372348e+002, 7.253038e-002
9.391633e+002, 7.442718e-002
9.410917e+002, 7.625560e-002
9.430202e+002, 7.809772e-002
9.449487e+002, 8.005813e-002
9.468771e+002, 8.224017e-002
9.488056e+002, 8.391018e-002
9.507341e+002, 8.539832e-002
9.526625e+002, 8.651976e-002
9.545910e+002, 8.728987e-002
9.565195e+002, 8.749799e-002
9.584479e+002, 8.653264e-002
9.603764e+002, 8.462176e-002
9.623049e+002, 8.194155e-002
9.642333e+002, 7.862635e-002
9.661618e+002, 7.486111e-002
9.680903e+002, 7.113437e-002
9.700187e+002, 6.795779e-002
9.719472e+002, 6.547764e-002
9.738757e+002, 6.410044e-002
9.758041e+002, 6.313556e-002
9.777326e+002, 6.230411e-002
9.796611e+002, 6.206635e-002
9.815895e+002, 6.147284e-002
9.835180e+002, 6.001684e-002
9.854465e+002, 5.828344e-002
9.873749e+002, 5.682402e-002
9.893034e+002, 5.621567e-002
9.912319e+002, 5.636201e-002
9.931603e+002, 5.670568e-002
9.950888e+002, 5.770815e-002
9.970173e+002, 5.891290e-002
9.989457e+002, 5.994115e-002
1.000874e+003, 6.115764e-002
1.002803e+003, 6.216302e-002
1.004731e+003, 6.312472e-002
1.006660e+003, 6.409764e-002
1.008588e+003, 6.477284e-002
1.010517e+003, 6.518392e-002
1.012445e+003, 6.574929e-002
1.014373e+003, 6.595970e-002
1.016302e+003, 6.567258e-002
1.018230e+003, 6.511172e-002
1.020159e+003, 6.395185e-002
1.022087e+003, 6.230135e-002
1.024016e+003, 6.044850e-002
1.025944e+003, 5.902092e-002
1.027873e+003, 5.808675e-002
1.029801e+003, 5.701880e-002
1.031730e+003, 5.604202e-002
1.033658e+003, 5.581586e-002
1.035587e+003, 5.653889e-002
1.037515e+003, 5.747097e-002
1.039443e+003, 5.823059e-002
1.041372e+003, 5.877480e-002
1.043300e+003, 5.905916e-002
1.045229e+003, 5.975318e-002
1.047157e+003, 6.093424e-002
1.049086e+003, 6.236718e-002
1.051014e+003, 6.402476e-002
1.052943e+003, 6.553140e-002
1.054871e+003, 6.720022e-002
1.056800e+003, 6.874474e-002
1.058728e+003, 7.009850e-002
1.060657e+003, 7.116363e-002
1.062585e+003, 7.238981e-002
1.064514e+003, 7.362093e-002
1.066442e+003, 7.409777e-002
1.068370e+003, 7.424458e-002
1.070299e+003, 7.477627e-002
1.072227e+003, 7.514386e-002
1.074156e+003, 7.517894e-002
1.076084e+003, 7.541516e-002
1.078013e+003, 7.588387e-002
1.079941e+003, 7.668255e-002
1.081870e+003, 7.734314e-002
1.083798e+003, 7.774729e-002
1.085727e+003, 7.848201e-002
1.087655e+003, 7.980398e-002
1.089584e+003, 8.109242e-002
1.091512e+003, 8.213679e-002
1.093441e+003, 8.349439e-002
1.095369e+003, 8.552417e-002
1.097297e+003, 8.801676e-002
1.099226e+003, 9.031165e-002
1.101154e+003, 9.243230e-002
1.103083e+003, 9.470190e-002
1.105011e+003, 9.715404e-002
1.106940e+003, 9.965085e-002
1.108868e+003, 1.020170e-001
1.110797e+003, 1.041829e-001
1.112725e+003, 1.061362e-001
1.114654e+003, 1.079041e-001
1.116582e+003, 1.095662e-001
1.118511e+003, 1.114916e-001
1.120439e+003, 1.136566e-001
1.122368e+003, 1.161777e-001
1.124296e+003, 1.186858e-001
1.126224e+003, 1.215216e-001
1.128153e+003, 1.250641e-001
1.130081e+003, 1.281279e-001
1.132010e+003, 1.310895e-001
1.133938e+003, 1.346611e-001
1.135867e+003, 1.383295e-001
1.137795e+003, 1.419328e-001
1.139724e+003, 1.455915e-001
1.141652e+003, 1.491339e-001
1.143581e+003, 1.529057e-001
1.145509e+003, 1.565968e-001
1.147438e+003, 1.602888e-001
1.149366e+003, 1.636568e-001
1.151295e+003, 1.668210e-001
1.153223e+003, 1.701475e-001
1.155151e+003, 1.737593e-001
1.157080e+003, 1.771754e-001
1.159008e+003, 1.803164e-001
1.160937e+003, 1.835431e-001
1.162865e+003, 1.866665e-001
1.164794e+003, 1.898588e-001
1.166722e+003, 1.930935e-001
1.168651e+003, 1.963709e-001
1.170579e+003, 1.996231e-001
1.172508e+003, 2.025228e-001
1.174436e+003, 2.053284e-001
1.176365e+003, 2.081040e-001
1.178293e+003, 2.108783e-001
1.180222e+003, 2.142016e-001
1.182150e+003, 2.177079e-001
1.184078e+003, 2.207494e-001
1.186007e+003, 2.236393e-001
1.187935e+003, 2.266959e-001
1.189864e+003, 2.295869e-001
1.191792e+003, 2.319939e-001
1.193721e+003, 2.345229e-001
1.195649e+003, 2.372884e-001
1.197578e+003, 2.397702e-001
1.199506e+003, 2.418605e-001
1.201435e+003, 2.437657e-001
1.203363e+003, 2.455677e-001
1.205292e+003, 2.468741e-001
1.207220e+003, 2.476876e-001
1.209149e+003, 2.486319e-001
1.211077e+003, 2.489078e-001
1.213005e+003, 2.487640e-001
1.214934e+003, 2.487568e-001
1.216862e+003, 2.482626e-001
1.218791e+003, 2.477663e-001
1.220719e+003, 2.470194e-001
1.222648e+003, 2.460610e-001
1.224576e+003, 2.448371e-001
1.226505e+003, 2.431556e-001
1.228433e+003, 2.408139e-001
1.230362e+003, 2.384898e-001
1.232290e+003, 2.366067e-001
1.234219e+003, 2.339892e-001
1.236147e+003, 2.310354e-001
1.238076e+003, 2.284563e-001
1.240004e+003, 2.259185e-001
1.241932e+003, 2.231319e-001
1.243861e+003, 2.199629e-001
1.245789e+003, 2.165431e-001
1.247718e+003, 2.132867e-001
1.249646e+003, 2.100189e-001
1.251575e+003, 2.063525e-001
1.253503e+003, 2.028760e-001
1.255432e+003, 1.998710e-001
1.257360e+003, 1.972272e-001
1.259289e+003, 1.951831e-001
1.261217e+003, 1.933060e-001
1.263146e+003, 1.912642e-001
1.265074e+003, 1.891640e-001
1.267003e+003, 1.867427e-001
1.268931e+003, 1.841881e-001
1.270859e+003, 1.817722e-001
1.272788e+003, 1.791729e-001
1.274716e+003, 1.760272e-001
1.276645e+003, 1.723477e-001
1.278573e+003, 1.683763e-001
1.280502e+003, 1.643749e-001
1.282430e+003, 1.600623e-001
1.284359e+003, 1.556313e-001
1.286287e+003, 1.515909e-001
1.288216e+003, 1.478619e-001
1.290144e+003, 1.441353e-001
1.292073e+003, 1.402228e-001
1.294001e+003, 1.365762e-001
1.295930e+003, 1.328982e-001
1.297858e+003, 1.292002e-001
1.299786e+003, 1.258413e-001
1.301715e+003, 1.227193e-001
1.303643e+003, 1.195689e-001
1.305572e+003, 1.168986e-001
1.307500e+003, 1.148877e-001
1.309429e+003, 1.127323e-001
1.311357e+003, 1.108566e-001
1.313286e+003, 1.095658e-001
1.315214e+003, 1.086595e-001
1.317143e+003, 1.079885e-001
1.319071e+003, 1.073594e-001
1.321000e+003, 1.070162e-001
1.322928e+003, 1.069026e-001
1.324857e+003, 1.071634e-001
1.326785e+003, 1.076206e-001
1.328714e+003, 1.081917e-001
1.330642e+003, 1.093040e-001
1.332570e+003, 1.103298e-001
1.334499e+003, 1.113341e-001
1.336427e+003, 1.131309e-001
1.338356e+003, 1.149558e-001
1.340284e+003, 1.166911e-001
1.342213e+003, 1.188901e-001
1.344141e+003, 1.213929e-001
1.346070e+003, 1.242117e-001
1.347998e+003, 1.273698e-001
1.349927e+003, 1.306060e-001
1.351855e+003, 1.341011e-001
1.353784e+003, 1.378982e-001
1.355712e+003, 1.415520e-001
1.357641e+003, 1.449694e-001
1.359569e+003, 1.483787e-001
1.361497e+003, 1.519310e-001
1.363426e+003, 1.554540e-001
1.365354e+003, 1.585423e-001
1.367283e+003, 1.617349e-001
1.369211e+003, 1.647575e-001
1.371140e+003, 1.669452e-001
1.373068e+003, 1.686722e-001
1.374997e+003, 1.706442e-001
1.376925e+003, 1.723570e-001
1.378854e+003, 1.734213e-001
1.380782e+003, 1.743561e-001
1.382711e+003, 1.746516e-001
1.384639e+003, 1.750405e-001
1.386568e+003, 1.754960e-001
1.388496e+003, 1.754479e-001
1.390424e+003, 1.752737e-001
1.392353e+003, 1.749998e-001
1.394281e+003, 1.746567e-001
1.396210e+003, 1.742892e-001
1.398138e+003, 1.738328e-001
1.400067e+003, 1.729959e-001
1.401995e+003, 1.719647e-001
1.403924e+003, 1.709491e-001
1.405852e+003, 1.695864e-001
1.407781e+003, 1.681278e-001
1.409709e+003, 1.668298e-001
1.411638e+003, 1.655026e-001
1.413566e+003, 1.638857e-001
1.415495e+003, 1.618964e-001
1.417423e+003, 1.599064e-001
1.419351e+003, 1.578772e-001
1.421280e+003, 1.559821e-001
1.423208e+003, 1.542560e-001
1.425137e+003, 1.526544e-001
1.427065e+003, 1.511411e-001
1.428994e+003, 1.499821e-001
1.430922e+003, 1.489857e-001
1.432851e+003, 1.473626e-001
1.434779e+003, 1.455529e-001
1.436708e+003, 1.436772e-001
1.438636e+003, 1.419262e-001
1.440565e+003, 1.404293e-001
1.442493e+003, 1.386582e-001
1.444422e+003, 1.362415e-001
1.446350e+003, 1.339063e-001
1.448278e+003, 1.320587e-001
1.450207e+003, 1.297799e-001
1.452135e+003, 1.273548e-001
1.454064e+003, 1.250568e-001
1.455992e+003, 1.223443e-001
1.457921e+003, 1.198047e-001
1.459849e+003, 1.169847e-001
1.461778e+003, 1.141128e-001
1.463706e+003, 1.116261e-001
1.465635e+003, 1.094273e-001
1.467563e+003, 1.069770e-001
1.469492e+003, 1.042165e-001
1.471420e+003, 1.015436e-001
1.473349e+003, 9.926919e-002
1.475277e+003, 9.737352e-002
1.477205e+003, 9.491454e-002
1.479134e+003, 9.265620e-002
1.481062e+003, 9.052612e-002
1.482991e+003, 8.827174e-002
1.484919e+003, 8.604573e-002
1.486848e+003, 8.398484e-002
1.488776e+003, 8.192725e-002
1.490705e+003, 7.975591e-002
1.492633e+003, 7.767441e-002
1.494562e+003, 7.598493e-002
1.496490e+003, 7.418638e-002
1.498419e+003, 7.235609e-002
1.500347e+003, 7.067242e-002
1.502276e+003, 6.894801e-002
1.504204e+003, 6.737670e-002
1.506132e+003, 6.588879e-002
1.508061e+003, 6.422815e-002
1.509989e+003, 6.256253e-002
1.511918e+003, 6.115200e-002
1.513846e+003, 6.008490e-002
1.515775e+003, 5.902084e-002
1.517703e+003, 5.737428e-002
1.519632e+003, 5.541841e-002
1.521560e+003, 5.357575e-002
1.523489e+003, 5.170477e-002
1.525417e+003, 4.964186e-002
1.527346e+003, 4.738001e-002
1.529274e+003, 4.584764e-002
1.531203e+003, 4.438710e-002
1.533131e+003, 4.276090e-002
1.535059e+003, 4.089380e-002
1.536988e+003, 3.886718e-002
1.538916e+003, 3.751967e-002
1.540845e+003, 3.622397e-002
1.542773e+003, 3.514665e-002
1.544702e+003, 3.431654e-002
1.546630e+003, 3.333464e-002
1.548559e+003, 3.217042e-002
1.550487e+003, 3.125998e-002
1.552416e+003, 3.025710e-002
1.554344e+003, 2.945513e-002
1.556273e+003, 2.887686e-002
1.558201e+003, 2.790470e-002
1.560130e+003, 2.703725e-002
1.562058e+003, 2.674003e-002
1.563986e+003, 2.622446e-002
1.565915e+003, 2.559462e-002
1.567843e+003, 2.512154e-002
1.569772e+003, 2.450018e-002
1.571700e+003, 2.375963e-002
1.573629e+003, 2.335248e-002
1.575557e+003, 2.298358e-002
1.577486e+003, 2.251627e-002
1.579414e+003, 2.244316e-002
1.581343e+003, 2.257614e-002
1.583271e+003, 2.252729e-002
1.585200e+003, 2.205597e-002
1.587128e+003, 2.144991e-002
1.589057e+003, 2.109141e-002
1.590985e+003, 2.091338e-002
1.592913e+003, 2.103067e-002
1.594842e+003, 2.110086e-002
1.596770e+003, 2.082710e-002
1.598699e+003, 2.056203e-002
1.600627e+003, 2.068080e-002
1.602556e+003, 2.071201e-002
1.604484e+003, 2.062225e-002
1.606413e+003, 2.058060e-002
1.608341e+003, 2.026070e-002
1.610270e+003, 1.993356e-002
1.612198e+003, 1.987247e-002
1.614127e+003, 2.000255e-002
1.616055e+003, 2.007460e-002
1.617984e+003, 1.987065e-002
1.619912e+003, 1.956004e-002
1.621840e+003, 1.959404e-002
1.623769e+003, 1.941662e-002
1.625697e+003, 1.938464e-002
1.627626e+003, 1.953414e-002
1.629554e+003, 1.930000e-002
1.631483e+003, 1.832677e-002
1.633411e+003, 1.807096e-002
1.635340e+003, 1.861558e-002
1.637268e+003, 1.888239e-002
1.639197e+003, 1.873164e-002
1.641125e+003, 1.845752e-002
1.643054e+003, 1.850519e-002
1.644982e+003, 1.851924e-002
1.646911e+003, 1.832141e-002
1.648839e+003, 1.804709e-002
1.650767e+003, 1.797015e-002
1.652696e+003, 1.797609e-002
1.654624e+003, 1.843815e-002
1.656553e+003, 1.875282e-002
1.658481e+003, 1.875655e-002
1.660410e+003, 1.834634e-002
1.662338e+003, 1.747359e-002
1.664267e+003, 1.703008e-002
1.666195e+003, 1.720154e-002
1.668124e+003, 1.715693e-002
1.670052e+003, 1.694001e-002
1.671981e+003, 1.695651e-002
1.673909e+003, 1.741756e-002
1.675838e+003, 1.732019e-002
1.677766e+003, 1.707146e-002
1.679694e+003, 1.709359e-002
1.681623e+003, 1.656413e-002
1.683551e+003, 1.600679e-002
1.685480e+003, 1.619314e-002
1.687408e+003, 1.655328e-002
1.689337e+003, 1.686460e-002
1.691265e+003, 1.672859e-002
1.693194e+003, 1.627075e-002
1.695122e+003, 1.589001e-002
1.697051e+003, 1.601428e-002
1.698979e+003, 1.570583e-002
1.700908e+003, 1.555868e-002
1.702836e+003, 1.590836e-002
1.704765e+003, 1.603818e-002
1.706693e+003, 1.612128e-002
1.708621e+003, 1.594413e-002
1.710550e+003, 1.559427e-002
1.712478e+003, 1.544597e-002
1.714407e+003, 1.565078e-002
1.716335e+003, 1.586912e-002
1.718264e+003, 1.579751e-002
1.720192e+003, 1.574987e-002
1.722121e+003, 1.571024e-002
1.724049e+003, 1.589738e-002
1.725978e+003, 1.628550e-002
1.727906e+003, 1.646601e-002
1.729835e+003, 1.604271e-002
1.731763e+003, 1.506480e-002
1.733692e+003, 1.494866e-002
1.735620e+003, 1.563967e-002
1.737548e+003, 1.578955e-002
1.739477e+003, 1.531474e-002
1.741405e+003, 1.473648e-002
1.743334e+003, 1.425255e-002
1.745262e+003, 1.456589e-002
1.747191e+003, 1.478143e-002
1.749119e+003, 1.503729e-002
1.751048e+003, 1.504713e-002
1.752976e+003, 1.502602e-002
1.754905e+003, 1.514504e-002
1.756833e+003, 1.519386e-002
1.758762e+003, 1.510260e-002
1.760690e+003, 1.481616e-002
1.762619e+003, 1.501224e-002
1.764547e+003, 1.566613e-002
1.766475e+003, 1.591675e-002
1.768404e+003, 1.581850e-002
1.770332e+003, 1.581426e-002
1.772261e+003, 1.567109e-002
1.774189e+003, 1.557500e-002
1.776118e+003, 1.558604e-002
1.778046e+003, 1.582008e-002
1.779975e+003, 1.567779e-002
1.781903e+003, 1.547266e-002
1.783832e+003, 1.591572e-002
1.785760e+003, 1.630736e-002
1.787689e+003, 1.707488e-002
1.789617e+003, 1.713138e-002
1.791546e+003, 1.649727e-002
1.793474e+003, 1.609129e-002
1.795402e+003, 1.599412e-002
1.797331e+003, 1.650152e-002
1.799259e+003, 1.722465e-002
1.801188e+003, 1.741116e-002
1.803116e+003, 1.734073e-002
1.805045e+003, 1.718870e-002
1.806973e+003, 1.688852e-002
1.808902e+003, 1.698659e-002
1.810830e+003, 1.708355e-002
1.812759e+003, 1.666371e-002
1.814687e+003, 1.587880e-002
1.816616e+003, 1.637985e-002
1.818544e+003, 1.735235e-002
1.820473e+003, 1.753269e-002
1.822401e+003, 1.723251e-002
1.824329e+003, 1.691407e-002
1.826258e+003, 1.652011e-002
1.828186e+003, 1.697916e-002
1.830115e+003, 1.770783e-002
1.832043e+003, 1.710968e-002
1.833972e+003, 1.716426e-002
1.835900e+003, 1.679828e-002
1.837829e+003, 1.595312e-002
1.839757e+003, 1.571436e-002
1.841686e+003, 1.598199e-002
1.843614e+003, 1.735226e-002
1.845543e+003, 1.791945e-002
1.847471e+003, 1.762205e-002
1.849400e+003, 1.699959e-002
1.851328e+003, 1.646703e-002
1.853256e+003, 1.647052e-002
1.855185e+003, 1.706244e-002
1.857113e+003, 1.696793e-002
1.859042e+003, 1.716077e-002
1.860970e+003, 1.711496e-002
1.862899e+003, 1.678645e-002
1.864827e+003, 1.680408e-002
1.866756e+003, 1.680656e-002
1.868684e+003, 1.689080e-002
1.870613e+003, 1.711862e-002
1.872541e+003, 1.828026e-002
1.874470e+003, 1.842410e-002
1.876398e+003, 1.750054e-002
1.878327e+003, 1.819665e-002
1.880255e+003, 1.824929e-002
1.882183e+003, 1.762510e-002
1.884112e+003, 1.847590e-002
1.886040e+003, 1.790358e-002
1.887969e+003, 1.644981e-002
1.889897e+003, 1.743427e-002
1.891826e+003, 1.865388e-002
1.893754e+003, 1.806237e-002
1.895683e+003, 1.799043e-002
1.897611e+003, 1.948563e-002
1.899540e+003, 2.076236e-002
1.901468e+003, 1.996203e-002
1.903397e+003, 1.959354e-002
1.905325e+003, 1.969394e-002
1.907254e+003, 1.883057e-002
1.909182e+003, 1.882877e-002
1.911110e+003, 2.013423e-002
1.913039e+003, 2.000869e-002
1.914967e+003, 1.931297e-002
1.916896e+003, 1.815760e-002
1.918824e+003, 1.709107e-002
1.920753e+003, 1.855879e-002
1.922681e+003, 1.983883e-002
1.924610e+003, 2.037707e-002
1.926538e+003, 2.070929e-002
1.928467e+003, 2.070755e-002
1.930395e+003, 2.046303e-002
1.932324e+003, 2.066995e-002
1.934252e+003, 2.029090e-002
1.936181e+003, 1.876316e-002
1.938109e+003, 1.964015e-002
1.940037e+003, 2.067367e-002
1.941966e+003, 1.850293e-002
1.943894e+003, 1.933130e-002
1.945823e+003, 2.096437e-002
1.947751e+003, 2.016763e-002
1.949680e+003, 1.996388e-002
1.951608e+003, 2.093490e-002
1.953537e+003, 1.971944e-002
1.955465e+003, 1.753966e-002
1.957394e+003, 1.749943e-002
1.959322e+003, 2.002485e-002
1.961251e+003, 1.923447e-002
1.963179e+003, 1.879389e-002
1.965108e+003, 1.759917e-002
1.967036e+003, 1.775018e-002
1.968964e+003, 1.735477e-002
1.970893e+003, 1.713655e-002
1.972821e+003, 1.928964e-002
1.974750e+003, 1.927925e-002
1.976678e+003, 1.805488e-002
1.978607e+003, 1.952559e-002
1.980535e+003, 2.104295e-002
1.982464e+003, 2.023972e-002
1.984392e+003, 2.030464e-002
1.986321e+003, 2.187776e-002
1.988249e+003, 1.907322e-002
1.990178e+003, 1.574825e-002
1.992106e+003, 1.807366e-002
1.994035e+003, 2.102939e-002
1.995963e+003, 2.016767e-002
1.997891e+003, 2.019203e-002
1.999820e+003, 1.969006e-002
2.001748e+003, 1.766837e-002
2.003677e+003, 1.809031e-002
2.005605e+003, 1.780428e-002
2.007534e+003, 1.694591e-002
2.009462e+003, 1.750023e-002
2.011391e+003, 1.826475e-002
2.013319e+003, 1.606264e-002
2.015248e+003, 1.958620e-002
2.017176e+003, 2.236165e-002
2.019105e+003, 2.074140e-002
2.021033e+003, 1.955607e-002
2.022962e+003, 1.863865e-002
2.024890e+003, 1.850723e-002
2.026818e+003, 1.876871e-002
2.028747e+003, 1.909268e-002
2.030675e+003, 2.025269e-002
2.032604e+003, 2.054824e-002
2.034532e+003, 2.217123e-002
2.036461e+003, 2.239728e-002
2.038389e+003, 2.141225e-002
2.040318e+003, 2.369643e-002
2.042246e+003, 2.428649e-002
2.044175e+003, 2.542448e-002
2.046103e+003, 2.538435e-002
2.048031e+003, 2.358092e-002
2.049960e+003, 2.268369e-002
2.051888e+003, 2.140529e-002
2.053817e+003, 2.155737e-002
2.055745e+003, 2.139557e-002
2.057674e+003, 2.188420e-002
2.059602e+003, 2.391487e-002
2.061531e+003, 2.235184e-002
2.063459e+003, 2.018489e-002
2.065388e+003, 2.117194e-002
2.067316e+003, 2.350878e-002
2.069245e+003, 2.465985e-002
2.071173e+003, 2.340007e-002
2.073102e+003, 2.291989e-002
2.075030e+003, 2.571945e-002
2.076958e+003, 2.703146e-002
2.078887e+003, 2.607803e-002
2.080815e+003, 2.451454e-002
2.082744e+003, 2.380756e-002
2.084672e+003, 2.493884e-002
2.086601e+003, 2.505687e-002
2.088529e+003, 2.307023e-002
2.090458e+003, 2.274239e-002
2.092386e+003, 2.284534e-002
2.094315e+003, 2.215422e-002
2.096243e+003, 2.412625e-002
2.098172e+003, 2.614858e-002
2.100100e+003, 2.442213e-002
2.102029e+003, 2.369949e-002
2.103957e+003, 2.363574e-002
2.105885e+003, 2.430924e-002
2.107814e+003, 2.433982e-002
2.109742e+003, 2.364873e-002
2.111671e+003, 2.418549e-002
2.113599e+003, 2.594771e-002
2.115528e+003, 2.585437e-002
2.117456e+003, 2.566984e-002
2.119385e+003, 2.479585e-002
2.121313e+003, 2.233604e-002
2.123242e+003, 2.291404e-002
2.125170e+003, 2.409259e-002
2.127099e+003, 2.405550e-002
2.129027e+003, 2.415891e-002
2.130956e+003, 2.195041e-002
2.132884e+003, 1.994743e-002
2.134813e+003, 2.121725e-002
2.136741e+003, 2.069314e-002
2.138669e+003, 2.003680e-002
2.140598e+003, 2.091226e-002
2.142526e+003, 2.204234e-002
2.144455e+003, 2.313831e-002
2.146383e+003, 2.291855e-002
2.148312e+003, 2.058417e-002
2.150240e+003, 2.238094e-002
2.152169e+003, 2.370232e-002
2.154097e+003, 2.305410e-002
2.156026e+003, 2.125107e-002
2.157954e+003, 2.273459e-002
2.159883e+003, 2.341894e-002
2.161811e+003, 2.238789e-002
2.163740e+003, 2.255736e-002
2.165668e+003, 2.538239e-002
2.167596e+003, 2.751874e-002
2.169525e+003, 2.422480e-002
2.171453e+003, 2.009983e-002
2.173382e+003, 1.991268e-002
2.175310e+003, 2.252001e-002
2.177239e+003, 2.478663e-002
2.179167e+003, 2.608301e-002
2.181096e+003, 2.356626e-002
2.183024e+003, 2.431780e-002
2.184953e+003, 2.332586e-002
2.186881e+003, 2.314529e-002
2.188810e+003, 2.565265e-002
2.190738e+003, 2.379331e-002
2.192667e+003, 2.300018e-002
2.194595e+003, 2.420455e-002
2.196523e+003, 2.466950e-002
2.198452e+003, 2.291394e-002
2.200380e+003, 2.229367e-002
2.202309e+003, 2.506133e-002
2.204237e+003, 2.579639e-002
2.206166e+003, 2.521621e-002
2.208094e+003, 2.245511e-002
2.210023e+003, 2.260261e-002
2.211951e+003, 2.261468e-002
2.213880e+003, 2.390544e-002
2.215808e+003, 2.567532e-002
2.217737e+003, 2.426353e-002
2.219665e+003, 2.241634e-002
2.221594e+003, 2.217546e-002
2.223522e+003, 2.285299e-002
2.225450e+003, 2.760823e-002
2.227379e+003, 3.091707e-002
2.229307e+003, 2.801984e-002
2.231236e+003, 2.518698e-002
2.233164e+003, 2.544557e-002
2.235093e+003, 2.522368e-002
2.237021e+003, 2.428717e-002
2.238950e+003, 2.342640e-002
2.240878e+003, 2.352385e-002
2.242807e+003, 2.640505e-002
2.244735e+003, 2.898027e-002
2.246664e+003, 2.926486e-002
2.248592e+003, 2.814796e-002
2.250521e+003, 2.787957e-002
2.252449e+003, 2.689639e-002
2.254377e+003, 2.583268e-002
2.256306e+003, 2.604040e-002
2.258234e+003, 2.526462e-002
2.260163e+003, 2.352961e-002
2.262091e+003, 2.490954e-002
2.264020e+003, 2.721554e-002
2.265948e+003, 2.898764e-002
2.267877e+003, 2.718983e-002
2.269805e+003, 2.620917e-002
2.271734e+003, 2.787241e-002
2.273662e+003, 2.893581e-002
2.275591e+003, 2.826090e-002
2.277519e+003, 2.789270e-002
2.279448e+003, 2.729051e-002
2.281376e+003, 2.740786e-002
2.283304e+003, 2.785392e-002
2.285233e+003, 2.756062e-002
2.287161e+003, 2.836335e-002
2.289090e+003, 2.950829e-002
2.291018e+003, 2.982049e-002
2.292947e+003, 2.887696e-002
2.294875e+003, 2.827344e-002
2.296804e+003, 2.888393e-002
2.298732e+003, 2.870404e-002
2.300661e+003, 2.820434e-002
2.302589e+003, 2.838182e-002
2.304518e+003, 2.826930e-002
2.306446e+003, 2.849871e-002
2.308375e+003, 2.861658e-002
2.310303e+003, 2.754678e-002
2.312231e+003, 2.795468e-002
2.314160e+003, 2.854716e-002
2.316088e+003, 2.826734e-002
2.318017e+003, 2.905789e-002
2.319945e+003, 2.995102e-002
2.321874e+003, 3.091425e-002
2.323802e+003, 3.148670e-002
2.325731e+003, 3.090101e-002
2.327659e+003, 2.979695e-002
2.329588e+003, 2.873723e-002
2.331516e+003, 2.921415e-002
2.333445e+003, 3.029449e-002
2.335373e+003, 3.018894e-002
2.337302e+003, 2.934157e-002
2.339230e+003, 2.869241e-002
2.341158e+003, 2.852720e-002
2.343087e+003, 2.918063e-002
2.345015e+003, 2.916635e-002
2.346944e+003, 2.883326e-002
2.348872e+003, 2.860127e-002
2.350801e+003, 2.914100e-002
2.352729e+003, 2.986356e-002
2.354658e+003, 2.916698e-002
2.356586e+003, 2.889035e-002
2.358515e+003, 2.930586e-002
2.360443e+003, 2.918899e-002
2.362372e+003, 2.885444e-002
2.364300e+003, 2.909234e-002
2.366229e+003, 2.869312e-002
2.368157e+003, 2.792622e-002
2.370085e+003, 2.821133e-002
2.372014e+003, 2.888103e-002
2.373942e+003, 2.932153e-002
2.375871e+003, 2.899438e-002
2.377799e+003, 2.853994e-002
2.379728e+003, 2.815884e-002
2.381656e+003, 2.801373e-002
2.383585e+003, 2.813664e-002
2.385513e+003, 2.900280e-002
2.387442e+003, 2.882378e-002
2.389370e+003, 2.777296e-002
2.391299e+003, 2.772531e-002
2.393227e+003, 2.755972e-002
2.395156e+003, 2.793037e-002
2.397084e+003, 2.903403e-002
2.399012e+003, 2.942879e-002
2.400941e+003, 2.867279e-002
2.402869e+003, 2.854076e-002
2.404798e+003, 2.787429e-002
2.406726e+003, 2.788379e-002
2.408655e+003, 2.807073e-002
2.410583e+003, 2.863370e-002
2.412512e+003, 2.826653e-002
2.414440e+003, 2.816117e-002
2.416369e+003, 2.817675e-002
2.418297e+003, 2.788528e-002
2.420226e+003, 2.800115e-002
2.422154e+003, 2.869674e-002
2.424083e+003, 2.946131e-002
2.426011e+003, 2.881984e-002
2.427939e+003, 2.827961e-002
2.429868e+003, 2.931423e-002
2.431796e+003, 2.937246e-002
2.433725e+003, 2.950238e-002
2.435653e+003, 2.929035e-002
2.437582e+003, 2.954648e-002
2.439510e+003, 3.063397e-002
2.441439e+003, 3.088895e-002
2.443367e+003, 3.003685e-002
2.445296e+003, 3.027962e-002
2.447224e+003, 3.050676e-002
2.449153e+003, 3.059502e-002
2.451081e+003, 3.112801e-002
2.453010e+003, 3.069682e-002
2.454938e+003, 3.035600e-002
2.456866e+003, 3.034995e-002
2.458795e+003, 2.956697e-002
2.460723e+003, 2.959393e-002
2.462652e+003, 2.985707e-002
2.464580e+003, 2.824472e-002
2.466509e+003, 2.824132e-002
2.468437e+003, 3.013455e-002
2.470366e+003, 3.098774e-002
2.472294e+003, 2.956643e-002
2.474223e+003, 2.817940e-002
2.476151e+003, 2.844557e-002
2.478080e+003, 3.021679e-002
2.480008e+003, 3.122956e-002
2.481937e+003, 2.975326e-002
2.483865e+003, 3.038096e-002
2.485793e+003, 3.042208e-002
2.487722e+003, 2.986185e-002
2.489650e+003, 3.095678e-002
2.491579e+003, 3.228924e-002
2.493507e+003, 3.159884e-002
2.495436e+003, 3.164780e-002
2.497364e+003, 3.243728e-002
2.499293e+003, 3.267746e-002
2.501221e+003, 3.222440e-002
2.503150e+003, 3.225378e-002
2.505078e+003, 3.185786e-002
2.507007e+003, 3.175246e-002
2.508935e+003, 3.163448e-002
2.510864e+003, 3.175292e-002
2.512792e+003, 3.163442e-002
2.514720e+003, 3.246887e-002
2.516649e+003, 3.389713e-002
2.518577e+003, 3.443109e-002
2.520506e+003, 3.386560e-002
2.522434e+003, 3.302706e-002
2.524363e+003, 3.267041e-002
2.526291e+003, 3.301225e-002
2.528220e+003, 3.194869e-002
2.530148e+003, 3.221872e-002
2.532077e+003, 3.293586e-002
2.534005e+003, 3.275904e-002
2.535934e+003, 3.302456e-002
2.537862e+003, 3.376945e-002
2.539791e+003, 3.481332e-002
2.541719e+003, 3.423602e-002
2.543647e+003, 3.323732e-002
2.545576e+003, 3.271817e-002
2.547504e+003, 3.300730e-002
2.549433e+003, 3.430663e-002
2.551361e+003, 3.357588e-002
2.553290e+003, 3.248867e-002
2.555218e+003, 3.308300e-002
2.557147e+003, 3.341048e-002
2.559075e+003, 3.345568e-002
2.561004e+003, 3.391604e-002
2.562932e+003, 3.401452e-002
2.564861e+003, 3.353132e-002
2.566789e+003, 3.407658e-002
2.568718e+003, 3.394090e-002
2.570646e+003, 3.394074e-002
2.572574e+003, 3.434261e-002
2.574503e+003, 3.365527e-002
2.576431e+003, 3.315890e-002
2.578360e+003, 3.358234e-002
2.580288e+003, 3.469636e-002
2.582217e+003, 3.545597e-002
2.584145e+003, 3.680866e-002
2.586074e+003, 3.601360e-002
2.588002e+003, 3.465513e-002
2.589931e+003, 3.397873e-002
2.591859e+003, 3.374375e-002
2.593788e+003, 3.494782e-002
2.595716e+003, 3.682578e-002
2.597645e+003, 3.635845e-002
2.599573e+003, 3.551170e-002
2.601501e+003, 3.597809e-002
2.603430e+003, 3.624407e-002
2.605358e+003, 3.678135e-002
2.607287e+003, 3.649591e-002
2.609215e+003, 3.714781e-002
2.611144e+003, 3.666954e-002
2.613072e+003, 3.722392e-002
2.615001e+003, 3.728712e-002
2.616929e+003, 3.621419e-002
2.618858e+003, 3.596661e-002
2.620786e+003, 3.684326e-002
2.622715e+003, 3.796578e-002
2.624643e+003, 3.799856e-002
2.626572e+003, 3.801064e-002
2.628500e+003, 3.781769e-002
2.630428e+003, 3.778625e-002
2.632357e+003, 3.822431e-002
2.634285e+003, 3.788361e-002
2.636214e+003, 3.745078e-002
2.638142e+003, 3.754284e-002
2.640071e+003, 3.746119e-002
2.641999e+003, 3.699102e-002
2.643928e+003, 3.694447e-002
2.645856e+003, 3.764954e-002
2.647785e+003, 3.791325e-002
2.649713e+003, 3.793224e-002
2.651642e+003, 3.846365e-002
2.653570e+003, 3.804462e-002
2.655499e+003, 3.731861e-002
2.657427e+003, 3.721521e-002
2.659355e+003, 3.724986e-002
2.661284e+003, 3.771983e-002
2.663212e+003, 3.745700e-002
2.665141e+003, 3.674727e-002
2.667069e+003, 3.636216e-002
2.668998e+003, 3.679762e-002
2.670926e+003, 3.724706e-002
2.672855e+003, 3.723902e-002
2.674783e+003, 3.757342e-002
2.676712e+003, 3.742025e-002
2.678640e+003, 3.667891e-002
2.680569e+003, 3.682550e-002
2.682497e+003, 3.740383e-002
2.684426e+003, 3.779652e-002
2.686354e+003, 3.733639e-002
2.688282e+003, 3.629222e-002
2.690211e+003, 3.588717e-002
2.692139e+003, 3.663428e-002
2.694068e+003, 3.669414e-002
2.695996e+003, 3.644511e-002
2.697925e+003, 3.638007e-002
2.699853e+003, 3.689802e-002
2.701782e+003, 3.716792e-002
2.703710e+003, 3.705271e-002
2.705639e+003, 3.710930e-002
2.707567e+003, 3.694003e-002
2.709496e+003, 3.762585e-002
2.711424e+003, 3.774308e-002
2.713353e+003, 3.795440e-002
2.715281e+003, 3.810263e-002
2.717209e+003, 3.776058e-002
2.719138e+003, 3.730124e-002
2.721066e+003, 3.714858e-002
2.722995e+003, 3.756657e-002
2.724923e+003, 3.740828e-002
2.726852e+003, 3.682103e-002
2.728780e+003, 3.680565e-002
2.730709e+003, 3.728638e-002
2.732637e+003, 3.789795e-002
2.734566e+003, 3.772667e-002
2.736494e+003, 3.791456e-002
2.738423e+003, 3.802315e-002
2.740351e+003, 3.820359e-002
2.742280e+003, 3.838192e-002
2.744208e+003, 3.849897e-002
2.746136e+003, 3.891977e-002
2.748065e+003, 3.923462e-002
2.749993e+003, 3.923052e-002
2.751922e+003, 3.905734e-002
2.753850e+003, 3.862341e-002
2.755779e+003, 3.821917e-002
2.757707e+003, 3.855539e-002
2.759636e+003, 3.927547e-002
2.761564e+003, 3.910202e-002
2.763493e+003, 3.909272e-002
2.765421e+003, 3.959691e-002
2.767350e+003, 3.939852e-002
2.769278e+003, 4.004025e-002
2.771207e+003, 4.036008e-002
2.773135e+003, 4.001936e-002
2.775063e+003, 3.965021e-002
2.776992e+003, 3.937237e-002
2.778920e+003, 3.969685e-002
2.780849e+003, 4.003229e-002
2.782777e+003, 4.021942e-002
2.784706e+003, 4.054209e-002
2.786634e+003, 4.066947e-002
2.788563e+003, 4.063302e-002
2.790491e+003, 4.042096e-002
2.792420e+003, 3.994906e-002
2.794348e+003, 3.983715e-002
2.796277e+003, 3.952040e-002
2.798205e+003, 3.999312e-002
2.800134e+003, 4.125744e-002
2.802062e+003, 4.185931e-002
2.803990e+003, 4.079297e-002
2.805919e+003, 4.026634e-002
2.807847e+003, 4.094597e-002
2.809776e+003, 4.153841e-002
2.811704e+003, 4.171286e-002
2.813633e+003, 4.115924e-002
2.815561e+003, 4.066055e-002
2.817490e+003, 4.043007e-002
2.819418e+003, 4.117566e-002
2.821347e+003, 4.151991e-002
2.823275e+003, 4.058696e-002
2.825204e+003, 3.997894e-002
2.827132e+003, 4.036503e-002
2.829061e+003, 4.160337e-002
2.830989e+003, 4.205768e-002
2.832917e+003, 4.159727e-002
2.834846e+003, 4.081981e-002
2.836774e+003, 4.122531e-002
2.838703e+003, 4.254813e-002
2.840631e+003, 4.253407e-002
2.842560e+003, 4.110517e-002
2.844488e+003, 3.979846e-002
2.846417e+003, 4.058452e-002
2.848345e+003, 4.080270e-002
2.850274e+003, 4.134160e-002
2.852202e+003, 4.076584e-002
2.854131e+003, 4.060392e-002
2.856059e+003, 4.166595e-002
2.857988e+003, 4.176930e-002
2.859916e+003, 4.211839e-002
2.861844e+003, 4.249184e-002
2.863773e+003, 4.318971e-002
2.865701e+003, 4.463739e-002
2.867630e+003, 4.558684e-002
2.869558e+003, 4.490849e-002
2.871487e+003, 4.332673e-002
2.873415e+003, 4.202028e-002
2.875344e+003, 4.263598e-002
2.877272e+003, 4.434379e-002
2.879201e+003, 4.423503e-002
2.881129e+003, 4.394377e-002
2.883058e+003, 4.398278e-002
2.884986e+003, 4.271427e-002
2.886915e+003, 4.271313e-002
2.888843e+003, 4.437901e-002
2.890771e+003, 4.490072e-002
2.892700e+003, 4.573387e-002
2.894628e+003, 4.522378e-002
2.896557e+003, 4.500302e-002
2.898485e+003, 4.522261e-002
2.900414e+003, 4.399973e-002
2.902342e+003, 4.342555e-002
2.904271e+003, 4.556776e-002
2.906199e+003, 4.613176e-002
2.908128e+003, 4.486425e-002
2.910056e+003, 4.509573e-002
2.911985e+003, 4.486627e-002
2.913913e+003, 4.446500e-002
2.915842e+003, 4.421947e-002
2.917770e+003, 4.450653e-002
2.919698e+003, 4.458735e-002
2.921627e+003, 4.495034e-002
2.923555e+003, 4.506231e-002
2.925484e+003, 4.471375e-002
2.927412e+003, 4.451437e-002
2.929341e+003, 4.601897e-002
2.931269e+003, 4.642504e-002
2.933198e+003, 4.692812e-002
2.935126e+003, 4.760844e-002
2.937055e+003, 4.839779e-002
2.938983e+003, 4.845800e-002
2.940912e+003, 4.862240e-002
2.942840e+003, 4.887015e-002
2.944769e+003, 4.745829e-002
2.946697e+003, 4.683263e-002
2.948625e+003, 4.827200e-002
2.950554e+003, 4.859537e-002
2.952482e+003, 4.896909e-002
2.954411e+003, 4.994501e-002
2.956339e+003, 4.937006e-002
2.958268e+003, 4.886210e-002
2.960196e+003, 4.911119e-002
2.962125e+003, 4.943128e-002
2.964053e+003, 4.930324e-002
2.965982e+003, 5.041908e-002
2.967910e+003, 5.138751e-002
2.969839e+003, 5.054512e-002
2.971767e+003, 4.948322e-002
2.973696e+003, 4.990629e-002
2.975624e+003, 5.041639e-002
2.977552e+003, 5.039674e-002
2.979481e+003, 5.060595e-002
2.981409e+003, 5.076424e-002
2.983338e+003, 5.035244e-002
2.985266e+003, 5.004691e-002
2.987195e+003, 5.001689e-002
2.989123e+003, 5.050207e-002
2.991052e+003, 5.159060e-002
2.992980e+003, 5.083461e-002
2.994909e+003, 5.061726e-002
2.996837e+003, 5.168946e-002
2.998766e+003, 5.273175e-002
3.000694e+003, 5.286423e-002
3.002623e+003, 5.149404e-002
3.004551e+003, 5.125549e-002
3.006479e+003, 5.139169e-002
3.008408e+003, 5.080872e-002
3.010336e+003, 5.116270e-002
3.012265e+003, 5.158070e-002
3.014193e+003, 5.135424e-002
3.016122e+003, 5.080467e-002
3.018050e+003, 5.187941e-002
3.019979e+003, 5.341094e-002
3.021907e+003, 5.319458e-002
3.023836e+003, 5.274625e-002
3.025764e+003, 5.274410e-002
3.027693e+003, 5.368729e-002
3.029621e+003, 5.328907e-002
3.031550e+003, 5.234535e-002
3.033478e+003, 5.275365e-002
3.035406e+003, 5.373544e-002
3.037335e+003, 5.462870e-002
3.039263e+003, 5.319318e-002
3.041192e+003, 5.262425e-002
3.043120e+003, 5.423996e-002
3.045049e+003, 5.419896e-002
3.046977e+003, 5.351456e-002
3.048906e+003, 5.400357e-002
3.050834e+003, 5.367367e-002
3.052763e+003, 5.323168e-002
3.054691e+003, 5.365173e-002
3.056620e+003, 5.422924e-002
3.058548e+003, 5.459128e-002
3.060477e+003, 5.538318e-002
3.062405e+003, 5.430398e-002
3.064333e+003, 5.373312e-002
3.066262e+003, 5.472483e-002
3.068190e+003, 5.487483e-002
3.070119e+003, 5.430587e-002
3.072047e+003, 5.562728e-002
3.073976e+003, 5.550727e-002
3.075904e+003, 5.516562e-002
3.077833e+003, 5.611517e-002
3.079761e+003, 5.697949e-002
3.081690e+003, 5.705215e-002
3.083618e+003, 5.595024e-002
3.085547e+003, 5.682166e-002
3.087475e+003, 5.744059e-002
3.089404e+003, 5.477452e-002
3.091332e+003, 5.333924e-002
3.093260e+003, 5.515351e-002
3.095189e+003, 5.711340e-002
3.097117e+003, 5.662249e-002
3.099046e+003, 5.654905e-002
3.100974e+003, 5.613007e-002
3.102903e+003, 5.700827e-002
3.104831e+003, 5.780483e-002
3.106760e+003, 5.725849e-002
3.108688e+003, 5.799652e-002
3.110617e+003, 5.913823e-002
3.112545e+003, 5.922296e-002
3.114474e+003, 5.947735e-002
3.116402e+003, 5.795052e-002
3.118331e+003, 5.732729e-002
3.120259e+003, 5.807566e-002
3.122188e+003, 5.837559e-002
3.124116e+003, 5.826986e-002
3.126044e+003, 5.767594e-002
3.127973e+003, 5.832190e-002
3.129901e+003, 5.922981e-002
3.131830e+003, 5.860180e-002
3.133758e+003, 5.859930e-002
3.135687e+003, 5.894670e-002
3.137615e+003, 5.982216e-002
3.139544e+003, 6.009428e-002
3.141472e+003, 6.130891e-002
3.143401e+003, 6.034423e-002
3.145329e+003, 5.871437e-002
3.147258e+003, 5.733275e-002
3.149186e+003, 5.652091e-002
3.151115e+003, 5.774756e-002
3.153043e+003, 5.821614e-002
3.154971e+003, 5.854139e-002
3.156900e+003, 6.072299e-002
3.158828e+003, 6.127570e-002
3.160757e+003, 6.017311e-002
3.162685e+003, 6.069878e-002
3.164614e+003, 6.131534e-002
3.166542e+003, 6.174683e-002
3.168471e+003, 6.284238e-002
3.170399e+003, 6.285060e-002
3.172328e+003, 6.057395e-002
3.174256e+003, 6.020375e-002
3.176185e+003, 6.121043e-002
3.178113e+003, 6.128678e-002
3.180042e+003, 6.084280e-002
3.181970e+003, 6.058060e-002
3.183898e+003, 6.139934e-002
3.185827e+003, 6.163519e-002
3.187755e+003, 6.111634e-002
3.189684e+003, 6.224506e-002
3.191612e+003, 6.206215e-002
3.193541e+003, 6.078243e-002
3.195469e+003, 6.320896e-002
3.197398e+003, 6.446999e-002
3.199326e+003, 6.276202e-002
3.201255e+003, 6.169568e-002
3.203183e+003, 6.227928e-002
3.205112e+003, 6.319132e-002
3.207040e+003, 6.416860e-002
3.208969e+003, 6.355667e-002
3.210897e+003, 6.286379e-002
3.212825e+003, 6.350650e-002
3.214754e+003, 6.497415e-002
3.216682e+003, 6.420138e-002
3.218611e+003, 6.302007e-002
3.220539e+003, 6.188686e-002
3.222468e+003, 6.180674e-002
3.224396e+003, 6.334436e-002
3.226325e+003, 6.301611e-002
3.228253e+003, 6.347577e-002
3.230182e+003, 6.545080e-002
3.232110e+003, 6.601679e-002
3.234039e+003, 6.534540e-002
3.235967e+003, 6.353511e-002
3.237896e+003, 6.187571e-002
3.239824e+003, 6.310675e-002
3.241752e+003, 6.354880e-002
3.243681e+003, 6.289898e-002
3.245609e+003, 6.242336e-002
3.247538e+003, 6.446136e-002
3.249466e+003, 6.848492e-002
3.251395e+003, 6.651548e-002
3.253323e+003, 6.249781e-002
3.255252e+003, 6.295915e-002
3.257180e+003, 6.420761e-002
3.259109e+003, 6.388350e-002
3.261037e+003, 6.471156e-002
3.262966e+003, 6.445516e-002
3.264894e+003, 6.406820e-002
3.266823e+003, 6.479837e-002
3.268751e+003, 6.322817e-002
3.270679e+003, 6.318287e-002
3.272608e+003, 6.483074e-002
3.274536e+003, 6.579306e-002
3.276465e+003, 6.566355e-002
3.278393e+003, 6.569684e-002
3.280322e+003, 6.565969e-002
3.282250e+003, 6.558634e-002
3.284179e+003, 6.571295e-002
3.286107e+003, 6.691749e-002
3.288036e+003, 6.675890e-002
3.289964e+003, 6.507963e-002
3.291893e+003, 6.425183e-002
3.293821e+003, 6.479754e-002
3.295750e+003, 6.635723e-002
3.297678e+003, 6.708406e-002
3.299606e+003, 6.683941e-002
3.301535e+003, 6.654933e-002
3.303463e+003, 6.674954e-002
3.305392e+003, 6.715204e-002
3.307320e+003, 6.740873e-002
3.309249e+003, 6.528198e-002
3.311177e+003, 6.475309e-002
3.313106e+003, 6.683961e-002
3.315034e+003, 6.892613e-002
3.316963e+003, 6.840140e-002
3.318891e+003, 6.811256e-002
3.320820e+003, 7.033737e-002
3.322748e+003, 6.927006e-002
3.324677e+003, 6.700230e-002
3.326605e+003, 6.773351e-002
3.328533e+003, 6.815933e-002
3.330462e+003, 6.691512e-002
3.332390e+003, 6.663218e-002
3.334319e+003, 6.952576e-002
3.336247e+003, 7.019229e-002
3.338176e+003, 6.897677e-002
3.340104e+003, 6.901871e-002
3.342033e+003, 7.046489e-002
3.343961e+003, 7.132833e-002
3.345890e+003, 7.077467e-002
3.347818e+003, 6.881705e-002
3.349747e+003, 6.713136e-002
3.351675e+003, 6.785540e-002
3.353604e+003, 6.954985e-002
3.355532e+003, 6.928969e-002
3.357460e+003, 6.846529e-002
3.359389e+003, 6.978741e-002
3.361317e+003, 7.021271e-002
3.363246e+003, 7.030386e-002
3.365174e+003, 6.985239e-002
3.367103e+003, 6.645095e-002
3.369031e+003, 6.726769e-002
3.370960e+003, 6.854755e-002
3.372888e+003, 6.807295e-002
3.374817e+003, 6.965508e-002
3.376745e+003, 6.963574e-002
3.378674e+003, 6.965661e-002
3.380602e+003, 6.975604e-002
3.382531e+003, 7.127206e-002
3.384459e+003, 7.302550e-002
3.386387e+003, 7.153719e-002
3.388316e+003, 7.058384e-002
3.390244e+003, 7.080634e-002
3.392173e+003, 7.245788e-002
3.394101e+003, 7.272472e-002
3.396030e+003, 7.007191e-002
3.397958e+003, 7.018360e-002
3.399887e+003, 7.394347e-002
3.401815e+003, 7.527672e-002
3.403744e+003, 7.244693e-002
3.405672e+003, 7.202965e-002
3.407601e+003, 7.204838e-002
3.409529e+003, 7.320781e-002
3.411458e+003, 7.306645e-002
3.413386e+003, 7.267141e-002
3.415314e+003, 7.355486e-002
3.417243e+003, 7.366303e-002
3.419171e+003, 7.389308e-002
3.421100e+003, 7.521115e-002
3.423028e+003, 7.615878e-002
3.424957e+003, 7.436165e-002
3.426885e+003, 7.297323e-002
3.428814e+003, 7.436800e-002
3.430742e+003, 7.394172e-002
3.432671e+003, 7.340346e-002
3.434599e+003, 7.391924e-002
3.436528e+003, 7.189318e-002
3.438456e+003, 7.153929e-002
3.440385e+003, 7.198930e-002
3.442313e+003, 7.179520e-002
3.444241e+003, 7.252706e-002
3.446170e+003, 7.177453e-002
3.448098e+003, 7.221509e-002
3.450027e+003, 7.370063e-002
3.451955e+003, 7.470160e-002
3.453884e+003, 7.443170e-002
3.455812e+003, 7.415225e-002
3.457741e+003, 7.147990e-002
3.459669e+003, 7.126949e-002
3.461598e+003, 7.242102e-002
3.463526e+003, 7.191679e-002
3.465455e+003, 7.205620e-002
3.467383e+003, 7.294032e-002
3.469312e+003, 7.374026e-002
3.471240e+003, 7.445586e-002
3.473168e+003, 7.410651e-002
3.475097e+003, 7.443444e-002
3.477025e+003, 7.584887e-002
3.478954e+003, 7.416905e-002
3.480882e+003, 7.185815e-002
3.482811e+003, 7.442195e-002
3.484739e+003, 7.678454e-002
3.486668e+003, 7.482003e-002
3.488596e+003, 7.207376e-002
3.490525e+003, 6.984971e-002
3.492453e+003, 7.031175e-002
3.494382e+003, 7.149258e-002
3.496310e+003, 7.015959e-002
3.498239e+003, 7.120229e-002
3.500167e+003, 7.273199e-002
3.502095e+003, 7.241240e-002
3.504024e+003, 7.189360e-002
3.505952e+003, 7.077688e-002
3.507881e+003, 6.923010e-002
3.509809e+003, 6.953423e-002
3.511738e+003, 7.178523e-002
3.513666e+003, 7.231518e-002
3.515595e+003, 6.997928e-002
3.517523e+003, 6.874423e-002
3.519452e+003, 7.087839e-002
3.521380e+003, 7.216152e-002
3.523309e+003, 7.191310e-002
3.525237e+003, 7.023651e-002
3.527166e+003, 7.137863e-002
3.529094e+003, 7.344176e-002
3.531022e+003, 7.284279e-002
3.532951e+003, 7.062946e-002
3.534879e+003, 7.051484e-002
3.536808e+003, 7.002347e-002
3.538736e+003, 7.148392e-002
3.540665e+003, 7.448053e-002
3.542593e+003, 7.376307e-002
3.544522e+003, 7.091636e-002
3.546450e+003, 6.978963e-002
3.548379e+003, 7.126354e-002
3.550307e+003, 7.393060e-002
3.552236e+003, 7.722668e-002
3.554164e+003, 8.111991e-002
3.556093e+003, 8.376867e-002
3.558021e+003, 8.429635e-002
3.559949e+003, 8.344876e-002
3.561878e+003, 8.321297e-002
3.563806e+003, 8.134583e-002
3.565735e+003, 7.427666e-002
3.567663e+003, 6.920662e-002
3.569592e+003, 6.995670e-002
3.571520e+003, 7.099116e-002
3.573449e+003, 6.870907e-002
3.575377e+003, 6.684183e-002
3.577306e+003, 6.435370e-002
3.579234e+003, 6.250003e-002
3.581163e+003, 6.433552e-002
3.583091e+003, 6.562572e-002
3.585020e+003, 6.549565e-002
3.586948e+003, 6.424313e-002
3.588876e+003, 6.370551e-002
3.590805e+003, 6.186489e-002
3.592733e+003, 6.085730e-002
3.594662e+003, 6.103276e-002
3.596590e+003, 6.186587e-002
3.598519e+003, 6.138841e-002
3.600447e+003, 6.042926e-002
3.602376e+003, 6.078199e-002
3.604304e+003, 6.425471e-002
3.606233e+003, 6.500223e-002
3.608161e+003, 6.217150e-002
3.610090e+003, 6.046938e-002
3.612018e+003, 5.854853e-002
3.613947e+003, 5.783430e-002
3.615875e+003, 6.029000e-002
3.617803e+003, 5.941360e-002
3.619732e+003, 5.699797e-002
3.621660e+003, 5.690192e-002
3.623589e+003, 5.715395e-002
3.625517e+003, 5.788113e-002
3.627446e+003, 5.878064e-002
3.629374e+003, 5.973626e-002
3.631303e+003, 5.800869e-002
3.633231e+003, 5.822785e-002
3.635160e+003, 6.000788e-002
3.637088e+003, 6.011920e-002
3.639017e+003, 5.702661e-002
3.640945e+003, 5.504083e-002
3.642874e+003, 5.339216e-002
3.644802e+003, 5.198409e-002
3.646730e+003, 5.179097e-002
3.648659e+003, 5.319276e-002
3.650587e+003, 5.250865e-002
3.652516e+003, 5.409788e-002
3.654444e+003, 5.469736e-002
3.656373e+003, 5.660429e-002
3.658301e+003, 5.941149e-002
3.660230e+003, 5.784683e-002
3.662158e+003, 5.743995e-002
3.664087e+003, 5.825495e-002
3.666015e+003, 5.711677e-002
3.667944e+003, 5.604481e-002
3.669872e+003, 5.467782e-002
3.671801e+003, 5.257372e-002
3.673729e+003, 5.171440e-002
3.675657e+003, 4.894302e-002
3.677586e+003, 4.669335e-002
3.679514e+003, 4.756077e-002
3.681443e+003, 4.917075e-002
3.683371e+003, 5.260103e-002
3.685300e+003, 5.153007e-002
3.687228e+003, 4.996682e-002
3.689157e+003, 5.184155e-002
3.691085e+003, 5.335679e-002
3.693014e+003, 5.011567e-002
3.694942e+003, 4.710874e-002
3.696871e+003, 4.896924e-002
3.698799e+003, 5.238053e-002
3.700728e+003, 5.349338e-002
3.702656e+003, 5.428880e-002
3.704584e+003, 5.307776e-002
3.706513e+003, 5.195035e-002
3.708441e+003, 5.016378e-002
3.710370e+003, 5.169006e-002
3.712298e+003, 5.435257e-002
3.714227e+003, 5.112503e-002
3.716155e+003, 4.833086e-002
3.718084e+003, 4.817849e-002
3.720012e+003, 4.748829e-002
3.721941e+003, 4.804157e-002
3.723869e+003, 4.769802e-002
3.725798e+003, 4.898844e-002
3.727726e+003, 4.891119e-002
3.729655e+003, 4.755576e-002
3.731583e+003, 4.690325e-002
3.733511e+003, 4.696785e-002
3.735440e+003, 4.864059e-002
3.737368e+003, 4.881641e-002
3.739297e+003, 4.825820e-002
3.741225e+003, 5.118001e-002
3.743154e+003, 5.336979e-002
3.745082e+003, 5.047765e-002
3.747011e+003, 4.637692e-002
3.748939e+003, 4.842256e-002
3.750868e+003, 5.140965e-002
3.752796e+003, 5.179365e-002
3.754725e+003, 4.910298e-002
3.756653e+003, 4.711919e-002
3.758582e+003, 4.985253e-002
3.760510e+003, 5.148664e-002
3.762438e+003, 5.012580e-002
3.764367e+003, 5.034147e-002
3.766295e+003, 5.133250e-002
3.768224e+003, 5.016156e-002
3.770152e+003, 4.876940e-002
3.772081e+003, 4.986768e-002
3.774009e+003, 4.914397e-002
3.775938e+003, 4.826084e-002
3.777866e+003, 4.916272e-002
3.779795e+003, 4.876627e-002
3.781723e+003, 4.895303e-002
3.783652e+003, 4.923905e-002
3.785580e+003, 4.961444e-002
3.787509e+003, 5.041879e-002
3.789437e+003, 5.072737e-002
3.791365e+003, 5.160096e-002
3.793294e+003, 5.069773e-002
3.795222e+003, 5.009039e-002
3.797151e+003, 5.219542e-002
3.799079e+003, 5.121985e-002
3.801008e+003, 5.077368e-002
3.802936e+003, 5.170175e-002
3.804865e+003, 5.048266e-002
3.806793e+003, 5.063934e-002
3.808722e+003, 5.244644e-002
3.810650e+003, 4.973456e-002
3.812579e+003, 4.698206e-002
3.814507e+003, 4.910658e-002
3.816436e+003, 5.205895e-002
3.818364e+003, 5.257660e-002
3.820292e+003, 5.189461e-002
3.822221e+003, 4.960800e-002
3.824149e+003, 4.702779e-002
3.826078e+003, 4.905314e-002
3.828006e+003, 5.004931e-002
3.829935e+003, 4.873627e-002
3.831863e+003, 5.049729e-002
3.833792e+003, 5.133501e-002
3.835720e+003, 5.151092e-002
3.837649e+003, 5.073031e-002
3.839577e+003, 5.125268e-002
3.841506e+003, 5.206418e-002
3.843434e+003, 5.090919e-002
3.845363e+003, 5.131716e-002
3.847291e+003, 5.082873e-002
3.849219e+003, 5.083724e-002
3.851148e+003, 4.948759e-002
3.853076e+003, 5.007713e-002
3.855005e+003, 5.095816e-002
3.856933e+003, 5.074323e-002
3.858862e+003, 5.063906e-002
3.860790e+003, 5.098030e-002
3.862719e+003, 5.136309e-002
3.864647e+003, 5.124918e-002
3.866576e+003, 5.002106e-002
3.868504e+003, 4.849798e-002
3.870433e+003, 5.042111e-002
3.872361e+003, 4.949192e-002
3.874290e+003, 4.988638e-002
3.876218e+003, 5.095617e-002
3.878146e+003, 4.997364e-002
3.880075e+003, 4.933406e-002
3.882003e+003, 4.864895e-002
3.883932e+003, 4.969414e-002
3.885860e+003, 5.072664e-002
3.887789e+003, 5.108638e-002
3.889717e+003, 4.888981e-002
3.891646e+003, 4.752054e-002
3.893574e+003, 4.723747e-002
3.895503e+003, 4.715854e-002
3.897431e+003, 4.993004e-002
3.899360e+003, 5.295839e-002
3.901288e+003, 5.183224e-002
3.903217e+003, 4.863327e-002
3.905145e+003, 4.798418e-002
3.907073e+003, 5.154608e-002
3.909002e+003, 5.229801e-002
3.910930e+003, 5.265834e-002
3.912859e+003, 5.219412e-002
3.914787e+003, 5.167660e-002
3.916716e+003, 5.119028e-002
3.918644e+003, 4.972459e-002
3.920573e+003, 4.914539e-002
3.922501e+003, 5.144029e-002
3.924430e+003, 5.231373e-002
3.926358e+003, 5.328440e-002
3.928287e+003, 5.115266e-002
3.930215e+003, 4.979486e-002
3.932144e+003, 5.397881e-002
3.934072e+003, 5.460341e-002
3.936000e+003, 5.329873e-002
3.937929e+003, 5.373869e-002
3.939857e+003, 5.184336e-002
3.941786e+003, 4.893092e-002
3.943714e+003, 5.181815e-002
3.945643e+003, 5.662532e-002
3.947571e+003, 5.473595e-002
3.949500e+003, 4.950261e-002
3.951428e+003, 4.776206e-002
3.953357e+003, 5.025692e-002
3.955285e+003, 5.469353e-002
3.957214e+003, 5.602110e-002
3.959142e+003, 5.466738e-002
3.961071e+003, 5.227686e-002
3.962999e+003, 4.914695e-002
3.964927e+003, 4.975494e-002
3.966856e+003, 5.308870e-002
3.968784e+003, 5.252915e-002
3.970713e+003, 4.944623e-002
3.972641e+003, 5.064900e-002
3.974570e+003, 4.899804e-002
3.976498e+003, 4.644637e-002
3.978427e+003, 4.888082e-002
3.980355e+003, 4.870211e-002
3.982284e+003, 5.016018e-002
3.984212e+003, 5.155622e-002
3.986141e+003, 5.315924e-002
3.988069e+003, 5.320921e-002
3.989998e+003, 5.142979e-002
3.991926e+003, 5.286749e-002
3.993854e+003, 5.407095e-002
3.995783e+003, 5.406633e-002
3.997711e+003, 5.366257e-002
3.999640e+003, 5.227421e-002
4.001568e+003, 0.000000e+000
##END=



