##NAMES=Weddellite
##RRUFFID=R050242
##IDEAL CHEMISTRY=Ca(C_2_)^6+^O_4_&#183;2H_2_O
##LOCALITY=Biggs, Wasco County, Oregon, USA
##OWNER=RRUFF
##SOURCE=Marcus Origlieri
##DESCRIPTION=Isolated yellowish brown crystal
##STATUS=The identification of this mineral has been confirmed by X-ray diffraction and chemical analysis
##URL=rruff.info/R050242
##MEASURED CHEMISTRY=Ca_1.00_(C_2_O_4_)Â·2H_2_O ; C not measured
3.991926e+002, 4.546500e-002
4.011211e+002, 4.253336e-002
4.030495e+002, 4.257396e-002
4.049780e+002, 4.600384e-002
4.069065e+002, 4.713996e-002
4.088349e+002, 4.638288e-002
4.107634e+002, 4.817761e-002
4.126919e+002, 4.903189e-002
4.146203e+002, 4.892460e-002
4.165488e+002, 4.927912e-002
4.184773e+002, 4.802503e-002
4.204057e+002, 4.874200e-002
4.223342e+002, 4.942232e-002
4.242627e+002, 4.994524e-002
4.261911e+002, 5.053188e-002
4.281196e+002, 5.074134e-002
4.300481e+002, 5.167301e-002
4.319765e+002, 5.196850e-002
4.339050e+002, 5.160210e-002
4.358335e+002, 5.194646e-002
4.377619e+002, 5.155381e-002
4.396904e+002, 5.171441e-002
4.416189e+002, 5.210395e-002
4.435473e+002, 5.261832e-002
4.454758e+002, 5.293508e-002
4.474043e+002, 5.289679e-002
4.493327e+002, 5.323130e-002
4.512612e+002, 5.351778e-002
4.531897e+002, 5.414226e-002
4.551181e+002, 5.483205e-002
4.570466e+002, 5.517160e-002
4.589751e+002, 5.557585e-002
4.609035e+002, 5.619159e-002
4.628320e+002, 5.673859e-002
4.647605e+002, 5.657462e-002
4.666889e+002, 5.662612e-002
4.686174e+002, 5.779156e-002
4.705459e+002, 5.896606e-002
4.724743e+002, 5.997571e-002
4.744028e+002, 6.056780e-002
4.763313e+002, 6.165840e-002
4.782597e+002, 6.316743e-002
4.801882e+002, 6.432097e-002
4.821167e+002, 6.530332e-002
4.840451e+002, 6.626341e-002
4.859736e+002, 6.731436e-002
4.879021e+002, 6.859941e-002
4.898305e+002, 7.031160e-002
4.917590e+002, 7.145356e-002
4.936875e+002, 7.223635e-002
4.956159e+002, 7.298528e-002
4.975444e+002, 7.312554e-002
4.994729e+002, 7.328314e-002
5.014013e+002, 7.343644e-002
5.033298e+002, 7.361759e-002
5.052583e+002, 7.375035e-002
5.071867e+002, 7.452141e-002
5.091152e+002, 7.631709e-002
5.110437e+002, 7.789698e-002
5.129721e+002, 7.886227e-002
5.149006e+002, 7.916869e-002
5.168290e+002, 7.834445e-002
5.187575e+002, 7.592879e-002
5.206860e+002, 7.269568e-002
5.226144e+002, 6.932881e-002
5.245429e+002, 6.583188e-002
5.264714e+002, 6.219720e-002
5.283998e+002, 5.948021e-002
5.303283e+002, 5.751698e-002
5.322568e+002, 5.558846e-002
5.341852e+002, 5.426057e-002
5.361137e+002, 5.366549e-002
5.380422e+002, 5.305916e-002
5.399706e+002, 5.229915e-002
5.418991e+002, 5.169392e-002
5.438276e+002, 5.138195e-002
5.457560e+002, 5.141466e-002
5.476845e+002, 5.153160e-002
5.496130e+002, 5.153606e-002
5.515414e+002, 5.115008e-002
5.534699e+002, 5.124888e-002
5.553984e+002, 5.180633e-002
5.573268e+002, 5.203209e-002
5.592553e+002, 5.213384e-002
5.611838e+002, 5.224149e-002
5.631122e+002, 5.235791e-002
5.650407e+002, 5.261334e-002
5.669692e+002, 5.317293e-002
5.688976e+002, 5.372130e-002
5.708261e+002, 5.392781e-002
5.727546e+002, 5.415760e-002
5.746830e+002, 5.450631e-002
5.766115e+002, 5.522303e-002
5.785400e+002, 5.554585e-002
5.804684e+002, 5.566990e-002
5.823969e+002, 5.615315e-002
5.843254e+002, 5.667792e-002
5.862538e+002, 5.719906e-002
5.881823e+002, 5.767475e-002
5.901108e+002, 5.790436e-002
5.920392e+002, 5.798421e-002
5.939677e+002, 5.814507e-002
5.958962e+002, 5.805122e-002
5.978246e+002, 5.777409e-002
5.997531e+002, 5.768816e-002
6.016816e+002, 5.766441e-002
6.036100e+002, 5.757455e-002
6.055385e+002, 5.734129e-002
6.074670e+002, 5.712440e-002
6.093954e+002, 5.683954e-002
6.113239e+002, 5.629718e-002
6.132524e+002, 5.583159e-002
6.151808e+002, 5.544867e-002
6.171093e+002, 5.495806e-002
6.190378e+002, 5.431050e-002
6.209662e+002, 5.381618e-002
6.228947e+002, 5.343580e-002
6.248232e+002, 5.294851e-002
6.267516e+002, 5.221117e-002
6.286801e+002, 5.184072e-002
6.306086e+002, 5.164909e-002
6.325370e+002, 5.115839e-002
6.344655e+002, 5.075416e-002
6.363940e+002, 5.015218e-002
6.383224e+002, 4.948998e-002
6.402509e+002, 4.915462e-002
6.421794e+002, 4.898819e-002
6.441078e+002, 4.887428e-002
6.460363e+002, 4.865809e-002
6.479648e+002, 4.827974e-002
6.498932e+002, 4.809400e-002
6.518217e+002, 4.799378e-002
6.537502e+002, 4.788086e-002
6.556786e+002, 4.769967e-002
6.576071e+002, 4.750448e-002
6.595356e+002, 4.706875e-002
6.614641e+002, 4.682879e-002
6.633925e+002, 4.662695e-002
6.653210e+002, 4.629279e-002
6.672495e+002, 4.574111e-002
6.691779e+002, 4.500432e-002
6.711064e+002, 4.431270e-002
6.730349e+002, 4.383662e-002
6.749633e+002, 4.315776e-002
6.768918e+002, 4.243989e-002
6.788203e+002, 4.158662e-002
6.807487e+002, 4.073904e-002
6.826772e+002, 4.007949e-002
6.846057e+002, 3.961877e-002
6.865341e+002, 3.926899e-002
6.884626e+002, 3.880557e-002
6.903911e+002, 3.818848e-002
6.923195e+002, 3.764775e-002
6.942480e+002, 3.737627e-002
6.961765e+002, 3.718695e-002
6.981049e+002, 3.679276e-002
7.000334e+002, 3.646603e-002
7.019619e+002, 3.632959e-002
7.038903e+002, 3.625853e-002
7.058188e+002, 3.640825e-002
7.077473e+002, 3.645159e-002
7.096757e+002, 3.627886e-002
7.116042e+002, 3.628007e-002
7.135327e+002, 3.631783e-002
7.154611e+002, 3.621686e-002
7.173896e+002, 3.625517e-002
7.193181e+002, 3.639432e-002
7.212465e+002, 3.640448e-002
7.231750e+002, 3.653201e-002
7.251035e+002, 3.672763e-002
7.270319e+002, 3.683866e-002
7.289604e+002, 3.694500e-002
7.308889e+002, 3.719034e-002
7.328173e+002, 3.760418e-002
7.347458e+002, 3.788917e-002
7.366743e+002, 3.818385e-002
7.386027e+002, 3.862659e-002
7.405312e+002, 3.900445e-002
7.424597e+002, 3.939771e-002
7.443881e+002, 4.001532e-002
7.463166e+002, 4.068835e-002
7.482451e+002, 4.129482e-002
7.501735e+002, 4.190533e-002
7.521020e+002, 4.244716e-002
7.540305e+002, 4.328705e-002
7.559589e+002, 4.441628e-002
7.578874e+002, 4.565369e-002
7.598159e+002, 4.669438e-002
7.617443e+002, 4.784013e-002
7.636728e+002, 4.886281e-002
7.656013e+002, 4.963978e-002
7.675297e+002, 5.063647e-002
7.694582e+002, 5.214506e-002
7.713867e+002, 5.416062e-002
7.733151e+002, 5.700441e-002
7.752436e+002, 6.066732e-002
7.771721e+002, 6.470603e-002
7.791005e+002, 6.760396e-002
7.810290e+002, 6.723033e-002
7.829575e+002, 6.284205e-002
7.848859e+002, 5.587324e-002
7.868144e+002, 4.883518e-002
7.887429e+002, 4.358179e-002
7.906713e+002, 4.003754e-002
7.925998e+002, 3.724753e-002
7.945283e+002, 3.458236e-002
7.964567e+002, 3.214255e-002
7.983852e+002, 2.985695e-002
8.003137e+002, 2.779358e-002
8.022421e+002, 2.606966e-002
8.041706e+002, 2.449876e-002
8.060991e+002, 2.292559e-002
8.080275e+002, 2.158395e-002
8.099560e+002, 2.055268e-002
8.118845e+002, 1.966869e-002
8.138129e+002, 1.874446e-002
8.157414e+002, 1.792289e-002
8.176699e+002, 1.715617e-002
8.195983e+002, 1.653232e-002
8.215268e+002, 1.627591e-002
8.234553e+002, 1.580569e-002
8.253837e+002, 1.520022e-002
8.273122e+002, 1.486473e-002
8.292407e+002, 1.458114e-002
8.311691e+002, 1.427440e-002
8.330976e+002, 1.405094e-002
8.350261e+002, 1.385639e-002
8.369545e+002, 1.358982e-002
8.388830e+002, 1.335078e-002
8.408115e+002, 1.299339e-002
8.427399e+002, 1.274772e-002
8.446684e+002, 1.256210e-002
8.465969e+002, 1.241868e-002
8.485253e+002, 1.225587e-002
8.504538e+002, 1.200888e-002
8.523823e+002, 1.175983e-002
8.543107e+002, 1.162287e-002
8.562392e+002, 1.138059e-002
8.581677e+002, 1.120116e-002
8.600961e+002, 1.110272e-002
8.620246e+002, 1.094223e-002
8.639531e+002, 1.067054e-002
8.658815e+002, 1.052579e-002
8.678100e+002, 1.056656e-002
8.697385e+002, 1.057720e-002
8.716669e+002, 1.043514e-002
8.735954e+002, 1.028301e-002
8.755239e+002, 1.028425e-002
8.774523e+002, 1.037118e-002
8.793808e+002, 1.029548e-002
8.813093e+002, 1.015781e-002
8.832377e+002, 1.024889e-002
8.851662e+002, 1.020103e-002
8.870947e+002, 9.872078e-003
8.890231e+002, 9.521362e-003
8.909516e+002, 9.106638e-003
8.928801e+002, 8.747282e-003
8.948085e+002, 8.397416e-003
8.967370e+002, 8.139443e-003
8.986655e+002, 7.914023e-003
9.005939e+002, 7.708620e-003
9.025224e+002, 7.780640e-003
9.044509e+002, 8.316822e-003
9.063793e+002, 9.152116e-003
9.083078e+002, 1.006536e-002
9.102363e+002, 1.064784e-002
9.121647e+002, 1.086279e-002
9.140932e+002, 1.092492e-002
9.160217e+002, 1.089459e-002
9.179501e+002, 1.070017e-002
9.198786e+002, 1.045196e-002
9.218071e+002, 1.019302e-002
9.237355e+002, 9.990609e-003
9.256640e+002, 9.729572e-003
9.275925e+002, 9.540127e-003
9.295209e+002, 9.389319e-003
9.314494e+002, 9.309432e-003
9.333779e+002, 9.297409e-003
9.353063e+002, 9.247149e-003
9.372348e+002, 9.336241e-003
9.391633e+002, 9.468723e-003
9.410917e+002, 9.417959e-003
9.430202e+002, 9.527054e-003
9.449487e+002, 9.776568e-003
9.468771e+002, 9.858183e-003
9.488056e+002, 9.814122e-003
9.507341e+002, 9.861459e-003
9.526625e+002, 9.838500e-003
9.545910e+002, 9.592509e-003
9.565195e+002, 9.444037e-003
9.584479e+002, 9.375242e-003
9.603764e+002, 9.177275e-003
9.623049e+002, 9.125109e-003
9.642333e+002, 9.075222e-003
9.661618e+002, 8.994652e-003
9.680903e+002, 8.844683e-003
9.700187e+002, 8.746351e-003
9.719472e+002, 8.754862e-003
9.738757e+002, 8.693700e-003
9.758041e+002, 8.577700e-003
9.777326e+002, 8.457348e-003
9.796611e+002, 8.429693e-003
9.815895e+002, 8.577680e-003
9.835180e+002, 8.510416e-003
9.854465e+002, 8.359892e-003
9.873749e+002, 8.299929e-003
9.893034e+002, 8.300532e-003
9.912319e+002, 8.185575e-003
9.931603e+002, 8.152166e-003
9.950888e+002, 8.173035e-003
9.970173e+002, 8.162448e-003
9.989457e+002, 8.087819e-003
1.000874e+003, 8.061776e-003
1.002803e+003, 8.019702e-003
1.004731e+003, 8.008202e-003
1.006660e+003, 8.090605e-003
1.008588e+003, 8.100623e-003
1.010517e+003, 8.173997e-003
1.012445e+003, 8.327864e-003
1.014373e+003, 8.264678e-003
1.016302e+003, 8.114729e-003
1.018230e+003, 8.124766e-003
1.020159e+003, 8.215593e-003
1.022087e+003, 8.239783e-003
1.024016e+003, 8.233519e-003
1.025944e+003, 8.216822e-003
1.027873e+003, 8.212527e-003
1.029801e+003, 8.274683e-003
1.031730e+003, 8.311457e-003
1.033658e+003, 8.322142e-003
1.035587e+003, 8.321868e-003
1.037515e+003, 8.376763e-003
1.039443e+003, 8.501749e-003
1.041372e+003, 8.512915e-003
1.043300e+003, 8.362518e-003
1.045229e+003, 8.251486e-003
1.047157e+003, 8.314165e-003
1.049086e+003, 8.329406e-003
1.051014e+003, 8.146998e-003
1.052943e+003, 7.928734e-003
1.054871e+003, 7.928639e-003
1.056800e+003, 8.001673e-003
1.058728e+003, 8.013776e-003
1.060657e+003, 7.947165e-003
1.062585e+003, 7.980277e-003
1.064514e+003, 7.998636e-003
1.066442e+003, 8.017477e-003
1.068370e+003, 7.974854e-003
1.070299e+003, 7.833526e-003
1.072227e+003, 7.690533e-003
1.074156e+003, 7.741671e-003
1.076084e+003, 7.768585e-003
1.078013e+003, 7.590716e-003
1.079941e+003, 7.429436e-003
1.081870e+003, 7.318711e-003
1.083798e+003, 7.297984e-003
1.085727e+003, 7.371040e-003
1.087655e+003, 7.296140e-003
1.089584e+003, 7.229852e-003
1.091512e+003, 7.231154e-003
1.093441e+003, 7.139834e-003
1.095369e+003, 7.080733e-003
1.097297e+003, 7.069176e-003
1.099226e+003, 6.996586e-003
1.101154e+003, 7.085062e-003
1.103083e+003, 7.156678e-003
1.105011e+003, 7.129276e-003
1.106940e+003, 7.201209e-003
1.108868e+003, 7.255491e-003
1.110797e+003, 7.291760e-003
1.112725e+003, 7.221593e-003
1.114654e+003, 7.215515e-003
1.116582e+003, 7.211738e-003
1.118511e+003, 7.134676e-003
1.120439e+003, 7.124749e-003
1.122368e+003, 7.040604e-003
1.124296e+003, 7.017895e-003
1.126224e+003, 6.929130e-003
1.128153e+003, 6.906117e-003
1.130081e+003, 6.984080e-003
1.132010e+003, 6.931934e-003
1.133938e+003, 6.879120e-003
1.135867e+003, 6.821440e-003
1.137795e+003, 6.804277e-003
1.139724e+003, 6.678032e-003
1.141652e+003, 6.690482e-003
1.143581e+003, 6.780907e-003
1.145509e+003, 6.816429e-003
1.147438e+003, 6.827287e-003
1.149366e+003, 6.796487e-003
1.151295e+003, 6.887441e-003
1.153223e+003, 7.010758e-003
1.155151e+003, 7.110326e-003
1.157080e+003, 7.122469e-003
1.159008e+003, 7.113734e-003
1.160937e+003, 7.175630e-003
1.162865e+003, 7.157222e-003
1.164794e+003, 7.058597e-003
1.166722e+003, 7.036650e-003
1.168651e+003, 7.010589e-003
1.170579e+003, 6.927392e-003
1.172508e+003, 6.964837e-003
1.174436e+003, 7.039929e-003
1.176365e+003, 7.052595e-003
1.178293e+003, 6.952699e-003
1.180222e+003, 6.963920e-003
1.182150e+003, 6.957908e-003
1.184078e+003, 6.943688e-003
1.186007e+003, 6.937391e-003
1.187935e+003, 6.992518e-003
1.189864e+003, 7.169902e-003
1.191792e+003, 7.200182e-003
1.193721e+003, 7.150754e-003
1.195649e+003, 7.136559e-003
1.197578e+003, 7.192646e-003
1.199506e+003, 7.322920e-003
1.201435e+003, 7.381205e-003
1.203363e+003, 7.368870e-003
1.205292e+003, 7.536154e-003
1.207220e+003, 7.640823e-003
1.209149e+003, 7.661038e-003
1.211077e+003, 7.728268e-003
1.213005e+003, 7.744204e-003
1.214934e+003, 7.819800e-003
1.216862e+003, 7.971609e-003
1.218791e+003, 8.056731e-003
1.220719e+003, 8.103771e-003
1.222648e+003, 8.116737e-003
1.224576e+003, 8.251506e-003
1.226505e+003, 8.470789e-003
1.228433e+003, 8.649307e-003
1.230362e+003, 8.889490e-003
1.232290e+003, 8.968607e-003
1.234219e+003, 9.055629e-003
1.236147e+003, 9.244391e-003
1.238076e+003, 9.353225e-003
1.240004e+003, 9.480644e-003
1.241932e+003, 9.595912e-003
1.243861e+003, 9.828640e-003
1.245789e+003, 1.008787e-002
1.247718e+003, 1.036048e-002
1.249646e+003, 1.063320e-002
1.251575e+003, 1.096354e-002
1.253503e+003, 1.123867e-002
1.255432e+003, 1.146212e-002
1.257360e+003, 1.173626e-002
1.259289e+003, 1.202960e-002
1.261217e+003, 1.236270e-002
1.263146e+003, 1.287545e-002
1.265074e+003, 1.344002e-002
1.267003e+003, 1.384843e-002
1.268931e+003, 1.419824e-002
1.270859e+003, 1.480187e-002
1.272788e+003, 1.542944e-002
1.274716e+003, 1.613773e-002
1.276645e+003, 1.686259e-002
1.278573e+003, 1.757725e-002
1.280502e+003, 1.863306e-002
1.282430e+003, 1.979698e-002
1.284359e+003, 2.101305e-002
1.286287e+003, 2.264764e-002
1.288216e+003, 2.456592e-002
1.290144e+003, 2.682143e-002
1.292073e+003, 2.958342e-002
1.294001e+003, 3.291350e-002
1.295930e+003, 3.698965e-002
1.297858e+003, 4.216236e-002
1.299786e+003, 4.909993e-002
1.301715e+003, 5.809712e-002
1.303643e+003, 6.895980e-002
1.305572e+003, 8.155011e-002
1.307500e+003, 9.679140e-002
1.309429e+003, 1.157706e-001
1.311357e+003, 1.363646e-001
1.313286e+003, 1.528600e-001
1.315214e+003, 1.607271e-001
1.317143e+003, 1.602070e-001
1.319071e+003, 1.546715e-001
1.321000e+003, 1.471519e-001
1.322928e+003, 1.391799e-001
1.324857e+003, 1.310104e-001
1.326785e+003, 1.223745e-001
1.328714e+003, 1.130086e-001
1.330642e+003, 1.023345e-001
1.332570e+003, 9.081180e-002
1.334499e+003, 7.946448e-002
1.336427e+003, 6.888964e-002
1.338356e+003, 5.961166e-002
1.340284e+003, 5.201600e-002
1.342213e+003, 4.618415e-002
1.344141e+003, 4.186969e-002
1.346070e+003, 3.861440e-002
1.347998e+003, 3.633124e-002
1.349927e+003, 3.476109e-002
1.351855e+003, 3.377075e-002
1.353784e+003, 3.303568e-002
1.355712e+003, 3.253209e-002
1.357641e+003, 3.235264e-002
1.359569e+003, 3.241516e-002
1.361497e+003, 3.254960e-002
1.363426e+003, 3.232284e-002
1.365354e+003, 3.195145e-002
1.367283e+003, 3.155525e-002
1.369211e+003, 3.090600e-002
1.371140e+003, 3.010009e-002
1.373068e+003, 2.908445e-002
1.374997e+003, 2.798668e-002
1.376925e+003, 2.688474e-002
1.378854e+003, 2.594140e-002
1.380782e+003, 2.505659e-002
1.382711e+003, 2.416700e-002
1.384639e+003, 2.310403e-002
1.386568e+003, 2.199391e-002
1.388496e+003, 2.086412e-002
1.390424e+003, 1.967850e-002
1.392353e+003, 1.827218e-002
1.394281e+003, 1.686501e-002
1.396210e+003, 1.586025e-002
1.398138e+003, 1.506739e-002
1.400067e+003, 1.425752e-002
1.401995e+003, 1.352016e-002
1.403924e+003, 1.290922e-002
1.405852e+003, 1.241361e-002
1.407781e+003, 1.203627e-002
1.409709e+003, 1.170139e-002
1.411638e+003, 1.149660e-002
1.413566e+003, 1.128299e-002
1.415495e+003, 1.113326e-002
1.417423e+003, 1.113073e-002
1.419351e+003, 1.113180e-002
1.421280e+003, 1.120451e-002
1.423208e+003, 1.127922e-002
1.425137e+003, 1.116977e-002
1.427065e+003, 1.110010e-002
1.428994e+003, 1.115936e-002
1.430922e+003, 1.119305e-002
1.432851e+003, 1.138373e-002
1.434779e+003, 1.157996e-002
1.436708e+003, 1.160489e-002
1.438636e+003, 1.167937e-002
1.440565e+003, 1.189553e-002
1.442493e+003, 1.213313e-002
1.444422e+003, 1.239392e-002
1.446350e+003, 1.271144e-002
1.448278e+003, 1.318180e-002
1.450207e+003, 1.342943e-002
1.452135e+003, 1.356654e-002
1.454064e+003, 1.394259e-002
1.455992e+003, 1.439717e-002
1.457921e+003, 1.480504e-002
1.459849e+003, 1.523533e-002
1.461778e+003, 1.554254e-002
1.463706e+003, 1.579280e-002
1.465635e+003, 1.615955e-002
1.467563e+003, 1.659652e-002
1.469492e+003, 1.709326e-002
1.471420e+003, 1.756675e-002
1.473349e+003, 1.787817e-002
1.475277e+003, 1.811056e-002
1.477205e+003, 1.789301e-002
1.479134e+003, 1.729619e-002
1.481062e+003, 1.670334e-002
1.482991e+003, 1.649598e-002
1.484919e+003, 1.659896e-002
1.486848e+003, 1.677547e-002
1.488776e+003, 1.687829e-002
1.490705e+003, 1.693802e-002
1.492633e+003, 1.688140e-002
1.494562e+003, 1.690921e-002
1.496490e+003, 1.718784e-002
1.498419e+003, 1.745269e-002
1.500347e+003, 1.771510e-002
1.502276e+003, 1.805900e-002
1.504204e+003, 1.837631e-002
1.506132e+003, 1.883060e-002
1.508061e+003, 1.938757e-002
1.509989e+003, 1.995030e-002
1.511918e+003, 2.039247e-002
1.513846e+003, 2.089928e-002
1.515775e+003, 2.147342e-002
1.517703e+003, 2.212601e-002
1.519632e+003, 2.287897e-002
1.521560e+003, 2.371537e-002
1.523489e+003, 2.446841e-002
1.525417e+003, 2.520360e-002
1.527346e+003, 2.602348e-002
1.529274e+003, 2.701144e-002
1.531203e+003, 2.808432e-002
1.533131e+003, 2.914446e-002
1.535059e+003, 3.029190e-002
1.536988e+003, 3.148861e-002
1.538916e+003, 3.267279e-002
1.540845e+003, 3.407838e-002
1.542773e+003, 3.557701e-002
1.544702e+003, 3.708792e-002
1.546630e+003, 3.887351e-002
1.548559e+003, 4.086270e-002
1.550487e+003, 4.292355e-002
1.552416e+003, 4.513500e-002
1.554344e+003, 4.752484e-002
1.556273e+003, 5.009555e-002
1.558201e+003, 5.294154e-002
1.560130e+003, 5.604655e-002
1.562058e+003, 5.928998e-002
1.563986e+003, 6.273428e-002
1.565915e+003, 6.669696e-002
1.567843e+003, 7.096548e-002
1.569772e+003, 7.559563e-002
1.571700e+003, 8.067006e-002
1.573629e+003, 8.600043e-002
1.575557e+003, 9.142656e-002
1.577486e+003, 9.672409e-002
1.579414e+003, 1.021191e-001
1.581343e+003, 1.078729e-001
1.583271e+003, 1.139584e-001
1.585200e+003, 1.209126e-001
1.587128e+003, 1.291539e-001
1.589057e+003, 1.385773e-001
1.590985e+003, 1.492752e-001
1.592913e+003, 1.612363e-001
1.594842e+003, 1.741244e-001
1.596770e+003, 1.877428e-001
1.598699e+003, 2.014766e-001
1.600627e+003, 2.145305e-001
1.602556e+003, 2.255324e-001
1.604484e+003, 2.334592e-001
1.606413e+003, 2.383914e-001
1.608341e+003, 2.411000e-001
1.610270e+003, 2.427313e-001
1.612198e+003, 2.431023e-001
1.614127e+003, 2.417869e-001
1.616055e+003, 2.387990e-001
1.617984e+003, 2.345665e-001
1.619912e+003, 2.295334e-001
1.621840e+003, 2.240855e-001
1.623769e+003, 2.186399e-001
1.625697e+003, 2.136200e-001
1.627626e+003, 2.088390e-001
1.629554e+003, 2.044317e-001
1.631483e+003, 2.005895e-001
1.633411e+003, 1.973643e-001
1.635340e+003, 1.946025e-001
1.637268e+003, 1.922577e-001
1.639197e+003, 1.898778e-001
1.641125e+003, 1.870585e-001
1.643054e+003, 1.835183e-001
1.644982e+003, 1.792286e-001
1.646911e+003, 1.740386e-001
1.648839e+003, 1.682122e-001
1.650767e+003, 1.625279e-001
1.652696e+003, 1.569813e-001
1.654624e+003, 1.516930e-001
1.656553e+003, 1.466882e-001
1.658481e+003, 1.416294e-001
1.660410e+003, 1.364467e-001
1.662338e+003, 1.310318e-001
1.664267e+003, 1.254626e-001
1.666195e+003, 1.195937e-001
1.668124e+003, 1.135939e-001
1.670052e+003, 1.072183e-001
1.671981e+003, 1.006679e-001
1.673909e+003, 9.415615e-002
1.675838e+003, 8.759680e-002
1.677766e+003, 8.114248e-002
1.679694e+003, 7.469873e-002
1.681623e+003, 6.841590e-002
1.683551e+003, 6.239176e-002
1.685480e+003, 5.657946e-002
1.687408e+003, 5.114142e-002
1.689337e+003, 4.585989e-002
1.691265e+003, 4.089239e-002
1.693194e+003, 3.634161e-002
1.695122e+003, 3.213440e-002
1.697051e+003, 2.829155e-002
1.698979e+003, 2.509210e-002
1.700908e+003, 2.246009e-002
1.702836e+003, 1.991865e-002
1.704765e+003, 1.769430e-002
1.706693e+003, 1.607741e-002
1.708621e+003, 1.465824e-002
1.710550e+003, 1.317986e-002
1.712478e+003, 1.192273e-002
1.714407e+003, 1.100347e-002
1.716335e+003, 9.986623e-003
1.718264e+003, 8.997404e-003
1.720192e+003, 8.335563e-003
1.722121e+003, 8.065745e-003
1.724049e+003, 7.764352e-003
1.725978e+003, 7.224283e-003
1.727906e+003, 6.710365e-003
1.729835e+003, 6.447658e-003
1.731763e+003, 6.103627e-003
1.733692e+003, 5.651320e-003
1.735620e+003, 5.174124e-003
1.737548e+003, 4.595197e-003
1.739477e+003, 4.020988e-003
1.741405e+003, 3.607732e-003
1.743334e+003, 3.127306e-003
1.745262e+003, 2.644147e-003
1.747191e+003, 2.276289e-003
1.749119e+003, 2.021041e-003
1.751048e+003, 1.747051e-003
1.752976e+003, 1.685580e-003
1.754905e+003, 1.676653e-003
1.756833e+003, 1.485534e-003
1.758762e+003, 1.330992e-003
1.760690e+003, 1.369387e-003
1.762619e+003, 1.303606e-003
1.764547e+003, 1.172567e-003
1.766475e+003, 1.095008e-003
1.768404e+003, 1.063697e-003
1.770332e+003, 9.076856e-004
1.772261e+003, 6.223541e-004
1.774189e+003, 5.432571e-004
1.776118e+003, 5.077480e-004
1.778046e+003, 3.576899e-004
1.779975e+003, 3.505253e-004
1.781903e+003, 4.778535e-004
1.783832e+003, 3.134410e-004
1.785760e+003, 2.336953e-004
1.787689e+003, 1.643899e-004
1.789617e+003, 1.393498e-005
1.791546e+003, -4.962433e-005
1.793474e+003, 6.893335e-006
1.795402e+003, 1.520091e-004
1.797331e+003, 9.945958e-005
1.799259e+003, -1.063490e-004
1.801188e+003, -1.002570e-004
1.803116e+003, 2.359944e-005
1.805045e+003, -1.786872e-004
1.806973e+003, -4.299451e-004
1.808902e+003, -3.163996e-004
1.810830e+003, -1.399678e-004
1.812759e+003, -2.235265e-004
1.814687e+003, -3.237824e-004
1.816616e+003, -2.959076e-004
1.818544e+003, -3.261571e-004
1.820473e+003, -1.705654e-004
1.822401e+003, -2.264058e-004
1.824329e+003, -3.470130e-004
1.826258e+003, -7.006899e-005
1.828186e+003, -2.955520e-004
1.830115e+003, -5.031452e-004
1.832043e+003, -5.966688e-004
1.833972e+003, -6.966916e-004
1.835900e+003, -5.465599e-004
1.837829e+003, -5.690407e-004
1.839757e+003, -7.462722e-004
1.841686e+003, -7.072430e-004
1.843614e+003, -6.328491e-004
1.845543e+003, -4.567847e-004
1.847471e+003, -2.808627e-004
1.849400e+003, -3.570493e-004
1.851328e+003, -4.405600e-004
1.853256e+003, -3.582849e-004
1.855185e+003, -3.834186e-004
1.857113e+003, -5.262488e-004
1.859042e+003, -7.825873e-004
1.860970e+003, -6.321527e-004
1.862899e+003, -3.277570e-004
1.864827e+003, -2.436602e-004
1.866756e+003, -3.756709e-004
1.868684e+003, -4.643689e-004
1.870613e+003, -5.395510e-004
1.872541e+003, -5.747665e-004
1.874470e+003, -5.885782e-004
1.876398e+003, -7.226231e-004
1.878327e+003, -8.515115e-004
1.880255e+003, -3.586472e-004
1.882183e+003, -2.507008e-005
1.884112e+003, -3.157636e-004
1.886040e+003, -6.921204e-004
1.887969e+003, -8.333232e-004
1.889897e+003, -6.445443e-004
1.891826e+003, -2.884830e-004
1.893754e+003, -1.623751e-004
1.895683e+003, -3.425661e-004
1.897611e+003, -4.145598e-004
1.899540e+003, -2.403306e-004
1.901468e+003, -2.747747e-004
1.903397e+003, -3.324235e-004
1.905325e+003, -1.432321e-004
1.907254e+003, 9.258587e-005
1.909182e+003, 5.718803e-005
1.911110e+003, -1.006139e-004
1.913039e+003, 1.049116e-004
1.914967e+003, 1.856772e-004
1.916896e+003, -3.143909e-005
1.918824e+003, 1.854153e-004
1.920753e+003, -1.382833e-004
1.922681e+003, -6.787048e-004
1.924610e+003, -3.515544e-004
1.926538e+003, 1.138876e-004
1.928467e+003, -7.475719e-005
1.930395e+003, -3.586210e-004
1.932324e+003, -6.007300e-004
1.934252e+003, -4.125074e-004
1.936181e+003, -8.058305e-004
1.938109e+003, -9.663020e-004
1.940037e+003, -1.230216e-003
1.941966e+003, -1.107489e-003
1.943894e+003, -1.419413e-003
1.945823e+003, -1.738272e-003
1.947751e+003, -1.566665e-003
1.949680e+003, -1.282065e-003
1.951608e+003, -1.416201e-003
1.953537e+003, -1.776750e-003
1.955465e+003, -1.601390e-003
1.957394e+003, -1.476728e-003
1.959322e+003, -2.209482e-003
1.961251e+003, -2.920703e-003
1.963179e+003, -2.786394e-003
1.965108e+003, -1.918514e-003
1.967036e+003, -2.172284e-003
1.968964e+003, -2.614136e-003
1.970893e+003, -1.455360e-003
1.972821e+003, -1.054318e-003
1.974750e+003, -1.615028e-003
1.976678e+003, -9.328016e-004
1.978607e+003, -3.273404e-004
1.980535e+003, -2.939866e-005
1.982464e+003, 1.280907e-005
1.984392e+003, -1.021427e-003
1.986321e+003, -1.740165e-003
1.988249e+003, -1.384846e-003
1.990178e+003, -1.140055e-003
1.992106e+003, -1.251568e-003
1.994035e+003, -1.620841e-003
1.995963e+003, -1.709737e-003
1.997891e+003, -1.675051e-003
1.999820e+003, -1.696111e-003
2.001748e+003, -2.170923e-003
2.003677e+003, -2.947098e-003
2.005605e+003, -2.742414e-003
2.007534e+003, -1.355774e-003
2.009462e+003, -1.333542e-003
2.011391e+003, -1.894808e-003
2.013319e+003, -1.694244e-003
2.015248e+003, -1.336115e-003
2.017176e+003, -1.235950e-003
2.019105e+003, -1.548196e-003
2.021033e+003, -1.583030e-003
2.022962e+003, -8.088673e-004
2.024890e+003, -6.309826e-004
2.026818e+003, -1.062717e-003
2.028747e+003, -9.679823e-004
2.030675e+003, -3.787303e-004
2.032604e+003, -7.850003e-004
2.034532e+003, -1.159472e-003
2.036461e+003, -8.497915e-004
2.038389e+003, -9.667808e-004
2.040318e+003, -1.411933e-003
2.042246e+003, -7.294302e-004
2.044175e+003, -4.786668e-004
2.046103e+003, -1.111966e-003
2.048031e+003, -1.113895e-003
2.049960e+003, -5.171548e-004
2.051888e+003, -1.334951e-003
2.053817e+003, -1.323975e-003
2.055745e+003, -2.451809e-004
2.057674e+003, 2.969691e-004
2.059602e+003, -9.294206e-005
2.061531e+003, -9.110911e-004
2.063459e+003, -1.186062e-003
2.065388e+003, -1.232072e-003
2.067316e+003, -6.963600e-004
2.069245e+003, -9.522817e-005
2.071173e+003, -5.263485e-005
2.073102e+003, -3.359012e-004
2.075030e+003, -4.933132e-004
2.076958e+003, -1.140931e-004
2.078887e+003, -2.566864e-004
2.080815e+003, -6.105158e-004
2.082744e+003, -8.469048e-004
2.084672e+003, -7.601123e-004
2.086601e+003, -5.639175e-004
2.088529e+003, -7.124947e-004
2.090458e+003, -5.790119e-004
2.092386e+003, 2.863341e-005
2.094315e+003, 1.372005e-004
2.096243e+003, -4.546909e-004
2.098172e+003, -2.001982e-004
2.100100e+003, 1.116904e-004
2.102029e+003, -2.286977e-004
2.103957e+003, -4.147805e-005
2.105885e+003, -3.641608e-004
2.107814e+003, -1.046588e-003
2.109742e+003, -6.574935e-004
2.111671e+003, 3.261797e-004
2.113599e+003, 5.725508e-004
2.115528e+003, -5.663581e-005
2.117456e+003, -2.093333e-004
2.119385e+003, 6.924325e-005
2.121313e+003, -2.194823e-004
2.123242e+003, -4.670865e-004
2.125170e+003, -3.989582e-004
2.127099e+003, -6.229685e-004
2.129027e+003, -1.015265e-003
2.130956e+003, -1.011530e-003
2.132884e+003, -5.265618e-004
2.134813e+003, -6.151901e-004
2.136741e+003, -1.371980e-004
2.138669e+003, 9.878794e-005
2.140598e+003, -8.837515e-004
2.142526e+003, -9.395115e-004
2.144455e+003, -8.201755e-004
2.146383e+003, -8.653219e-004
2.148312e+003, -1.129192e-003
2.150240e+003, -1.007233e-003
2.152169e+003, -8.066676e-004
2.154097e+003, -8.190143e-004
2.156026e+003, -9.790437e-004
2.157954e+003, 3.452740e-004
2.159883e+003, 1.679359e-003
2.161811e+003, 1.863428e-003
2.163740e+003, 1.256048e-003
2.165668e+003, 1.586528e-003
2.167596e+003, 2.182374e-003
2.169525e+003, 1.756928e-003
2.171453e+003, 5.136401e-004
2.173382e+003, 6.546202e-005
2.175310e+003, 1.035080e-004
2.177239e+003, 8.737390e-004
2.179167e+003, 1.657319e-003
2.181096e+003, 1.761085e-003
2.183024e+003, 1.929114e-003
2.184953e+003, 1.954685e-003
2.186881e+003, 1.009109e-003
2.188810e+003, 7.582518e-004
2.190738e+003, 1.684807e-003
2.192667e+003, 2.011893e-003
2.194595e+003, 1.895621e-003
2.196523e+003, 1.389430e-003
2.198452e+003, 1.444415e-003
2.200380e+003, 1.512861e-003
2.202309e+003, 1.257101e-003
2.204237e+003, 1.081606e-003
2.206166e+003, 1.197455e-003
2.208094e+003, 1.303041e-003
2.210023e+003, 8.591905e-004
2.211951e+003, 7.059773e-004
2.213880e+003, 1.315490e-003
2.215808e+003, 2.242468e-003
2.217737e+003, 2.527808e-003
2.219665e+003, 2.451108e-003
2.221594e+003, 1.880368e-003
2.223522e+003, 2.030755e-003
2.225450e+003, 1.726350e-003
2.227379e+003, 1.273850e-003
2.229307e+003, 1.415937e-003
2.231236e+003, 1.231715e-003
2.233164e+003, 1.221444e-003
2.235093e+003, 1.462258e-003
2.237021e+003, 1.496183e-003
2.238950e+003, 1.269994e-003
2.240878e+003, 7.875845e-004
2.242807e+003, 8.283503e-004
2.244735e+003, 1.357659e-003
2.246664e+003, 1.420550e-003
2.248592e+003, 1.450347e-003
2.250521e+003, 1.664376e-003
2.252449e+003, 2.177817e-003
2.254377e+003, 2.013275e-003
2.256306e+003, 1.554457e-003
2.258234e+003, 1.697139e-003
2.260163e+003, 1.568965e-003
2.262091e+003, 1.535621e-003
2.264020e+003, 1.676088e-003
2.265948e+003, 1.576215e-003
2.267877e+003, 1.861043e-003
2.269805e+003, 2.020195e-003
2.271734e+003, 1.603988e-003
2.273662e+003, 2.010040e-003
2.275591e+003, 2.326851e-003
2.277519e+003, 2.116824e-003
2.279448e+003, 1.466920e-003
2.281376e+003, 1.295800e-003
2.283304e+003, 1.912892e-003
2.285233e+003, 2.203444e-003
2.287161e+003, 1.606152e-003
2.289090e+003, 1.721163e-003
2.291018e+003, 1.822462e-003
2.292947e+003, 1.325499e-003
2.294875e+003, 1.010303e-003
2.296804e+003, 1.121466e-003
2.298732e+003, 1.135142e-003
2.300661e+003, 1.522027e-003
2.302589e+003, 1.637619e-003
2.304518e+003, 1.186084e-003
2.306446e+003, 1.033451e-003
2.308375e+003, 1.020763e-003
2.310303e+003, 9.052253e-004
2.312231e+003, 1.002836e-003
2.314160e+003, 1.200950e-003
2.316088e+003, 1.224079e-003
2.318017e+003, 1.146818e-003
2.319945e+003, 1.485361e-003
2.321874e+003, 1.839993e-003
2.323802e+003, 1.552220e-003
2.325731e+003, 5.920780e-004
2.327659e+003, 1.256440e-004
2.329588e+003, 1.982399e-004
2.331516e+003, 3.152395e-004
2.333445e+003, 4.328325e-004
2.335373e+003, 4.574210e-004
2.337302e+003, 6.342882e-005
2.339230e+003, 1.507645e-004
2.341158e+003, 5.973222e-005
2.343087e+003, -1.450912e-004
2.345015e+003, 1.810422e-005
2.346944e+003, 1.100416e-004
2.348872e+003, 4.467404e-005
2.350801e+003, 1.152801e-005
2.352729e+003, -7.553602e-005
2.354658e+003, -4.547516e-004
2.356586e+003, -5.154537e-004
2.358515e+003, -4.293284e-004
2.360443e+003, -3.059158e-004
2.362372e+003, -5.772716e-004
2.364300e+003, -9.585762e-004
2.366229e+003, -8.512575e-004
2.368157e+003, -4.685743e-004
2.370085e+003, -2.131097e-004
2.372014e+003, -4.520544e-004
2.373942e+003, -4.967648e-004
2.375871e+003, -5.720731e-004
2.377799e+003, -6.289941e-004
2.379728e+003, -6.093308e-004
2.381656e+003, -6.615603e-004
2.383585e+003, -8.592376e-004
2.385513e+003, -1.130075e-003
2.387442e+003, -9.407713e-004
2.389370e+003, -5.634546e-004
2.391299e+003, -7.214070e-004
2.393227e+003, -8.307035e-004
2.395156e+003, -6.170088e-004
2.397084e+003, -4.665178e-004
2.399012e+003, -5.646956e-004
2.400941e+003, -5.783481e-004
2.402869e+003, -6.143810e-004
2.404798e+003, -4.417359e-004
2.406726e+003, -3.372651e-004
2.408655e+003, -2.788934e-004
2.410583e+003, -1.588541e-004
2.412512e+003, -3.455075e-004
2.414440e+003, -4.267939e-004
2.416369e+003, -4.164906e-004
2.418297e+003, -8.202699e-004
2.420226e+003, -7.764514e-004
2.422154e+003, -6.740927e-004
2.424083e+003, -7.602721e-004
2.426011e+003, -6.857700e-004
2.427939e+003, -5.891129e-004
2.429868e+003, -7.652243e-004
2.431796e+003, -9.497161e-004
2.433725e+003, -7.561246e-004
2.435653e+003, -5.210519e-004
2.437582e+003, -6.127629e-004
2.439510e+003, -4.624131e-004
2.441439e+003, -4.142619e-004
2.443367e+003, -5.186561e-004
2.445296e+003, -5.793151e-004
2.447224e+003, -1.669438e-004
2.449153e+003, -1.893880e-004
2.451081e+003, -6.560087e-004
2.453010e+003, -6.033191e-004
2.454938e+003, -1.434776e-004
2.456866e+003, -1.049271e-004
2.458795e+003, -6.973588e-005
2.460723e+003, -6.466112e-004
2.462652e+003, -8.859462e-004
2.464580e+003, -7.496350e-004
2.466509e+003, -1.041492e-003
2.468437e+003, -1.232674e-003
2.470366e+003, -1.334032e-003
2.472294e+003, -1.115132e-003
2.474223e+003, -7.850910e-004
2.476151e+003, -8.043954e-004
2.478080e+003, -5.970116e-004
2.480008e+003, -9.761673e-005
2.481937e+003, -2.841722e-004
2.483865e+003, -7.386408e-004
2.485793e+003, -8.857949e-004
2.487722e+003, -8.365703e-004
2.489650e+003, -5.997992e-004
2.491579e+003, -7.601569e-004
2.493507e+003, -9.511164e-004
2.495436e+003, -5.964826e-004
2.497364e+003, -3.650217e-004
2.499293e+003, -4.610802e-004
2.501221e+003, -4.936604e-004
2.503150e+003, -3.678572e-004
2.505078e+003, -3.087287e-004
2.507007e+003, -5.949312e-004
2.508935e+003, -8.521766e-004
2.510864e+003, -6.809884e-004
2.512792e+003, -4.042306e-004
2.514720e+003, -1.937084e-004
2.516649e+003, -1.716798e-004
2.518577e+003, -4.836564e-004
2.520506e+003, -5.677516e-004
2.522434e+003, -3.799653e-004
2.524363e+003, -5.249809e-004
2.526291e+003, -9.501565e-004
2.528220e+003, -1.020767e-003
2.530148e+003, -8.067740e-004
2.532077e+003, -5.774017e-004
2.534005e+003, -6.742588e-004
2.535934e+003, -7.123078e-004
2.537862e+003, -5.228294e-004
2.539791e+003, -2.393067e-004
2.541719e+003, -8.185629e-005
2.543647e+003, -3.286483e-004
2.545576e+003, -3.802471e-004
2.547504e+003, -7.482026e-004
2.549433e+003, -8.198449e-004
2.551361e+003, -3.580405e-004
2.553290e+003, -8.620487e-005
2.555218e+003, -1.617825e-004
2.557147e+003, -5.421307e-004
2.559075e+003, -6.244062e-004
2.561004e+003, -5.917160e-004
2.562932e+003, -7.828596e-004
2.564861e+003, -7.089674e-004
2.566789e+003, -5.304888e-004
2.568718e+003, -6.041315e-004
2.570646e+003, -4.985935e-004
2.572574e+003, -6.984922e-004
2.574503e+003, -7.007208e-004
2.576431e+003, -7.488499e-004
2.578360e+003, -6.181824e-004
2.580288e+003, -5.828414e-004
2.582217e+003, -6.730639e-004
2.584145e+003, -6.243617e-004
2.586074e+003, -7.148311e-004
2.588002e+003, -6.838274e-004
2.589931e+003, -7.238729e-004
2.591859e+003, -7.848300e-004
2.593788e+003, -7.886775e-004
2.595716e+003, -7.847088e-004
2.597645e+003, -4.730301e-004
2.599573e+003, -5.549995e-004
2.601501e+003, -1.024346e-003
2.603430e+003, -1.329811e-003
2.605358e+003, -1.275697e-003
2.607287e+003, -1.251789e-003
2.609215e+003, -1.149771e-003
2.611144e+003, -9.882075e-004
2.613072e+003, -1.554806e-003
2.615001e+003, -2.076813e-003
2.616929e+003, -2.130015e-003
2.618858e+003, -1.974374e-003
2.620786e+003, -1.913672e-003
2.622715e+003, -2.115467e-003
2.624643e+003, -2.370635e-003
2.626572e+003, -2.487792e-003
2.628500e+003, -2.728316e-003
2.630428e+003, -3.014257e-003
2.632357e+003, -3.046740e-003
2.634285e+003, -2.799104e-003
2.636214e+003, -2.653102e-003
2.638142e+003, -2.368434e-003
2.640071e+003, -1.995607e-003
2.641999e+003, -1.970411e-003
2.643928e+003, -2.025194e-003
2.645856e+003, -1.660370e-003
2.647785e+003, -1.462699e-003
2.649713e+003, -1.660072e-003
2.651642e+003, -1.890855e-003
2.653570e+003, -1.727105e-003
2.655499e+003, -1.650254e-003
2.657427e+003, -1.665608e-003
2.659355e+003, -1.565890e-003
2.661284e+003, -1.504414e-003
2.663212e+003, -1.417108e-003
2.665141e+003, -1.343957e-003
2.667069e+003, -1.445021e-003
2.668998e+003, -1.543837e-003
2.670926e+003, -1.426428e-003
2.672855e+003, -1.070138e-003
2.674783e+003, -9.139101e-004
2.676712e+003, -1.076290e-003
2.678640e+003, -9.091973e-004
2.680569e+003, -8.597078e-004
2.682497e+003, -9.836857e-004
2.684426e+003, -1.129776e-003
2.686354e+003, -1.078922e-003
2.688282e+003, -7.909733e-004
2.690211e+003, -6.240637e-004
2.692139e+003, -8.667168e-004
2.694068e+003, -8.088216e-004
2.695996e+003, -9.050914e-004
2.697925e+003, -7.467311e-004
2.699853e+003, -4.086580e-004
2.701782e+003, -4.982573e-004
2.703710e+003, -4.413016e-004
2.705639e+003, -3.418706e-004
2.707567e+003, -3.645356e-004
2.709496e+003, -4.033866e-004
2.711424e+003, -4.194801e-004
2.713353e+003, -5.208805e-004
2.715281e+003, -3.665636e-004
2.717209e+003, -1.888723e-004
2.719138e+003, -2.820569e-004
2.721066e+003, -4.836991e-004
2.722995e+003, -4.069297e-004
2.724923e+003, -1.272086e-004
2.726852e+003, -1.648802e-004
2.728780e+003, -2.983336e-004
2.730709e+003, -2.515061e-004
2.732637e+003, 5.124862e-005
2.734566e+003, 2.878940e-004
2.736494e+003, 1.413647e-004
2.738423e+003, 1.999968e-004
2.740351e+003, 3.506262e-004
2.742280e+003, 3.795944e-004
2.744208e+003, 1.791391e-004
2.746136e+003, 1.028198e-005
2.748065e+003, 2.684589e-004
2.749993e+003, 6.033562e-004
2.751922e+003, 5.730357e-004
2.753850e+003, 4.125952e-004
2.755779e+003, 9.076566e-005
2.757707e+003, 2.188607e-004
2.759636e+003, 6.146202e-004
2.761564e+003, 7.532962e-004
2.763493e+003, 6.609199e-004
2.765421e+003, 7.405952e-004
2.767350e+003, 1.034105e-003
2.769278e+003, 1.281524e-003
2.771207e+003, 1.388312e-003
2.773135e+003, 1.575850e-003
2.775063e+003, 1.739644e-003
2.776992e+003, 1.393329e-003
2.778920e+003, 1.553876e-003
2.780849e+003, 1.894517e-003
2.782777e+003, 2.096985e-003
2.784706e+003, 2.255947e-003
2.786634e+003, 2.092307e-003
2.788563e+003, 1.973900e-003
2.790491e+003, 2.035927e-003
2.792420e+003, 2.180811e-003
2.794348e+003, 2.199569e-003
2.796277e+003, 2.255853e-003
2.798205e+003, 2.256572e-003
2.800134e+003, 2.332677e-003
2.802062e+003, 2.482849e-003
2.803990e+003, 2.591438e-003
2.805919e+003, 2.443227e-003
2.807847e+003, 2.456186e-003
2.809776e+003, 2.632518e-003
2.811704e+003, 2.475243e-003
2.813633e+003, 2.464516e-003
2.815561e+003, 2.626813e-003
2.817490e+003, 2.830335e-003
2.819418e+003, 3.026018e-003
2.821347e+003, 2.813971e-003
2.823275e+003, 2.509988e-003
2.825204e+003, 2.743979e-003
2.827132e+003, 2.942743e-003
2.829061e+003, 2.795263e-003
2.830989e+003, 2.831861e-003
2.832917e+003, 3.135738e-003
2.834846e+003, 3.218767e-003
2.836774e+003, 3.096943e-003
2.838703e+003, 3.525616e-003
2.840631e+003, 3.925745e-003
2.842560e+003, 3.916505e-003
2.844488e+003, 4.130686e-003
2.846417e+003, 4.338186e-003
2.848345e+003, 4.245379e-003
2.850274e+003, 4.368516e-003
2.852202e+003, 4.933711e-003
2.854131e+003, 5.193713e-003
2.856059e+003, 5.044234e-003
2.857988e+003, 4.974618e-003
2.859916e+003, 4.958376e-003
2.861844e+003, 4.982283e-003
2.863773e+003, 4.908094e-003
2.865701e+003, 5.073848e-003
2.867630e+003, 5.317132e-003
2.869558e+003, 5.274015e-003
2.871487e+003, 5.012540e-003
2.873415e+003, 5.109302e-003
2.875344e+003, 5.295077e-003
2.877272e+003, 4.906249e-003
2.879201e+003, 4.474891e-003
2.881129e+003, 4.725954e-003
2.883058e+003, 4.962532e-003
2.884986e+003, 5.022955e-003
2.886915e+003, 5.216293e-003
2.888843e+003, 5.440292e-003
2.890771e+003, 5.582651e-003
2.892700e+003, 5.807921e-003
2.894628e+003, 6.192454e-003
2.896557e+003, 6.361034e-003
2.898485e+003, 6.583243e-003
2.900414e+003, 6.835056e-003
2.902342e+003, 7.389788e-003
2.904271e+003, 7.683958e-003
2.906199e+003, 7.565831e-003
2.908128e+003, 7.566296e-003
2.910056e+003, 7.698295e-003
2.911985e+003, 8.034854e-003
2.913913e+003, 8.303035e-003
2.915842e+003, 8.822306e-003
2.917770e+003, 9.669748e-003
2.919698e+003, 1.030632e-002
2.921627e+003, 1.078919e-002
2.923555e+003, 1.118863e-002
2.925484e+003, 1.124060e-002
2.927412e+003, 1.144198e-002
2.929341e+003, 1.190541e-002
2.931269e+003, 1.167415e-002
2.933198e+003, 1.150471e-002
2.935126e+003, 1.142778e-002
2.937055e+003, 1.123293e-002
2.938983e+003, 1.107212e-002
2.940912e+003, 1.074406e-002
2.942840e+003, 1.046450e-002
2.944769e+003, 1.038075e-002
2.946697e+003, 1.057872e-002
2.948625e+003, 1.128162e-002
2.950554e+003, 1.188978e-002
2.952482e+003, 1.196213e-002
2.954411e+003, 1.191698e-002
2.956339e+003, 1.235235e-002
2.958268e+003, 1.244364e-002
2.960196e+003, 1.223992e-002
2.962125e+003, 1.239178e-002
2.964053e+003, 1.267446e-002
2.965982e+003, 1.230899e-002
2.967910e+003, 1.185551e-002
2.969839e+003, 1.176410e-002
2.971767e+003, 1.178754e-002
2.973696e+003, 1.155836e-002
2.975624e+003, 1.173996e-002
2.977552e+003, 1.174239e-002
2.979481e+003, 1.211487e-002
2.981409e+003, 1.234529e-002
2.983338e+003, 1.248811e-002
2.985266e+003, 1.252165e-002
2.987195e+003, 1.235836e-002
2.989123e+003, 1.218087e-002
2.991052e+003, 1.270563e-002
2.992980e+003, 1.338607e-002
2.994909e+003, 1.375077e-002
2.996837e+003, 1.374065e-002
2.998766e+003, 1.403471e-002
3.000694e+003, 1.450894e-002
3.002623e+003, 1.485684e-002
3.004551e+003, 1.495379e-002
3.006479e+003, 1.516765e-002
3.008408e+003, 1.552091e-002
3.010336e+003, 1.611611e-002
3.012265e+003, 1.638868e-002
3.014193e+003, 1.635832e-002
3.016122e+003, 1.603135e-002
3.018050e+003, 1.631961e-002
3.019979e+003, 1.695258e-002
3.021907e+003, 1.782991e-002
3.023836e+003, 1.862385e-002
3.025764e+003, 1.862638e-002
3.027693e+003, 1.879994e-002
3.029621e+003, 1.928816e-002
3.031550e+003, 2.000496e-002
3.033478e+003, 2.060614e-002
3.035406e+003, 2.093465e-002
3.037335e+003, 2.057489e-002
3.039263e+003, 2.041224e-002
3.041192e+003, 2.094609e-002
3.043120e+003, 2.182898e-002
3.045049e+003, 2.256833e-002
3.046977e+003, 2.282439e-002
3.048906e+003, 2.300175e-002
3.050834e+003, 2.339343e-002
3.052763e+003, 2.398559e-002
3.054691e+003, 2.418936e-002
3.056620e+003, 2.441537e-002
3.058548e+003, 2.504272e-002
3.060477e+003, 2.546530e-002
3.062405e+003, 2.522724e-002
3.064333e+003, 2.502118e-002
3.066262e+003, 2.499366e-002
3.068190e+003, 2.515482e-002
3.070119e+003, 2.536284e-002
3.072047e+003, 2.558762e-002
3.073976e+003, 2.533864e-002
3.075904e+003, 2.479033e-002
3.077833e+003, 2.501025e-002
3.079761e+003, 2.504120e-002
3.081690e+003, 2.496783e-002
3.083618e+003, 2.509390e-002
3.085547e+003, 2.522648e-002
3.087475e+003, 2.553291e-002
3.089404e+003, 2.550723e-002
3.091332e+003, 2.529309e-002
3.093260e+003, 2.535117e-002
3.095189e+003, 2.540282e-002
3.097117e+003, 2.565574e-002
3.099046e+003, 2.595444e-002
3.100974e+003, 2.566539e-002
3.102903e+003, 2.494781e-002
3.104831e+003, 2.471811e-002
3.106760e+003, 2.499455e-002
3.108688e+003, 2.513788e-002
3.110617e+003, 2.534743e-002
3.112545e+003, 2.505139e-002
3.114474e+003, 2.492574e-002
3.116402e+003, 2.557745e-002
3.118331e+003, 2.602020e-002
3.120259e+003, 2.597464e-002
3.122188e+003, 2.578445e-002
3.124116e+003, 2.600780e-002
3.126044e+003, 2.572477e-002
3.127973e+003, 2.563650e-002
3.129901e+003, 2.540894e-002
3.131830e+003, 2.489553e-002
3.133758e+003, 2.516469e-002
3.135687e+003, 2.552218e-002
3.137615e+003, 2.574975e-002
3.139544e+003, 2.602098e-002
3.141472e+003, 2.648508e-002
3.143401e+003, 2.676834e-002
3.145329e+003, 2.672981e-002
3.147258e+003, 2.649962e-002
3.149186e+003, 2.673407e-002
3.151115e+003, 2.696372e-002
3.153043e+003, 2.630506e-002
3.154971e+003, 2.586097e-002
3.156900e+003, 2.633617e-002
3.158828e+003, 2.706292e-002
3.160757e+003, 2.732322e-002
3.162685e+003, 2.743974e-002
3.164614e+003, 2.806003e-002
3.166542e+003, 2.816430e-002
3.168471e+003, 2.727939e-002
3.170399e+003, 2.695422e-002
3.172328e+003, 2.755771e-002
3.174256e+003, 2.763316e-002
3.176185e+003, 2.759454e-002
3.178113e+003, 2.787388e-002
3.180042e+003, 2.808574e-002
3.181970e+003, 2.783585e-002
3.183898e+003, 2.835022e-002
3.185827e+003, 2.854228e-002
3.187755e+003, 2.809243e-002
3.189684e+003, 2.814491e-002
3.191612e+003, 2.896401e-002
3.193541e+003, 2.934493e-002
3.195469e+003, 2.928620e-002
3.197398e+003, 2.898904e-002
3.199326e+003, 2.921458e-002
3.201255e+003, 2.933369e-002
3.203183e+003, 2.949468e-002
3.205112e+003, 3.031461e-002
3.207040e+003, 3.052705e-002
3.208969e+003, 3.043086e-002
3.210897e+003, 3.089450e-002
3.212825e+003, 3.144244e-002
3.214754e+003, 3.142438e-002
3.216682e+003, 3.178577e-002
3.218611e+003, 3.256492e-002
3.220539e+003, 3.272566e-002
3.222468e+003, 3.277335e-002
3.224396e+003, 3.294707e-002
3.226325e+003, 3.330260e-002
3.228253e+003, 3.365488e-002
3.230182e+003, 3.400622e-002
3.232110e+003, 3.419045e-002
3.234039e+003, 3.438874e-002
3.235967e+003, 3.496907e-002
3.237896e+003, 3.572383e-002
3.239824e+003, 3.604244e-002
3.241752e+003, 3.580704e-002
3.243681e+003, 3.565064e-002
3.245609e+003, 3.599074e-002
3.247538e+003, 3.649073e-002
3.249466e+003, 3.639042e-002
3.251395e+003, 3.630689e-002
3.253323e+003, 3.607893e-002
3.255252e+003, 3.630249e-002
3.257180e+003, 3.660959e-002
3.259109e+003, 3.684717e-002
3.261037e+003, 3.702246e-002
3.262966e+003, 3.711305e-002
3.264894e+003, 3.707113e-002
3.266823e+003, 3.713103e-002
3.268751e+003, 3.697552e-002
3.270679e+003, 3.734053e-002
3.272608e+003, 3.764967e-002
3.274536e+003, 3.718730e-002
3.276465e+003, 3.666693e-002
3.278393e+003, 3.626759e-002
3.280322e+003, 3.662857e-002
3.282250e+003, 3.718560e-002
3.284179e+003, 3.714903e-002
3.286107e+003, 3.743953e-002
3.288036e+003, 3.779237e-002
3.289964e+003, 3.745337e-002
3.291893e+003, 3.725767e-002
3.293821e+003, 3.742311e-002
3.295750e+003, 3.782474e-002
3.297678e+003, 3.818495e-002
3.299606e+003, 3.834157e-002
3.301535e+003, 3.876820e-002
3.303463e+003, 3.901577e-002
3.305392e+003, 3.952661e-002
3.307320e+003, 4.022299e-002
3.309249e+003, 4.033091e-002
3.311177e+003, 4.061835e-002
3.313106e+003, 4.078509e-002
3.315034e+003, 4.080838e-002
3.316963e+003, 4.144110e-002
3.318891e+003, 4.224814e-002
3.320820e+003, 4.258012e-002
3.322748e+003, 4.254350e-002
3.324677e+003, 4.286763e-002
3.326605e+003, 4.377888e-002
3.328533e+003, 4.426633e-002
3.330462e+003, 4.417285e-002
3.332390e+003, 4.422279e-002
3.334319e+003, 4.454138e-002
3.336247e+003, 4.460089e-002
3.338176e+003, 4.416284e-002
3.340104e+003, 4.366760e-002
3.342033e+003, 4.393066e-002
3.343961e+003, 4.370627e-002
3.345890e+003, 4.368760e-002
3.347818e+003, 4.416782e-002
3.349747e+003, 4.415425e-002
3.351675e+003, 4.359343e-002
3.353604e+003, 4.311848e-002
3.355532e+003, 4.291448e-002
3.357460e+003, 4.250922e-002
3.359389e+003, 4.180322e-002
3.361317e+003, 4.174928e-002
3.363246e+003, 4.178299e-002
3.365174e+003, 4.157554e-002
3.367103e+003, 4.134410e-002
3.369031e+003, 4.084206e-002
3.370960e+003, 4.004584e-002
3.372888e+003, 4.035741e-002
3.374817e+003, 4.095659e-002
3.376745e+003, 4.078061e-002
3.378674e+003, 4.047048e-002
3.380602e+003, 4.034021e-002
3.382531e+003, 4.015864e-002
3.384459e+003, 4.081462e-002
3.386387e+003, 4.111686e-002
3.388316e+003, 4.066145e-002
3.390244e+003, 4.068194e-002
3.392173e+003, 4.057753e-002
3.394101e+003, 4.134560e-002
3.396030e+003, 4.164304e-002
3.397958e+003, 4.160484e-002
3.399887e+003, 4.177342e-002
3.401815e+003, 4.224127e-002
3.403744e+003, 4.311147e-002
3.405672e+003, 4.364219e-002
3.407601e+003, 4.367039e-002
3.409529e+003, 4.438223e-002
3.411458e+003, 4.536483e-002
3.413386e+003, 4.575751e-002
3.415314e+003, 4.600080e-002
3.417243e+003, 4.623843e-002
3.419171e+003, 4.678179e-002
3.421100e+003, 4.735213e-002
3.423028e+003, 4.781728e-002
3.424957e+003, 4.822467e-002
3.426885e+003, 4.861886e-002
3.428814e+003, 4.887830e-002
3.430742e+003, 4.873489e-002
3.432671e+003, 4.895915e-002
3.434599e+003, 4.885024e-002
3.436528e+003, 4.812497e-002
3.438456e+003, 4.782397e-002
3.440385e+003, 4.827353e-002
3.442313e+003, 4.868373e-002
3.444241e+003, 4.835051e-002
3.446170e+003, 4.763253e-002
3.448098e+003, 4.745173e-002
3.450027e+003, 4.779689e-002
3.451955e+003, 4.830535e-002
3.453884e+003, 4.868174e-002
3.455812e+003, 4.846954e-002
3.457741e+003, 4.854451e-002
3.459669e+003, 4.857229e-002
3.461598e+003, 4.872222e-002
3.463526e+003, 4.863830e-002
3.465455e+003, 4.827726e-002
3.467383e+003, 4.858460e-002
3.469312e+003, 4.922577e-002
3.471240e+003, 4.910293e-002
3.473168e+003, 4.853826e-002
3.475097e+003, 4.845427e-002
3.477025e+003, 4.943736e-002
3.478954e+003, 4.929625e-002
3.480882e+003, 4.822257e-002
3.482811e+003, 4.786952e-002
3.484739e+003, 4.797564e-002
3.486668e+003, 4.723978e-002
3.488596e+003, 4.651360e-002
3.490525e+003, 4.638393e-002
3.492453e+003, 4.595456e-002
3.494382e+003, 4.557290e-002
3.496310e+003, 4.530143e-002
3.498239e+003, 4.523781e-002
3.500167e+003, 4.455260e-002
3.502095e+003, 4.319194e-002
3.504024e+003, 4.174437e-002
3.505952e+003, 4.014155e-002
3.507881e+003, 3.981091e-002
3.509809e+003, 4.005067e-002
3.511738e+003, 3.920412e-002
3.513666e+003, 3.846827e-002
3.515595e+003, 3.738310e-002
3.517523e+003, 3.691626e-002
3.519452e+003, 3.633403e-002
3.521380e+003, 3.540397e-002
3.523309e+003, 3.455431e-002
3.525237e+003, 3.365606e-002
3.527166e+003, 3.302471e-002
3.529094e+003, 3.267469e-002
3.531022e+003, 3.256992e-002
3.532951e+003, 3.204888e-002
3.534879e+003, 3.122118e-002
3.536808e+003, 3.050694e-002
3.538736e+003, 2.943388e-002
3.540665e+003, 2.872134e-002
3.542593e+003, 2.891351e-002
3.544522e+003, 2.864614e-002
3.546450e+003, 2.764471e-002
3.548379e+003, 2.691263e-002
3.550307e+003, 2.594704e-002
3.552236e+003, 2.505146e-002
3.554164e+003, 2.491617e-002
3.556093e+003, 2.426238e-002
3.558021e+003, 2.390289e-002
3.559949e+003, 2.476554e-002
3.561878e+003, 2.405969e-002
3.563806e+003, 2.302941e-002
3.565735e+003, 2.300001e-002
3.567663e+003, 2.264068e-002
3.569592e+003, 2.185382e-002
3.571520e+003, 2.130104e-002
3.573449e+003, 2.112241e-002
3.575377e+003, 2.063624e-002
3.577306e+003, 2.024275e-002
3.579234e+003, 1.976629e-002
3.581163e+003, 1.863508e-002
3.583091e+003, 1.861243e-002
3.585020e+003, 1.853830e-002
3.586948e+003, 1.818521e-002
3.588876e+003, 1.786982e-002
3.590805e+003, 1.719141e-002
3.592733e+003, 1.620834e-002
3.594662e+003, 1.630008e-002
3.596590e+003, 1.592401e-002
3.598519e+003, 1.541444e-002
3.600447e+003, 1.540716e-002
3.602376e+003, 1.460641e-002
3.604304e+003, 1.354211e-002
3.606233e+003, 1.350500e-002
3.608161e+003, 1.313603e-002
3.610090e+003, 1.278158e-002
3.612018e+003, 1.263880e-002
3.613947e+003, 1.188741e-002
3.615875e+003, 1.100949e-002
3.617803e+003, 1.087812e-002
3.619732e+003, 1.000677e-002
3.621660e+003, 9.173357e-003
3.623589e+003, 8.355193e-003
3.625517e+003, 7.076162e-003
3.627446e+003, 6.115683e-003
3.629374e+003, 6.351223e-003
3.631303e+003, 6.068557e-003
3.633231e+003, 4.727437e-003
3.635160e+003, 4.195578e-003
3.637088e+003, 4.387280e-003
3.639017e+003, 4.039004e-003
3.640945e+003, 3.477749e-003
3.642874e+003, 3.005947e-003
3.644802e+003, 2.270598e-003
3.646730e+003, 1.229328e-003
3.648659e+003, 6.451051e-004
3.650587e+003, 3.064180e-004
3.652516e+003, -2.553556e-005
3.654444e+003, -3.167307e-004
3.656373e+003, -3.509339e-004
3.658301e+003, -3.971696e-004
3.660230e+003, -6.076089e-004
3.662158e+003, -5.721464e-004
3.664087e+003, -1.393859e-003
3.666015e+003, -2.272537e-003
3.667944e+003, -2.273125e-003
3.669872e+003, -2.482792e-003
3.671801e+003, -1.998134e-003
3.673729e+003, -1.699235e-003
3.675657e+003, -2.169056e-003
3.677586e+003, -2.343225e-003
3.679514e+003, -2.732265e-003
3.681443e+003, -3.312013e-003
3.683371e+003, -3.110463e-003
3.685300e+003, -2.523953e-003
3.687228e+003, -3.059946e-003
3.689157e+003, -3.318343e-003
3.691085e+003, -3.512047e-003
3.693014e+003, -3.727170e-003
3.694942e+003, -3.040198e-003
3.696871e+003, -3.093255e-003
3.698799e+003, -4.077045e-003
3.700728e+003, -4.664069e-003
3.702656e+003, -4.309873e-003
3.704584e+003, -3.314581e-003
3.706513e+003, -3.383344e-003
3.708441e+003, -3.645523e-003
3.710370e+003, -3.585229e-003
3.712298e+003, -3.990578e-003
3.714227e+003, -4.015853e-003
3.716155e+003, -4.296359e-003
3.718084e+003, -4.251161e-003
3.720012e+003, -4.058256e-003
3.721941e+003, -4.094927e-003
3.723869e+003, -4.593701e-003
3.725798e+003, -4.035260e-003
3.727726e+003, -3.601876e-003
3.729655e+003, -3.869807e-003
3.731583e+003, -4.148330e-003
3.733511e+003, -3.755330e-003
3.735440e+003, -3.973229e-003
3.737368e+003, -4.468465e-003
3.739297e+003, -3.598098e-003
3.741225e+003, -3.007011e-003
3.743154e+003, -3.303912e-003
3.745082e+003, -3.610351e-003
3.747011e+003, -3.685544e-003
3.748939e+003, -4.243697e-003
3.750868e+003, -4.404290e-003
3.752796e+003, -4.203415e-003
3.754725e+003, -4.794518e-003
3.756653e+003, -4.453538e-003
3.758582e+003, -3.950759e-003
3.760510e+003, -4.757056e-003
3.762438e+003, -4.797406e-003
3.764367e+003, -4.536693e-003
3.766295e+003, -4.268198e-003
3.768224e+003, -4.124053e-003
3.770152e+003, -3.852381e-003
3.772081e+003, -3.813577e-003
3.774009e+003, -3.482391e-003
3.775938e+003, -3.449088e-003
3.777866e+003, -3.873001e-003
3.779795e+003, -4.565277e-003
3.781723e+003, -4.816374e-003
3.783652e+003, -4.587188e-003
3.785580e+003, -4.056215e-003
3.787509e+003, -3.676044e-003
3.789437e+003, -3.663759e-003
3.791365e+003, -3.654718e-003
3.793294e+003, -3.709499e-003
3.795222e+003, -4.090130e-003
3.797151e+003, -3.978247e-003
3.799079e+003, -4.008648e-003
3.801008e+003, -4.254777e-003
3.802936e+003, -4.178508e-003
3.804865e+003, -4.446320e-003
3.806793e+003, -4.308557e-003
3.808722e+003, -3.586452e-003
3.810650e+003, -3.367143e-003
3.812579e+003, -3.953579e-003
3.814507e+003, -4.240641e-003
3.816436e+003, -3.695792e-003
3.818364e+003, -4.000094e-003
3.820292e+003, -4.372568e-003
3.822221e+003, -4.242774e-003
3.824149e+003, -4.561987e-003
3.826078e+003, -4.984473e-003
3.828006e+003, -4.990274e-003
3.829935e+003, -4.075638e-003
3.831863e+003, -3.523358e-003
3.833792e+003, -3.617537e-003
3.835720e+003, -3.682257e-003
3.837649e+003, -3.574103e-003
3.839577e+003, -3.934616e-003
3.841506e+003, -3.739120e-003
3.843434e+003, -3.532345e-003
3.845363e+003, -4.051383e-003
3.847291e+003, -3.939723e-003
3.849219e+003, -3.815471e-003
3.851148e+003, -4.149001e-003
3.853076e+003, -5.155454e-003
3.855005e+003, -5.035403e-003
3.856933e+003, -4.416928e-003
3.858862e+003, -4.495393e-003
3.860790e+003, -4.931614e-003
3.862719e+003, -4.828156e-003
3.864647e+003, -5.017485e-003
3.866576e+003, -5.042214e-003
3.868504e+003, -4.221400e-003
3.870433e+003, -3.834323e-003
3.872361e+003, -3.718328e-003
3.874290e+003, -3.581200e-003
3.876218e+003, -3.935902e-003
3.878146e+003, -4.074258e-003
3.880075e+003, -4.390344e-003
3.882003e+003, -4.271158e-003
3.883932e+003, -3.822402e-003
3.885860e+003, -4.385589e-003
3.887789e+003, -4.966486e-003
3.889717e+003, -4.270646e-003
3.891646e+003, -3.268068e-003
3.893574e+003, -4.089951e-003
3.895503e+003, -4.557387e-003
3.897431e+003, -4.174517e-003
3.899360e+003, -4.246049e-003
3.901288e+003, -3.805047e-003
3.903217e+003, -3.828736e-003
3.905145e+003, -3.805711e-003
3.907073e+003, -3.637081e-003
3.909002e+003, -3.521777e-003
3.910930e+003, -3.775405e-003
3.912859e+003, -4.414120e-003
3.914787e+003, -4.219374e-003
3.916716e+003, -4.047196e-003
3.918644e+003, -4.428029e-003
3.920573e+003, -4.802283e-003
3.922501e+003, -4.938130e-003
3.924430e+003, -4.434825e-003
3.926358e+003, -4.622938e-003
3.928287e+003, -4.686606e-003
3.930215e+003, -4.010219e-003
3.932144e+003, -4.054430e-003
3.934072e+003, -4.309593e-003
3.936000e+003, -3.949634e-003
3.937929e+003, -4.564210e-003
3.939857e+003, -5.133221e-003
3.941786e+003, -4.645922e-003
3.943714e+003, -4.280661e-003
3.945643e+003, -4.718525e-003
3.947571e+003, -4.773789e-003
3.949500e+003, -4.444621e-003
3.951428e+003, -4.520572e-003
3.953357e+003, -4.272704e-003
3.955285e+003, -4.073192e-003
3.957214e+003, -4.117952e-003
3.959142e+003, -3.677959e-003
3.961071e+003, -3.872783e-003
3.962999e+003, -3.435320e-003
3.964927e+003, -3.460067e-003
3.966856e+003, -3.660336e-003
3.968784e+003, -3.651224e-003
3.970713e+003, -3.636850e-003
3.972641e+003, -3.197873e-003
3.974570e+003, -3.441013e-003
3.976498e+003, -3.546955e-003
3.978427e+003, -3.389623e-003
3.980355e+003, -3.612911e-003
3.982284e+003, -3.933941e-003
3.984212e+003, -3.680830e-003
3.986141e+003, -3.680635e-003
3.988069e+003, -3.935833e-003
3.989998e+003, -3.785643e-003
3.991926e+003, -3.190160e-003
3.993854e+003, -3.188531e-003
3.995783e+003, -3.806985e-003
3.997711e+003, -4.498084e-003
3.999640e+003, -4.342555e-003
4.001568e+003, 0.000000e+000
##END=



