##NAMES=Wendwilsonite
##RRUFFID=R050398
##IDEAL CHEMISTRY=Ca_2_Mg(As^5+^O_4_)_2_&#183;2H_2_O
##LOCALITY=Bou Azzer, Morocco
##OWNER=RRUFF
##SOURCE=Marcus Origlieri
##DESCRIPTION=Stout prismatic red crystals
##STATUS=The identification of this mineral has been confirmed by X-ray diffraction and chemical analysis
##URL=rruff.info/R050398
##MEASURED CHEMISTRY=Ca_2.00_(Mg_0.54_Co_0.31_Zn_0.15_)(As_1.00_O_4_)_2_Â·2H_2_O
399.1926, 0.3123800
401.1211, 0.3027729
403.0496, 0.3042285
404.9780, 0.2858216
406.9065, 0.2683885
408.8350, 0.2595818
410.7634, 0.2557560
412.6919, 0.2498433
414.6204, 0.2430933
416.5488, 0.2326730
418.4773, 0.2253179
420.4058, 0.2189106
422.3342, 0.2102058
424.2627, 0.1993800
426.1912, 0.1922976
428.1196, 0.1855242
430.0481, 0.1770388
431.9766, 0.1682263
433.9050, 0.1625428
435.8335, 0.1563761
437.7620, 0.1488868
439.6904, 0.1406197
441.6189, 0.1366923
443.5474, 0.1360915
445.4758, 0.1365472
447.4043, 0.1389644
449.3328, 0.1424506
451.2612, 0.1474083
453.1897, 0.1480310
455.1182, 0.1455720
457.0466, 0.1414409
458.9751, 0.1362812
460.9036, 0.1289854
462.8320, 0.1229784
464.7605, 0.1178609
466.6890, 0.1118913
468.6174, 0.1061009
470.5459, 0.1001485
472.4744, 9.4980188E-02
474.4028, 9.0421252E-02
476.3313, 8.6543933E-02
478.2598, 8.2191512E-02
480.1882, 7.8440793E-02
482.1167, 7.3941767E-02
484.0452, 6.9105327E-02
485.9736, 6.4705312E-02
487.9021, 6.0639821E-02
489.8306, 5.7536449E-02
491.7590, 5.4311659E-02
493.6875, 5.0642472E-02
495.6160, 4.7059469E-02
497.5444, 4.3993831E-02
499.4729, 4.1298330E-02
501.4014, 3.8700789E-02
503.3298, 3.6545482E-02
505.2583, 3.4547370E-02
507.1868, 3.2956630E-02
509.1152, 3.2028660E-02
511.0437, 3.1290539E-02
512.9722, 2.9982559E-02
514.9006, 2.9495750E-02
516.8291, 2.9856021E-02
518.7576, 2.9612640E-02
520.6860, 2.8262150E-02
522.6145, 2.7725611E-02
524.5430, 2.7885661E-02
526.4714, 2.7730260E-02
528.3999, 2.7622869E-02
530.3284, 2.7864540E-02
532.2568, 2.8267371E-02
534.1853, 2.8288990E-02
536.1138, 2.7387900E-02
538.0422, 2.7256040E-02
539.9707, 2.7144611E-02
541.8992, 2.7689660E-02
543.8276, 2.8646899E-02
545.7561, 2.9623350E-02
547.6846, 2.9408939E-02
549.6130, 2.9257100E-02
551.5415, 2.9965561E-02
553.4700, 3.0573050E-02
555.3984, 3.1015269E-02
557.3269, 3.1171011E-02
559.2554, 3.1672381E-02
561.1838, 3.2178100E-02
563.1123, 3.2634970E-02
565.0408, 3.2968059E-02
566.9692, 3.3504490E-02
568.8977, 3.4150992E-02
570.8262, 3.4678571E-02
572.7546, 3.5573918E-02
574.6831, 3.6495030E-02
576.6116, 3.7587479E-02
578.5400, 3.8543541E-02
580.4685, 3.9240289E-02
582.3970, 4.0057391E-02
584.3254, 4.0682189E-02
586.2539, 4.1164219E-02
588.1824, 4.1755479E-02
590.1108, 4.2845350E-02
592.0393, 4.4194631E-02
593.9678, 4.4832289E-02
595.8962, 4.6071179E-02
597.8247, 4.7472581E-02
599.7532, 4.8311349E-02
601.6816, 4.9305301E-02
603.6101, 5.0740141E-02
605.5386, 5.2498002E-02
607.4670, 5.4394700E-02
609.3955, 5.5893522E-02
611.3240, 5.7110108E-02
613.2524, 5.9021000E-02
615.1809, 6.1212610E-02
617.1094, 6.3211977E-02
619.0378, 6.5583780E-02
620.9663, 6.7529269E-02
622.8948, 6.9493711E-02
624.8232, 7.1970560E-02
626.7517, 7.4783489E-02
628.6802, 7.7744924E-02
630.6086, 8.0643542E-02
632.5371, 8.3315194E-02
634.4656, 8.5848808E-02
636.3940, 8.9216441E-02
638.3225, 9.2966698E-02
640.2510, 9.6768066E-02
642.1794, 0.1007620
644.1079, 0.1046605
646.0364, 0.1084430
647.9648, 0.1120024
649.8933, 0.1159774
651.8218, 0.1209422
653.7502, 0.1257325
655.6787, 0.1292268
657.6072, 0.1325272
659.5356, 0.1358517
661.4641, 0.1389486
663.3926, 0.1413990
665.3210, 0.1435722
667.2495, 0.1458565
669.1780, 0.1476142
671.1064, 0.1485611
673.0349, 0.1492603
674.9634, 0.1497209
676.8918, 0.1495692
678.8203, 0.1490173
680.7488, 0.1482330
682.6772, 0.1476270
684.6057, 0.1471343
686.5342, 0.1473910
688.4626, 0.1480262
690.3911, 0.1490391
692.3196, 0.1508608
694.2480, 0.1536770
696.1765, 0.1572315
698.1050, 0.1614930
700.0334, 0.1666505
701.9619, 0.1728561
703.8904, 0.1797822
705.8188, 0.1873519
707.7473, 0.1965723
709.6758, 0.2066467
711.6042, 0.2163776
713.5327, 0.2260852
715.4612, 0.2359641
717.3896, 0.2460931
719.3181, 0.2554044
721.2466, 0.2630277
723.1750, 0.2690634
725.1035, 0.2728246
727.0320, 0.2747549
728.9604, 0.2754142
730.8889, 0.2744290
732.8174, 0.2717170
734.7458, 0.2688709
736.6743, 0.2655707
738.6028, 0.2615316
740.5313, 0.2571390
742.4597, 0.2531075
744.3882, 0.2502284
746.3167, 0.2476042
748.2451, 0.2462761
750.1736, 0.2453900
752.1021, 0.2447332
754.0305, 0.2453960
755.9590, 0.2475465
757.8875, 0.2508847
759.8159, 0.2552835
761.7444, 0.2612385
763.6729, 0.2692263
765.6013, 0.2790884
767.5298, 0.2898370
769.4583, 0.3024347
771.3867, 0.3171273
773.3152, 0.3338553
775.2437, 0.3522352
777.1721, 0.3715757
779.1006, 0.3879687
781.0291, 0.4000354
782.9575, 0.4062863
784.8860, 0.4067097
786.8145, 0.4032088
788.7429, 0.3971514
790.6714, 0.3904061
792.5999, 0.3833436
794.5283, 0.3755319
796.4568, 0.3673067
798.3853, 0.3578659
800.3137, 0.3469202
802.2422, 0.3348159
804.1707, 0.3216311
806.0991, 0.3060712
808.0276, 0.2901010
809.9561, 0.2743705
811.8845, 0.2584992
813.8130, 0.2427625
815.7415, 0.2280254
817.6699, 0.2137102
819.5984, 0.1990245
821.5269, 0.1855528
823.4553, 0.1737762
825.3838, 0.1650009
827.3123, 0.1611526
829.2407, 0.1626679
831.1692, 0.1675557
833.0977, 0.1742175
835.0261, 0.1815262
836.9546, 0.1877465
838.8831, 0.1916001
840.8115, 0.1931036
842.7400, 0.1909169
844.6685, 0.1844061
846.5969, 0.1759456
848.5254, 0.1683227
850.4539, 0.1634073
852.3823, 0.1610147
854.3108, 0.1600951
856.2393, 0.1619763
858.1677, 0.1680074
860.0962, 0.1781490
862.0247, 0.1890399
863.9531, 0.1977262
865.8816, 0.2025939
867.8101, 0.2034549
869.7385, 0.2005229
871.6670, 0.1948155
873.5955, 0.1870305
875.5239, 0.1774395
877.4524, 0.1672568
879.3809, 0.1570937
881.3093, 0.1469653
883.2378, 0.1377685
885.1663, 0.1287225
887.0947, 0.1196410
889.0232, 0.1105900
890.9517, 0.1014214
892.8801, 9.3062110E-02
894.8085, 8.5082822E-02
896.7370, 7.7190854E-02
898.6655, 6.9840811E-02
900.5939, 6.3007690E-02
902.5224, 5.6967981E-02
904.4509, 5.1854022E-02
906.3793, 4.7327381E-02
908.3078, 4.2998642E-02
910.2363, 3.9685551E-02
912.1647, 3.7511211E-02
914.0932, 3.5672341E-02
916.0217, 3.3746321E-02
917.9501, 3.2561071E-02
919.8786, 3.2134380E-02
921.8071, 3.1545620E-02
923.7355, 3.0734779E-02
925.6640, 3.0410690E-02
927.5925, 3.0475041E-02
929.5209, 3.0276120E-02
931.4494, 3.0126210E-02
933.3779, 3.0537641E-02
935.3063, 3.0926600E-02
937.2348, 3.1362750E-02
939.1633, 3.2106001E-02
941.0917, 3.3092979E-02
943.0202, 3.4200128E-02
944.9487, 3.5326410E-02
946.8771, 3.6495369E-02
948.8056, 3.7873931E-02
950.7341, 3.9737020E-02
952.6625, 4.1862428E-02
954.5910, 4.4175860E-02
956.5195, 4.6863768E-02
958.4479, 5.0089460E-02
960.3764, 5.3760950E-02
962.3049, 5.8053099E-02
964.2333, 6.2864989E-02
966.1618, 6.7645080E-02
968.0903, 7.3156647E-02
970.0187, 7.9548813E-02
971.9472, 8.6327113E-02
973.8757, 9.2848077E-02
975.8041, 9.9008173E-02
977.7326, 0.1042793
979.6611, 0.1083828
981.5895, 0.1108367
983.5180, 0.1112872
985.4465, 0.1099313
987.3749, 0.1072797
989.3034, 0.1033529
991.2319, 9.8909803E-02
993.1603, 9.4263561E-02
995.0888, 8.9440450E-02
997.0173, 8.4880076E-02
998.9457, 8.0541842E-02
1000.874, 7.6455459E-02
1002.803, 7.2888069E-02
1004.731, 6.9534130E-02
1006.660, 6.6431820E-02
1008.588, 6.3535161E-02
1010.517, 6.0196489E-02
1012.445, 5.6701150E-02
1014.373, 5.3203270E-02
1016.302, 4.9036030E-02
1018.230, 4.4747800E-02
1020.159, 4.0558271E-02
1022.087, 3.6636181E-02
1024.016, 3.3401899E-02
1025.944, 3.0654309E-02
1027.873, 2.7877090E-02
1029.801, 2.5343761E-02
1031.730, 2.2893630E-02
1033.658, 2.0539910E-02
1035.587, 1.8373400E-02
1037.515, 1.6183119E-02
1039.444, 1.3882710E-02
1041.372, 1.1227990E-02
1043.301, 8.9152725E-03
1045.229, 7.2766361E-03
1047.157, 6.1921729E-03
1049.086, 6.1017182E-03
1051.014, 6.6560409E-03
1052.943, 7.4291881E-03
1054.871, 8.6017950E-03
1056.800, 9.8415744E-03
1058.728, 1.0765970E-02
1060.657, 1.1347150E-02
1062.585, 1.1679270E-02
1064.514, 1.1894700E-02
1066.442, 1.1888950E-02
1068.371, 1.1783380E-02
1070.299, 1.1789230E-02
1072.228, 1.1445920E-02
1074.156, 1.0843360E-02
1076.084, 1.0203050E-02
1078.013, 9.6847285E-03
1079.941, 9.1442671E-03
1081.870, 8.5462220E-03
1083.798, 7.8001050E-03
1085.727, 6.9009531E-03
1087.655, 6.2849210E-03
1089.584, 5.9620440E-03
1091.512, 6.0168039E-03
1093.441, 6.2944139E-03
1095.369, 6.7115738E-03
1097.298, 7.5321430E-03
1099.226, 8.0348356E-03
1101.155, 8.5013807E-03
1103.083, 9.3241530E-03
1105.011, 9.7777871E-03
1106.940, 9.7946646E-03
1108.868, 9.8020909E-03
1110.797, 9.8124510E-03
1112.725, 9.9581499E-03
1114.654, 9.9755982E-03
1116.582, 9.8146284E-03
1118.511, 9.8018926E-03
1120.439, 9.9616637E-03
1122.368, 9.7757392E-03
1124.296, 9.3994746E-03
1126.225, 9.2970338E-03
1128.153, 9.1866003E-03
1130.082, 9.2313774E-03
1132.010, 9.4016027E-03
1133.938, 9.3311891E-03
1135.867, 9.1394056E-03
1137.795, 9.1559207E-03
1139.724, 9.3409671E-03
1141.652, 9.1933170E-03
1143.581, 8.9644091E-03
1145.509, 8.7329065E-03
1147.438, 8.6985491E-03
1149.366, 8.8672386E-03
1151.295, 8.9773769E-03
1153.223, 8.9774365E-03
1155.152, 9.0560103E-03
1157.080, 8.8996282E-03
1159.009, 8.7482044E-03
1160.937, 8.8656321E-03
1162.865, 8.8926330E-03
1164.794, 8.8879392E-03
1166.722, 9.1158617E-03
1168.651, 9.3909241E-03
1170.579, 9.3335286E-03
1172.508, 9.2988918E-03
1174.436, 9.4003119E-03
1176.365, 9.3624303E-03
1178.293, 9.0339771E-03
1180.222, 9.1095036E-03
1182.150, 9.1429697E-03
1184.079, 9.1230590E-03
1186.007, 9.1939624E-03
1187.936, 9.2616864E-03
1189.864, 9.3726628E-03
1191.792, 9.3637677E-03
1193.721, 9.3222149E-03
1195.649, 9.2899641E-03
1197.578, 9.2175771E-03
1199.506, 9.0387166E-03
1201.435, 9.0364804E-03
1203.363, 9.2237536E-03
1205.292, 9.4035501E-03
1207.220, 9.5268954E-03
1209.149, 9.4342940E-03
1211.077, 9.0896916E-03
1213.006, 9.1692284E-03
1214.934, 9.5459158E-03
1216.863, 9.6910261E-03
1218.791, 9.7590340E-03
1220.719, 9.6228393E-03
1222.648, 9.2019672E-03
1224.576, 9.0534324E-03
1226.505, 9.2732990E-03
1228.433, 9.3577551E-03
1230.362, 9.3971724E-03
1232.290, 9.5171304E-03
1234.219, 9.2858477E-03
1236.147, 9.2541426E-03
1238.076, 9.3730129E-03
1240.004, 9.2928400E-03
1241.933, 9.4220601E-03
1243.861, 9.6155126E-03
1245.790, 9.7717503E-03
1247.718, 9.9289669E-03
1249.646, 9.7505702E-03
1251.575, 9.5867123E-03
1253.503, 9.6610487E-03
1255.432, 9.8780906E-03
1257.360, 9.9560553E-03
1259.289, 1.0033370E-02
1261.217, 1.0223180E-02
1263.146, 1.0309560E-02
1265.074, 1.0244450E-02
1267.003, 1.0239500E-02
1268.931, 1.0356100E-02
1270.860, 1.0385870E-02
1272.788, 1.0688080E-02
1274.717, 1.1030000E-02
1276.645, 1.1124280E-02
1278.573, 1.1186160E-02
1280.502, 1.1312360E-02
1282.430, 1.1578670E-02
1284.359, 1.1789940E-02
1286.287, 1.1500840E-02
1288.216, 1.1388690E-02
1290.144, 1.1352340E-02
1292.073, 1.1581020E-02
1294.001, 1.1823850E-02
1295.930, 1.1738740E-02
1297.858, 1.1565580E-02
1299.787, 1.1565800E-02
1301.715, 1.1716850E-02
1303.644, 1.1854620E-02
1305.572, 1.1835880E-02
1307.500, 1.1886150E-02
1309.429, 1.2028810E-02
1311.357, 1.2260160E-02
1313.286, 1.2406250E-02
1315.214, 1.2616100E-02
1317.143, 1.2738340E-02
1319.071, 1.2639610E-02
1321.000, 1.2799630E-02
1322.928, 1.3295390E-02
1324.857, 1.3409700E-02
1326.785, 1.3510900E-02
1328.714, 1.3681280E-02
1330.642, 1.4067800E-02
1332.571, 1.4458110E-02
1334.499, 1.4682900E-02
1336.427, 1.4753400E-02
1338.356, 1.5063780E-02
1340.284, 1.5408200E-02
1342.213, 1.5377540E-02
1344.141, 1.5596750E-02
1346.070, 1.6124520E-02
1347.998, 1.6490560E-02
1349.927, 1.6762091E-02
1351.855, 1.7030690E-02
1353.784, 1.7184440E-02
1355.712, 1.7359070E-02
1357.641, 1.7511141E-02
1359.569, 1.7895680E-02
1361.498, 1.8068761E-02
1363.426, 1.8060490E-02
1365.354, 1.8364411E-02
1367.283, 1.8698409E-02
1369.211, 1.9175120E-02
1371.140, 1.9392850E-02
1373.068, 1.9367760E-02
1374.997, 1.9340141E-02
1376.925, 1.9327439E-02
1378.854, 1.9567279E-02
1380.782, 1.9885330E-02
1382.711, 1.9998880E-02
1384.639, 2.0520169E-02
1386.568, 2.1002240E-02
1388.496, 2.1465549E-02
1390.424, 2.1906501E-02
1392.353, 2.2346610E-02
1394.281, 2.2919411E-02
1396.210, 2.3956399E-02
1398.138, 2.4984960E-02
1400.067, 2.5649160E-02
1401.995, 2.5980581E-02
1403.924, 2.6022770E-02
1405.852, 2.5961449E-02
1407.781, 2.5655670E-02
1409.709, 2.5356550E-02
1411.638, 2.5288340E-02
1413.566, 2.5492860E-02
1415.495, 2.5742060E-02
1417.423, 2.5813710E-02
1419.351, 2.5722221E-02
1421.280, 2.5688769E-02
1423.208, 2.5975730E-02
1425.137, 2.6576640E-02
1427.065, 2.6951060E-02
1428.994, 2.7133770E-02
1430.922, 2.7175151E-02
1432.851, 2.7032601E-02
1434.779, 2.6978280E-02
1436.708, 2.7251400E-02
1438.636, 2.7315570E-02
1440.565, 2.7234159E-02
1442.493, 2.7361190E-02
1444.422, 2.7450120E-02
1446.350, 2.7341541E-02
1448.278, 2.7428320E-02
1450.207, 2.7782841E-02
1452.135, 2.7955821E-02
1454.064, 2.7480310E-02
1455.992, 2.7223719E-02
1457.921, 2.7184030E-02
1459.849, 2.7018759E-02
1461.778, 2.6833611E-02
1463.706, 2.6842549E-02
1465.635, 2.6855990E-02
1467.563, 2.6378170E-02
1469.492, 2.6152350E-02
1471.420, 2.6350040E-02
1473.349, 2.6514219E-02
1475.277, 2.6464760E-02
1477.205, 2.6341550E-02
1479.134, 2.6197489E-02
1481.062, 2.6085271E-02
1482.991, 2.6233710E-02
1484.919, 2.6568661E-02
1486.848, 2.6811430E-02
1488.776, 2.6815919E-02
1490.705, 2.7072379E-02
1492.633, 2.7465340E-02
1494.562, 2.7291831E-02
1496.490, 2.7505890E-02
1498.419, 2.8056340E-02
1500.347, 2.8550850E-02
1502.276, 2.8811941E-02
1504.204, 2.9169001E-02
1506.132, 2.9548131E-02
1508.061, 2.9964240E-02
1509.989, 3.0296709E-02
1511.918, 3.0870499E-02
1513.846, 3.1186519E-02
1515.775, 3.1537618E-02
1517.703, 3.2091409E-02
1519.632, 3.2726329E-02
1521.560, 3.3459060E-02
1523.489, 3.3991870E-02
1525.417, 3.4645371E-02
1527.346, 3.5193969E-02
1529.274, 3.5783689E-02
1531.203, 3.6487348E-02
1533.131, 3.7298512E-02
1535.059, 3.7989691E-02
1536.988, 3.8586110E-02
1538.916, 3.9439488E-02
1540.845, 4.0422380E-02
1542.773, 4.1509129E-02
1544.702, 4.2434469E-02
1546.630, 4.3220699E-02
1548.559, 4.4019859E-02
1550.487, 4.4946790E-02
1552.416, 4.5790531E-02
1554.344, 4.6930801E-02
1556.273, 4.7796741E-02
1558.201, 4.8390418E-02
1560.130, 4.9096871E-02
1562.058, 5.0046992E-02
1563.986, 5.1071420E-02
1565.915, 5.2193329E-02
1567.843, 5.3182408E-02
1569.772, 5.4199759E-02
1571.700, 5.5183008E-02
1573.629, 5.6019008E-02
1575.557, 5.6962661E-02
1577.486, 5.8283828E-02
1579.414, 5.9986569E-02
1581.343, 6.1013460E-02
1583.271, 6.1940830E-02
1585.200, 6.3567147E-02
1587.128, 6.4945251E-02
1589.057, 6.6118523E-02
1590.985, 6.7464039E-02
1592.913, 6.8855338E-02
1594.842, 7.0016712E-02
1596.770, 7.1018070E-02
1598.699, 7.1721166E-02
1600.627, 7.2218873E-02
1602.556, 7.2535127E-02
1604.484, 7.2607443E-02
1606.413, 7.2475947E-02
1608.341, 7.2188787E-02
1610.270, 7.2112717E-02
1612.198, 7.1844786E-02
1614.127, 7.1325451E-02
1616.055, 7.0536628E-02
1617.984, 6.9586746E-02
1619.912, 6.9057427E-02
1621.840, 6.8401329E-02
1623.769, 6.7533970E-02
1625.697, 6.6415377E-02
1627.626, 6.5692618E-02
1629.554, 6.5109514E-02
1631.483, 6.4553447E-02
1633.411, 6.4287603E-02
1635.340, 6.4144917E-02
1637.268, 6.4099923E-02
1639.197, 6.3643299E-02
1641.125, 6.3421518E-02
1643.054, 6.3566029E-02
1644.982, 6.3917570E-02
1646.911, 6.4178973E-02
1648.839, 6.4118288E-02
1650.767, 6.4479873E-02
1652.696, 6.4813770E-02
1654.624, 6.5104537E-02
1656.553, 6.5703847E-02
1658.481, 6.6490673E-02
1660.410, 6.7018516E-02
1662.338, 6.7486390E-02
1664.267, 6.8020992E-02
1666.195, 6.8695448E-02
1668.124, 6.9563903E-02
1670.052, 7.0470341E-02
1671.981, 7.0692450E-02
1673.909, 7.1053423E-02
1675.838, 7.1406759E-02
1677.766, 7.1645074E-02
1679.694, 7.1822740E-02
1681.623, 7.2488911E-02
1683.551, 7.2252013E-02
1685.480, 7.1869180E-02
1687.408, 7.1683772E-02
1689.337, 7.1205497E-02
1691.265, 7.0405647E-02
1693.194, 6.9902413E-02
1695.122, 6.9358237E-02
1697.051, 6.8175770E-02
1698.979, 6.6456117E-02
1700.908, 6.5299250E-02
1702.836, 6.4053163E-02
1704.765, 6.2683277E-02
1706.693, 6.1378140E-02
1708.621, 5.9793361E-02
1710.550, 5.8226921E-02
1712.478, 5.6920480E-02
1714.407, 5.5934168E-02
1716.335, 5.4638069E-02
1718.264, 5.3471420E-02
1720.192, 5.2748151E-02
1722.121, 5.1761199E-02
1724.049, 5.0602950E-02
1725.978, 4.9653448E-02
1727.906, 4.8564151E-02
1729.835, 4.6643410E-02
1731.763, 4.5266408E-02
1733.692, 4.4194929E-02
1735.620, 4.3045230E-02
1737.548, 4.1865438E-02
1739.477, 4.0425789E-02
1741.405, 3.9361492E-02
1743.334, 3.8813300E-02
1745.262, 3.7587631E-02
1747.191, 3.5715401E-02
1749.119, 3.4452099E-02
1751.048, 3.3702340E-02
1752.976, 3.3740181E-02
1754.905, 3.3178039E-02
1756.833, 3.2272361E-02
1758.762, 3.1869300E-02
1760.690, 3.1495191E-02
1762.619, 3.0858221E-02
1764.547, 3.0542780E-02
1766.475, 3.0116361E-02
1768.404, 2.9670220E-02
1770.332, 2.8964469E-02
1772.261, 2.8242540E-02
1774.189, 2.7884049E-02
1776.118, 2.8031040E-02
1778.046, 2.7977660E-02
1779.975, 2.7802801E-02
1781.903, 2.7519191E-02
1783.832, 2.7193589E-02
1785.760, 2.6859419E-02
1787.689, 2.7047081E-02
1789.617, 2.7192000E-02
1791.546, 2.7282471E-02
1793.474, 2.7283899E-02
1795.402, 2.7178509E-02
1797.331, 2.7087459E-02
1799.259, 2.7291840E-02
1801.188, 2.7425360E-02
1803.116, 2.7264660E-02
1805.045, 2.7539769E-02
1806.973, 2.7408721E-02
1808.902, 2.7329730E-02
1810.830, 2.7303150E-02
1812.759, 2.7473651E-02
1814.687, 2.7774140E-02
1816.616, 2.7770299E-02
1818.544, 2.7884791E-02
1820.473, 2.7827069E-02
1822.401, 2.7740790E-02
1824.329, 2.8031429E-02
1826.258, 2.8156791E-02
1828.186, 2.8470960E-02
1830.115, 2.8828090E-02
1832.043, 2.8754041E-02
1833.972, 2.8909011E-02
1835.900, 2.9389599E-02
1837.829, 2.9873040E-02
1839.757, 2.9629340E-02
1841.686, 2.9697450E-02
1843.614, 2.9749339E-02
1845.543, 2.9880799E-02
1847.471, 3.0043811E-02
1849.400, 2.9737061E-02
1851.328, 2.9556580E-02
1853.256, 2.9525250E-02
1855.185, 2.9694740E-02
1857.113, 2.9980261E-02
1859.042, 3.0362640E-02
1860.970, 2.9994341E-02
1862.899, 2.9969560E-02
1864.827, 3.0441990E-02
1866.756, 3.0398009E-02
1868.684, 3.0687030E-02
1870.613, 3.1301979E-02
1872.541, 3.0877771E-02
1874.470, 3.0878540E-02
1876.398, 3.1302322E-02
1878.327, 3.1348329E-02
1880.255, 3.0898141E-02
1882.183, 3.1041309E-02
1884.112, 3.1505998E-02
1886.040, 3.2219999E-02
1887.969, 3.2671619E-02
1889.897, 3.2830510E-02
1891.826, 3.2773718E-02
1893.754, 3.2538589E-02
1895.683, 3.3013850E-02
1897.611, 3.2979369E-02
1899.540, 3.1752400E-02
1901.468, 3.1676680E-02
1903.397, 3.3207670E-02
1905.325, 3.4645800E-02
1907.254, 3.6093719E-02
1909.182, 3.6279559E-02
1911.110, 3.5552140E-02
1913.039, 3.5845079E-02
1914.967, 3.6035132E-02
1916.896, 3.6360450E-02
1918.824, 3.6760271E-02
1920.753, 3.6977690E-02
1922.681, 3.7126571E-02
1924.610, 3.8460068E-02
1926.538, 4.0332351E-02
1928.467, 4.1029170E-02
1930.395, 4.0134799E-02
1932.324, 4.0815022E-02
1934.252, 4.3171480E-02
1936.181, 4.4205669E-02
1938.109, 4.4335190E-02
1940.037, 4.3640319E-02
1941.966, 4.2572059E-02
1943.894, 4.3757468E-02
1945.823, 4.4976551E-02
1947.751, 4.6773981E-02
1949.680, 4.7936339E-02
1951.608, 4.8675328E-02
1953.537, 4.7715250E-02
1955.465, 4.5781020E-02
1957.394, 4.6316531E-02
1959.322, 4.8618920E-02
1961.251, 5.0471600E-02
1963.179, 4.7624730E-02
1965.108, 4.4034831E-02
1967.036, 4.2003710E-02
1968.964, 4.2635180E-02
1970.893, 4.4731122E-02
1972.821, 4.4690941E-02
1974.750, 4.5640700E-02
1976.678, 4.7874011E-02
1978.607, 4.7635939E-02
1980.535, 4.6030730E-02
1982.464, 4.4780660E-02
1984.392, 4.3949269E-02
1986.321, 4.4113681E-02
1988.249, 4.3527380E-02
1990.178, 4.0638000E-02
1992.106, 3.8776912E-02
1994.035, 3.9607581E-02
1995.963, 3.9630100E-02
1997.891, 3.8860239E-02
1999.820, 3.8774271E-02
2001.748, 3.9983850E-02
2003.677, 3.8290109E-02
2005.605, 3.7822470E-02
2007.534, 4.0641710E-02
2009.462, 3.9849140E-02
2011.391, 3.7599001E-02
2013.319, 3.5461809E-02
2015.248, 3.6603440E-02
2017.176, 3.5678640E-02
2019.105, 3.4405310E-02
2021.033, 3.6400851E-02
2022.962, 3.6220498E-02
2024.890, 3.6268730E-02
2026.818, 3.6353800E-02
2028.747, 3.6098760E-02
2030.675, 3.8732231E-02
2032.604, 3.9483931E-02
2034.532, 3.8299069E-02
2036.461, 3.8952861E-02
2038.389, 3.9490089E-02
2040.318, 3.8386010E-02
2042.246, 3.7958361E-02
2044.175, 3.8952488E-02
2046.103, 4.1193139E-02
2048.032, 4.1819271E-02
2049.960, 4.1299891E-02
2051.889, 4.0479720E-02
2053.817, 4.1109111E-02
2055.746, 4.1589700E-02
2057.674, 4.0417079E-02
2059.603, 3.9683171E-02
2061.531, 4.0266380E-02
2063.459, 4.2399909E-02
2065.388, 4.3117840E-02
2067.316, 4.2664900E-02
2069.245, 4.2778399E-02
2071.173, 4.2567048E-02
2073.102, 4.3056559E-02
2075.030, 4.3773949E-02
2076.959, 4.2622961E-02
2078.887, 4.0988419E-02
2080.816, 4.0947080E-02
2082.744, 4.1732840E-02
2084.673, 4.2018909E-02
2086.601, 4.1857190E-02
2088.530, 4.0880159E-02
2090.458, 4.0416989E-02
2092.386, 4.1952621E-02
2094.315, 4.4088110E-02
2096.243, 4.4303261E-02
2098.172, 4.2325228E-02
2100.100, 4.2464148E-02
2102.029, 4.3511599E-02
2103.957, 4.3658201E-02
2105.886, 4.2962499E-02
2107.814, 4.3158729E-02
2109.743, 4.4922039E-02
2111.671, 4.5463741E-02
2113.600, 4.5721781E-02
2115.528, 4.5701180E-02
2117.457, 4.4917408E-02
2119.385, 4.5266461E-02
2121.313, 4.5204960E-02
2123.242, 4.5002390E-02
2125.170, 4.5228649E-02
2127.099, 4.5497470E-02
2129.027, 4.5251679E-02
2130.956, 4.5501132E-02
2132.884, 4.5918740E-02
2134.813, 4.5405630E-02
2136.741, 4.4857591E-02
2138.670, 4.5119882E-02
2140.598, 4.6427801E-02
2142.527, 4.6622761E-02
2144.455, 4.3618228E-02
2146.384, 4.5179069E-02
2148.312, 4.6470519E-02
2150.240, 4.5434002E-02
2152.169, 4.7023199E-02
2154.097, 4.8310749E-02
2156.026, 4.8920531E-02
2157.954, 4.7994372E-02
2159.883, 5.2706812E-02
2161.811, 5.6420840E-02
2163.740, 5.4491419E-02
2165.668, 5.6400809E-02
2167.597, 5.6993771E-02
2169.525, 5.1777519E-02
2171.454, 5.1645000E-02
2173.382, 5.3615939E-02
2175.311, 5.5830561E-02
2177.239, 5.7746001E-02
2179.167, 5.6946810E-02
2181.096, 5.6029189E-02
2183.024, 5.6878619E-02
2184.953, 5.7778690E-02
2186.881, 5.6440908E-02
2188.810, 5.6052711E-02
2190.738, 5.5635761E-02
2192.667, 5.4367170E-02
2194.595, 5.5604581E-02
2196.524, 5.8344360E-02
2198.452, 5.8765959E-02
2200.381, 5.9111260E-02
2202.309, 5.7527538E-02
2204.238, 5.8001190E-02
2206.166, 5.7974041E-02
2208.094, 5.7546511E-02
2210.023, 6.0571250E-02
2211.951, 6.1292961E-02
2213.880, 6.0203739E-02
2215.808, 5.9303232E-02
2217.737, 6.1062209E-02
2219.665, 6.2055141E-02
2221.594, 6.1441999E-02
2223.522, 6.2824860E-02
2225.451, 6.6109426E-02
2227.379, 6.7254342E-02
2229.308, 6.7248911E-02
2231.236, 6.7957453E-02
2233.165, 6.8906963E-02
2235.093, 6.8124808E-02
2237.021, 6.7442201E-02
2238.950, 6.7762703E-02
2240.878, 6.8912782E-02
2242.807, 7.0125557E-02
2244.735, 7.0529297E-02
2246.664, 7.0517778E-02
2248.592, 6.8971768E-02
2250.521, 6.8433553E-02
2252.449, 6.8465941E-02
2254.378, 6.9340363E-02
2256.306, 7.0923150E-02
2258.235, 7.1309596E-02
2260.163, 7.3251292E-02
2262.092, 7.3178053E-02
2264.020, 7.2643943E-02
2265.948, 7.3100381E-02
2267.877, 7.4172497E-02
2269.805, 7.4776337E-02
2271.734, 7.5112671E-02
2273.662, 7.5832300E-02
2275.591, 7.6404877E-02
2277.519, 7.6746792E-02
2279.448, 7.7265762E-02
2281.376, 7.8083716E-02
2283.305, 7.7677190E-02
2285.233, 7.7947862E-02
2287.162, 7.8201137E-02
2289.090, 7.9287097E-02
2291.019, 8.0632389E-02
2292.947, 8.0445297E-02
2294.875, 7.8441203E-02
2296.804, 7.7461682E-02
2298.732, 7.7299967E-02
2300.661, 7.7559464E-02
2302.589, 7.7480197E-02
2304.518, 7.7440903E-02
2306.446, 7.7995621E-02
2308.375, 7.8229837E-02
2310.303, 7.7995889E-02
2312.232, 7.7939861E-02
2314.160, 7.8332238E-02
2316.089, 7.8282610E-02
2318.017, 7.8100353E-02
2319.946, 7.8234263E-02
2321.874, 7.7647991E-02
2323.802, 7.7394851E-02
2325.731, 7.7220976E-02
2327.659, 7.7360608E-02
2329.588, 7.6536991E-02
2331.516, 7.6692261E-02
2333.445, 7.7516750E-02
2335.373, 7.7003449E-02
2337.302, 7.6921977E-02
2339.230, 7.6223299E-02
2341.159, 7.5296856E-02
2343.087, 7.4824207E-02
2345.016, 7.4738286E-02
2346.944, 7.4787781E-02
2348.873, 7.4143194E-02
2350.801, 7.4260019E-02
2352.729, 7.4016243E-02
2354.658, 7.4066497E-02
2356.586, 7.4720614E-02
2358.515, 7.4918874E-02
2360.443, 7.4986771E-02
2362.372, 7.4737579E-02
2364.300, 7.4466847E-02
2366.229, 7.4356630E-02
2368.157, 7.4829973E-02
2370.086, 7.5290300E-02
2372.014, 7.5604513E-02
2373.942, 7.5017683E-02
2375.871, 7.3887922E-02
2377.799, 7.3686987E-02
2379.728, 7.5206779E-02
2381.656, 7.6580830E-02
2383.585, 7.5957753E-02
2385.513, 7.5642891E-02
2387.442, 7.6031201E-02
2389.370, 7.6833293E-02
2391.299, 7.7633791E-02
2393.227, 7.7392988E-02
2395.156, 7.6742902E-02
2397.084, 7.7148907E-02
2399.012, 7.7603027E-02
2400.941, 7.8264318E-02
2402.869, 7.8981698E-02
2404.798, 7.9264089E-02
2406.726, 7.9736046E-02
2408.655, 8.0812857E-02
2410.583, 8.1147417E-02
2412.512, 8.0684192E-02
2414.440, 8.0326073E-02
2416.369, 8.1270806E-02
2418.297, 8.1095338E-02
2420.226, 8.1977680E-02
2422.154, 8.1961364E-02
2424.083, 8.0600813E-02
2426.011, 8.0748081E-02
2427.939, 8.1778973E-02
2429.868, 8.2501978E-02
2431.796, 8.3388507E-02
2433.725, 8.4754810E-02
2435.653, 8.5511923E-02
2437.582, 8.5614651E-02
2439.510, 8.5968919E-02
2441.439, 8.6275019E-02
2443.367, 8.5475400E-02
2445.296, 8.5146964E-02
2447.224, 8.6300910E-02
2449.153, 8.6466879E-02
2451.081, 8.5721307E-02
2453.010, 8.5234873E-02
2454.938, 8.6307853E-02
2456.866, 8.6657017E-02
2458.795, 8.6222559E-02
2460.723, 8.6172447E-02
2462.652, 8.7584198E-02
2464.580, 8.8226371E-02
2466.509, 8.7171130E-02
2468.437, 8.5792117E-02
2470.366, 8.6501859E-02
2472.294, 8.7216377E-02
2474.223, 8.5980222E-02
2476.151, 8.6440429E-02
2478.080, 8.8404991E-02
2480.008, 8.8637680E-02
2481.937, 8.7950669E-02
2483.865, 8.8631660E-02
2485.793, 8.9085221E-02
2487.722, 8.7711006E-02
2489.650, 8.7541312E-02
2491.579, 8.8813797E-02
2493.507, 8.9447722E-02
2495.436, 9.0184160E-02
2497.364, 9.0603463E-02
2499.293, 9.1576591E-02
2501.221, 9.1748513E-02
2503.150, 9.1131151E-02
2505.078, 9.0676971E-02
2507.007, 9.0371072E-02
2508.935, 8.9967288E-02
2510.864, 8.9884020E-02
2512.792, 9.0118803E-02
2514.720, 9.0228043E-02
2516.649, 8.9777589E-02
2518.577, 9.0292029E-02
2520.506, 9.1101348E-02
2522.434, 9.2157029E-02
2524.363, 9.2432477E-02
2526.291, 9.1769233E-02
2528.220, 9.1199636E-02
2530.148, 9.0556167E-02
2532.077, 9.0468124E-02
2534.005, 9.0387627E-02
2535.934, 9.0686783E-02
2537.862, 9.0811342E-02
2539.791, 9.1511697E-02
2541.719, 9.1294907E-02
2543.647, 9.1364913E-02
2545.576, 9.2427753E-02
2547.504, 9.2920087E-02
2549.433, 9.2347503E-02
2551.361, 9.1521867E-02
2553.290, 9.1746263E-02
2555.218, 9.1519922E-02
2557.147, 9.1746069E-02
2559.075, 9.1896757E-02
2561.004, 9.3144313E-02
2562.932, 9.3216762E-02
2564.861, 9.2055693E-02
2566.789, 9.2453159E-02
2568.718, 9.2700653E-02
2570.646, 9.2412107E-02
2572.574, 9.2990547E-02
2574.503, 9.2668273E-02
2576.431, 9.1844723E-02
2578.360, 9.2880517E-02
2580.288, 9.4523050E-02
2582.217, 9.3988501E-02
2584.145, 9.3291461E-02
2586.074, 9.3619600E-02
2588.002, 9.3957767E-02
2589.931, 9.3835711E-02
2591.859, 9.2830881E-02
2593.788, 9.3550377E-02
2595.716, 9.3759097E-02
2597.645, 9.3011178E-02
2599.573, 9.3374997E-02
2601.501, 9.4623514E-02
2603.430, 9.4586439E-02
2605.358, 9.4258986E-02
2607.287, 9.3128011E-02
2609.215, 9.2491440E-02
2611.144, 9.3797103E-02
2613.072, 9.3887337E-02
2615.001, 9.2978597E-02
2616.929, 9.3048200E-02
2618.858, 9.2902072E-02
2620.786, 9.3587369E-02
2622.715, 9.3433022E-02
2624.643, 9.4027750E-02
2626.572, 9.4022453E-02
2628.500, 9.3016014E-02
2630.428, 9.2405833E-02
2632.357, 9.1668032E-02
2634.285, 9.0737619E-02
2636.214, 9.0737566E-02
2638.142, 9.0868950E-02
2640.071, 9.1096282E-02
2641.999, 9.0901263E-02
2643.928, 9.0318799E-02
2645.856, 9.0305962E-02
2647.785, 9.0541489E-02
2649.713, 9.0323262E-02
2651.642, 9.0677649E-02
2653.570, 9.0902470E-02
2655.499, 8.9789107E-02
2657.427, 8.8583983E-02
2659.355, 8.8510983E-02
2661.284, 8.8438272E-02
2663.212, 8.8085666E-02
2665.141, 8.7771013E-02
2667.069, 8.7628327E-02
2668.998, 8.7242983E-02
2670.926, 8.6107448E-02
2672.855, 8.5990690E-02
2674.783, 8.5884377E-02
2676.712, 8.4624253E-02
2678.640, 8.4976301E-02
2680.569, 8.5831366E-02
2682.497, 8.5439198E-02
2684.426, 8.5229978E-02
2686.354, 8.5253000E-02
2688.282, 8.4677324E-02
2690.211, 8.4918067E-02
2692.139, 8.4917173E-02
2694.068, 8.3378553E-02
2695.996, 8.2427122E-02
2697.925, 8.2797647E-02
2699.853, 8.3451368E-02
2701.782, 8.3409943E-02
2703.710, 8.3501667E-02
2705.639, 8.4221393E-02
2707.567, 8.3950400E-02
2709.496, 8.3719328E-02
2711.424, 8.3202407E-02
2713.353, 8.3655879E-02
2715.281, 8.4149078E-02
2717.209, 8.3353937E-02
2719.138, 8.2313769E-02
2721.066, 8.3237782E-02
2722.995, 8.4096327E-02
2724.923, 8.3203569E-02
2726.852, 8.1851177E-02
2728.780, 8.1762932E-02
2730.709, 8.3155833E-02
2732.637, 8.3858773E-02
2734.566, 8.2797907E-02
2736.494, 8.2073607E-02
2738.423, 8.2359582E-02
2740.351, 8.2029693E-02
2742.280, 8.2340188E-02
2744.208, 8.2520038E-02
2746.136, 8.2176693E-02
2748.065, 8.1927113E-02
2749.993, 8.1329413E-02
2751.922, 8.1349827E-02
2753.850, 8.1999272E-02
2755.779, 8.2004271E-02
2757.707, 8.1828348E-02
2759.636, 8.1847392E-02
2761.564, 8.1999287E-02
2763.493, 8.0493987E-02
2765.421, 7.9341382E-02
2767.350, 7.9322986E-02
2769.278, 7.9172380E-02
2771.207, 7.9891488E-02
2773.135, 8.0367602E-02
2775.063, 7.9914488E-02
2776.992, 7.9397783E-02
2778.920, 7.9244770E-02
2780.849, 7.9625063E-02
2782.777, 8.0152631E-02
2784.706, 7.9951927E-02
2786.634, 7.9277717E-02
2788.563, 7.7555060E-02
2790.491, 7.6979123E-02
2792.420, 7.8134298E-02
2794.348, 7.8599311E-02
2796.277, 7.7243432E-02
2798.205, 7.6581113E-02
2800.134, 7.7459946E-02
2802.062, 7.7645160E-02
2803.990, 7.7048279E-02
2805.919, 7.8313753E-02
2807.847, 7.8506701E-02
2809.776, 7.7381663E-02
2811.704, 7.7721179E-02
2813.633, 7.8150056E-02
2815.561, 7.7712603E-02
2817.490, 7.6756246E-02
2819.418, 7.6280802E-02
2821.347, 7.6664403E-02
2823.275, 7.7639773E-02
2825.204, 7.7054873E-02
2827.132, 7.5595602E-02
2829.061, 7.4648410E-02
2830.989, 7.4194402E-02
2832.917, 7.5189427E-02
2834.846, 7.5524449E-02
2836.774, 7.4905530E-02
2838.703, 7.5157367E-02
2840.631, 7.5564899E-02
2842.560, 7.4720837E-02
2844.488, 7.3556878E-02
2846.417, 7.3416524E-02
2848.345, 7.4160293E-02
2850.274, 7.2878599E-02
2852.202, 7.2537303E-02
2854.131, 7.3457703E-02
2856.059, 7.3236100E-02
2857.988, 7.1047828E-02
2859.916, 7.0163928E-02
2861.844, 7.1175173E-02
2863.773, 7.1545921E-02
2865.701, 7.1117088E-02
2867.630, 7.0837893E-02
2869.558, 6.9761433E-02
2871.487, 6.8251207E-02
2873.415, 6.7288980E-02
2875.344, 6.7133397E-02
2877.272, 6.7351438E-02
2879.201, 6.7730993E-02
2881.129, 6.7216493E-02
2883.058, 6.7211792E-02
2884.986, 6.8415277E-02
2886.915, 6.8525337E-02
2888.843, 6.7647576E-02
2890.771, 6.7355163E-02
2892.700, 6.5983102E-02
2894.628, 6.5467127E-02
2896.557, 6.5379098E-02
2898.485, 6.4942777E-02
2900.414, 6.5549329E-02
2902.342, 6.6347428E-02
2904.271, 6.6836096E-02
2906.199, 6.7337029E-02
2908.128, 6.7887299E-02
2910.056, 6.8033554E-02
2911.985, 6.7387208E-02
2913.913, 6.7254066E-02
2915.842, 6.7510478E-02
2917.770, 6.6545673E-02
2919.698, 6.6108167E-02
2921.627, 6.6040307E-02
2923.555, 6.4121373E-02
2925.484, 6.3676752E-02
2927.412, 6.5163366E-02
2929.341, 6.5862112E-02
2931.269, 6.5250620E-02
2933.198, 6.5876983E-02
2935.126, 6.6716351E-02
2937.055, 6.6710562E-02
2938.983, 6.6414803E-02
2940.912, 6.5610901E-02
2942.840, 6.4734548E-02
2944.769, 6.5387927E-02
2946.697, 6.6584907E-02
2948.625, 6.5962523E-02
2950.554, 6.5472387E-02
2952.482, 6.6097468E-02
2954.411, 6.5981582E-02
2956.339, 6.4803183E-02
2958.268, 6.4233407E-02
2960.196, 6.3849702E-02
2962.125, 6.3402139E-02
2964.053, 6.1751962E-02
2965.982, 5.9663601E-02
2967.910, 5.8252871E-02
2969.839, 5.7291560E-02
2971.767, 5.5799101E-02
2973.696, 5.4970320E-02
2975.624, 5.4940421E-02
2977.552, 5.6827620E-02
2979.481, 5.9649389E-02
2981.409, 6.1404649E-02
2983.338, 6.3007221E-02
2985.266, 6.2629409E-02
2987.195, 6.2921047E-02
2989.123, 6.4380758E-02
2991.052, 6.6373743E-02
2992.980, 6.6372924E-02
2994.909, 6.5563068E-02
2996.837, 6.6052943E-02
2998.766, 6.6613987E-02
3000.694, 6.7871638E-02
3002.623, 6.9189437E-02
3004.551, 6.9268681E-02
3006.479, 6.9076933E-02
3008.408, 6.8771876E-02
3010.336, 6.9123797E-02
3012.265, 6.8068177E-02
3014.193, 6.7702577E-02
3016.122, 7.0462331E-02
3018.050, 7.0609562E-02
3019.979, 6.8451762E-02
3021.907, 6.8110563E-02
3023.836, 7.0056699E-02
3025.764, 7.1269810E-02
3027.693, 6.9669060E-02
3029.621, 6.7713670E-02
3031.550, 6.8270452E-02
3033.478, 6.9950327E-02
3035.406, 7.2271787E-02
3037.335, 7.1644127E-02
3039.263, 7.0655979E-02
3041.192, 7.0050031E-02
3043.120, 7.0020363E-02
3045.049, 7.0221327E-02
3046.977, 7.0098147E-02
3048.906, 6.9727078E-02
3050.834, 6.8698987E-02
3052.763, 6.7797340E-02
3054.691, 6.9161877E-02
3056.620, 7.0442773E-02
3058.548, 7.0118770E-02
3060.477, 7.0543863E-02
3062.405, 7.2045043E-02
3064.333, 7.0197389E-02
3066.262, 6.9779180E-02
3068.190, 7.0716448E-02
3070.119, 7.0329748E-02
3072.047, 7.0369817E-02
3073.976, 7.0701882E-02
3075.904, 6.9736443E-02
3077.833, 7.0109971E-02
3079.761, 7.0929088E-02
3081.690, 7.0368223E-02
3083.618, 7.0349932E-02
3085.547, 7.0426188E-02
3087.475, 7.0190169E-02
3089.404, 7.1165979E-02
3091.332, 7.1339384E-02
3093.260, 6.9261447E-02
3095.189, 6.8531781E-02
3097.117, 6.8780333E-02
3099.046, 6.9195107E-02
3100.974, 7.0025831E-02
3102.903, 7.0169263E-02
3104.831, 7.0263669E-02
3106.760, 6.9941297E-02
3108.688, 6.9253199E-02
3110.617, 6.8351381E-02
3112.545, 6.8570919E-02
3114.474, 6.8733543E-02
3116.402, 6.9421053E-02
3118.331, 6.9636397E-02
3120.259, 6.9021583E-02
3122.188, 6.7784347E-02
3124.116, 6.6517651E-02
3126.044, 6.6413112E-02
3127.973, 6.7005530E-02
3129.901, 6.7271248E-02
3131.830, 6.7844748E-02
3133.758, 6.7371197E-02
3135.687, 6.7020841E-02
3137.615, 6.6093743E-02
3139.544, 6.4764887E-02
3141.472, 6.4306833E-02
3143.401, 6.4926527E-02
3145.329, 6.3992150E-02
3147.258, 6.3642979E-02
3149.186, 6.4712793E-02
3151.115, 6.4620838E-02
3153.043, 6.4284332E-02
3154.971, 6.4336687E-02
3156.900, 6.2662147E-02
3158.828, 6.0036998E-02
3160.757, 5.9449259E-02
3162.685, 6.0986321E-02
3164.614, 5.9976730E-02
3166.542, 5.7710420E-02
3168.471, 5.8605500E-02
3170.399, 6.0857579E-02
3172.328, 6.1318729E-02
3174.256, 6.1201628E-02
3176.185, 6.0212299E-02
3178.113, 5.8330439E-02
3180.042, 5.7223279E-02
3181.970, 5.8280692E-02
3183.898, 5.8774181E-02
3185.827, 5.6822032E-02
3187.755, 5.6044038E-02
3189.684, 5.7142571E-02
3191.612, 5.7578430E-02
3193.541, 5.6204710E-02
3195.469, 5.4925110E-02
3197.398, 5.4729559E-02
3199.326, 5.3515341E-02
3201.255, 5.2375078E-02
3203.183, 5.1330410E-02
3205.112, 5.2660178E-02
3207.040, 5.5659059E-02
3208.969, 5.4352619E-02
3210.897, 5.0806191E-02
3212.825, 5.1887270E-02
3214.754, 5.2434791E-02
3216.682, 5.0476540E-02
3218.611, 4.8844390E-02
3220.539, 4.8709009E-02
3222.468, 4.9644269E-02
3224.396, 4.8879851E-02
3226.325, 4.8908539E-02
3228.253, 5.1286951E-02
3230.182, 5.1099349E-02
3232.110, 4.8628781E-02
3234.039, 4.8083931E-02
3235.967, 4.9151089E-02
3237.896, 4.9668308E-02
3239.824, 4.8509140E-02
3241.752, 4.8294999E-02
3243.681, 4.8682589E-02
3245.609, 4.7710441E-02
3247.538, 4.8469938E-02
3249.466, 4.8167251E-02
3251.395, 4.9631439E-02
3253.323, 5.0371729E-02
3255.252, 5.0055008E-02
3257.180, 5.0766330E-02
3259.109, 5.0672598E-02
3261.037, 4.8349500E-02
3262.966, 4.7332611E-02
3264.894, 4.7712959E-02
3266.823, 4.7506411E-02
3268.751, 4.7193479E-02
3270.679, 4.8054080E-02
3272.608, 4.7702231E-02
3274.536, 4.6531182E-02
3276.465, 4.7674369E-02
3278.393, 4.7924280E-02
3280.322, 4.7539651E-02
3282.250, 4.7478318E-02
3284.179, 4.5487750E-02
3286.107, 4.3348160E-02
3288.036, 4.4882331E-02
3289.964, 4.5441620E-02
3291.893, 4.6427920E-02
3293.821, 4.6654459E-02
3295.750, 4.5596842E-02
3297.678, 4.6135388E-02
3299.606, 4.5668371E-02
3301.535, 4.5635540E-02
3303.463, 4.7890421E-02
3305.392, 4.7794610E-02
3307.320, 4.5297559E-02
3309.249, 4.5254160E-02
3311.177, 4.3310791E-02
3313.106, 4.2159691E-02
3315.034, 4.3183751E-02
3316.963, 4.3458391E-02
3318.891, 4.4982631E-02
3320.820, 4.5180298E-02
3322.748, 4.3628830E-02
3324.677, 4.2914040E-02
3326.605, 4.0896270E-02
3328.533, 3.9432000E-02
3330.462, 3.9426722E-02
3332.390, 3.8390052E-02
3334.319, 3.7856579E-02
3336.247, 3.8728852E-02
3338.176, 3.8687851E-02
3340.104, 3.8376179E-02
3342.033, 3.6665391E-02
3343.961, 3.6455661E-02
3345.890, 3.9031532E-02
3347.818, 4.1900001E-02
3349.747, 4.0562969E-02
3351.675, 3.8669229E-02
3353.604, 3.8386609E-02
3355.532, 3.6954779E-02
3357.460, 3.6943041E-02
3359.389, 3.8284510E-02
3361.317, 3.5643529E-02
3363.246, 3.5057511E-02
3365.174, 3.5796750E-02
3367.103, 3.5007440E-02
3369.031, 3.4897041E-02
3370.960, 3.5540000E-02
3372.888, 3.4330972E-02
3374.817, 3.3993602E-02
3376.745, 3.4270350E-02
3378.674, 3.4233540E-02
3380.602, 3.3813208E-02
3382.531, 3.3547521E-02
3384.459, 3.5307009E-02
3386.387, 3.4278050E-02
3388.316, 3.1603880E-02
3390.244, 3.2117989E-02
3392.173, 3.1833701E-02
3394.101, 3.0421671E-02
3396.030, 2.9082609E-02
3397.958, 2.9557951E-02
3399.887, 2.9627251E-02
3401.815, 2.9251721E-02
3403.744, 2.9317191E-02
3405.672, 2.8931569E-02
3407.601, 2.8243249E-02
3409.529, 2.9302960E-02
3411.458, 3.0918380E-02
3413.386, 3.1334441E-02
3415.314, 2.9484499E-02
3417.243, 2.7358551E-02
3419.171, 2.6359290E-02
3421.100, 2.8435670E-02
3423.028, 3.1957429E-02
3424.957, 3.2292821E-02
3426.885, 3.1561010E-02
3428.814, 3.1360380E-02
3430.742, 2.9486891E-02
3432.671, 2.8221279E-02
3434.599, 2.6021650E-02
3436.528, 2.6208110E-02
3438.456, 2.7767111E-02
3440.385, 2.6202479E-02
3442.313, 2.7228530E-02
3444.241, 2.7000330E-02
3446.170, 2.6229810E-02
3448.098, 2.7122350E-02
3450.027, 2.7295491E-02
3451.955, 2.7988570E-02
3453.884, 2.9699570E-02
3455.812, 2.8407101E-02
3457.741, 2.6462000E-02
3459.669, 2.7137959E-02
3461.598, 2.7443331E-02
3463.526, 2.6675761E-02
3465.455, 2.5385760E-02
3467.383, 2.6254719E-02
3469.312, 2.7958671E-02
3471.240, 2.7407680E-02
3473.168, 2.7038800E-02
3475.097, 2.6863679E-02
3477.025, 2.6741970E-02
3478.954, 2.5289230E-02
3480.882, 2.5589921E-02
3482.811, 2.4216250E-02
3484.739, 2.5625549E-02
3486.668, 2.7800569E-02
3488.596, 2.9001750E-02
3490.525, 2.5950670E-02
3492.453, 2.5073091E-02
3494.382, 2.4543909E-02
3496.310, 2.3098700E-02
3498.239, 2.4546960E-02
3500.167, 2.7035531E-02
3502.095, 2.5125559E-02
3504.024, 2.5135500E-02
3505.952, 2.7425069E-02
3507.881, 2.8129900E-02
3509.809, 2.6884740E-02
3511.738, 2.5698170E-02
3513.666, 2.5322091E-02
3515.595, 2.3346040E-02
3517.523, 2.3065731E-02
3519.452, 2.5106050E-02
3521.380, 2.9569039E-02
3523.309, 3.1627800E-02
3525.237, 2.9680500E-02
3527.166, 2.6559571E-02
3529.094, 2.5838260E-02
3531.022, 2.9416829E-02
3532.951, 3.1372249E-02
3534.879, 2.9366100E-02
3536.808, 2.8051529E-02
3538.736, 2.7696090E-02
3540.665, 2.5969161E-02
3542.593, 2.5819520E-02
3544.522, 2.5352821E-02
3546.450, 2.3153661E-02
3548.379, 2.2656340E-02
3550.307, 2.5262300E-02
3552.236, 2.8828150E-02
3554.164, 2.9732790E-02
3556.093, 2.8004689E-02
3558.021, 2.6667640E-02
3559.949, 2.5721241E-02
3561.878, 2.5434971E-02
3563.806, 2.7177701E-02
3565.735, 2.7072649E-02
3567.663, 2.8618330E-02
3569.592, 2.9174730E-02
3571.520, 2.5014389E-02
3573.449, 2.6205881E-02
3575.377, 2.7871531E-02
3577.306, 2.7291499E-02
3579.234, 2.8361330E-02
3581.163, 2.3948940E-02
3583.091, 2.3435900E-02
3585.020, 2.7280711E-02
3586.948, 2.5997641E-02
3588.876, 2.4087479E-02
3590.805, 2.5856480E-02
3592.733, 2.7761180E-02
3594.662, 2.7470339E-02
3596.590, 2.8024400E-02
3598.519, 2.7878471E-02
3600.447, 2.7877379E-02
3602.376, 2.7200470E-02
3604.304, 2.6359159E-02
3606.233, 2.8551171E-02
3608.161, 2.9401880E-02
3610.090, 2.6948860E-02
3612.018, 2.5310690E-02
3613.947, 2.5690541E-02
3615.875, 2.7615249E-02
3617.803, 2.6068920E-02
3619.732, 2.4919299E-02
3621.660, 2.7068930E-02
3623.589, 2.6108660E-02
3625.517, 2.6916280E-02
3627.446, 2.9088819E-02
3629.374, 2.7687380E-02
3631.303, 2.6385671E-02
3633.231, 2.6220970E-02
3635.160, 2.6758149E-02
3637.088, 2.5886400E-02
3639.017, 2.5646560E-02
3640.945, 2.6008651E-02
3642.874, 2.5391970E-02
3644.802, 2.6730871E-02
3646.730, 2.7364610E-02
3648.659, 2.2914510E-02
3650.587, 2.6400100E-02
3652.516, 2.8131841E-02
3654.444, 2.4119699E-02
3656.373, 2.2355011E-02
3658.301, 2.4763210E-02
3660.230, 2.2615870E-02
3662.158, 2.3039181E-02
3664.087, 2.5892340E-02
3666.015, 3.0148979E-02
3667.944, 3.2290399E-02
3669.872, 3.0903580E-02
3671.801, 2.8493259E-02
3673.729, 2.7985860E-02
3675.657, 2.8545629E-02
3677.586, 2.7139610E-02
3679.514, 2.5816740E-02
3681.443, 2.7303809E-02
3683.371, 2.6901530E-02
3685.300, 2.2988530E-02
3687.228, 2.2610320E-02
3689.157, 2.6225680E-02
3691.085, 2.6904879E-02
3693.014, 2.7717769E-02
3694.942, 2.7867399E-02
3696.871, 2.6955649E-02
3698.799, 2.7973060E-02
3700.728, 2.7718401E-02
3702.656, 2.6791120E-02
3704.584, 3.0387489E-02
3706.513, 3.1775691E-02
3708.441, 2.8793480E-02
3710.370, 2.8056810E-02
3712.298, 2.8323621E-02
3714.227, 2.9360060E-02
3716.155, 3.0261939E-02
3718.084, 2.9878400E-02
3720.012, 2.6959190E-02
3721.941, 2.2828929E-02
3723.869, 2.2712870E-02
3725.798, 2.3319051E-02
3727.726, 2.4406120E-02
3729.655, 2.6852529E-02
3731.583, 2.5430569E-02
3733.511, 2.3968849E-02
3735.440, 2.8517811E-02
3737.368, 3.1262629E-02
3739.297, 2.7815441E-02
3741.225, 2.7319400E-02
3743.154, 2.7443221E-02
3745.082, 2.7211530E-02
3747.011, 2.5624501E-02
3748.939, 2.2938849E-02
3750.868, 2.5453050E-02
3752.796, 2.4100609E-02
3754.725, 2.2376290E-02
3756.653, 2.6259679E-02
3758.582, 3.1520441E-02
3760.510, 3.0809781E-02
3762.438, 2.9752711E-02
3764.367, 3.2204509E-02
3766.295, 3.1411100E-02
3768.224, 2.8778899E-02
3770.152, 2.9814981E-02
3772.081, 3.0393170E-02
3774.009, 2.9684531E-02
3775.938, 3.0237410E-02
3777.866, 2.8928090E-02
3779.795, 2.6899550E-02
3781.723, 2.7898811E-02
3783.652, 3.0651920E-02
3785.580, 2.9467620E-02
3787.509, 3.0139480E-02
3789.437, 3.0331049E-02
3791.365, 3.0216360E-02
3793.294, 3.0883580E-02
3795.222, 3.0900439E-02
3797.151, 2.9103929E-02
3799.079, 2.8073451E-02
3801.008, 2.8511651E-02
3802.936, 2.8615611E-02
3804.865, 2.6490360E-02
3806.793, 2.8202821E-02
3808.722, 3.2329660E-02
3810.650, 3.0422140E-02
3812.579, 2.7830159E-02
3814.507, 2.7550440E-02
3816.436, 2.7929300E-02
3818.364, 2.7468830E-02
3820.292, 3.0741129E-02
3822.221, 3.5122160E-02
3824.149, 3.2282051E-02
3826.078, 3.0584300E-02
3828.006, 2.7566440E-02
3829.935, 2.8462950E-02
3831.863, 3.2319080E-02
3833.792, 3.0338690E-02
3835.720, 2.9151080E-02
3837.649, 2.8059591E-02
3839.577, 2.7638640E-02
3841.506, 2.6509950E-02
3843.434, 2.7218470E-02
3845.363, 3.2615729E-02
3847.291, 3.3182949E-02
3849.219, 2.7299630E-02
3851.148, 2.5344640E-02
3853.076, 2.6706019E-02
3855.005, 2.9838990E-02
3856.933, 3.4700021E-02
3858.862, 3.4596369E-02
3860.790, 3.1523310E-02
3862.719, 2.9974140E-02
3864.647, 2.9125949E-02
3866.576, 2.6215591E-02
3868.504, 2.5076170E-02
3870.433, 2.7418790E-02
3872.361, 3.0416301E-02
3874.290, 2.9538531E-02
3876.218, 2.8206149E-02
3878.146, 2.5619119E-02
3880.075, 2.6306851E-02
3882.003, 3.2541331E-02
3883.932, 3.3103239E-02
3885.860, 3.1922981E-02
3887.789, 3.1075370E-02
3889.717, 3.1145651E-02
3891.646, 3.3742171E-02
3893.574, 3.1875789E-02
3895.503, 3.0045111E-02
3897.431, 3.0447161E-02
3899.360, 3.2633740E-02
3901.288, 3.5094589E-02
3903.217, 3.2000981E-02
3905.145, 2.8169559E-02
3907.073, 3.0429430E-02
3909.002, 3.0748820E-02
3910.930, 3.1351019E-02
3912.859, 3.1256210E-02
3914.787, 3.0461511E-02
3916.716, 2.8180581E-02
3918.644, 2.7228819E-02
3920.573, 2.7093200E-02
3922.501, 2.7175460E-02
3924.430, 3.1826571E-02
3926.358, 3.5424639E-02
3928.287, 3.5923049E-02
3930.215, 3.3261470E-02
3932.144, 3.0629460E-02
3934.072, 3.2310940E-02
3936.000, 3.5685942E-02
3937.929, 3.2824840E-02
3939.857, 3.1439960E-02
3941.786, 3.0065890E-02
3943.714, 3.0638039E-02
3945.643, 3.1800549E-02
3947.571, 3.0018169E-02
3949.500, 3.1966019E-02
3951.428, 3.4317669E-02
3953.357, 3.1946260E-02
3955.285, 2.7682779E-02
3957.214, 2.9944191E-02
3959.142, 3.4430299E-02
3961.071, 3.5360519E-02
3962.999, 3.3216529E-02
3964.927, 3.0671909E-02
3966.856, 3.2603242E-02
3968.784, 3.5907179E-02
3970.713, 3.1252600E-02
3972.641, 3.0707059E-02
3974.570, 3.2404419E-02
3976.498, 3.4505021E-02
3978.427, 3.1190770E-02
3980.355, 2.7001349E-02
3982.284, 2.8121980E-02
3984.212, 3.2506831E-02
3986.141, 3.6757920E-02
3988.069, 3.5805359E-02
3989.998, 3.2620460E-02
3991.926, 3.2395791E-02
3993.854, 3.5085261E-02
3995.783, 3.4805950E-02
3997.711, 3.3852682E-02
3999.640, 3.3869009E-02
##END=



