##NAMES=Whewellite
##RRUFFID=R050526
##IDEAL CHEMISTRY=Ca(C_2_)^6+^O_4_&#183;H_2_O
##LOCALITY=Dresden, Saxony, Germany
##OWNER=RRUFF
##SOURCE=University of Arizona Mineral Museum
##DESCRIPTION=Coating of colorless fragments
##STATUS=The identification of this mineral has been confirmed by X-ray diffraction and chemical analysis
##URL=rruff.info/R050526
##MEASURED CHEMISTRY=Ca_1.00_C_2.00_O_4_Â·H_2_O ; C not measured but estimated by difference.
3.991926e+002, 5.753743e-002
4.011211e+002, 5.623731e-002
4.030496e+002, 5.623731e-002
4.049780e+002, 5.064075e-002
4.069065e+002, 5.392271e-002
4.088350e+002, 4.891027e-002
4.107634e+002, 4.239035e-002
4.126919e+002, 4.492985e-002
4.146204e+002, 5.177590e-002
4.165488e+002, 5.560590e-002
4.184773e+002, 5.907001e-002
4.204058e+002, 5.814598e-002
4.223342e+002, 5.778528e-002
4.242627e+002, 6.050120e-002
4.261912e+002, 6.058991e-002
4.281196e+002, 5.713389e-002
4.300481e+002, 5.319359e-002
4.319766e+002, 5.553043e-002
4.339050e+002, 6.173399e-002
4.358335e+002, 6.115210e-002
4.377620e+002, 5.845706e-002
4.396904e+002, 5.812473e-002
4.416189e+002, 5.815651e-002
4.435474e+002, 6.036986e-002
4.454758e+002, 6.532697e-002
4.474043e+002, 6.957201e-002
4.493328e+002, 7.129732e-002
4.512612e+002, 6.994073e-002
4.531897e+002, 7.089514e-002
4.551182e+002, 7.770405e-002
4.570466e+002, 8.289996e-002
4.589751e+002, 8.005359e-002
4.609036e+002, 7.778560e-002
4.628320e+002, 7.766510e-002
4.647605e+002, 7.862009e-002
4.666890e+002, 8.083449e-002
4.686174e+002, 8.268350e-002
4.705459e+002, 8.435986e-002
4.724744e+002, 8.760604e-002
4.744028e+002, 9.154648e-002
4.763313e+002, 9.643199e-002
4.782598e+002, 1.009203e-001
4.801882e+002, 1.084292e-001
4.821167e+002, 1.181967e-001
4.840452e+002, 1.300287e-001
4.859736e+002, 1.439450e-001
4.879021e+002, 1.575610e-001
4.898306e+002, 1.732130e-001
4.917590e+002, 1.910184e-001
4.936875e+002, 2.097543e-001
4.956160e+002, 2.280282e-001
4.975444e+002, 2.443571e-001
4.994729e+002, 2.603964e-001
5.014014e+002, 2.774487e-001
5.033298e+002, 2.981804e-001
5.052583e+002, 3.189316e-001
5.071868e+002, 3.371154e-001
5.091152e+002, 3.502129e-001
5.110437e+002, 3.573376e-001
5.129722e+002, 3.529240e-001
5.149006e+002, 3.349746e-001
5.168291e+002, 3.090374e-001
5.187576e+002, 2.791692e-001
5.206860e+002, 2.459307e-001
5.226145e+002, 2.120900e-001
5.245430e+002, 1.815496e-001
5.264714e+002, 1.563633e-001
5.283999e+002, 1.347249e-001
5.303284e+002, 1.207494e-001
5.322568e+002, 1.141253e-001
5.341853e+002, 1.084451e-001
5.361138e+002, 1.023865e-001
5.380422e+002, 9.946728e-002
5.399707e+002, 9.972374e-002
5.418992e+002, 9.995220e-002
5.438276e+002, 9.995695e-002
5.457561e+002, 1.007510e-001
5.476846e+002, 1.019652e-001
5.496130e+002, 1.027272e-001
5.515415e+002, 1.048454e-001
5.534700e+002, 1.070725e-001
5.553984e+002, 1.097917e-001
5.573269e+002, 1.127805e-001
5.592554e+002, 1.155012e-001
5.611838e+002, 1.181964e-001
5.631123e+002, 1.218818e-001
5.650408e+002, 1.261418e-001
5.669692e+002, 1.297581e-001
5.688977e+002, 1.319650e-001
5.708262e+002, 1.340566e-001
5.727546e+002, 1.374162e-001
5.746831e+002, 1.405870e-001
5.766116e+002, 1.436445e-001
5.785400e+002, 1.477301e-001
5.804685e+002, 1.501678e-001
5.823970e+002, 1.512046e-001
5.843254e+002, 1.530884e-001
5.862539e+002, 1.552335e-001
5.881824e+002, 1.567016e-001
5.901108e+002, 1.573705e-001
5.920393e+002, 1.586807e-001
5.939678e+002, 1.589859e-001
5.958962e+002, 1.584797e-001
5.978247e+002, 1.568600e-001
5.997532e+002, 1.545407e-001
6.016816e+002, 1.520649e-001
6.036101e+002, 1.486175e-001
6.055386e+002, 1.449694e-001
6.074670e+002, 1.420111e-001
6.093955e+002, 1.401934e-001
6.113240e+002, 1.385721e-001
6.132524e+002, 1.359985e-001
6.151809e+002, 1.336541e-001
6.171094e+002, 1.333932e-001
6.190378e+002, 1.329972e-001
6.209663e+002, 1.327375e-001
6.228948e+002, 1.331224e-001
6.248232e+002, 1.346337e-001
6.267517e+002, 1.373201e-001
6.286802e+002, 1.398841e-001
6.306086e+002, 1.429630e-001
6.325371e+002, 1.470646e-001
6.344656e+002, 1.512813e-001
6.363940e+002, 1.559460e-001
6.383225e+002, 1.609641e-001
6.402510e+002, 1.662064e-001
6.421794e+002, 1.717714e-001
6.441079e+002, 1.774180e-001
6.460364e+002, 1.821253e-001
6.479648e+002, 1.866006e-001
6.498933e+002, 1.905783e-001
6.518218e+002, 1.941829e-001
6.537502e+002, 1.968753e-001
6.556787e+002, 1.989526e-001
6.576072e+002, 2.003350e-001
6.595356e+002, 2.011122e-001
6.614641e+002, 2.010001e-001
6.633926e+002, 1.988677e-001
6.653210e+002, 1.950307e-001
6.672495e+002, 1.901738e-001
6.691780e+002, 1.845106e-001
6.711064e+002, 1.783633e-001
6.730349e+002, 1.717237e-001
6.749634e+002, 1.639350e-001
6.768918e+002, 1.562173e-001
6.788203e+002, 1.488530e-001
6.807488e+002, 1.415716e-001
6.826772e+002, 1.338844e-001
6.846057e+002, 1.266033e-001
6.865342e+002, 1.202100e-001
6.884626e+002, 1.142217e-001
6.903911e+002, 1.079404e-001
6.923196e+002, 1.016694e-001
6.942480e+002, 9.624010e-002
6.961765e+002, 9.072245e-002
6.981050e+002, 8.576042e-002
7.000334e+002, 8.170438e-002
7.019619e+002, 7.765654e-002
7.038904e+002, 7.422724e-002
7.058188e+002, 7.062824e-002
7.077473e+002, 6.729449e-002
7.096758e+002, 6.490847e-002
7.116042e+002, 6.237068e-002
7.135327e+002, 5.980176e-002
7.154612e+002, 5.792603e-002
7.173896e+002, 5.627216e-002
7.193181e+002, 5.488531e-002
7.212466e+002, 5.364684e-002
7.231750e+002, 5.245829e-002
7.251035e+002, 5.148035e-002
7.270320e+002, 5.046769e-002
7.289604e+002, 4.995559e-002
7.308889e+002, 4.996410e-002
7.328174e+002, 5.027439e-002
7.347458e+002, 5.016931e-002
7.366743e+002, 5.010453e-002
7.386028e+002, 5.057712e-002
7.405313e+002, 5.180151e-002
7.424597e+002, 5.308818e-002
7.443882e+002, 5.510734e-002
7.463167e+002, 5.759312e-002
7.482451e+002, 6.088353e-002
7.501736e+002, 6.559988e-002
7.521021e+002, 7.145955e-002
7.540305e+002, 7.917257e-002
7.559590e+002, 8.890289e-002
7.578875e+002, 1.003017e-001
7.598159e+002, 1.125232e-001
7.617444e+002, 1.244055e-001
7.636729e+002, 1.329664e-001
7.656013e+002, 1.385397e-001
7.675298e+002, 1.470770e-001
7.694583e+002, 1.654699e-001
7.713867e+002, 1.966371e-001
7.733152e+002, 2.375438e-001
7.752437e+002, 2.796179e-001
7.771721e+002, 3.062090e-001
7.791006e+002, 3.000511e-001
7.810291e+002, 2.627720e-001
7.829575e+002, 2.121826e-001
7.848860e+002, 1.606536e-001
7.868145e+002, 1.152620e-001
7.887429e+002, 8.139858e-002
7.906714e+002, 5.972005e-002
7.925999e+002, 4.542602e-002
7.945283e+002, 3.481131e-002
7.964568e+002, 2.738204e-002
7.983853e+002, 2.243355e-002
8.003137e+002, 1.940177e-002
8.022422e+002, 1.753260e-002
8.041707e+002, 1.584893e-002
8.060991e+002, 1.458382e-002
8.080276e+002, 1.346259e-002
8.099561e+002, 1.238407e-002
8.118845e+002, 1.184948e-002
8.138130e+002, 1.160640e-002
8.157415e+002, 1.104007e-002
8.176699e+002, 1.075831e-002
8.195984e+002, 1.105058e-002
8.215269e+002, 1.117832e-002
8.234553e+002, 1.075091e-002
8.253838e+002, 1.062896e-002
8.273123e+002, 1.081470e-002
8.292407e+002, 1.111145e-002
8.311692e+002, 1.134682e-002
8.330977e+002, 1.135491e-002
8.350261e+002, 1.177941e-002
8.369546e+002, 1.214593e-002
8.388831e+002, 1.224025e-002
8.408115e+002, 1.257844e-002
8.427400e+002, 1.308172e-002
8.446685e+002, 1.336827e-002
8.465969e+002, 1.381144e-002
8.485254e+002, 1.450036e-002
8.504539e+002, 1.480280e-002
8.523823e+002, 1.551448e-002
8.543108e+002, 1.629774e-002
8.562393e+002, 1.699064e-002
8.581677e+002, 1.805377e-002
8.600962e+002, 1.935143e-002
8.620247e+002, 2.104284e-002
8.639531e+002, 2.126458e-002
8.658816e+002, 2.000929e-002
8.678101e+002, 2.004371e-002
8.697385e+002, 2.182026e-002
8.716670e+002, 2.396624e-002
8.735955e+002, 2.595066e-002
8.755239e+002, 2.805608e-002
8.774524e+002, 3.067886e-002
8.793809e+002, 3.349373e-002
8.813093e+002, 3.591911e-002
8.832378e+002, 3.742881e-002
8.851663e+002, 3.752583e-002
8.870947e+002, 3.583130e-002
8.890232e+002, 3.282636e-002
8.909517e+002, 2.955419e-002
8.928801e+002, 2.633916e-002
8.948085e+002, 2.368541e-002
8.967370e+002, 2.127116e-002
8.986655e+002, 1.900038e-002
9.005939e+002, 1.738814e-002
9.025224e+002, 1.670992e-002
9.044509e+002, 1.632213e-002
9.063793e+002, 1.624624e-002
9.083078e+002, 1.614155e-002
9.102363e+002, 1.603537e-002
9.121647e+002, 1.621827e-002
9.140932e+002, 1.673220e-002
9.160217e+002, 1.712311e-002
9.179501e+002, 1.723990e-002
9.198786e+002, 1.739883e-002
9.218071e+002, 1.793407e-002
9.237355e+002, 1.880859e-002
9.256640e+002, 1.975754e-002
9.275925e+002, 2.068741e-002
9.295209e+002, 2.149924e-002
9.314494e+002, 2.214123e-002
9.333779e+002, 2.316166e-002
9.353063e+002, 2.420520e-002
9.372348e+002, 2.508019e-002
9.391633e+002, 2.599959e-002
9.410917e+002, 2.739725e-002
9.430202e+002, 2.852653e-002
9.449487e+002, 2.960388e-002
9.468771e+002, 3.022596e-002
9.488056e+002, 3.017208e-002
9.507341e+002, 2.939405e-002
9.526625e+002, 2.837908e-002
9.545910e+002, 2.719603e-002
9.565195e+002, 2.552997e-002
9.584479e+002, 2.399470e-002
9.603764e+002, 2.272785e-002
9.623049e+002, 2.149580e-002
9.642333e+002, 2.004791e-002
9.661618e+002, 1.869660e-002
9.680903e+002, 1.770116e-002
9.700187e+002, 1.653351e-002
9.719472e+002, 1.537776e-002
9.738757e+002, 1.445181e-002
9.758041e+002, 1.353693e-002
9.777326e+002, 1.304156e-002
9.796611e+002, 1.282709e-002
9.815895e+002, 1.248267e-002
9.835180e+002, 1.177734e-002
9.854465e+002, 1.126809e-002
9.873749e+002, 1.100697e-002
9.893034e+002, 1.040776e-002
9.912319e+002, 1.016993e-002
9.931603e+002, 1.034247e-002
9.950888e+002, 1.033440e-002
9.970173e+002, 1.031149e-002
9.989457e+002, 1.045093e-002
1.000874e+003, 1.055189e-002
1.002803e+003, 1.074850e-002
1.004731e+003, 1.102587e-002
1.006660e+003, 1.114830e-002
1.008588e+003, 1.126081e-002
1.010517e+003, 1.122874e-002
1.012445e+003, 1.123099e-002
1.014373e+003, 1.117907e-002
1.016302e+003, 1.112094e-002
1.018230e+003, 1.109979e-002
1.020159e+003, 1.114847e-002
1.022087e+003, 1.107998e-002
1.024016e+003, 1.098335e-002
1.025944e+003, 1.102951e-002
1.027873e+003, 1.122606e-002
1.029801e+003, 1.130791e-002
1.031730e+003, 1.131379e-002
1.033658e+003, 1.159854e-002
1.035587e+003, 1.173615e-002
1.037515e+003, 1.159789e-002
1.039444e+003, 1.154004e-002
1.041372e+003, 1.140675e-002
1.043301e+003, 1.116231e-002
1.045229e+003, 1.098556e-002
1.047157e+003, 1.066128e-002
1.049086e+003, 1.075672e-002
1.051014e+003, 1.103640e-002
1.052943e+003, 1.109660e-002
1.054871e+003, 1.093204e-002
1.056800e+003, 1.081262e-002
1.058728e+003, 1.072829e-002
1.060657e+003, 1.067055e-002
1.062585e+003, 1.064733e-002
1.064514e+003, 1.061833e-002
1.066442e+003, 1.060960e-002
1.068371e+003, 1.076850e-002
1.070299e+003, 1.059076e-002
1.072228e+003, 1.045093e-002
1.074156e+003, 1.069039e-002
1.076084e+003, 1.078440e-002
1.078013e+003, 1.078114e-002
1.079941e+003, 1.078786e-002
1.081870e+003, 1.081392e-002
1.083798e+003, 1.091889e-002
1.085727e+003, 1.106720e-002
1.087655e+003, 1.112152e-002
1.089584e+003, 1.132603e-002
1.091512e+003, 1.120787e-002
1.093441e+003, 1.123653e-002
1.095369e+003, 1.145852e-002
1.097298e+003, 1.142209e-002
1.099226e+003, 1.162498e-002
1.101155e+003, 1.195948e-002
1.103083e+003, 1.178241e-002
1.105011e+003, 1.141100e-002
1.106940e+003, 1.151748e-002
1.108868e+003, 1.175391e-002
1.110797e+003, 1.171456e-002
1.112725e+003, 1.155236e-002
1.114654e+003, 1.152255e-002
1.116582e+003, 1.171262e-002
1.118511e+003, 1.179487e-002
1.120439e+003, 1.159268e-002
1.122368e+003, 1.158210e-002
1.124296e+003, 1.152732e-002
1.126225e+003, 1.150091e-002
1.128153e+003, 1.168018e-002
1.130082e+003, 1.181526e-002
1.132010e+003, 1.145390e-002
1.133938e+003, 1.106434e-002
1.135867e+003, 1.134971e-002
1.137795e+003, 1.174285e-002
1.139724e+003, 1.170439e-002
1.141652e+003, 1.142076e-002
1.143581e+003, 1.142794e-002
1.145509e+003, 1.165918e-002
1.147438e+003, 1.182827e-002
1.149366e+003, 1.181755e-002
1.151295e+003, 1.168270e-002
1.153223e+003, 1.155386e-002
1.155152e+003, 1.146114e-002
1.157080e+003, 1.164560e-002
1.159009e+003, 1.192260e-002
1.160937e+003, 1.193700e-002
1.162865e+003, 1.188439e-002
1.164794e+003, 1.186842e-002
1.166722e+003, 1.193241e-002
1.168651e+003, 1.213642e-002
1.170579e+003, 1.225157e-002
1.172508e+003, 1.226258e-002
1.174436e+003, 1.239481e-002
1.176365e+003, 1.260545e-002
1.178293e+003, 1.265928e-002
1.180222e+003, 1.275781e-002
1.182150e+003, 1.287009e-002
1.184079e+003, 1.308605e-002
1.186007e+003, 1.319261e-002
1.187936e+003, 1.330510e-002
1.189864e+003, 1.346833e-002
1.191792e+003, 1.344960e-002
1.193721e+003, 1.343778e-002
1.195649e+003, 1.348385e-002
1.197578e+003, 1.370402e-002
1.199506e+003, 1.396084e-002
1.201435e+003, 1.398017e-002
1.203363e+003, 1.406610e-002
1.205292e+003, 1.404409e-002
1.207220e+003, 1.416126e-002
1.209149e+003, 1.432848e-002
1.211077e+003, 1.435636e-002
1.213006e+003, 1.455151e-002
1.214934e+003, 1.463214e-002
1.216863e+003, 1.456018e-002
1.218791e+003, 1.485830e-002
1.220719e+003, 1.505763e-002
1.222648e+003, 1.512305e-002
1.224576e+003, 1.530262e-002
1.226505e+003, 1.558707e-002
1.228433e+003, 1.569462e-002
1.230362e+003, 1.582697e-002
1.232290e+003, 1.590306e-002
1.234219e+003, 1.601921e-002
1.236147e+003, 1.641289e-002
1.238076e+003, 1.694920e-002
1.240004e+003, 1.730438e-002
1.241933e+003, 1.753567e-002
1.243861e+003, 1.776487e-002
1.245790e+003, 1.798163e-002
1.247718e+003, 1.824652e-002
1.249646e+003, 1.882388e-002
1.251575e+003, 1.939654e-002
1.253503e+003, 1.966992e-002
1.255432e+003, 2.015858e-002
1.257360e+003, 2.094617e-002
1.259289e+003, 2.156355e-002
1.261217e+003, 2.214859e-002
1.263146e+003, 2.289449e-002
1.265074e+003, 2.375172e-002
1.267003e+003, 2.473961e-002
1.268931e+003, 2.575907e-002
1.270860e+003, 2.710489e-002
1.272788e+003, 2.878569e-002
1.274717e+003, 3.053444e-002
1.276645e+003, 3.238703e-002
1.278573e+003, 3.467000e-002
1.280502e+003, 3.757804e-002
1.282430e+003, 4.098523e-002
1.284359e+003, 4.501438e-002
1.286287e+003, 4.998942e-002
1.288216e+003, 5.583376e-002
1.290144e+003, 6.269892e-002
1.292073e+003, 7.173771e-002
1.294001e+003, 8.367194e-002
1.295930e+003, 9.933252e-002
1.297858e+003, 1.203118e-001
1.299787e+003, 1.487089e-001
1.301715e+003, 1.841183e-001
1.303644e+003, 2.206311e-001
1.305572e+003, 2.570294e-001
1.307500e+003, 3.000299e-001
1.309429e+003, 3.477482e-001
1.311357e+003, 3.849533e-001
1.313286e+003, 3.940134e-001
1.315214e+003, 3.741206e-001
1.317143e+003, 3.368054e-001
1.319071e+003, 2.927927e-001
1.321000e+003, 2.486520e-001
1.322928e+003, 2.088847e-001
1.324857e+003, 1.763185e-001
1.326785e+003, 1.514157e-001
1.328714e+003, 1.326066e-001
1.330642e+003, 1.170273e-001
1.332571e+003, 1.024661e-001
1.334499e+003, 8.873613e-002
1.336427e+003, 7.635096e-002
1.338356e+003, 6.566174e-002
1.340284e+003, 5.692139e-002
1.342213e+003, 5.018166e-002
1.344141e+003, 4.531567e-002
1.346070e+003, 4.207133e-002
1.347998e+003, 4.011008e-002
1.349927e+003, 3.916296e-002
1.351855e+003, 3.881801e-002
1.353784e+003, 3.907518e-002
1.355712e+003, 3.977900e-002
1.357641e+003, 4.101512e-002
1.359569e+003, 4.250519e-002
1.361498e+003, 4.432541e-002
1.363426e+003, 4.608133e-002
1.365354e+003, 4.738362e-002
1.367283e+003, 4.849465e-002
1.369211e+003, 4.901345e-002
1.371140e+003, 4.925755e-002
1.373068e+003, 4.946752e-002
1.374997e+003, 4.954936e-002
1.376925e+003, 4.980510e-002
1.378854e+003, 5.027268e-002
1.380782e+003, 5.046765e-002
1.382711e+003, 4.991994e-002
1.384639e+003, 4.841682e-002
1.386568e+003, 4.592754e-002
1.388496e+003, 4.209506e-002
1.390424e+003, 3.758699e-002
1.392353e+003, 3.342985e-002
1.394281e+003, 2.968348e-002
1.396210e+003, 2.625245e-002
1.398138e+003, 2.337864e-002
1.400067e+003, 2.130140e-002
1.401995e+003, 1.985922e-002
1.403924e+003, 1.856137e-002
1.405852e+003, 1.755002e-002
1.407781e+003, 1.691485e-002
1.409709e+003, 1.652092e-002
1.411638e+003, 1.617453e-002
1.413566e+003, 1.592162e-002
1.415495e+003, 1.600745e-002
1.417423e+003, 1.617271e-002
1.419351e+003, 1.607106e-002
1.421280e+003, 1.595407e-002
1.423208e+003, 1.618591e-002
1.425137e+003, 1.643877e-002
1.427065e+003, 1.671498e-002
1.428994e+003, 1.709106e-002
1.430922e+003, 1.732031e-002
1.432851e+003, 1.743766e-002
1.434779e+003, 1.751435e-002
1.436708e+003, 1.770599e-002
1.438636e+003, 1.809982e-002
1.440565e+003, 1.857309e-002
1.442493e+003, 1.907201e-002
1.444422e+003, 1.943732e-002
1.446350e+003, 2.000943e-002
1.448278e+003, 2.057042e-002
1.450207e+003, 2.087354e-002
1.452135e+003, 2.142902e-002
1.454064e+003, 2.207338e-002
1.455992e+003, 2.253677e-002
1.457921e+003, 2.312829e-002
1.459849e+003, 2.418576e-002
1.461778e+003, 2.504744e-002
1.463706e+003, 2.502231e-002
1.465635e+003, 2.448769e-002
1.467563e+003, 2.413728e-002
1.469492e+003, 2.446722e-002
1.471420e+003, 2.541142e-002
1.473349e+003, 2.626523e-002
1.475277e+003, 2.693856e-002
1.477205e+003, 2.762039e-002
1.479134e+003, 2.851740e-002
1.481062e+003, 2.961725e-002
1.482991e+003, 3.086288e-002
1.484919e+003, 3.236008e-002
1.486848e+003, 3.369589e-002
1.488776e+003, 3.459658e-002
1.490705e+003, 3.470783e-002
1.492633e+003, 3.418486e-002
1.494562e+003, 3.359216e-002
1.496490e+003, 3.341271e-002
1.498419e+003, 3.382263e-002
1.500347e+003, 3.444788e-002
1.502276e+003, 3.522834e-002
1.504204e+003, 3.623241e-002
1.506132e+003, 3.738913e-002
1.508061e+003, 3.865764e-002
1.509989e+003, 4.007559e-002
1.511918e+003, 4.140298e-002
1.513846e+003, 4.275439e-002
1.515775e+003, 4.427676e-002
1.517703e+003, 4.610675e-002
1.519632e+003, 4.796159e-002
1.521560e+003, 4.976326e-002
1.523489e+003, 5.173451e-002
1.525417e+003, 5.403481e-002
1.527346e+003, 5.620205e-002
1.529274e+003, 5.831796e-002
1.531203e+003, 6.068489e-002
1.533131e+003, 6.324916e-002
1.535059e+003, 6.582997e-002
1.536988e+003, 6.862694e-002
1.538916e+003, 7.168213e-002
1.540845e+003, 7.484268e-002
1.542773e+003, 7.837730e-002
1.544702e+003, 8.240069e-002
1.546630e+003, 8.678944e-002
1.548559e+003, 9.150864e-002
1.550487e+003, 9.659155e-002
1.552416e+003, 1.019422e-001
1.554344e+003, 1.076926e-001
1.556273e+003, 1.138804e-001
1.558201e+003, 1.205990e-001
1.560130e+003, 1.273423e-001
1.562058e+003, 1.338765e-001
1.563986e+003, 1.409032e-001
1.565915e+003, 1.487983e-001
1.567843e+003, 1.569531e-001
1.569772e+003, 1.654149e-001
1.571700e+003, 1.743945e-001
1.573629e+003, 1.833427e-001
1.575557e+003, 1.915679e-001
1.577486e+003, 1.996806e-001
1.579414e+003, 2.076609e-001
1.581343e+003, 2.158481e-001
1.583271e+003, 2.247192e-001
1.585200e+003, 2.353472e-001
1.587128e+003, 2.481888e-001
1.589057e+003, 2.629594e-001
1.590985e+003, 2.792170e-001
1.592913e+003, 2.974681e-001
1.594842e+003, 3.170837e-001
1.596770e+003, 3.381061e-001
1.598699e+003, 3.592512e-001
1.600627e+003, 3.783715e-001
1.602556e+003, 3.929629e-001
1.604484e+003, 4.005186e-001
1.606413e+003, 4.019244e-001
1.608341e+003, 4.012311e-001
1.610270e+003, 4.009072e-001
1.612198e+003, 3.991920e-001
1.614127e+003, 3.939624e-001
1.616055e+003, 3.854410e-001
1.617984e+003, 3.738643e-001
1.619912e+003, 3.607138e-001
1.621840e+003, 3.467903e-001
1.623769e+003, 3.317239e-001
1.625697e+003, 3.162120e-001
1.627626e+003, 3.012275e-001
1.629554e+003, 2.867091e-001
1.631483e+003, 2.729006e-001
1.633411e+003, 2.597975e-001
1.635340e+003, 2.474756e-001
1.637268e+003, 2.362648e-001
1.639197e+003, 2.251953e-001
1.641125e+003, 2.138999e-001
1.643054e+003, 2.031471e-001
1.644982e+003, 1.933140e-001
1.646911e+003, 1.839903e-001
1.648839e+003, 1.754787e-001
1.650767e+003, 1.682952e-001
1.652696e+003, 1.622070e-001
1.654624e+003, 1.565002e-001
1.656553e+003, 1.508237e-001
1.658481e+003, 1.451576e-001
1.660410e+003, 1.390440e-001
1.662338e+003, 1.324691e-001
1.664267e+003, 1.250957e-001
1.666195e+003, 1.172410e-001
1.668124e+003, 1.094597e-001
1.670052e+003, 1.018224e-001
1.671981e+003, 9.415881e-002
1.673909e+003, 8.692344e-002
1.675838e+003, 7.988091e-002
1.677766e+003, 7.305284e-002
1.679694e+003, 6.669130e-002
1.681623e+003, 6.054515e-002
1.683551e+003, 5.470311e-002
1.685480e+003, 4.945114e-002
1.687408e+003, 4.476457e-002
1.689337e+003, 4.042053e-002
1.691265e+003, 3.631667e-002
1.693194e+003, 3.265518e-002
1.695122e+003, 2.950230e-002
1.697051e+003, 2.655224e-002
1.698979e+003, 2.392853e-002
1.700908e+003, 2.170982e-002
1.702836e+003, 1.979475e-002
1.704765e+003, 1.822648e-002
1.706693e+003, 1.695640e-002
1.708621e+003, 1.571736e-002
1.710550e+003, 1.441578e-002
1.712478e+003, 1.347288e-002
1.714407e+003, 1.294972e-002
1.716335e+003, 1.238062e-002
1.718264e+003, 1.170827e-002
1.720192e+003, 1.105731e-002
1.722121e+003, 1.038282e-002
1.724049e+003, 9.794671e-003
1.725978e+003, 9.349756e-003
1.727906e+003, 8.737174e-003
1.729835e+003, 7.831034e-003
1.731763e+003, 7.103432e-003
1.733692e+003, 6.389321e-003
1.735620e+003, 5.660470e-003
1.737548e+003, 4.957204e-003
1.739477e+003, 4.485912e-003
1.741405e+003, 4.174477e-003
1.743334e+003, 3.775453e-003
1.745262e+003, 3.681176e-003
1.747191e+003, 3.618191e-003
1.749119e+003, 3.628449e-003
1.751048e+003, 3.625107e-003
1.752976e+003, 3.439979e-003
1.754905e+003, 3.708411e-003
1.756833e+003, 3.961427e-003
1.758762e+003, 4.005166e-003
1.760690e+003, 3.723650e-003
1.762619e+003, 3.579436e-003
1.764547e+003, 3.586686e-003
1.766475e+003, 3.567610e-003
1.768404e+003, 3.541753e-003
1.770332e+003, 3.377463e-003
1.772261e+003, 3.131929e-003
1.774189e+003, 2.838338e-003
1.776118e+003, 2.674148e-003
1.778046e+003, 2.729227e-003
1.779975e+003, 2.839673e-003
1.781903e+003, 2.982407e-003
1.783832e+003, 2.852780e-003
1.785760e+003, 2.703920e-003
1.787689e+003, 2.778477e-003
1.789617e+003, 2.814893e-003
1.791546e+003, 2.909116e-003
1.793474e+003, 2.876327e-003
1.795402e+003, 2.824431e-003
1.797331e+003, 3.079636e-003
1.799259e+003, 3.176619e-003
1.801188e+003, 3.213269e-003
1.803116e+003, 3.179656e-003
1.805045e+003, 3.275260e-003
1.806973e+003, 3.204457e-003
1.808902e+003, 2.820196e-003
1.810830e+003, 2.695518e-003
1.812759e+003, 2.624009e-003
1.814687e+003, 2.618176e-003
1.816616e+003, 2.380633e-003
1.818544e+003, 2.277432e-003
1.820473e+003, 2.589076e-003
1.822401e+003, 2.685416e-003
1.824329e+003, 2.869189e-003
1.826258e+003, 3.123819e-003
1.828186e+003, 3.024145e-003
1.830115e+003, 2.726426e-003
1.832043e+003, 2.799219e-003
1.833972e+003, 2.957519e-003
1.835900e+003, 2.619609e-003
1.837829e+003, 2.412518e-003
1.839757e+003, 2.592009e-003
1.841686e+003, 2.473962e-003
1.843614e+003, 2.376302e-003
1.845543e+003, 2.661579e-003
1.847471e+003, 3.000289e-003
1.849400e+003, 2.750800e-003
1.851328e+003, 2.143187e-003
1.853256e+003, 2.070371e-003
1.855185e+003, 2.550445e-003
1.857113e+003, 2.892371e-003
1.859042e+003, 2.816561e-003
1.860970e+003, 2.732128e-003
1.862899e+003, 2.502587e-003
1.864827e+003, 2.031953e-003
1.866756e+003, 2.078394e-003
1.868684e+003, 2.637510e-003
1.870613e+003, 3.055610e-003
1.872541e+003, 2.972698e-003
1.874470e+003, 2.507253e-003
1.876398e+003, 2.228338e-003
1.878327e+003, 2.057420e-003
1.880255e+003, 2.335859e-003
1.882183e+003, 2.925894e-003
1.884112e+003, 2.823364e-003
1.886040e+003, 2.786514e-003
1.887969e+003, 2.842607e-003
1.889897e+003, 2.635777e-003
1.891826e+003, 2.439740e-003
1.893754e+003, 2.588476e-003
1.895683e+003, 3.370384e-003
1.897611e+003, 3.859487e-003
1.899540e+003, 3.572587e-003
1.901468e+003, 3.326476e-003
1.903397e+003, 3.624372e-003
1.905325e+003, 3.491281e-003
1.907254e+003, 3.249421e-003
1.909182e+003, 3.721144e-003
1.911110e+003, 3.720475e-003
1.913039e+003, 3.256131e-003
1.914967e+003, 3.302002e-003
1.916896e+003, 3.332252e-003
1.918824e+003, 2.786314e-003
1.920753e+003, 1.980557e-003
1.922681e+003, 1.688143e-003
1.924610e+003, 2.286225e-003
1.926538e+003, 2.583909e-003
1.928467e+003, 2.529682e-003
1.930395e+003, 2.829734e-003
1.932324e+003, 2.636410e-003
1.934252e+003, 2.079426e-003
1.936181e+003, 2.080092e-003
1.938109e+003, 2.045835e-003
1.940037e+003, 1.738340e-003
1.941966e+003, 1.471321e-003
1.943894e+003, 1.424513e-003
1.945823e+003, 1.416202e-003
1.947751e+003, 8.797709e-004
1.949680e+003, 3.340533e-004
1.951608e+003, 4.744735e-004
1.953537e+003, 7.095815e-004
1.955465e+003, 1.375283e-003
1.957394e+003, 1.761860e-003
1.959322e+003, 1.654282e-003
1.961251e+003, 9.689254e-004
1.963179e+003, 3.771628e-004
1.965108e+003, 9.924705e-004
1.967036e+003, 2.127804e-003
1.968964e+003, 1.899348e-003
1.970893e+003, 9.181864e-004
1.972821e+003, 3.295105e-004
1.974750e+003, 1.117092e-004
1.976678e+003, 1.129084e-003
1.978607e+003, 1.578388e-003
1.980535e+003, 1.676235e-003
1.982464e+003, 1.861877e-003
1.984392e+003, 1.708400e-003
1.986321e+003, 2.142488e-003
1.988249e+003, 2.519017e-003
1.990178e+003, 2.339223e-003
1.992106e+003, 1.094968e-003
1.994035e+003, -2.201199e-004
1.995963e+003, -7.834762e-004
1.997891e+003, -4.885516e-004
1.999820e+003, 5.168941e-006
2.001748e+003, -7.601251e-004
2.003677e+003, -4.166263e-004
2.005605e+003, 9.354747e-005
2.007534e+003, 5.757209e-004
2.009462e+003, 1.135329e-003
2.011391e+003, 1.178020e-003
2.013319e+003, 5.907508e-004
2.015248e+003, 1.061021e-003
2.017176e+003, 1.639515e-003
2.019105e+003, 1.666622e-003
2.021033e+003, 1.018707e-003
2.022962e+003, 1.665325e-003
2.024890e+003, 1.510654e-003
2.026818e+003, 4.644230e-004
2.028747e+003, 3.883483e-005
2.030675e+003, 6.621914e-004
2.032604e+003, 1.561229e-003
2.034532e+003, 1.446853e-003
2.036461e+003, 2.006154e-003
2.038389e+003, 2.067607e-003
2.040318e+003, 6.002070e-004
2.042246e+003, 5.566772e-004
2.044175e+003, 1.426940e-003
2.046103e+003, 1.933394e-003
2.048032e+003, 2.487591e-003
2.049960e+003, 2.806556e-003
2.051889e+003, 1.723569e-003
2.053817e+003, 1.342909e-003
2.055746e+003, 1.787311e-003
2.057674e+003, 1.136957e-003
2.059603e+003, 6.317290e-004
2.061531e+003, 3.487100e-004
2.063459e+003, 1.711427e-003
2.065388e+003, 2.577710e-003
2.067316e+003, 1.633661e-003
2.069245e+003, 1.145595e-003
2.071173e+003, 1.615868e-003
2.073102e+003, 1.487912e-003
2.075030e+003, 1.605592e-003
2.076959e+003, 1.641211e-003
2.078887e+003, 1.306184e-003
2.080816e+003, 1.885072e-003
2.082744e+003, 1.901578e-003
2.084673e+003, 1.230052e-003
2.086601e+003, 1.462844e-003
2.088530e+003, 1.893924e-003
2.090458e+003, 1.690338e-003
2.092386e+003, 1.345435e-003
2.094315e+003, 1.597444e-003
2.096243e+003, 1.442464e-003
2.098172e+003, 1.419327e-003
2.100100e+003, 1.510222e-003
2.102029e+003, 1.961718e-003
2.103957e+003, 2.543646e-003
2.105886e+003, 2.700286e-003
2.107814e+003, 2.227939e-003
2.109743e+003, 1.582711e-003
2.111671e+003, 1.721274e-003
2.113600e+003, 2.135828e-003
2.115528e+003, 1.910996e-003
2.117457e+003, 2.153676e-003
2.119385e+003, 1.732485e-003
2.121313e+003, 7.765605e-004
2.123242e+003, 7.607608e-004
2.125170e+003, 1.211246e-003
2.127099e+003, 1.248461e-003
2.129027e+003, 7.315195e-004
2.130956e+003, 7.026785e-004
2.132884e+003, 4.330126e-004
2.134813e+003, 4.221339e-004
2.136741e+003, 9.614204e-004
2.138670e+003, 1.261321e-003
2.140598e+003, 1.251751e-003
2.142527e+003, 1.731553e-003
2.144455e+003, 1.878682e-003
2.146384e+003, 6.735738e-004
2.148312e+003, -8.647899e-006
2.150240e+003, 4.962337e-004
2.152169e+003, -1.905452e-004
2.154097e+003, -1.477482e-003
2.156026e+003, -2.885480e-003
2.157954e+003, -5.802200e-004
2.159883e+003, 2.788114e-003
2.161811e+003, 2.169993e-003
2.163740e+003, 2.193537e-003
2.165668e+003, 2.684516e-003
2.167597e+003, 8.421223e-004
2.169525e+003, 5.725940e-005
2.171454e+003, 1.668584e-003
2.173382e+003, 3.775386e-003
2.175311e+003, 3.408620e-003
2.177239e+003, 3.255831e-003
2.179167e+003, 2.658079e-003
2.181096e+003, 1.738140e-003
2.183024e+003, 1.567647e-003
2.184953e+003, 2.340722e-003
2.186881e+003, 3.610306e-003
2.188810e+003, 4.063123e-003
2.190738e+003, 3.560160e-003
2.192667e+003, 2.256748e-003
2.194595e+003, 1.144233e-003
2.196524e+003, 1.765653e-003
2.198452e+003, 2.635877e-003
2.200381e+003, 2.432843e-003
2.202309e+003, 2.581776e-003
2.204238e+003, 2.106861e-003
2.206166e+003, 1.858849e-003
2.208094e+003, 2.882198e-003
2.210023e+003, 3.097155e-003
2.211951e+003, 2.451569e-003
2.213880e+003, 1.908034e-003
2.215808e+003, 2.484392e-003
2.217737e+003, 2.070637e-003
2.219665e+003, 1.633428e-003
2.221594e+003, 1.848400e-003
2.223522e+003, 2.306478e-003
2.225451e+003, 2.978870e-003
2.227379e+003, 2.106394e-003
2.229308e+003, 1.150877e-003
2.231236e+003, 1.658573e-003
2.233165e+003, 2.321934e-003
2.235093e+003, 2.972031e-003
2.237021e+003, 3.098123e-003
2.238950e+003, 2.817194e-003
2.240878e+003, 2.583743e-003
2.242807e+003, 2.960521e-003
2.244735e+003, 3.115076e-003
2.246664e+003, 2.491524e-003
2.248592e+003, 1.659471e-003
2.250521e+003, 2.252618e-003
2.252449e+003, 2.667814e-003
2.254378e+003, 2.866621e-003
2.256306e+003, 3.159130e-003
2.258235e+003, 3.150085e-003
2.260163e+003, 3.061316e-003
2.262092e+003, 2.879796e-003
2.264020e+003, 3.093818e-003
2.265948e+003, 3.680240e-003
2.267877e+003, 3.589960e-003
2.269805e+003, 3.346309e-003
2.271734e+003, 3.780099e-003
2.273662e+003, 3.849024e-003
2.275591e+003, 3.317027e-003
2.277519e+003, 3.953402e-003
2.279448e+003, 4.388602e-003
2.281376e+003, 4.209639e-003
2.283305e+003, 4.416116e-003
2.285233e+003, 4.335688e-003
2.287162e+003, 4.270300e-003
2.289090e+003, 4.737941e-003
2.291019e+003, 4.776465e-003
2.292947e+003, 3.995902e-003
2.294875e+003, 4.213419e-003
2.296804e+003, 4.654205e-003
2.298732e+003, 4.358915e-003
2.300661e+003, 4.036468e-003
2.302589e+003, 3.997006e-003
2.304518e+003, 3.891849e-003
2.306446e+003, 3.701828e-003
2.308375e+003, 3.845280e-003
2.310303e+003, 3.988445e-003
2.312232e+003, 4.314036e-003
2.314160e+003, 4.438108e-003
2.316089e+003, 4.458327e-003
2.318017e+003, 4.335722e-003
2.319946e+003, 3.953135e-003
2.321874e+003, 4.194750e-003
2.323802e+003, 4.325682e-003
2.325731e+003, 3.800354e-003
2.327659e+003, 3.373790e-003
2.329588e+003, 3.144745e-003
2.331516e+003, 2.989546e-003
2.333445e+003, 3.131529e-003
2.335373e+003, 3.547900e-003
2.337302e+003, 3.517635e-003
2.339230e+003, 3.070659e-003
2.341159e+003, 2.886367e-003
2.343087e+003, 2.903045e-003
2.345016e+003, 3.252826e-003
2.346944e+003, 3.017305e-003
2.348873e+003, 2.435875e-003
2.350801e+003, 2.501288e-003
2.352729e+003, 2.261811e-003
2.354658e+003, 1.980291e-003
2.356586e+003, 2.179916e-003
2.358515e+003, 2.808757e-003
2.360443e+003, 2.985343e-003
2.362372e+003, 2.596276e-003
2.364300e+003, 2.302480e-003
2.366229e+003, 2.173989e-003
2.368157e+003, 2.036147e-003
2.370086e+003, 1.745026e-003
2.372014e+003, 1.595415e-003
2.373942e+003, 1.670015e-003
2.375871e+003, 1.944244e-003
2.377799e+003, 1.982121e-003
2.379728e+003, 1.925573e-003
2.381656e+003, 1.710396e-003
2.383585e+003, 1.834858e-003
2.385513e+003, 2.208023e-003
2.387442e+003, 2.231802e-003
2.389370e+003, 1.742797e-003
2.391299e+003, 1.454965e-003
2.393227e+003, 1.684417e-003
2.395156e+003, 1.577490e-003
2.397084e+003, 1.419959e-003
2.399012e+003, 1.600902e-003
2.400941e+003, 1.583942e-003
2.402869e+003, 1.364846e-003
2.404798e+003, 1.200647e-003
2.406726e+003, 1.442597e-003
2.408655e+003, 1.801851e-003
2.410583e+003, 2.233834e-003
2.412512e+003, 1.799389e-003
2.414440e+003, 1.336262e-003
2.416369e+003, 1.355672e-003
2.418297e+003, 1.510687e-003
2.420226e+003, 2.049430e-003
2.422154e+003, 2.454635e-003
2.424083e+003, 2.607342e-003
2.426011e+003, 2.671247e-003
2.427939e+003, 2.505887e-003
2.429868e+003, 2.341289e-003
2.431796e+003, 2.304746e-003
2.433725e+003, 2.247622e-003
2.435653e+003, 2.018904e-003
2.437582e+003, 1.804413e-003
2.439510e+003, 1.773371e-003
2.441439e+003, 1.921280e-003
2.443367e+003, 2.274734e-003
2.445296e+003, 2.410386e-003
2.447224e+003, 2.706521e-003
2.449153e+003, 2.512852e-003
2.451081e+003, 2.567377e-003
2.453010e+003, 2.437574e-003
2.454938e+003, 1.944111e-003
2.456866e+003, 1.725865e-003
2.458795e+003, 1.982721e-003
2.460723e+003, 2.247889e-003
2.462652e+003, 2.299649e-003
2.464580e+003, 2.158971e-003
2.466509e+003, 1.681723e-003
2.468437e+003, 1.613839e-003
2.470366e+003, 2.022099e-003
2.472294e+003, 2.048431e-003
2.474223e+003, 2.202495e-003
2.476151e+003, 2.096073e-003
2.478080e+003, 2.363109e-003
2.480008e+003, 2.698752e-003
2.481937e+003, 2.444572e-003
2.483865e+003, 2.035049e-003
2.485793e+003, 1.834425e-003
2.487722e+003, 1.489275e-003
2.489650e+003, 1.720642e-003
2.491579e+003, 2.677282e-003
2.493507e+003, 2.423047e-003
2.495436e+003, 1.931464e-003
2.497364e+003, 1.844141e-003
2.499293e+003, 1.960153e-003
2.501221e+003, 2.256015e-003
2.503150e+003, 2.256448e-003
2.505078e+003, 1.859182e-003
2.507007e+003, 2.053126e-003
2.508935e+003, 2.438474e-003
2.510864e+003, 2.342521e-003
2.512792e+003, 2.314339e-003
2.514720e+003, 2.285193e-003
2.516649e+003, 2.172823e-003
2.518577e+003, 2.225241e-003
2.520506e+003, 2.135595e-003
2.522434e+003, 1.929733e-003
2.524363e+003, 1.866902e-003
2.526291e+003, 1.990509e-003
2.528220e+003, 2.162534e-003
2.530148e+003, 2.585543e-003
2.532077e+003, 2.328530e-003
2.534005e+003, 1.847435e-003
2.535934e+003, 1.991575e-003
2.537862e+003, 2.202861e-003
2.539791e+003, 2.277698e-003
2.541719e+003, 2.160835e-003
2.543647e+003, 2.185877e-003
2.545576e+003, 2.542147e-003
2.547504e+003, 2.568144e-003
2.549433e+003, 2.472396e-003
2.551361e+003, 2.222776e-003
2.553290e+003, 2.096206e-003
2.555218e+003, 2.310275e-003
2.557147e+003, 2.186044e-003
2.559075e+003, 1.875787e-003
2.561004e+003, 1.926605e-003
2.562932e+003, 2.017772e-003
2.564861e+003, 1.933727e-003
2.566789e+003, 2.091445e-003
2.568718e+003, 2.351249e-003
2.570646e+003, 2.305945e-003
2.572574e+003, 2.183479e-003
2.574503e+003, 2.255982e-003
2.576431e+003, 2.467497e-003
2.578360e+003, 2.636277e-003
2.580288e+003, 2.290056e-003
2.582217e+003, 2.126072e-003
2.584145e+003, 1.647464e-003
2.586074e+003, 1.515907e-003
2.588002e+003, 1.692400e-003
2.589931e+003, 1.833394e-003
2.591859e+003, 1.804945e-003
2.593788e+003, 1.570906e-003
2.595716e+003, 1.552916e-003
2.597645e+003, 1.716717e-003
2.599573e+003, 1.546864e-003
2.601501e+003, 1.120380e-003
2.603430e+003, 5.959268e-004
2.605358e+003, 2.979772e-004
2.607287e+003, 1.406105e-004
2.609215e+003, 5.656017e-004
2.611144e+003, 1.178020e-003
2.613072e+003, 9.927362e-004
2.615001e+003, 5.685213e-004
2.616929e+003, 3.329259e-004
2.618858e+003, 4.307573e-004
2.620786e+003, 3.393257e-004
2.622715e+003, 4.274312e-006
2.624643e+003, -1.920687e-004
2.626572e+003, -2.364795e-004
2.628500e+003, -1.420887e-004
2.630428e+003, 1.664642e-004
2.632357e+003, 5.942346e-004
2.634285e+003, 6.901669e-004
2.636214e+003, 6.831977e-004
2.638142e+003, 7.812408e-004
2.640071e+003, 1.002334e-003
2.641999e+003, 1.092610e-003
2.643928e+003, 1.171608e-003
2.645856e+003, 1.247298e-003
2.647785e+003, 1.520463e-003
2.649713e+003, 1.968808e-003
2.651642e+003, 1.912793e-003
2.653570e+003, 1.732884e-003
2.655499e+003, 1.726696e-003
2.657427e+003, 1.900679e-003
2.659355e+003, 1.845539e-003
2.661284e+003, 1.307381e-003
2.663212e+003, 1.107491e-003
2.665141e+003, 1.507196e-003
2.667069e+003, 2.051161e-003
2.668998e+003, 2.236864e-003
2.670926e+003, 2.322567e-003
2.672855e+003, 2.394893e-003
2.674783e+003, 2.558311e-003
2.676712e+003, 2.458567e-003
2.678640e+003, 2.358112e-003
2.680569e+003, 2.424046e-003
2.682497e+003, 2.698186e-003
2.684426e+003, 2.729694e-003
2.686354e+003, 2.517118e-003
2.688282e+003, 2.591876e-003
2.690211e+003, 2.661846e-003
2.692139e+003, 2.468897e-003
2.694068e+003, 2.447404e-003
2.695996e+003, 2.663279e-003
2.697925e+003, 3.103963e-003
2.699853e+003, 2.958186e-003
2.701782e+003, 2.724625e-003
2.703710e+003, 2.755105e-003
2.705639e+003, 3.057990e-003
2.707567e+003, 3.099377e-003
2.709496e+003, 2.804759e-003
2.711424e+003, 2.896672e-003
2.713353e+003, 3.304471e-003
2.715281e+003, 3.218137e-003
2.717209e+003, 3.034926e-003
2.719138e+003, 2.901413e-003
2.721066e+003, 3.078779e-003
2.722995e+003, 3.133135e-003
2.724923e+003, 3.105089e-003
2.726852e+003, 3.197884e-003
2.728780e+003, 3.052707e-003
2.730709e+003, 3.013541e-003
2.732637e+003, 3.376199e-003
2.734566e+003, 3.223045e-003
2.736494e+003, 3.077840e-003
2.738423e+003, 3.435976e-003
2.740351e+003, 3.614700e-003
2.742280e+003, 3.364779e-003
2.744208e+003, 3.254196e-003
2.746136e+003, 3.700492e-003
2.748065e+003, 3.849954e-003
2.749993e+003, 3.877745e-003
2.751922e+003, 3.924316e-003
2.753850e+003, 3.810820e-003
2.755779e+003, 3.618521e-003
2.757707e+003, 3.826734e-003
2.759636e+003, 3.794565e-003
2.761564e+003, 4.182215e-003
2.763493e+003, 4.746884e-003
2.765421e+003, 4.836367e-003
2.767350e+003, 4.961153e-003
2.769278e+003, 4.982385e-003
2.771207e+003, 4.837579e-003
2.773135e+003, 4.582738e-003
2.775063e+003, 4.641553e-003
2.776992e+003, 4.760085e-003
2.778920e+003, 4.767489e-003
2.780849e+003, 4.832114e-003
2.782777e+003, 4.775286e-003
2.784706e+003, 4.905882e-003
2.786634e+003, 4.957545e-003
2.788563e+003, 4.837027e-003
2.790491e+003, 5.030222e-003
2.792420e+003, 5.408624e-003
2.794348e+003, 5.735234e-003
2.796277e+003, 5.590191e-003
2.798205e+003, 5.266217e-003
2.800134e+003, 5.400999e-003
2.802062e+003, 5.477084e-003
2.803990e+003, 5.364291e-003
2.805919e+003, 5.746506e-003
2.807847e+003, 6.285295e-003
2.809776e+003, 6.084536e-003
2.811704e+003, 5.460397e-003
2.813633e+003, 5.517802e-003
2.815561e+003, 5.456898e-003
2.817490e+003, 5.398395e-003
2.819418e+003, 5.449634e-003
2.821347e+003, 5.543091e-003
2.823275e+003, 5.631788e-003
2.825204e+003, 5.728614e-003
2.827132e+003, 5.523571e-003
2.829061e+003, 5.403515e-003
2.830989e+003, 5.681993e-003
2.832917e+003, 5.915547e-003
2.834846e+003, 5.981664e-003
2.836774e+003, 5.998260e-003
2.838703e+003, 6.098248e-003
2.840631e+003, 5.631217e-003
2.842560e+003, 5.504217e-003
2.844488e+003, 5.697466e-003
2.846417e+003, 5.659678e-003
2.848345e+003, 5.537728e-003
2.850274e+003, 5.058915e-003
2.852202e+003, 4.867840e-003
2.854131e+003, 5.191928e-003
2.856059e+003, 5.241272e-003
2.857988e+003, 5.753387e-003
2.859916e+003, 5.895956e-003
2.861844e+003, 5.884865e-003
2.863773e+003, 6.018719e-003
2.865701e+003, 6.164744e-003
2.867630e+003, 5.968048e-003
2.869558e+003, 5.953579e-003
2.871487e+003, 6.656645e-003
2.873415e+003, 6.983006e-003
2.875344e+003, 6.566348e-003
2.877272e+003, 6.488066e-003
2.879201e+003, 6.722986e-003
2.881129e+003, 6.748838e-003
2.883058e+003, 6.661570e-003
2.884986e+003, 6.842474e-003
2.886915e+003, 7.044636e-003
2.888843e+003, 7.440013e-003
2.890771e+003, 7.369007e-003
2.892700e+003, 7.540433e-003
2.894628e+003, 7.595358e-003
2.896557e+003, 7.260823e-003
2.898485e+003, 6.776764e-003
2.900414e+003, 6.838004e-003
2.902342e+003, 7.201099e-003
2.904271e+003, 7.313007e-003
2.906199e+003, 7.349293e-003
2.908128e+003, 7.489956e-003
2.910056e+003, 7.591077e-003
2.911985e+003, 8.008205e-003
2.913913e+003, 8.406397e-003
2.915842e+003, 8.385313e-003
2.917770e+003, 8.248841e-003
2.919698e+003, 8.430826e-003
2.921627e+003, 8.571452e-003
2.923555e+003, 9.164674e-003
2.925484e+003, 9.936145e-003
2.927412e+003, 1.023537e-002
2.929341e+003, 1.067924e-002
2.931269e+003, 1.087110e-002
2.933198e+003, 1.112669e-002
2.935126e+003, 1.116451e-002
2.937055e+003, 1.107439e-002
2.938983e+003, 1.154949e-002
2.940912e+003, 1.220401e-002
2.942840e+003, 1.257807e-002
2.944769e+003, 1.237718e-002
2.946697e+003, 1.171831e-002
2.948625e+003, 1.154830e-002
2.950554e+003, 1.210859e-002
2.952482e+003, 1.262534e-002
2.954411e+003, 1.348705e-002
2.956339e+003, 1.402999e-002
2.958268e+003, 1.419937e-002
2.960196e+003, 1.430517e-002
2.962125e+003, 1.448585e-002
2.964053e+003, 1.471666e-002
2.965982e+003, 1.525880e-002
2.967910e+003, 1.577885e-002
2.969839e+003, 1.619473e-002
2.971767e+003, 1.636909e-002
2.973696e+003, 1.630329e-002
2.975624e+003, 1.660976e-002
2.977552e+003, 1.755529e-002
2.979481e+003, 1.815571e-002
2.981409e+003, 1.785943e-002
2.983338e+003, 1.778756e-002
2.985266e+003, 1.863193e-002
2.987195e+003, 1.971604e-002
2.989123e+003, 1.997896e-002
2.991052e+003, 2.034847e-002
2.992980e+003, 2.108248e-002
2.994909e+003, 2.169950e-002
2.996837e+003, 2.184259e-002
2.998766e+003, 2.199263e-002
3.000694e+003, 2.257886e-002
3.002623e+003, 2.328209e-002
3.004551e+003, 2.383630e-002
3.006479e+003, 2.384506e-002
3.008408e+003, 2.440051e-002
3.010336e+003, 2.512989e-002
3.012265e+003, 2.532505e-002
3.014193e+003, 2.516248e-002
3.016122e+003, 2.579302e-002
3.018050e+003, 2.666578e-002
3.019979e+003, 2.745949e-002
3.021907e+003, 2.815199e-002
3.023836e+003, 2.852458e-002
3.025764e+003, 2.904565e-002
3.027693e+003, 2.950961e-002
3.029621e+003, 3.024930e-002
3.031550e+003, 3.032465e-002
3.033478e+003, 3.008750e-002
3.035406e+003, 3.068453e-002
3.037335e+003, 3.151708e-002
3.039263e+003, 3.181752e-002
3.041192e+003, 3.231020e-002
3.043120e+003, 3.280899e-002
3.045049e+003, 3.327192e-002
3.046977e+003, 3.380243e-002
3.048906e+003, 3.401371e-002
3.050834e+003, 3.428404e-002
3.052763e+003, 3.474266e-002
3.054691e+003, 3.442764e-002
3.056620e+003, 3.399897e-002
3.058548e+003, 3.398196e-002
3.060477e+003, 3.381471e-002
3.062405e+003, 3.335744e-002
3.064333e+003, 3.244810e-002
3.066262e+003, 3.190950e-002
3.068190e+003, 3.180838e-002
3.070119e+003, 3.112944e-002
3.072047e+003, 3.008941e-002
3.073976e+003, 2.917668e-002
3.075904e+003, 2.825965e-002
3.077833e+003, 2.727086e-002
3.079761e+003, 2.611280e-002
3.081690e+003, 2.518459e-002
3.083618e+003, 2.481157e-002
3.085547e+003, 2.434490e-002
3.087475e+003, 2.315927e-002
3.089404e+003, 2.246267e-002
3.091332e+003, 2.255355e-002
3.093260e+003, 2.215390e-002
3.095189e+003, 2.154646e-002
3.097117e+003, 2.098933e-002
3.099046e+003, 2.046079e-002
3.100974e+003, 2.056706e-002
3.102903e+003, 2.035241e-002
3.104831e+003, 1.934111e-002
3.106760e+003, 1.864489e-002
3.108688e+003, 1.794012e-002
3.110617e+003, 1.720309e-002
3.112545e+003, 1.741278e-002
3.114474e+003, 1.762680e-002
3.116402e+003, 1.723857e-002
3.118331e+003, 1.694963e-002
3.120259e+003, 1.681504e-002
3.122188e+003, 1.617210e-002
3.124116e+003, 1.583173e-002
3.126044e+003, 1.619841e-002
3.127973e+003, 1.616680e-002
3.129901e+003, 1.579157e-002
3.131830e+003, 1.593800e-002
3.133758e+003, 1.552026e-002
3.135687e+003, 1.523754e-002
3.137615e+003, 1.500283e-002
3.139544e+003, 1.446421e-002
3.141472e+003, 1.405728e-002
3.143401e+003, 1.418523e-002
3.145329e+003, 1.431589e-002
3.147258e+003, 1.407490e-002
3.149186e+003, 1.377977e-002
3.151115e+003, 1.367225e-002
3.153043e+003, 1.406418e-002
3.154971e+003, 1.425215e-002
3.156900e+003, 1.401583e-002
3.158828e+003, 1.321935e-002
3.160757e+003, 1.312061e-002
3.162685e+003, 1.298096e-002
3.164614e+003, 1.244626e-002
3.166542e+003, 1.212708e-002
3.168471e+003, 1.230283e-002
3.170399e+003, 1.217980e-002
3.172328e+003, 1.152616e-002
3.174256e+003, 1.182749e-002
3.176185e+003, 1.216719e-002
3.178113e+003, 1.221953e-002
3.180042e+003, 1.168522e-002
3.181970e+003, 1.151248e-002
3.183898e+003, 1.230552e-002
3.185827e+003, 1.275409e-002
3.187755e+003, 1.262493e-002
3.189684e+003, 1.234629e-002
3.191612e+003, 1.228051e-002
3.193541e+003, 1.253355e-002
3.195469e+003, 1.266846e-002
3.197398e+003, 1.224376e-002
3.199326e+003, 1.182762e-002
3.201255e+003, 1.191872e-002
3.203183e+003, 1.262486e-002
3.205112e+003, 1.300482e-002
3.207040e+003, 1.280460e-002
3.208969e+003, 1.278955e-002
3.210897e+003, 1.344830e-002
3.212825e+003, 1.359966e-002
3.214754e+003, 1.400714e-002
3.216682e+003, 1.435680e-002
3.218611e+003, 1.483760e-002
3.220539e+003, 1.552433e-002
3.222468e+003, 1.550191e-002
3.224396e+003, 1.552358e-002
3.226325e+003, 1.582058e-002
3.228253e+003, 1.595833e-002
3.230182e+003, 1.624111e-002
3.232110e+003, 1.698947e-002
3.234039e+003, 1.685456e-002
3.235967e+003, 1.665166e-002
3.237896e+003, 1.726352e-002
3.239824e+003, 1.830900e-002
3.241752e+003, 1.806624e-002
3.243681e+003, 1.760526e-002
3.245609e+003, 1.768880e-002
3.247538e+003, 1.825664e-002
3.249466e+003, 1.853792e-002
3.251395e+003, 1.917734e-002
3.253323e+003, 1.979565e-002
3.255252e+003, 1.925253e-002
3.257180e+003, 1.877177e-002
3.259109e+003, 1.855182e-002
3.261037e+003, 1.812721e-002
3.262966e+003, 1.849366e-002
3.264894e+003, 1.929275e-002
3.266823e+003, 1.931575e-002
3.268751e+003, 1.868709e-002
3.270679e+003, 1.826649e-002
3.272608e+003, 1.810839e-002
3.274536e+003, 1.798207e-002
3.276465e+003, 1.808348e-002
3.278393e+003, 1.820906e-002
3.280322e+003, 1.798180e-002
3.282250e+003, 1.761554e-002
3.284179e+003, 1.773726e-002
3.286107e+003, 1.807301e-002
3.288036e+003, 1.768683e-002
3.289964e+003, 1.753118e-002
3.291893e+003, 1.800507e-002
3.293821e+003, 1.780584e-002
3.295750e+003, 1.808839e-002
3.297678e+003, 1.866049e-002
3.299606e+003, 1.845497e-002
3.301535e+003, 1.857641e-002
3.303463e+003, 1.963765e-002
3.305392e+003, 2.038858e-002
3.307320e+003, 2.053669e-002
3.309249e+003, 2.095451e-002
3.311177e+003, 2.194020e-002
3.313106e+003, 2.243515e-002
3.315034e+003, 2.279555e-002
3.316963e+003, 2.346873e-002
3.318891e+003, 2.382305e-002
3.320820e+003, 2.386530e-002
3.322748e+003, 2.464733e-002
3.324677e+003, 2.563969e-002
3.326605e+003, 2.621722e-002
3.328533e+003, 2.688145e-002
3.330462e+003, 2.721243e-002
3.332390e+003, 2.682661e-002
3.334319e+003, 2.653600e-002
3.336247e+003, 2.666190e-002
3.338176e+003, 2.659990e-002
3.340104e+003, 2.626741e-002
3.342033e+003, 2.587103e-002
3.343961e+003, 2.497570e-002
3.345890e+003, 2.434911e-002
3.347818e+003, 2.417045e-002
3.349747e+003, 2.323387e-002
3.351675e+003, 2.307845e-002
3.353604e+003, 2.259498e-002
3.355532e+003, 2.154489e-002
3.357460e+003, 2.091811e-002
3.359389e+003, 2.016556e-002
3.361317e+003, 1.926067e-002
3.363246e+003, 1.809319e-002
3.365174e+003, 1.807702e-002
3.367103e+003, 1.815071e-002
3.369031e+003, 1.768376e-002
3.370960e+003, 1.747406e-002
3.372888e+003, 1.786250e-002
3.374817e+003, 1.743749e-002
3.376745e+003, 1.695874e-002
3.378674e+003, 1.720891e-002
3.380602e+003, 1.687258e-002
3.382531e+003, 1.752911e-002
3.384459e+003, 1.869570e-002
3.386387e+003, 1.902465e-002
3.388316e+003, 1.877696e-002
3.390244e+003, 1.904245e-002
3.392173e+003, 1.929250e-002
3.394101e+003, 1.996797e-002
3.396030e+003, 2.080724e-002
3.397958e+003, 2.154454e-002
3.399887e+003, 2.217610e-002
3.401815e+003, 2.319403e-002
3.403744e+003, 2.442810e-002
3.405672e+003, 2.519482e-002
3.407601e+003, 2.637750e-002
3.409529e+003, 2.747709e-002
3.411458e+003, 2.822082e-002
3.413386e+003, 2.956206e-002
3.415314e+003, 3.045685e-002
3.417243e+003, 3.141926e-002
3.419171e+003, 3.236690e-002
3.421100e+003, 3.323408e-002
3.423028e+003, 3.345400e-002
3.424957e+003, 3.362539e-002
3.426885e+003, 3.419271e-002
3.428814e+003, 3.320299e-002
3.430742e+003, 3.206122e-002
3.432671e+003, 3.131566e-002
3.434599e+003, 3.079917e-002
3.436528e+003, 3.047419e-002
3.438456e+003, 3.035606e-002
3.440385e+003, 3.036964e-002
3.442313e+003, 2.945535e-002
3.444241e+003, 2.832107e-002
3.446170e+003, 2.804109e-002
3.448098e+003, 2.822764e-002
3.450027e+003, 2.820590e-002
3.451955e+003, 2.752644e-002
3.453884e+003, 2.756548e-002
3.455812e+003, 2.781251e-002
3.457741e+003, 2.687659e-002
3.459669e+003, 2.681695e-002
3.461598e+003, 2.696324e-002
3.463526e+003, 2.713952e-002
3.465455e+003, 2.726309e-002
3.467383e+003, 2.735818e-002
3.469312e+003, 2.719913e-002
3.471240e+003, 2.729545e-002
3.473168e+003, 2.740184e-002
3.475097e+003, 2.726567e-002
3.477025e+003, 2.776243e-002
3.478954e+003, 2.792253e-002
3.480882e+003, 2.797932e-002
3.482811e+003, 2.810337e-002
3.484739e+003, 2.773897e-002
3.486668e+003, 2.697043e-002
3.488596e+003, 2.639232e-002
3.490525e+003, 2.636532e-002
3.492453e+003, 2.599867e-002
3.494382e+003, 2.530176e-002
3.496310e+003, 2.440781e-002
3.498239e+003, 2.326949e-002
3.500167e+003, 2.227388e-002
3.502095e+003, 2.101036e-002
3.504024e+003, 1.994893e-002
3.505952e+003, 1.949647e-002
3.507881e+003, 1.883651e-002
3.509809e+003, 1.880855e-002
3.511738e+003, 1.854332e-002
3.513666e+003, 1.710374e-002
3.515595e+003, 1.525310e-002
3.517523e+003, 1.441944e-002
3.519452e+003, 1.445127e-002
3.521380e+003, 1.387065e-002
3.523309e+003, 1.246463e-002
3.525237e+003, 1.157996e-002
3.527166e+003, 1.128390e-002
3.529094e+003, 1.055549e-002
3.531022e+003, 9.895165e-003
3.532951e+003, 9.367937e-003
3.534879e+003, 9.239707e-003
3.536808e+003, 8.721285e-003
3.538736e+003, 7.879449e-003
3.540665e+003, 7.907961e-003
3.542593e+003, 8.503729e-003
3.544522e+003, 8.146825e-003
3.546450e+003, 7.636989e-003
3.548379e+003, 7.182353e-003
3.550307e+003, 6.875779e-003
3.552236e+003, 6.713083e-003
3.554164e+003, 6.887089e-003
3.556093e+003, 6.550180e-003
3.558021e+003, 5.793590e-003
3.559949e+003, 5.997127e-003
3.561878e+003, 5.431927e-003
3.563806e+003, 4.502082e-003
3.565735e+003, 5.257966e-003
3.567663e+003, 5.364663e-003
3.569592e+003, 4.754054e-003
3.571520e+003, 5.057591e-003
3.573449e+003, 5.288788e-003
3.575377e+003, 4.789564e-003
3.577306e+003, 4.726686e-003
3.579234e+003, 4.917659e-003
3.581163e+003, 4.927780e-003
3.583091e+003, 4.216531e-003
3.585020e+003, 4.146510e-003
3.586948e+003, 3.999949e-003
3.588876e+003, 3.603491e-003
3.590805e+003, 4.047069e-003
3.592733e+003, 4.020582e-003
3.594662e+003, 3.324038e-003
3.596590e+003, 3.772378e-003
3.598519e+003, 3.594570e-003
3.600447e+003, 2.905713e-003
3.602376e+003, 2.676515e-003
3.604304e+003, 2.993149e-003
3.606233e+003, 3.700257e-003
3.608161e+003, 3.386713e-003
3.610090e+003, 2.419348e-003
3.612018e+003, 2.786447e-003
3.613947e+003, 2.808790e-003
3.615875e+003, 2.767573e-003
3.617803e+003, 3.439778e-003
3.619732e+003, 3.111471e-003
3.621660e+003, 2.875694e-003
3.623589e+003, 3.104196e-003
3.625517e+003, 3.182360e-003
3.627446e+003, 3.322436e-003
3.629374e+003, 2.528482e-003
3.631303e+003, 1.511352e-003
3.633231e+003, 6.538953e-004
3.635160e+003, 1.518268e-003
3.637088e+003, 2.363676e-003
3.639017e+003, 2.103298e-003
3.640945e+003, 9.752017e-004
3.642874e+003, 9.403673e-004
3.644802e+003, 1.818953e-003
3.646730e+003, 1.944877e-003
3.648659e+003, 1.481129e-003
3.650587e+003, 1.320608e-003
3.652516e+003, 1.672376e-003
3.654444e+003, 2.255949e-003
3.656373e+003, 2.709555e-003
3.658301e+003, 2.600342e-003
3.660230e+003, 1.985350e-003
3.662158e+003, 1.956393e-003
3.664087e+003, 1.637453e-003
3.666015e+003, 1.017644e-003
3.667944e+003, 8.849503e-004
3.669872e+003, 1.463608e-003
3.671801e+003, 1.528110e-003
3.673729e+003, 6.259221e-004
3.675657e+003, 7.909335e-004
3.677586e+003, 1.247298e-003
3.679514e+003, 1.338854e-003
3.681443e+003, 1.318813e-003
3.683371e+003, 7.027116e-004
3.685300e+003, 3.966326e-005
3.687228e+003, 6.189208e-004
3.689157e+003, 7.571097e-004
3.691085e+003, 7.447957e-004
3.693014e+003, 1.805278e-003
3.694942e+003, 2.766206e-003
3.696871e+003, 3.346075e-003
3.698799e+003, 3.158629e-003
3.700728e+003, 2.176520e-003
3.702656e+003, 8.633366e-004
3.704584e+003, 9.407326e-004
3.706513e+003, 1.021895e-003
3.708441e+003, 1.033055e-003
3.710370e+003, 1.494262e-003
3.712298e+003, 7.249811e-004
3.714227e+003, 6.330230e-004
3.716155e+003, 1.476441e-003
3.718084e+003, 1.066967e-003
3.720012e+003, 1.057135e-003
3.721941e+003, 1.214701e-003
3.723869e+003, 9.694567e-004
3.725798e+003, 1.487546e-003
3.727726e+003, 1.853458e-003
3.729655e+003, 1.139814e-003
3.731583e+003, 7.069929e-004
3.733511e+003, 3.761679e-004
3.735440e+003, 8.904286e-004
3.737368e+003, 1.322669e-003
3.739297e+003, 1.302229e-003
3.741225e+003, 1.680160e-003
3.743154e+003, 1.391371e-003
3.745082e+003, 1.413676e-003
3.747011e+003, 1.921979e-003
3.748939e+003, 2.334093e-003
3.750868e+003, 1.656943e-003
3.752796e+003, 7.581054e-004
3.754725e+003, 7.269394e-004
3.756653e+003, 1.297843e-003
3.758582e+003, 1.852227e-003
3.760510e+003, 1.656577e-003
3.762438e+003, 1.980990e-003
3.764367e+003, 2.767306e-003
3.766295e+003, 2.391927e-003
3.768224e+003, 2.517917e-003
3.770152e+003, 2.356846e-003
3.772081e+003, 2.342321e-003
3.774009e+003, 1.906636e-003
3.775938e+003, 2.353015e-003
3.777866e+003, 2.805622e-003
3.779795e+003, 1.378740e-003
3.781723e+003, 5.325585e-004
3.783652e+003, 1.054943e-003
3.785580e+003, 2.221111e-003
3.787509e+003, 2.656345e-003
3.789437e+003, 2.664580e-003
3.791365e+003, 3.212902e-003
3.793294e+003, 3.049904e-003
3.795222e+003, 1.909066e-003
3.797151e+003, 2.530582e-003
3.799079e+003, 2.686883e-003
3.801008e+003, 1.999197e-003
3.802936e+003, 2.279897e-003
3.804865e+003, 2.320035e-003
3.806793e+003, 1.931797e-003
3.808722e+003, 2.058119e-003
3.810650e+003, 2.385231e-003
3.812579e+003, 2.912518e-003
3.814507e+003, 2.867389e-003
3.816436e+003, 2.977169e-003
3.818364e+003, 2.912085e-003
3.820292e+003, 2.722058e-003
3.822221e+003, 2.564811e-003
3.824149e+003, 1.996601e-003
3.826078e+003, 1.758666e-003
3.828006e+003, 1.583510e-003
3.829935e+003, 2.061049e-003
3.831863e+003, 1.846737e-003
3.833792e+003, 1.201809e-003
3.835720e+003, 8.028505e-004
3.837649e+003, 1.293257e-003
3.839577e+003, 1.813729e-003
3.841506e+003, 2.036014e-003
3.843434e+003, 2.805755e-003
3.845363e+003, 3.001791e-003
3.847291e+003, 2.270937e-003
3.849219e+003, 2.417282e-003
3.851148e+003, 2.849211e-003
3.853076e+003, 2.362876e-003
3.855005e+003, 1.956892e-003
3.856933e+003, 1.363350e-003
3.858862e+003, 1.546897e-003
3.860790e+003, 2.607709e-003
3.862719e+003, 2.920791e-003
3.864647e+003, 3.185631e-003
3.866576e+003, 3.068790e-003
3.868504e+003, 2.560578e-003
3.870433e+003, 1.550056e-003
3.872361e+003, 1.066369e-003
3.874290e+003, 1.007681e-003
3.876218e+003, 1.294785e-003
3.878146e+003, 2.525583e-003
3.880075e+003, 1.773504e-003
3.882003e+003, 1.027475e-003
3.883932e+003, 2.022499e-003
3.885860e+003, 2.367407e-003
3.887789e+003, 2.143287e-003
3.889717e+003, 2.250853e-003
3.891646e+003, 3.219945e-003
3.893574e+003, 2.556711e-003
3.895503e+003, 1.803880e-003
3.897431e+003, 1.649360e-003
3.899360e+003, 1.515209e-003
3.901288e+003, 2.103964e-003
3.903217e+003, 1.929267e-003
3.905145e+003, 1.391271e-003
3.907073e+003, 2.195401e-003
3.909002e+003, 2.749566e-003
3.910930e+003, 2.174122e-003
3.912859e+003, 1.657575e-003
3.914787e+003, 1.448714e-003
3.916716e+003, 1.761394e-003
3.918644e+003, 2.009317e-003
3.920573e+003, 1.983120e-003
3.922501e+003, 1.495991e-003
3.924430e+003, 1.517104e-003
3.926358e+003, 2.130834e-003
3.928287e+003, 2.496889e-003
3.930215e+003, 2.025162e-003
3.932144e+003, 2.212885e-003
3.934072e+003, 2.889002e-003
3.936000e+003, 3.089913e-003
3.937929e+003, 2.662546e-003
3.939857e+003, 2.440007e-003
3.941786e+003, 2.748266e-003
3.943714e+003, 2.454268e-003
3.945643e+003, 2.234400e-003
3.947571e+003, 2.423013e-003
3.949500e+003, 2.356146e-003
3.951428e+003, 1.882376e-003
3.953357e+003, 1.844940e-003
3.955285e+003, 2.307644e-003
3.957214e+003, 3.003125e-003
3.959142e+003, 3.329347e-003
3.961071e+003, 3.105598e-003
3.962999e+003, 2.881230e-003
3.964927e+003, 2.642211e-003
3.966856e+003, 2.608076e-003
3.968784e+003, 2.058885e-003
3.970713e+003, 1.591624e-003
3.972641e+003, 1.632929e-003
3.974570e+003, 2.485492e-003
3.976498e+003, 2.696852e-003
3.978427e+003, 2.597342e-003
3.980355e+003, 2.656045e-003
3.982284e+003, 2.931032e-003
3.984212e+003, 2.530148e-003
3.986141e+003, 1.927936e-003
3.988069e+003, 1.949869e-003
3.989998e+003, 1.267070e-003
3.991926e+003, 1.389343e-003
3.993854e+003, 2.384731e-003
3.995783e+003, 2.868556e-003
3.997711e+003, 2.529748e-003
3.999640e+003, 2.529748e-003
4.001568e+003, 0.000000e+000
##END=



