##NAMES=Willemite
##RRUFFID=R050652
##IDEAL CHEMISTRY=Zn^2+^_2_SiO_4_
##LOCALITY=Franklin Furnace, Sussex County, New Jersey, USA
##OWNER=RRUFF
##SOURCE=University of Arizona Mineral Museum
##DESCRIPTION=Parallel aggregate of colorless acicular crystals
##STATUS=The identification of this mineral has been confirmed by X-ray diffraction and chemical analysis
##URL=rruff.info/R050652
##MEASURED CHEMISTRY=(Zn_1.99_Mn_0.01_)_Î£=2_Si_1.00_O_4_
5.014013e+001, 2.531208e-002
5.206860e+001, 1.362180e-002
5.399707e+001, 1.604704e-002
5.592553e+001, 1.737851e-002
5.785400e+001, 2.008517e-002
5.978246e+001, 2.189092e-002
6.171093e+001, 2.014504e-002
6.363940e+001, 1.906458e-002
6.556786e+001, 1.894802e-002
6.749633e+001, 2.143715e-002
6.942480e+001, 2.011983e-002
7.135326e+001, 1.923742e-002
7.328172e+001, 2.111072e-002
7.521019e+001, 2.490515e-002
7.713866e+001, 2.629760e-002
7.906712e+001, 2.604213e-002
8.099559e+001, 2.524338e-002
8.292406e+001, 2.504851e-002
8.485252e+001, 2.452390e-002
8.678099e+001, 2.335474e-002
8.870946e+001, 2.427493e-002
9.063792e+001, 2.591919e-002
9.256638e+001, 2.641033e-002
9.449485e+001, 2.846165e-002
9.642332e+001, 3.079898e-002
9.835178e+001, 3.135623e-002
1.002803e+002, 3.038018e-002
1.022087e+002, 3.103709e-002
1.041372e+002, 3.247373e-002
1.060657e+002, 3.358941e-002
1.079941e+002, 3.469377e-002
1.099226e+002, 3.562726e-002
1.118510e+002, 3.762823e-002
1.137795e+002, 3.869424e-002
1.157080e+002, 3.728252e-002
1.176364e+002, 3.726497e-002
1.195649e+002, 3.822200e-002
1.214934e+002, 3.936103e-002
1.234218e+002, 3.966952e-002
1.253503e+002, 4.093014e-002
1.272788e+002, 4.299947e-002
1.292072e+002, 4.517757e-002
1.311357e+002, 4.662170e-002
1.330642e+002, 4.873569e-002
1.349926e+002, 5.036460e-002
1.369211e+002, 5.213406e-002
1.388496e+002, 5.345669e-002
1.407780e+002, 5.474068e-002
1.427065e+002, 5.569086e-002
1.446350e+002, 5.703402e-002
1.465634e+002, 5.762099e-002
1.484919e+002, 5.849934e-002
1.504204e+002, 5.813389e-002
1.523488e+002, 5.754734e-002
1.542773e+002, 5.411930e-002
1.562058e+002, 4.960294e-002
1.581342e+002, 4.730441e-002
1.600627e+002, 4.928494e-002
1.619912e+002, 5.343970e-002
1.639196e+002, 5.742233e-002
1.658481e+002, 5.511290e-002
1.677766e+002, 4.554300e-002
1.697050e+002, 3.439904e-002
1.716335e+002, 2.890319e-002
1.735620e+002, 3.114342e-002
1.754904e+002, 3.677518e-002
1.774189e+002, 4.202170e-002
1.793474e+002, 4.586161e-002
1.812758e+002, 4.941902e-002
1.832043e+002, 5.210121e-002
1.851328e+002, 5.432694e-002
1.870612e+002, 5.633307e-002
1.889897e+002, 5.791525e-002
1.909182e+002, 6.004656e-002
1.928466e+002, 6.236259e-002
1.947751e+002, 6.408253e-002
1.967036e+002, 6.549255e-002
1.986320e+002, 6.643286e-002
2.005605e+002, 6.606048e-002
2.024890e+002, 6.613337e-002
2.044174e+002, 6.745383e-002
2.063459e+002, 6.933363e-002
2.082744e+002, 7.121248e-002
2.102028e+002, 7.323513e-002
2.121313e+002, 7.489906e-002
2.140598e+002, 7.585502e-002
2.159882e+002, 7.457825e-002
2.179167e+002, 7.086804e-002
2.198452e+002, 6.663761e-002
2.217736e+002, 6.363366e-002
2.237021e+002, 6.243777e-002
2.256305e+002, 6.379528e-002
2.275590e+002, 6.491113e-002
2.294875e+002, 6.118832e-002
2.314159e+002, 5.861484e-002
2.333444e+002, 6.199521e-002
2.352729e+002, 6.724273e-002
2.372013e+002, 7.155261e-002
2.391298e+002, 7.496761e-002
2.410583e+002, 7.770345e-002
2.429867e+002, 7.987044e-002
2.449152e+002, 8.158457e-002
2.468437e+002, 8.304772e-002
2.487721e+002, 8.482347e-002
2.507006e+002, 8.611029e-002
2.526291e+002, 8.699569e-002
2.545575e+002, 8.746108e-002
2.564860e+002, 8.782054e-002
2.584145e+002, 8.771701e-002
2.603429e+002, 8.748922e-002
2.622714e+002, 8.590259e-002
2.641999e+002, 8.235458e-002
2.661283e+002, 7.765959e-002
2.680568e+002, 7.263546e-002
2.699853e+002, 6.756362e-002
2.719137e+002, 6.254750e-002
2.738422e+002, 5.728792e-002
2.757707e+002, 5.246227e-002
2.776991e+002, 4.819067e-002
2.796276e+002, 4.414194e-002
2.815561e+002, 4.092207e-002
2.834845e+002, 3.797087e-002
2.854130e+002, 3.457202e-002
2.873415e+002, 3.130855e-002
2.892699e+002, 2.845847e-002
2.911984e+002, 2.663113e-002
2.931269e+002, 2.655243e-002
2.950553e+002, 2.816970e-002
2.969838e+002, 2.983895e-002
2.989123e+002, 2.946841e-002
3.008407e+002, 2.786117e-002
3.027692e+002, 2.675902e-002
3.046977e+002, 2.624288e-002
3.066261e+002, 2.625582e-002
3.085546e+002, 2.643769e-002
3.104831e+002, 2.686173e-002
3.124115e+002, 2.765026e-002
3.143400e+002, 2.863196e-002
3.162685e+002, 2.987333e-002
3.181969e+002, 3.098444e-002
3.201254e+002, 3.222394e-002
3.220539e+002, 3.421735e-002
3.239823e+002, 3.626450e-002
3.259108e+002, 3.864305e-002
3.278392e+002, 4.090271e-002
3.297677e+002, 4.295142e-002
3.316962e+002, 4.506954e-002
3.336246e+002, 4.753603e-002
3.355531e+002, 5.028844e-002
3.374816e+002, 5.298794e-002
3.394100e+002, 5.584060e-002
3.413385e+002, 5.884163e-002
3.432670e+002, 6.137666e-002
3.451954e+002, 6.423461e-002
3.471239e+002, 6.733245e-002
3.490524e+002, 7.007416e-002
3.509808e+002, 7.291182e-002
3.529093e+002, 7.605524e-002
3.548378e+002, 7.884957e-002
3.567662e+002, 8.132037e-002
3.586947e+002, 8.433682e-002
3.606232e+002, 8.741802e-002
3.625516e+002, 9.021774e-002
3.644801e+002, 9.302418e-002
3.664086e+002, 9.577609e-002
3.683370e+002, 9.810966e-002
3.702655e+002, 1.001503e-001
3.721940e+002, 1.017872e-001
3.741224e+002, 1.023215e-001
3.760509e+002, 1.015757e-001
3.779794e+002, 9.931809e-002
3.799078e+002, 9.598415e-002
3.818363e+002, 9.187006e-002
3.837648e+002, 8.786822e-002
3.856932e+002, 8.355858e-002
3.876217e+002, 7.962424e-002
3.895502e+002, 7.702161e-002
3.914786e+002, 7.598903e-002
3.934071e+002, 7.565289e-002
3.953356e+002, 7.492229e-002
3.972640e+002, 7.254200e-002
3.991925e+002, 6.802180e-002
4.011210e+002, 6.196685e-002
4.030494e+002, 5.605396e-002
4.049779e+002, 5.110814e-002
4.069064e+002, 4.666648e-002
4.088348e+002, 4.288482e-002
4.107633e+002, 4.019868e-002
4.126917e+002, 3.828441e-002
4.146202e+002, 3.710822e-002
4.165487e+002, 3.657312e-002
4.184771e+002, 3.626508e-002
4.204056e+002, 3.572654e-002
4.223341e+002, 3.532044e-002
4.242625e+002, 3.517256e-002
4.261910e+002, 3.498469e-002
4.281195e+002, 3.507286e-002
4.300479e+002, 3.561209e-002
4.319764e+002, 3.644453e-002
4.339049e+002, 3.750099e-002
4.358333e+002, 3.865571e-002
4.377618e+002, 4.004056e-002
4.396903e+002, 4.149525e-002
4.416187e+002, 4.289163e-002
4.435472e+002, 4.507449e-002
4.454757e+002, 4.815948e-002
4.474041e+002, 5.164767e-002
4.493326e+002, 5.578140e-002
4.512611e+002, 6.101873e-002
4.531895e+002, 6.697891e-002
4.551180e+002, 7.359070e-002
4.570465e+002, 7.942073e-002
4.589749e+002, 8.142251e-002
4.609034e+002, 7.593592e-002
4.628319e+002, 6.505521e-002
4.647603e+002, 5.582058e-002
4.666888e+002, 5.087110e-002
4.686173e+002, 4.898069e-002
4.705457e+002, 4.863822e-002
4.724742e+002, 4.907667e-002
4.744027e+002, 5.004066e-002
4.763311e+002, 5.121455e-002
4.782596e+002, 5.218692e-002
4.801881e+002, 5.362685e-002
4.821165e+002, 5.526980e-002
4.840450e+002, 5.704135e-002
4.859735e+002, 5.821821e-002
4.879019e+002, 5.976434e-002
4.898304e+002, 6.152683e-002
4.917589e+002, 6.316124e-002
4.936873e+002, 6.491414e-002
4.956158e+002, 6.692094e-002
4.975443e+002, 6.869280e-002
4.994727e+002, 7.058071e-002
5.014012e+002, 7.219411e-002
5.033297e+002, 7.340875e-002
5.052581e+002, 7.472491e-002
5.071866e+002, 7.616862e-002
5.091151e+002, 7.762670e-002
5.110435e+002, 7.925665e-002
5.129720e+002, 8.099512e-002
5.149005e+002, 8.302601e-002
5.168289e+002, 8.504039e-002
5.187574e+002, 8.668569e-002
5.206859e+002, 8.873314e-002
5.226143e+002, 9.067095e-002
5.245428e+002, 9.239507e-002
5.264713e+002, 9.401767e-002
5.283997e+002, 9.595483e-002
5.303282e+002, 9.775340e-002
5.322567e+002, 9.971702e-002
5.341851e+002, 1.017656e-001
5.361136e+002, 1.035184e-001
5.380421e+002, 1.055435e-001
5.399705e+002, 1.079086e-001
5.418990e+002, 1.101934e-001
5.438275e+002, 1.122903e-001
5.457559e+002, 1.144348e-001
5.476844e+002, 1.170069e-001
5.496129e+002, 1.195571e-001
5.515413e+002, 1.220306e-001
5.534698e+002, 1.247366e-001
5.553983e+002, 1.277152e-001
5.573267e+002, 1.304327e-001
5.592552e+002, 1.329537e-001
5.611837e+002, 1.359027e-001
5.631121e+002, 1.386292e-001
5.650406e+002, 1.413324e-001
5.669691e+002, 1.434228e-001
5.688975e+002, 1.450762e-001
5.708260e+002, 1.466138e-001
5.727545e+002, 1.473314e-001
5.746829e+002, 1.464222e-001
5.766114e+002, 1.434390e-001
5.785399e+002, 1.386327e-001
5.804683e+002, 1.337718e-001
5.823968e+002, 1.302488e-001
5.843253e+002, 1.281797e-001
5.862537e+002, 1.258929e-001
5.881822e+002, 1.229698e-001
5.901107e+002, 1.189781e-001
5.920391e+002, 1.143113e-001
5.939676e+002, 1.099959e-001
5.958961e+002, 1.066566e-001
5.978245e+002, 1.044912e-001
5.997530e+002, 1.035443e-001
6.016815e+002, 1.044573e-001
6.036099e+002, 1.066620e-001
6.055384e+002, 1.081249e-001
6.074669e+002, 1.103115e-001
6.093953e+002, 1.121582e-001
6.113238e+002, 1.109774e-001
6.132523e+002, 1.077597e-001
6.151807e+002, 1.030330e-001
6.171091e+002, 9.614029e-002
6.190376e+002, 8.826447e-002
6.209661e+002, 8.043231e-002
6.228945e+002, 7.312875e-002
6.248230e+002, 6.676506e-002
6.267515e+002, 6.154921e-002
6.286799e+002, 5.779684e-002
6.306084e+002, 5.527236e-002
6.325369e+002, 5.342222e-002
6.344653e+002, 5.168969e-002
6.363938e+002, 5.008917e-002
6.383223e+002, 4.886812e-002
6.402507e+002, 4.801702e-002
6.421792e+002, 4.781003e-002
6.441077e+002, 4.777692e-002
6.460361e+002, 4.731129e-002
6.479646e+002, 4.699671e-002
6.498931e+002, 4.708258e-002
6.518215e+002, 4.728625e-002
6.537500e+002, 4.746263e-002
6.556785e+002, 4.785923e-002
6.576069e+002, 4.861050e-002
6.595354e+002, 4.915927e-002
6.614639e+002, 4.912488e-002
6.633923e+002, 4.913204e-002
6.653208e+002, 4.953237e-002
6.672493e+002, 5.034994e-002
6.691777e+002, 5.105400e-002
6.711062e+002, 5.131986e-002
6.730347e+002, 5.118145e-002
6.749631e+002, 5.151086e-002
6.768916e+002, 5.234777e-002
6.788201e+002, 5.256878e-002
6.807485e+002, 5.263098e-002
6.826770e+002, 5.265513e-002
6.846055e+002, 5.267142e-002
6.865339e+002, 5.282055e-002
6.884624e+002, 5.336692e-002
6.903909e+002, 5.410699e-002
6.923193e+002, 5.512449e-002
6.942478e+002, 5.610462e-002
6.961763e+002, 5.575628e-002
6.981047e+002, 5.668566e-002
7.000332e+002, 5.807211e-002
##END=



