##NAMES=Willemite
##RRUFFID=R050652
##IDEAL CHEMISTRY=Zn^2+^_2_SiO_4_
##LOCALITY=Franklin Furnace, Sussex County, New Jersey, USA
##OWNER=RRUFF
##SOURCE=University of Arizona Mineral Museum
##DESCRIPTION=Parallel aggregate of colorless acicular crystals
##STATUS=The identification of this mineral has been confirmed by X-ray diffraction and chemical analysis
##URL=rruff.info/R050652
##MEASURED CHEMISTRY=(Zn_1.99_Mn_0.01_)_Î£=2_Si_1.00_O_4_
3.991926e+002, 1.087823e-001
4.011211e+002, 8.507303e-002
4.030495e+002, 7.625476e-002
4.049780e+002, 6.757992e-002
4.069065e+002, 5.279767e-002
4.088349e+002, 4.441625e-002
4.107634e+002, 3.881262e-002
4.126919e+002, 3.118717e-002
4.146203e+002, 2.747705e-002
4.165488e+002, 2.698381e-002
4.184773e+002, 2.418704e-002
4.204057e+002, 2.559782e-002
4.223342e+002, 2.417499e-002
4.242627e+002, 2.333924e-002
4.261911e+002, 2.446136e-002
4.281196e+002, 2.169353e-002
4.300481e+002, 2.085861e-002
4.319765e+002, 2.276401e-002
4.339050e+002, 2.342559e-002
4.358335e+002, 2.505311e-002
4.377619e+002, 2.637798e-002
4.396904e+002, 2.660237e-002
4.416189e+002, 2.780154e-002
4.435473e+002, 3.042619e-002
4.454758e+002, 3.527757e-002
4.474043e+002, 4.058193e-002
4.493327e+002, 4.730376e-002
4.512612e+002, 5.653969e-002
4.531897e+002, 7.016555e-002
4.551181e+002, 9.079900e-002
4.570466e+002, 1.078365e-001
4.589751e+002, 1.095411e-001
4.609035e+002, 9.484626e-002
4.628320e+002, 7.276670e-002
4.647605e+002, 5.432363e-002
4.666889e+002, 4.297749e-002
4.686174e+002, 3.805460e-002
4.705459e+002, 3.617124e-002
4.724743e+002, 3.524052e-002
4.744028e+002, 3.541670e-002
4.763313e+002, 3.660130e-002
4.782597e+002, 3.679138e-002
4.801882e+002, 3.631190e-002
4.821167e+002, 3.841914e-002
4.840451e+002, 4.002164e-002
4.859736e+002, 4.263155e-002
4.879021e+002, 4.539318e-002
4.898305e+002, 4.738764e-002
4.917590e+002, 5.101163e-002
4.936875e+002, 5.314038e-002
4.956159e+002, 5.464235e-002
4.975444e+002, 5.791544e-002
4.994729e+002, 6.143126e-002
5.014013e+002, 6.444133e-002
5.033298e+002, 6.793820e-002
5.052583e+002, 7.025932e-002
5.071867e+002, 7.237626e-002
5.091152e+002, 7.499478e-002
5.110437e+002, 7.846715e-002
5.129721e+002, 8.285156e-002
5.149006e+002, 8.753370e-002
5.168290e+002, 9.369968e-002
5.187575e+002, 9.942043e-002
5.206860e+002, 1.045116e-001
5.226144e+002, 1.104191e-001
5.245429e+002, 1.152009e-001
5.264714e+002, 1.219817e-001
5.283998e+002, 1.289614e-001
5.303283e+002, 1.350702e-001
5.322568e+002, 1.417284e-001
5.341852e+002, 1.488470e-001
5.361137e+002, 1.562099e-001
5.380422e+002, 1.646378e-001
5.399706e+002, 1.724847e-001
5.418991e+002, 1.800555e-001
5.438276e+002, 1.876771e-001
5.457560e+002, 1.951541e-001
5.476845e+002, 2.034249e-001
5.496130e+002, 2.126137e-001
5.515414e+002, 2.217051e-001
5.534699e+002, 2.312170e-001
5.553984e+002, 2.415816e-001
5.573268e+002, 2.528338e-001
5.592553e+002, 2.620498e-001
5.611838e+002, 2.704962e-001
5.631122e+002, 2.768952e-001
5.650407e+002, 2.852963e-001
5.669692e+002, 2.948368e-001
5.688976e+002, 3.001012e-001
5.708261e+002, 3.021773e-001
5.727546e+002, 2.996928e-001
5.746830e+002, 2.877191e-001
5.766115e+002, 2.680647e-001
5.785400e+002, 2.496835e-001
5.804684e+002, 2.359903e-001
5.823969e+002, 2.262376e-001
5.843254e+002, 2.158827e-001
5.862538e+002, 2.058714e-001
5.881823e+002, 1.957468e-001
5.901108e+002, 1.841377e-001
5.920392e+002, 1.724498e-001
5.939677e+002, 1.620182e-001
5.958962e+002, 1.537839e-001
5.978246e+002, 1.486576e-001
5.997531e+002, 1.461790e-001
6.016816e+002, 1.461398e-001
6.036100e+002, 1.502793e-001
6.055385e+002, 1.571959e-001
6.074670e+002, 1.635385e-001
6.093954e+002, 1.668317e-001
6.113239e+002, 1.661492e-001
6.132524e+002, 1.583693e-001
6.151808e+002, 1.446749e-001
6.171093e+002, 1.281818e-001
6.190378e+002, 1.106126e-001
6.209662e+002, 9.411449e-002
6.228947e+002, 7.938243e-002
6.248232e+002, 6.649062e-002
6.267516e+002, 5.628499e-002
6.286801e+002, 4.766824e-002
6.306086e+002, 4.071682e-002
6.325370e+002, 3.532870e-002
6.344655e+002, 3.163357e-002
6.363940e+002, 2.862361e-002
6.383224e+002, 2.612351e-002
6.402509e+002, 2.462337e-002
6.421794e+002, 2.346098e-002
6.441078e+002, 2.255935e-002
6.460363e+002, 2.202788e-002
6.479648e+002, 2.097217e-002
6.498932e+002, 1.961274e-002
6.518217e+002, 1.958429e-002
6.537502e+002, 2.003701e-002
6.556786e+002, 2.017941e-002
6.576071e+002, 2.034277e-002
6.595356e+002, 2.019252e-002
6.614641e+002, 2.024447e-002
6.633925e+002, 2.050012e-002
6.653210e+002, 2.099299e-002
6.672495e+002, 2.120804e-002
6.691779e+002, 2.093263e-002
6.711064e+002, 2.049718e-002
6.730349e+002, 2.001544e-002
6.749633e+002, 2.059712e-002
6.768918e+002, 2.156350e-002
6.788203e+002, 2.138783e-002
6.807487e+002, 2.061708e-002
6.826772e+002, 2.061906e-002
6.846057e+002, 2.103564e-002
6.865341e+002, 2.110063e-002
6.884626e+002, 2.133124e-002
6.903911e+002, 2.177889e-002
6.923195e+002, 2.166082e-002
6.942480e+002, 2.160155e-002
6.961765e+002, 2.199982e-002
6.981049e+002, 2.227154e-002
7.000334e+002, 2.217394e-002
7.019619e+002, 2.235640e-002
7.038903e+002, 2.255606e-002
7.058188e+002, 2.294402e-002
7.077473e+002, 2.370986e-002
7.096757e+002, 2.475608e-002
7.116042e+002, 2.593401e-002
7.135327e+002, 2.652099e-002
7.154611e+002, 2.648745e-002
7.173896e+002, 2.709279e-002
7.193181e+002, 2.792035e-002
7.212465e+002, 2.829856e-002
7.231750e+002, 2.910062e-002
7.251035e+002, 2.999116e-002
7.270319e+002, 3.084631e-002
7.289604e+002, 3.212334e-002
7.308889e+002, 3.323269e-002
7.328173e+002, 3.428119e-002
7.347458e+002, 3.537285e-002
7.366743e+002, 3.639629e-002
7.386027e+002, 3.749558e-002
7.405312e+002, 3.885099e-002
7.424597e+002, 4.034180e-002
7.443881e+002, 4.194690e-002
7.463166e+002, 4.376573e-002
7.482451e+002, 4.542188e-002
7.501735e+002, 4.709368e-002
7.521020e+002, 4.875405e-002
7.540305e+002, 5.061053e-002
7.559589e+002, 5.266359e-002
7.578874e+002, 5.474881e-002
7.598159e+002, 5.678079e-002
7.617443e+002, 5.893392e-002
7.636728e+002, 6.141807e-002
7.656013e+002, 6.396545e-002
7.675297e+002, 6.635279e-002
7.694582e+002, 6.896367e-002
7.713867e+002, 7.169428e-002
7.733151e+002, 7.416862e-002
7.752436e+002, 7.694346e-002
7.771721e+002, 7.990807e-002
7.791005e+002, 8.330031e-002
7.810290e+002, 8.639303e-002
7.829575e+002, 8.948325e-002
7.848859e+002, 9.275334e-002
7.868144e+002, 9.587312e-002
7.887429e+002, 9.930700e-002
7.906713e+002, 1.031520e-001
7.925998e+002, 1.067428e-001
7.945283e+002, 1.104115e-001
7.964567e+002, 1.152183e-001
7.983852e+002, 1.201170e-001
8.003137e+002, 1.244939e-001
8.022421e+002, 1.288718e-001
8.041706e+002, 1.333353e-001
8.060991e+002, 1.382949e-001
8.080275e+002, 1.440011e-001
8.099560e+002, 1.491034e-001
8.118845e+002, 1.541205e-001
8.138129e+002, 1.601748e-001
8.157414e+002, 1.663275e-001
8.176699e+002, 1.728315e-001
8.195983e+002, 1.796281e-001
8.215268e+002, 1.861798e-001
8.234553e+002, 1.925775e-001
8.253837e+002, 1.997458e-001
8.273122e+002, 2.073903e-001
8.292407e+002, 2.148034e-001
8.311691e+002, 2.227216e-001
8.330976e+002, 2.301459e-001
8.350261e+002, 2.374893e-001
8.369545e+002, 2.458491e-001
8.388830e+002, 2.548289e-001
8.408115e+002, 2.632355e-001
8.427399e+002, 2.714407e-001
8.446684e+002, 2.795379e-001
8.465969e+002, 2.881675e-001
8.485253e+002, 2.969126e-001
8.504538e+002, 3.039026e-001
8.523823e+002, 3.102089e-001
8.543107e+002, 3.164165e-001
8.562392e+002, 3.231635e-001
8.581677e+002, 3.297280e-001
8.600961e+002, 3.358777e-001
8.620246e+002, 3.399438e-001
8.639531e+002, 3.403298e-001
8.658815e+002, 3.373404e-001
8.678100e+002, 3.294373e-001
8.697385e+002, 3.146518e-001
8.716669e+002, 2.931551e-001
8.735954e+002, 2.723622e-001
8.755239e+002, 2.618067e-001
8.774523e+002, 2.642875e-001
8.793808e+002, 2.780037e-001
8.813093e+002, 2.975820e-001
8.832377e+002, 3.158506e-001
8.851662e+002, 3.293423e-001
8.870947e+002, 3.373818e-001
8.890231e+002, 3.403232e-001
8.909516e+002, 3.394505e-001
8.928801e+002, 3.360428e-001
8.948085e+002, 3.312374e-001
8.967370e+002, 3.251000e-001
8.986655e+002, 3.176567e-001
9.005939e+002, 3.091521e-001
9.025224e+002, 2.994595e-001
9.044509e+002, 2.892022e-001
9.063793e+002, 2.783403e-001
9.083078e+002, 2.667801e-001
9.102363e+002, 2.548406e-001
9.121647e+002, 2.420348e-001
9.140932e+002, 2.278892e-001
9.160217e+002, 2.138088e-001
9.179501e+002, 2.018459e-001
9.198786e+002, 1.952026e-001
9.218071e+002, 1.972271e-001
9.237355e+002, 2.088596e-001
9.256640e+002, 2.257970e-001
9.275925e+002, 2.399726e-001
9.295209e+002, 2.433098e-001
9.314494e+002, 2.345680e-001
9.333779e+002, 2.196672e-001
9.353063e+002, 2.034517e-001
9.372348e+002, 1.881583e-001
9.391633e+002, 1.743104e-001
9.410917e+002, 1.621021e-001
9.430202e+002, 1.510349e-001
9.449487e+002, 1.407043e-001
9.468771e+002, 1.306478e-001
9.488056e+002, 1.213067e-001
9.507341e+002, 1.133231e-001
9.526625e+002, 1.060367e-001
9.545910e+002, 9.944911e-002
9.565195e+002, 9.391930e-002
9.584479e+002, 8.990745e-002
9.603764e+002, 8.790415e-002
9.623049e+002, 8.865122e-002
9.642333e+002, 9.209889e-002
9.661618e+002, 9.726986e-002
9.680903e+002, 1.040234e-001
9.700187e+002, 1.113914e-001
9.719472e+002, 1.169757e-001
9.738757e+002, 1.189835e-001
9.758041e+002, 1.161393e-001
9.777326e+002, 1.096253e-001
9.796611e+002, 1.017068e-001
9.815895e+002, 9.281742e-002
9.835180e+002, 8.410773e-002
9.854465e+002, 7.591661e-002
9.873749e+002, 6.746655e-002
9.893034e+002, 5.992372e-002
9.912319e+002, 5.330588e-002
9.931603e+002, 4.706236e-002
9.950888e+002, 4.129307e-002
9.970173e+002, 3.636845e-002
9.989457e+002, 3.216164e-002
1.000874e+003, 2.882208e-002
1.002803e+003, 2.617025e-002
1.004731e+003, 2.333266e-002
1.006660e+003, 2.112959e-002
1.008588e+003, 1.982591e-002
1.010517e+003, 1.860878e-002
1.012445e+003, 1.711443e-002
1.014373e+003, 1.584000e-002
1.016302e+003, 1.509136e-002
1.018230e+003, 1.489376e-002
1.020159e+003, 1.422747e-002
1.022087e+003, 1.351119e-002
1.024016e+003, 1.261623e-002
1.025944e+003, 1.200833e-002
1.027873e+003, 1.172797e-002
1.029801e+003, 1.124853e-002
1.031730e+003, 1.078345e-002
1.033658e+003, 1.058056e-002
1.035587e+003, 1.054673e-002
1.037515e+003, 1.058284e-002
1.039443e+003, 1.031612e-002
1.041372e+003, 9.923891e-003
1.043300e+003, 9.825146e-003
1.045229e+003, 9.534158e-003
1.047157e+003, 9.243019e-003
1.049086e+003, 9.034376e-003
1.051014e+003, 8.862900e-003
1.052943e+003, 8.822747e-003
1.054871e+003, 9.229076e-003
1.056800e+003, 9.358221e-003
1.058728e+003, 8.887675e-003
1.060657e+003, 8.814584e-003
1.062585e+003, 8.389043e-003
1.064514e+003, 8.138509e-003
1.066442e+003, 8.579503e-003
1.068370e+003, 8.913258e-003
1.070299e+003, 8.993559e-003
1.072227e+003, 8.763993e-003
1.074156e+003, 8.508048e-003
1.076084e+003, 8.209625e-003
1.078013e+003, 7.989055e-003
1.079941e+003, 7.958725e-003
1.081870e+003, 8.004111e-003
1.083798e+003, 7.825880e-003
1.085727e+003, 7.819432e-003
1.087655e+003, 7.769680e-003
1.089584e+003, 7.524088e-003
1.091512e+003, 7.373950e-003
1.093441e+003, 7.281343e-003
1.095369e+003, 7.029051e-003
1.097297e+003, 6.937271e-003
1.099226e+003, 6.572145e-003
1.101154e+003, 6.207732e-003
1.103083e+003, 6.394218e-003
1.105011e+003, 6.199246e-003
1.106940e+003, 5.893503e-003
1.108868e+003, 5.843780e-003
1.110797e+003, 5.695786e-003
1.112725e+003, 5.510524e-003
1.114654e+003, 5.714517e-003
1.116582e+003, 5.742598e-003
1.118511e+003, 5.510536e-003
1.120439e+003, 4.911949e-003
1.122368e+003, 5.005685e-003
1.124296e+003, 5.210188e-003
1.126224e+003, 5.029446e-003
1.128153e+003, 4.967780e-003
1.130081e+003, 4.959668e-003
1.132010e+003, 5.008333e-003
1.133938e+003, 5.042335e-003
1.135867e+003, 4.986959e-003
1.137795e+003, 4.801698e-003
1.139724e+003, 4.573434e-003
1.141652e+003, 4.560137e-003
1.143581e+003, 4.547037e-003
1.145509e+003, 4.534901e-003
1.147438e+003, 4.472827e-003
1.149366e+003, 4.143266e-003
1.151295e+003, 4.371941e-003
1.153223e+003, 4.756854e-003
1.155151e+003, 4.470457e-003
1.157080e+003, 4.806553e-003
1.159008e+003, 4.950128e-003
1.160937e+003, 5.018426e-003
1.162865e+003, 4.780212e-003
1.164794e+003, 4.290731e-003
1.166722e+003, 4.261109e-003
1.168651e+003, 4.292324e-003
1.170579e+003, 3.975166e-003
1.172508e+003, 4.177135e-003
1.174436e+003, 4.494287e-003
1.176365e+003, 4.789118e-003
1.178293e+003, 4.796100e-003
1.180222e+003, 4.696869e-003
1.182150e+003, 4.593833e-003
1.184078e+003, 4.429039e-003
1.186007e+003, 4.491429e-003
1.187935e+003, 4.669456e-003
1.189864e+003, 4.318990e-003
1.191792e+003, 3.825293e-003
1.193721e+003, 3.859495e-003
1.195649e+003, 4.360724e-003
1.197578e+003, 5.142068e-003
1.199506e+003, 5.518195e-003
1.201435e+003, 5.493152e-003
1.203363e+003, 5.696788e-003
1.205292e+003, 5.821965e-003
1.207220e+003, 6.020325e-003
1.209149e+003, 6.450737e-003
1.211077e+003, 6.805466e-003
1.213005e+003, 7.026394e-003
1.214934e+003, 7.023287e-003
1.216862e+003, 7.752053e-003
1.218791e+003, 9.063775e-003
1.220719e+003, 1.022754e-002
1.222648e+003, 1.145332e-002
1.224576e+003, 1.207293e-002
1.226505e+003, 1.303051e-002
1.228433e+003, 1.398384e-002
1.230362e+003, 1.391344e-002
1.232290e+003, 1.207255e-002
1.234219e+003, 9.847702e-003
1.236147e+003, 8.565058e-003
1.238076e+003, 7.552892e-003
1.240004e+003, 6.728455e-003
1.241932e+003, 6.429169e-003
1.243861e+003, 6.816410e-003
1.245789e+003, 7.435082e-003
1.247718e+003, 7.498693e-003
1.249646e+003, 6.809790e-003
1.251575e+003, 6.027204e-003
1.253503e+003, 5.505155e-003
1.255432e+003, 4.996138e-003
1.257360e+003, 4.764377e-003
1.259289e+003, 4.536489e-003
1.261217e+003, 5.086138e-003
1.263146e+003, 6.292067e-003
1.265074e+003, 6.576244e-003
1.267003e+003, 6.399657e-003
1.268931e+003, 6.409312e-003
1.270859e+003, 6.540266e-003
1.272788e+003, 6.374739e-003
1.274716e+003, 5.671752e-003
1.276645e+003, 4.979222e-003
1.278573e+003, 4.412058e-003
1.280502e+003, 4.296969e-003
1.282430e+003, 4.290338e-003
1.284359e+003, 4.228392e-003
1.286287e+003, 4.523143e-003
1.288216e+003, 4.731215e-003
1.290144e+003, 4.618118e-003
1.292073e+003, 4.319447e-003
1.294001e+003, 4.007809e-003
1.295930e+003, 3.968677e-003
1.297858e+003, 3.897500e-003
1.299786e+003, 3.739608e-003
1.301715e+003, 3.487661e-003
1.303643e+003, 3.416427e-003
1.305572e+003, 3.512185e-003
1.307500e+003, 3.468029e-003
1.309429e+003, 3.495276e-003
1.311357e+003, 3.612048e-003
1.313286e+003, 3.600632e-003
1.315214e+003, 3.522076e-003
1.317143e+003, 3.520873e-003
1.319071e+003, 3.807588e-003
1.321000e+003, 3.923099e-003
1.322928e+003, 3.730696e-003
1.324857e+003, 3.732909e-003
1.326785e+003, 3.864418e-003
1.328714e+003, 3.963207e-003
1.330642e+003, 4.011268e-003
1.332570e+003, 4.131001e-003
1.334499e+003, 4.126470e-003
1.336427e+003, 4.278910e-003
1.338356e+003, 4.155234e-003
1.340284e+003, 3.905435e-003
1.342213e+003, 3.955873e-003
1.344141e+003, 4.279291e-003
1.346070e+003, 4.366667e-003
1.347998e+003, 4.298274e-003
1.349927e+003, 4.580289e-003
1.351855e+003, 4.646922e-003
1.353784e+003, 4.647266e-003
1.355712e+003, 5.087072e-003
1.357641e+003, 5.265576e-003
1.359569e+003, 5.268420e-003
1.361497e+003, 5.545046e-003
1.363426e+003, 5.746601e-003
1.365354e+003, 5.479246e-003
1.367283e+003, 5.441720e-003
1.369211e+003, 5.614473e-003
1.371140e+003, 5.673061e-003
1.373068e+003, 5.460015e-003
1.374997e+003, 5.656502e-003
1.376925e+003, 5.621281e-003
1.378854e+003, 5.222803e-003
1.380782e+003, 5.736466e-003
1.382711e+003, 6.591544e-003
1.384639e+003, 6.594802e-003
1.386568e+003, 6.314445e-003
1.388496e+003, 6.520057e-003
1.390424e+003, 6.522546e-003
1.392353e+003, 6.189759e-003
1.394281e+003, 6.297990e-003
1.396210e+003, 6.930796e-003
1.398138e+003, 7.210146e-003
1.400067e+003, 7.068763e-003
1.401995e+003, 6.904447e-003
1.403924e+003, 7.324155e-003
1.405852e+003, 8.048684e-003
1.407781e+003, 8.404805e-003
1.409709e+003, 8.378908e-003
1.411638e+003, 8.541747e-003
1.413566e+003, 8.937622e-003
1.415495e+003, 8.954289e-003
1.417423e+003, 8.748462e-003
1.419351e+003, 8.976826e-003
1.421280e+003, 9.245436e-003
1.423208e+003, 9.657042e-003
1.425137e+003, 9.925159e-003
1.427065e+003, 9.896789e-003
1.428994e+003, 9.739393e-003
1.430922e+003, 9.768863e-003
1.432851e+003, 9.847141e-003
1.434779e+003, 9.887733e-003
1.436708e+003, 9.983104e-003
1.438636e+003, 1.043908e-002
1.440565e+003, 1.073741e-002
1.442493e+003, 1.079161e-002
1.444422e+003, 1.076198e-002
1.446350e+003, 1.093042e-002
1.448278e+003, 1.118943e-002
1.450207e+003, 1.121387e-002
1.452135e+003, 1.136246e-002
1.454064e+003, 1.149971e-002
1.455992e+003, 1.125036e-002
1.457921e+003, 1.098611e-002
1.459849e+003, 1.120631e-002
1.461778e+003, 1.143658e-002
1.463706e+003, 1.134556e-002
1.465635e+003, 1.126401e-002
1.467563e+003, 1.113141e-002
1.469492e+003, 1.087447e-002
1.471420e+003, 1.065753e-002
1.473349e+003, 1.070213e-002
1.475277e+003, 1.067334e-002
1.477205e+003, 1.050069e-002
1.479134e+003, 1.026023e-002
1.481062e+003, 1.008181e-002
1.482991e+003, 1.047314e-002
1.484919e+003, 1.053232e-002
1.486848e+003, 1.043504e-002
1.488776e+003, 1.015140e-002
1.490705e+003, 1.019065e-002
1.492633e+003, 9.976574e-003
1.494562e+003, 9.571045e-003
1.496490e+003, 9.407798e-003
1.498419e+003, 9.397706e-003
1.500347e+003, 9.505131e-003
1.502276e+003, 9.671164e-003
1.504204e+003, 9.090944e-003
1.506132e+003, 8.537097e-003
1.508061e+003, 8.392983e-003
1.509989e+003, 8.609193e-003
1.511918e+003, 8.389230e-003
1.513846e+003, 8.289591e-003
1.515775e+003, 8.697191e-003
1.517703e+003, 8.815426e-003
1.519632e+003, 8.389297e-003
1.521560e+003, 8.009038e-003
1.523489e+003, 7.842680e-003
1.525417e+003, 7.849641e-003
1.527346e+003, 8.269528e-003
1.529274e+003, 7.995175e-003
1.531203e+003, 7.399815e-003
1.533131e+003, 7.273539e-003
1.535059e+003, 7.235022e-003
1.536988e+003, 7.039038e-003
1.538916e+003, 6.684159e-003
1.540845e+003, 6.718990e-003
1.542773e+003, 6.966043e-003
1.544702e+003, 7.056003e-003
1.546630e+003, 7.291424e-003
1.548559e+003, 7.365096e-003
1.550487e+003, 6.898202e-003
1.552416e+003, 6.666579e-003
1.554344e+003, 7.149130e-003
1.556273e+003, 7.595122e-003
1.558201e+003, 6.814908e-003
1.560130e+003, 6.589661e-003
1.562058e+003, 6.980742e-003
1.563986e+003, 6.740918e-003
1.565915e+003, 6.413203e-003
1.567843e+003, 6.711478e-003
1.569772e+003, 6.945168e-003
1.571700e+003, 6.709423e-003
1.573629e+003, 6.727028e-003
1.575557e+003, 6.769752e-003
1.577486e+003, 6.786169e-003
1.579414e+003, 7.185479e-003
1.581343e+003, 7.628034e-003
1.583271e+003, 7.507120e-003
1.585200e+003, 7.346363e-003
1.587128e+003, 7.401438e-003
1.589057e+003, 7.421661e-003
1.590985e+003, 7.645549e-003
1.592913e+003, 7.498895e-003
1.594842e+003, 7.714204e-003
1.596770e+003, 7.713581e-003
1.598699e+003, 7.605870e-003
1.600627e+003, 7.695424e-003
1.602556e+003, 7.962403e-003
1.604484e+003, 7.964133e-003
1.606413e+003, 7.762530e-003
1.608341e+003, 7.396356e-003
1.610270e+003, 7.557572e-003
1.612198e+003, 7.998209e-003
1.614127e+003, 7.503395e-003
1.616055e+003, 6.644607e-003
1.617984e+003, 7.024820e-003
1.619912e+003, 7.888062e-003
1.621840e+003, 7.867509e-003
1.623769e+003, 7.613478e-003
1.625697e+003, 7.623610e-003
1.627626e+003, 7.464548e-003
1.629554e+003, 7.250139e-003
1.631483e+003, 7.403408e-003
1.633411e+003, 7.585656e-003
1.635340e+003, 7.410780e-003
1.637268e+003, 7.906144e-003
1.639197e+003, 8.037775e-003
1.641125e+003, 7.495409e-003
1.643054e+003, 7.673082e-003
1.644982e+003, 7.911702e-003
1.646911e+003, 7.331660e-003
1.648839e+003, 7.061121e-003
1.650767e+003, 6.864860e-003
1.652696e+003, 6.446409e-003
1.654624e+003, 6.684260e-003
1.656553e+003, 6.788566e-003
1.658481e+003, 6.830864e-003
1.660410e+003, 7.142676e-003
1.662338e+003, 7.593074e-003
1.664267e+003, 7.956336e-003
1.666195e+003, 7.985763e-003
1.668124e+003, 7.492550e-003
1.670052e+003, 7.618187e-003
1.671981e+003, 7.802965e-003
1.673909e+003, 7.779280e-003
1.675838e+003, 7.605861e-003
1.677766e+003, 7.451218e-003
1.679694e+003, 7.590072e-003
1.681623e+003, 8.093960e-003
1.683551e+003, 7.999464e-003
1.685480e+003, 7.858230e-003
1.687408e+003, 7.770419e-003
1.689337e+003, 7.439103e-003
1.691265e+003, 7.329121e-003
1.693194e+003, 7.437101e-003
1.695122e+003, 7.901255e-003
1.697051e+003, 8.218023e-003
1.698979e+003, 7.664416e-003
1.700908e+003, 7.633027e-003
1.702836e+003, 8.466817e-003
1.704765e+003, 8.499773e-003
1.706693e+003, 8.022412e-003
1.708621e+003, 7.769584e-003
1.710550e+003, 8.179550e-003
1.712478e+003, 8.573706e-003
1.714407e+003, 8.242563e-003
1.716335e+003, 8.208365e-003
1.718264e+003, 8.386614e-003
1.720192e+003, 8.661626e-003
1.722121e+003, 8.941428e-003
1.724049e+003, 9.416508e-003
1.725978e+003, 9.623216e-003
1.727906e+003, 9.949801e-003
1.729835e+003, 1.065966e-002
1.731763e+003, 1.055277e-002
1.733692e+003, 9.884980e-003
1.735620e+003, 1.038576e-002
1.737548e+003, 1.122235e-002
1.739477e+003, 1.083922e-002
1.741405e+003, 1.012758e-002
1.743334e+003, 9.802548e-003
1.745262e+003, 1.011491e-002
1.747191e+003, 1.018933e-002
1.749119e+003, 9.828914e-003
1.751048e+003, 9.199961e-003
1.752976e+003, 9.590913e-003
1.754905e+003, 1.024057e-002
1.756833e+003, 9.903396e-003
1.758762e+003, 9.567923e-003
1.760690e+003, 9.528851e-003
1.762619e+003, 9.469985e-003
1.764547e+003, 1.000072e-002
1.766475e+003, 1.015161e-002
1.768404e+003, 1.012725e-002
1.770332e+003, 1.022608e-002
1.772261e+003, 9.400397e-003
1.774189e+003, 9.475969e-003
1.776118e+003, 9.953801e-003
1.778046e+003, 1.004112e-002
1.779975e+003, 1.023618e-002
1.781903e+003, 1.043965e-002
1.783832e+003, 1.070626e-002
1.785760e+003, 1.121059e-002
1.787689e+003, 1.114697e-002
1.789617e+003, 1.047666e-002
1.791546e+003, 1.044740e-002
1.793474e+003, 1.089416e-002
1.795402e+003, 1.044385e-002
1.797331e+003, 9.114325e-003
1.799259e+003, 9.109993e-003
1.801188e+003, 9.773950e-003
1.803116e+003, 1.014142e-002
1.805045e+003, 1.044690e-002
1.806973e+003, 1.075634e-002
1.808902e+003, 1.058597e-002
1.810830e+003, 1.075247e-002
1.812759e+003, 1.058541e-002
1.814687e+003, 9.770796e-003
1.816616e+003, 9.943243e-003
1.818544e+003, 1.099072e-002
1.820473e+003, 1.114392e-002
1.822401e+003, 1.005086e-002
1.824329e+003, 9.248485e-003
1.826258e+003, 9.391613e-003
1.828186e+003, 9.688145e-003
1.830115e+003, 1.010489e-002
1.832043e+003, 1.025628e-002
1.833972e+003, 9.908101e-003
1.835900e+003, 9.672619e-003
1.837829e+003, 9.227959e-003
1.839757e+003, 9.453015e-003
1.841686e+003, 1.023330e-002
1.843614e+003, 1.002650e-002
1.845543e+003, 9.282219e-003
1.847471e+003, 9.223616e-003
1.849400e+003, 9.464673e-003
1.851328e+003, 1.009634e-002
1.853256e+003, 9.920896e-003
1.855185e+003, 9.556980e-003
1.857113e+003, 8.910504e-003
1.859042e+003, 9.003841e-003
1.860970e+003, 9.101604e-003
1.862899e+003, 8.480419e-003
1.864827e+003, 8.527475e-003
1.866756e+003, 9.207343e-003
1.868684e+003, 1.050995e-002
1.870613e+003, 1.023597e-002
1.872541e+003, 9.589007e-003
1.874470e+003, 9.608686e-003
1.876398e+003, 9.587745e-003
1.878327e+003, 9.506608e-003
1.880255e+003, 9.602473e-003
1.882183e+003, 9.494772e-003
1.884112e+003, 9.511068e-003
1.886040e+003, 1.008697e-002
1.887969e+003, 9.236493e-003
1.889897e+003, 1.044950e-002
1.891826e+003, 1.152801e-002
1.893754e+003, 1.041363e-002
1.895683e+003, 1.055268e-002
1.897611e+003, 1.082622e-002
1.899540e+003, 1.000536e-002
1.901468e+003, 9.020637e-003
1.903397e+003, 9.025706e-003
1.905325e+003, 1.167929e-002
1.907254e+003, 1.246007e-002
1.909182e+003, 9.815237e-003
1.911110e+003, 8.736112e-003
1.913039e+003, 9.815888e-003
1.914967e+003, 9.470807e-003
1.916896e+003, 9.134345e-003
1.918824e+003, 9.265033e-003
1.920753e+003, 8.657933e-003
1.922681e+003, 9.909587e-003
1.924610e+003, 1.213492e-002
1.926538e+003, 1.320825e-002
1.928467e+003, 1.168998e-002
1.930395e+003, 1.046167e-002
1.932324e+003, 1.087786e-002
1.934252e+003, 9.802174e-003
1.936181e+003, 9.357464e-003
1.938109e+003, 1.012019e-002
1.940037e+003, 1.091907e-002
1.941966e+003, 1.304442e-002
1.943894e+003, 1.220449e-002
1.945823e+003, 9.237706e-003
1.947751e+003, 9.956776e-003
1.949680e+003, 1.218583e-002
1.951608e+003, 1.360963e-002
1.953537e+003, 1.274588e-002
1.955465e+003, 1.039845e-002
1.957394e+003, 8.339337e-003
1.959322e+003, 8.410886e-003
1.961251e+003, 9.316927e-003
1.963179e+003, 9.071885e-003
1.965108e+003, 7.899628e-003
1.967036e+003, 7.677305e-003
1.968964e+003, 8.162487e-003
1.970893e+003, 8.654809e-003
1.972821e+003, 1.237245e-002
1.974750e+003, 1.438853e-002
1.976678e+003, 1.371724e-002
1.978607e+003, 1.393069e-002
1.980535e+003, 1.345646e-002
1.982464e+003, 1.330684e-002
1.984392e+003, 1.332954e-002
1.986321e+003, 1.472734e-002
1.988249e+003, 1.475671e-002
1.990178e+003, 1.102767e-002
1.992106e+003, 9.961006e-003
1.994035e+003, 1.155851e-002
1.995963e+003, 1.083925e-002
1.997891e+003, 1.145958e-002
1.999820e+003, 1.155941e-002
2.001748e+003, 1.115400e-002
2.003677e+003, 1.191016e-002
2.005605e+003, 1.309559e-002
2.007534e+003, 1.010894e-002
2.009462e+003, 1.150497e-002
2.011391e+003, 1.579728e-002
2.013319e+003, 1.527990e-002
2.015248e+003, 1.463296e-002
2.017176e+003, 1.250884e-002
2.019105e+003, 9.335387e-003
2.021033e+003, 7.423570e-003
2.022962e+003, 7.115636e-003
2.024890e+003, 1.182821e-002
2.026818e+003, 1.409262e-002
2.028747e+003, 1.255618e-002
2.030675e+003, 1.558179e-002
2.032604e+003, 1.886956e-002
2.034532e+003, 1.477305e-002
2.036461e+003, 1.538234e-002
2.038389e+003, 1.744191e-002
2.040318e+003, 1.716584e-002
2.042246e+003, 1.598263e-002
2.044175e+003, 1.827727e-002
2.046103e+003, 1.724618e-002
2.048031e+003, 1.367011e-002
2.049960e+003, 1.396266e-002
2.051888e+003, 1.230488e-002
2.053817e+003, 1.100226e-002
2.055745e+003, 1.132717e-002
2.057674e+003, 1.009287e-002
2.059602e+003, 9.953060e-003
2.061531e+003, 1.350437e-002
2.063459e+003, 1.489167e-002
2.065388e+003, 1.450795e-002
2.067316e+003, 1.656034e-002
2.069245e+003, 1.605858e-002
2.071173e+003, 1.443199e-002
2.073102e+003, 1.427491e-002
2.075030e+003, 1.394842e-002
2.076958e+003, 1.404484e-002
2.078887e+003, 1.403486e-002
2.080815e+003, 1.316564e-002
2.082744e+003, 1.256892e-002
2.084672e+003, 1.336976e-002
2.086601e+003, 1.462415e-002
2.088529e+003, 1.455700e-002
2.090458e+003, 1.501891e-002
2.092386e+003, 1.522888e-002
2.094315e+003, 1.446582e-002
2.096243e+003, 1.282598e-002
2.098172e+003, 1.297824e-002
2.100100e+003, 1.461213e-002
2.102029e+003, 1.530111e-002
2.103957e+003, 1.641583e-002
2.105885e+003, 1.557494e-002
2.107814e+003, 1.251161e-002
2.109742e+003, 1.281571e-002
2.111671e+003, 1.393902e-002
2.113599e+003, 1.426665e-002
2.115528e+003, 1.370496e-002
2.117456e+003, 1.283453e-002
2.119385e+003, 1.376402e-002
2.121313e+003, 1.476394e-002
2.123242e+003, 1.284834e-002
2.125170e+003, 9.902580e-003
2.127099e+003, 9.467992e-003
2.129027e+003, 1.106848e-002
2.130956e+003, 1.138339e-002
2.132884e+003, 1.280042e-002
2.134813e+003, 1.360627e-002
2.136741e+003, 1.348421e-002
2.138669e+003, 1.240436e-002
2.140598e+003, 1.237163e-002
2.142526e+003, 1.305661e-002
2.144455e+003, 1.079143e-002
2.146383e+003, 1.141915e-002
2.148312e+003, 1.441290e-002
2.150240e+003, 1.247169e-002
2.152169e+003, 7.576655e-003
2.154097e+003, 8.012466e-003
2.156026e+003, 8.850337e-003
2.157954e+003, 9.651062e-003
2.159883e+003, 1.625417e-002
2.161811e+003, 2.136466e-002
2.163740e+003, 1.785227e-002
2.165668e+003, 1.376193e-002
2.167596e+003, 1.512649e-002
2.169525e+003, 1.675368e-002
2.171453e+003, 1.876831e-002
2.173382e+003, 1.966338e-002
2.175310e+003, 1.794781e-002
2.177239e+003, 1.459496e-002
2.179167e+003, 1.501509e-002
2.181096e+003, 1.761379e-002
2.183024e+003, 1.776054e-002
2.184953e+003, 1.918132e-002
2.186881e+003, 1.965080e-002
2.188810e+003, 1.645134e-002
2.190738e+003, 1.529049e-002
2.192667e+003, 1.526564e-002
2.194595e+003, 1.435203e-002
2.196523e+003, 1.348148e-002
2.198452e+003, 1.528563e-002
2.200380e+003, 1.766584e-002
2.202309e+003, 1.748927e-002
2.204237e+003, 1.510450e-002
2.206166e+003, 1.338542e-002
2.208094e+003, 1.523098e-002
2.210023e+003, 1.463671e-002
2.211951e+003, 1.352711e-002
2.213880e+003, 1.425306e-002
2.215808e+003, 1.446594e-002
2.217737e+003, 1.546818e-002
2.219665e+003, 1.470475e-002
2.221594e+003, 1.255282e-002
2.223522e+003, 1.281782e-002
2.225450e+003, 1.468468e-002
2.227379e+003, 1.438971e-002
2.229307e+003, 1.526684e-002
2.231236e+003, 1.803904e-002
2.233164e+003, 1.807205e-002
2.235093e+003, 1.661274e-002
2.237021e+003, 1.537321e-002
2.238950e+003, 1.489736e-002
2.240878e+003, 1.508943e-002
2.242807e+003, 1.547518e-002
2.244735e+003, 1.416467e-002
2.246664e+003, 1.359279e-002
2.248592e+003, 1.346878e-002
2.250521e+003, 1.492203e-002
2.252449e+003, 1.485457e-002
2.254377e+003, 1.478137e-002
2.256306e+003, 1.784659e-002
2.258234e+003, 1.791937e-002
2.260163e+003, 1.560878e-002
2.262091e+003, 1.463230e-002
2.264020e+003, 1.537829e-002
2.265948e+003, 1.553897e-002
2.267877e+003, 1.622383e-002
2.269805e+003, 1.627395e-002
2.271734e+003, 1.614392e-002
2.273662e+003, 1.758646e-002
2.275591e+003, 1.614420e-002
2.277519e+003, 1.616716e-002
2.279448e+003, 1.683631e-002
2.281376e+003, 1.743823e-002
2.283304e+003, 1.847612e-002
2.285233e+003, 1.688844e-002
2.287161e+003, 1.681474e-002
2.289090e+003, 1.634744e-002
2.291018e+003, 1.575539e-002
2.292947e+003, 1.599638e-002
2.294875e+003, 1.578856e-002
2.296804e+003, 1.556534e-002
2.298732e+003, 1.652099e-002
2.300661e+003, 1.745298e-002
2.302589e+003, 1.772882e-002
2.304518e+003, 1.704160e-002
2.306446e+003, 1.632706e-002
2.308375e+003, 1.643975e-002
2.310303e+003, 1.684085e-002
2.312231e+003, 1.679702e-002
2.314160e+003, 1.606544e-002
2.316088e+003, 1.600265e-002
2.318017e+003, 1.532917e-002
2.319945e+003, 1.609920e-002
2.321874e+003, 1.783063e-002
2.323802e+003, 1.757925e-002
2.325731e+003, 1.603043e-002
2.327659e+003, 1.546780e-002
2.329588e+003, 1.570982e-002
2.331516e+003, 1.486349e-002
2.333445e+003, 1.451846e-002
2.335373e+003, 1.500799e-002
2.337302e+003, 1.554123e-002
2.339230e+003, 1.569069e-002
2.341158e+003, 1.528587e-002
2.343087e+003, 1.493402e-002
2.345015e+003, 1.472004e-002
2.346944e+003, 1.507682e-002
2.348872e+003, 1.577553e-002
2.350801e+003, 1.526493e-002
2.352729e+003, 1.500703e-002
2.354658e+003, 1.554407e-002
2.356586e+003, 1.527714e-002
2.358515e+003, 1.520628e-002
2.360443e+003, 1.570940e-002
2.362372e+003, 1.571405e-002
2.364300e+003, 1.489467e-002
2.366229e+003, 1.369998e-002
2.368157e+003, 1.481061e-002
2.370085e+003, 1.626954e-002
2.372014e+003, 1.551222e-002
2.373942e+003, 1.505773e-002
2.375871e+003, 1.603401e-002
2.377799e+003, 1.656920e-002
2.379728e+003, 1.747290e-002
2.381656e+003, 1.770354e-002
2.383585e+003, 1.761312e-002
2.385513e+003, 1.687704e-002
2.387442e+003, 1.605176e-002
2.389370e+003, 1.572789e-002
2.391299e+003, 1.592980e-002
2.393227e+003, 1.659952e-002
2.395156e+003, 1.652605e-002
2.397084e+003, 1.602689e-002
2.399012e+003, 1.487239e-002
2.400941e+003, 1.507053e-002
2.402869e+003, 1.607657e-002
2.404798e+003, 1.694642e-002
2.406726e+003, 1.695101e-002
2.408655e+003, 1.600773e-002
2.410583e+003, 1.662633e-002
2.412512e+003, 1.818664e-002
2.414440e+003, 1.846511e-002
2.416369e+003, 1.695163e-002
2.418297e+003, 1.611738e-002
2.420226e+003, 1.625304e-002
2.422154e+003, 1.652497e-002
2.424083e+003, 1.673666e-002
2.426011e+003, 1.715481e-002
2.427939e+003, 1.706575e-002
2.429868e+003, 1.782557e-002
2.431796e+003, 1.801133e-002
2.433725e+003, 1.839176e-002
2.435653e+003, 1.780605e-002
2.437582e+003, 1.754600e-002
2.439510e+003, 1.819526e-002
2.441439e+003, 1.858012e-002
2.443367e+003, 1.843761e-002
2.445296e+003, 1.794913e-002
2.447224e+003, 1.697058e-002
2.449153e+003, 1.826008e-002
2.451081e+003, 1.976655e-002
2.453010e+003, 1.854370e-002
2.454938e+003, 1.741914e-002
2.456866e+003, 1.825018e-002
2.458795e+003, 1.884802e-002
2.460723e+003, 1.767246e-002
2.462652e+003, 1.778188e-002
2.464580e+003, 1.891813e-002
2.466509e+003, 1.884726e-002
2.468437e+003, 1.780178e-002
2.470366e+003, 1.675037e-002
2.472294e+003, 1.691190e-002
2.474223e+003, 1.771490e-002
2.476151e+003, 1.920731e-002
2.478080e+003, 1.898900e-002
2.480008e+003, 1.747024e-002
2.481937e+003, 1.709674e-002
2.483865e+003, 1.766982e-002
2.485793e+003, 1.803716e-002
2.487722e+003, 1.961069e-002
2.489650e+003, 2.065736e-002
2.491579e+003, 1.935076e-002
2.493507e+003, 1.752889e-002
2.495436e+003, 1.768548e-002
2.497364e+003, 1.807577e-002
2.499293e+003, 1.872641e-002
2.501221e+003, 1.802035e-002
2.503150e+003, 1.916414e-002
2.505078e+003, 2.064518e-002
2.507007e+003, 1.775769e-002
2.508935e+003, 1.520968e-002
2.510864e+003, 1.712452e-002
2.512792e+003, 1.959019e-002
2.514720e+003, 2.108621e-002
2.516649e+003, 1.991396e-002
2.518577e+003, 1.720570e-002
2.520506e+003, 1.789278e-002
2.522434e+003, 2.021563e-002
2.524363e+003, 2.034611e-002
2.526291e+003, 1.797146e-002
2.528220e+003, 1.602423e-002
2.530148e+003, 1.639949e-002
2.532077e+003, 1.715696e-002
2.534005e+003, 1.741481e-002
2.535934e+003, 1.816289e-002
2.537862e+003, 1.968711e-002
2.539791e+003, 2.113352e-002
2.541719e+003, 2.019442e-002
2.543647e+003, 1.921550e-002
2.545576e+003, 1.795150e-002
2.547504e+003, 1.697046e-002
2.549433e+003, 1.815403e-002
2.551361e+003, 1.967927e-002
2.553290e+003, 1.964988e-002
2.555218e+003, 1.829653e-002
2.557147e+003, 1.654628e-002
2.559075e+003, 1.624406e-002
2.561004e+003, 1.642000e-002
2.562932e+003, 1.756711e-002
2.564861e+003, 1.813025e-002
2.566789e+003, 1.809366e-002
2.568718e+003, 1.860650e-002
2.570646e+003, 1.928218e-002
2.572574e+003, 2.029391e-002
2.574503e+003, 2.145975e-002
2.576431e+003, 2.088249e-002
2.578360e+003, 2.012547e-002
2.580288e+003, 2.120342e-002
2.582217e+003, 2.115500e-002
2.584145e+003, 2.025449e-002
2.586074e+003, 2.146440e-002
2.588002e+003, 2.201335e-002
2.589931e+003, 2.040504e-002
2.591859e+003, 1.942566e-002
2.593788e+003, 1.909085e-002
2.595716e+003, 1.924746e-002
2.597645e+003, 1.968937e-002
2.599573e+003, 1.976525e-002
2.601501e+003, 1.929861e-002
2.603430e+003, 1.946973e-002
2.605358e+003, 1.961818e-002
2.607287e+003, 2.030112e-002
2.609215e+003, 2.075217e-002
2.611144e+003, 2.108998e-002
2.613072e+003, 2.112302e-002
2.615001e+003, 2.103180e-002
2.616929e+003, 2.116656e-002
2.618858e+003, 1.989669e-002
2.620786e+003, 1.871800e-002
2.622715e+003, 1.924180e-002
2.624643e+003, 2.082041e-002
2.626572e+003, 2.169994e-002
2.628500e+003, 2.192475e-002
2.630428e+003, 2.184205e-002
2.632357e+003, 2.157965e-002
2.634285e+003, 2.133362e-002
2.636214e+003, 2.094244e-002
2.638142e+003, 2.029560e-002
2.640071e+003, 2.016219e-002
2.641999e+003, 2.068736e-002
2.643928e+003, 2.145527e-002
2.645856e+003, 2.140026e-002
2.647785e+003, 2.130298e-002
2.649713e+003, 2.149470e-002
2.651642e+003, 2.158581e-002
2.653570e+003, 2.065971e-002
2.655499e+003, 1.997783e-002
2.657427e+003, 2.050177e-002
2.659355e+003, 2.035655e-002
2.661284e+003, 1.999605e-002
2.663212e+003, 1.956898e-002
2.665141e+003, 1.981471e-002
2.667069e+003, 2.097463e-002
2.668998e+003, 2.031624e-002
2.670926e+003, 1.934352e-002
2.672855e+003, 1.919811e-002
2.674783e+003, 1.964896e-002
2.676712e+003, 1.988865e-002
2.678640e+003, 2.022192e-002
2.680569e+003, 1.996800e-002
2.682497e+003, 1.877751e-002
2.684426e+003, 1.930536e-002
2.686354e+003, 1.972508e-002
2.688282e+003, 2.016393e-002
2.690211e+003, 2.030655e-002
2.692139e+003, 1.945851e-002
2.694068e+003, 2.067805e-002
2.695996e+003, 2.124279e-002
2.697925e+003, 1.982205e-002
2.699853e+003, 1.988389e-002
2.701782e+003, 2.056323e-002
2.703710e+003, 2.044208e-002
2.705639e+003, 2.053438e-002
2.707567e+003, 2.003880e-002
2.709496e+003, 2.013361e-002
2.711424e+003, 2.119758e-002
2.713353e+003, 2.139208e-002
2.715281e+003, 2.045276e-002
2.717209e+003, 1.971305e-002
2.719138e+003, 2.021443e-002
2.721066e+003, 2.037800e-002
2.722995e+003, 2.049810e-002
2.724923e+003, 2.050867e-002
2.726852e+003, 2.092876e-002
2.728780e+003, 2.136715e-002
2.730709e+003, 2.145595e-002
2.732637e+003, 2.042163e-002
2.734566e+003, 1.949112e-002
2.736494e+003, 2.005166e-002
2.738423e+003, 1.981067e-002
2.740351e+003, 1.971374e-002
2.742280e+003, 2.081182e-002
2.744208e+003, 2.085773e-002
2.746136e+003, 1.967433e-002
2.748065e+003, 1.986765e-002
2.749993e+003, 2.077783e-002
2.751922e+003, 2.118540e-002
2.753850e+003, 2.100225e-002
2.755779e+003, 2.054850e-002
2.757707e+003, 1.973223e-002
2.759636e+003, 2.002094e-002
2.761564e+003, 2.173482e-002
2.763493e+003, 2.222525e-002
2.765421e+003, 2.074336e-002
2.767350e+003, 2.048983e-002
2.769278e+003, 2.132593e-002
2.771207e+003, 2.115938e-002
2.773135e+003, 2.056183e-002
2.775063e+003, 2.056696e-002
2.776992e+003, 2.162784e-002
2.778920e+003, 2.195609e-002
2.780849e+003, 2.133241e-002
2.782777e+003, 2.202290e-002
2.784706e+003, 2.348845e-002
2.786634e+003, 2.316990e-002
2.788563e+003, 2.170742e-002
2.790491e+003, 2.190929e-002
2.792420e+003, 2.240407e-002
2.794348e+003, 2.206450e-002
2.796277e+003, 2.241822e-002
2.798205e+003, 2.287774e-002
2.800134e+003, 2.345011e-002
2.802062e+003, 2.327574e-002
2.803990e+003, 2.187320e-002
2.805919e+003, 2.178271e-002
2.807847e+003, 2.282319e-002
2.809776e+003, 2.288648e-002
2.811704e+003, 2.243980e-002
2.813633e+003, 2.248405e-002
2.815561e+003, 2.212513e-002
2.817490e+003, 2.145149e-002
2.819418e+003, 2.143908e-002
2.821347e+003, 2.237784e-002
2.823275e+003, 2.287130e-002
2.825204e+003, 2.187057e-002
2.827132e+003, 2.164655e-002
2.829061e+003, 2.239759e-002
2.830989e+003, 2.234914e-002
2.832917e+003, 2.329326e-002
2.834846e+003, 2.395390e-002
2.836774e+003, 2.499362e-002
2.838703e+003, 2.508634e-002
2.840631e+003, 2.447726e-002
2.842560e+003, 2.507563e-002
2.844488e+003, 2.517806e-002
2.846417e+003, 2.434107e-002
2.848345e+003, 2.441858e-002
2.850274e+003, 2.523544e-002
2.852202e+003, 2.520921e-002
2.854131e+003, 2.498615e-002
2.856059e+003, 2.561064e-002
2.857988e+003, 2.534646e-002
2.859916e+003, 2.429889e-002
2.861844e+003, 2.473076e-002
2.863773e+003, 2.423722e-002
2.865701e+003, 2.446027e-002
2.867630e+003, 2.540530e-002
2.869558e+003, 2.535824e-002
2.871487e+003, 2.459524e-002
2.873415e+003, 2.504016e-002
2.875344e+003, 2.611682e-002
2.877272e+003, 2.539138e-002
2.879201e+003, 2.468048e-002
2.881129e+003, 2.507709e-002
2.883058e+003, 2.457295e-002
2.884986e+003, 2.459729e-002
2.886915e+003, 2.467850e-002
2.888843e+003, 2.418434e-002
2.890771e+003, 2.450283e-002
2.892700e+003, 2.539030e-002
2.894628e+003, 2.505691e-002
2.896557e+003, 2.464426e-002
2.898485e+003, 2.397391e-002
2.900414e+003, 2.407293e-002
2.902342e+003, 2.512369e-002
2.904271e+003, 2.567060e-002
2.906199e+003, 2.602761e-002
2.908128e+003, 2.610657e-002
2.910056e+003, 2.618215e-002
2.911985e+003, 2.558478e-002
2.913913e+003, 2.654435e-002
2.915842e+003, 2.771579e-002
2.917770e+003, 2.807766e-002
2.919698e+003, 2.689366e-002
2.921627e+003, 2.599345e-002
2.923555e+003, 2.783506e-002
2.925484e+003, 2.993028e-002
2.927412e+003, 3.068670e-002
2.929341e+003, 3.009764e-002
2.931269e+003, 2.944565e-002
2.933198e+003, 2.918596e-002
2.935126e+003, 2.767854e-002
2.937055e+003, 2.717769e-002
2.938983e+003, 2.728566e-002
2.940912e+003, 2.765692e-002
2.942840e+003, 2.802206e-002
2.944769e+003, 2.792763e-002
2.946697e+003, 2.753943e-002
2.948625e+003, 2.747490e-002
2.950554e+003, 2.855057e-002
2.952482e+003, 2.880023e-002
2.954411e+003, 2.815635e-002
2.956339e+003, 2.808081e-002
2.958268e+003, 2.881697e-002
2.960196e+003, 2.811093e-002
2.962125e+003, 2.889097e-002
2.964053e+003, 2.932407e-002
2.965982e+003, 2.927770e-002
2.967910e+003, 3.027333e-002
2.969839e+003, 3.069592e-002
2.971767e+003, 2.851351e-002
2.973696e+003, 2.710886e-002
2.975624e+003, 2.578882e-002
2.977552e+003, 2.428645e-002
2.979481e+003, 2.479579e-002
2.981409e+003, 2.648712e-002
2.983338e+003, 2.753397e-002
2.985266e+003, 2.779964e-002
2.987195e+003, 2.681797e-002
2.989123e+003, 2.677250e-002
2.991052e+003, 2.696916e-002
2.992980e+003, 2.589584e-002
2.994909e+003, 2.569024e-002
2.996837e+003, 2.581120e-002
2.998766e+003, 2.578383e-002
3.000694e+003, 2.591613e-002
3.002623e+003, 2.735682e-002
3.004551e+003, 2.898645e-002
3.006479e+003, 2.801112e-002
3.008408e+003, 2.635344e-002
3.010336e+003, 2.682230e-002
3.012265e+003, 2.635494e-002
3.014193e+003, 2.538951e-002
3.016122e+003, 2.621963e-002
3.018050e+003, 2.654076e-002
3.019979e+003, 2.640007e-002
3.021907e+003, 2.658663e-002
3.023836e+003, 2.675002e-002
3.025764e+003, 2.696559e-002
3.027693e+003, 2.848901e-002
3.029621e+003, 2.845741e-002
3.031550e+003, 2.692959e-002
3.033478e+003, 2.793235e-002
3.035406e+003, 2.913101e-002
3.037335e+003, 2.820020e-002
3.039263e+003, 2.777303e-002
3.041192e+003, 2.708303e-002
3.043120e+003, 2.505995e-002
3.045049e+003, 2.433733e-002
3.046977e+003, 2.520191e-002
3.048906e+003, 2.597858e-002
3.050834e+003, 2.688900e-002
3.052763e+003, 2.762039e-002
3.054691e+003, 2.885446e-002
3.056620e+003, 2.859769e-002
3.058548e+003, 2.750605e-002
3.060477e+003, 2.810586e-002
3.062405e+003, 2.820317e-002
3.064333e+003, 2.670897e-002
3.066262e+003, 2.701616e-002
3.068190e+003, 2.684766e-002
3.070119e+003, 2.658474e-002
3.072047e+003, 2.763774e-002
3.073976e+003, 2.760725e-002
3.075904e+003, 2.669846e-002
3.077833e+003, 2.732907e-002
3.079761e+003, 2.736463e-002
3.081690e+003, 2.764630e-002
3.083618e+003, 2.785147e-002
3.085547e+003, 2.722749e-002
3.087475e+003, 2.753070e-002
3.089404e+003, 2.750526e-002
3.091332e+003, 2.711246e-002
3.093260e+003, 2.720634e-002
3.095189e+003, 2.882369e-002
3.097117e+003, 3.086152e-002
3.099046e+003, 3.060496e-002
3.100974e+003, 2.888480e-002
3.102903e+003, 2.819803e-002
3.104831e+003, 2.875520e-002
3.106760e+003, 3.000418e-002
3.108688e+003, 2.864751e-002
3.110617e+003, 2.833675e-002
3.112545e+003, 2.795596e-002
3.114474e+003, 2.865360e-002
3.116402e+003, 2.877439e-002
3.118331e+003, 2.614197e-002
3.120259e+003, 2.612114e-002
3.122188e+003, 2.775554e-002
3.124116e+003, 2.725116e-002
3.126044e+003, 2.564202e-002
3.127973e+003, 2.456175e-002
3.129901e+003, 2.647127e-002
3.131830e+003, 2.987945e-002
3.133758e+003, 3.021163e-002
3.135687e+003, 2.875729e-002
3.137615e+003, 2.916354e-002
3.139544e+003, 2.878693e-002
3.141472e+003, 2.784166e-002
3.143401e+003, 2.881506e-002
3.145329e+003, 3.034332e-002
3.147258e+003, 2.876840e-002
3.149186e+003, 2.833811e-002
3.151115e+003, 2.883725e-002
3.153043e+003, 2.967405e-002
3.154971e+003, 2.936492e-002
3.156900e+003, 3.008153e-002
3.158828e+003, 2.907781e-002
3.160757e+003, 2.644874e-002
3.162685e+003, 2.518830e-002
3.164614e+003, 2.751434e-002
3.166542e+003, 2.797830e-002
3.168471e+003, 2.772462e-002
3.170399e+003, 2.772112e-002
3.172328e+003, 2.763546e-002
3.174256e+003, 2.856488e-002
3.176185e+003, 2.855333e-002
3.178113e+003, 3.090424e-002
3.180042e+003, 3.144376e-002
3.181970e+003, 3.132078e-002
3.183898e+003, 3.036456e-002
3.185827e+003, 2.918769e-002
3.187755e+003, 2.860031e-002
3.189684e+003, 2.791401e-002
3.191612e+003, 2.957480e-002
3.193541e+003, 3.131042e-002
3.195469e+003, 3.183267e-002
3.197398e+003, 3.116262e-002
3.199326e+003, 3.056555e-002
3.201255e+003, 2.877828e-002
3.203183e+003, 2.853472e-002
3.205112e+003, 2.993934e-002
3.207040e+003, 3.127268e-002
3.208969e+003, 3.013095e-002
3.210897e+003, 2.838116e-002
3.212825e+003, 2.931970e-002
3.214754e+003, 2.968108e-002
3.216682e+003, 2.962779e-002
3.218611e+003, 3.005411e-002
3.220539e+003, 2.900034e-002
3.222468e+003, 2.809981e-002
3.224396e+003, 2.793951e-002
3.226325e+003, 2.730247e-002
3.228253e+003, 2.796398e-002
3.230182e+003, 2.910116e-002
3.232110e+003, 2.861282e-002
3.234039e+003, 3.020736e-002
3.235967e+003, 3.061500e-002
3.237896e+003, 2.786058e-002
3.239824e+003, 2.842137e-002
3.241752e+003, 3.083419e-002
3.243681e+003, 3.178046e-002
3.245609e+003, 3.006890e-002
3.247538e+003, 2.887888e-002
3.249466e+003, 2.972466e-002
3.251395e+003, 3.186805e-002
3.253323e+003, 3.206679e-002
3.255252e+003, 2.949297e-002
3.257180e+003, 2.981066e-002
3.259109e+003, 3.042046e-002
3.261037e+003, 3.177845e-002
3.262966e+003, 3.310332e-002
3.264894e+003, 3.331570e-002
3.266823e+003, 3.221767e-002
3.268751e+003, 3.231226e-002
3.270679e+003, 3.211958e-002
3.272608e+003, 3.004721e-002
3.274536e+003, 3.018405e-002
3.276465e+003, 3.139374e-002
3.278393e+003, 3.063065e-002
3.280322e+003, 3.041147e-002
3.282250e+003, 3.195103e-002
3.284179e+003, 3.390535e-002
3.286107e+003, 3.244039e-002
3.288036e+003, 2.984963e-002
3.289964e+003, 3.129376e-002
3.291893e+003, 3.098994e-002
3.293821e+003, 2.958201e-002
3.295750e+003, 3.104142e-002
3.297678e+003, 3.033386e-002
3.299606e+003, 3.006162e-002
3.301535e+003, 2.975660e-002
3.303463e+003, 2.893911e-002
3.305392e+003, 2.964288e-002
3.307320e+003, 3.170261e-002
3.309249e+003, 3.303175e-002
3.311177e+003, 3.317304e-002
3.313106e+003, 3.223331e-002
3.315034e+003, 2.922204e-002
3.316963e+003, 2.703918e-002
3.318891e+003, 2.930396e-002
3.320820e+003, 3.134007e-002
3.322748e+003, 2.979662e-002
3.324677e+003, 2.831214e-002
3.326605e+003, 2.852664e-002
3.328533e+003, 2.961490e-002
3.330462e+003, 2.884011e-002
3.332390e+003, 2.847388e-002
3.334319e+003, 2.703309e-002
3.336247e+003, 2.737188e-002
3.338176e+003, 2.978344e-002
3.340104e+003, 3.181515e-002
3.342033e+003, 3.076641e-002
3.343961e+003, 3.203537e-002
3.345890e+003, 3.345921e-002
3.347818e+003, 3.287042e-002
3.349747e+003, 3.213470e-002
3.351675e+003, 3.274859e-002
3.353604e+003, 3.123515e-002
3.355532e+003, 3.119052e-002
3.357460e+003, 3.184481e-002
3.359389e+003, 3.187118e-002
3.361317e+003, 3.395303e-002
3.363246e+003, 3.268694e-002
3.365174e+003, 2.990744e-002
3.367103e+003, 2.977462e-002
3.369031e+003, 2.948240e-002
3.370960e+003, 2.909805e-002
3.372888e+003, 2.893675e-002
3.374817e+003, 2.763294e-002
3.376745e+003, 2.628723e-002
3.378674e+003, 2.737022e-002
3.380602e+003, 2.879159e-002
3.382531e+003, 2.963381e-002
3.384459e+003, 2.898970e-002
3.386387e+003, 2.736253e-002
3.388316e+003, 2.810664e-002
3.390244e+003, 2.901657e-002
3.392173e+003, 3.048838e-002
3.394101e+003, 3.052017e-002
3.396030e+003, 2.944578e-002
3.397958e+003, 2.943183e-002
3.399887e+003, 2.991530e-002
3.401815e+003, 2.910652e-002
3.403744e+003, 2.839119e-002
3.405672e+003, 2.855717e-002
3.407601e+003, 2.890305e-002
3.409529e+003, 2.860045e-002
3.411458e+003, 2.843341e-002
3.413386e+003, 2.737317e-002
3.415314e+003, 2.770071e-002
3.417243e+003, 2.925608e-002
3.419171e+003, 2.938825e-002
3.421100e+003, 2.870537e-002
3.423028e+003, 2.926547e-002
3.424957e+003, 3.107270e-002
3.426885e+003, 3.198706e-002
3.428814e+003, 2.990575e-002
3.430742e+003, 2.818724e-002
3.432671e+003, 2.808080e-002
3.434599e+003, 2.908192e-002
3.436528e+003, 3.055786e-002
3.438456e+003, 3.275860e-002
3.440385e+003, 3.188946e-002
3.442313e+003, 3.085659e-002
3.444241e+003, 3.143844e-002
3.446170e+003, 3.342853e-002
3.448098e+003, 3.437795e-002
3.450027e+003, 3.355759e-002
3.451955e+003, 3.136308e-002
3.453884e+003, 3.269550e-002
3.455812e+003, 3.387056e-002
3.457741e+003, 3.250838e-002
3.459669e+003, 3.138564e-002
3.461598e+003, 3.158210e-002
3.463526e+003, 3.221968e-002
3.465455e+003, 3.241770e-002
3.467383e+003, 3.096509e-002
3.469312e+003, 2.974664e-002
3.471240e+003, 3.077507e-002
3.473168e+003, 3.183916e-002
3.475097e+003, 3.154288e-002
3.477025e+003, 3.209233e-002
3.478954e+003, 3.281702e-002
3.480882e+003, 3.181894e-002
3.482811e+003, 3.290931e-002
3.484739e+003, 3.109675e-002
3.486668e+003, 2.736138e-002
3.488596e+003, 2.707947e-002
3.490525e+003, 3.040398e-002
3.492453e+003, 3.070274e-002
3.494382e+003, 3.108411e-002
3.496310e+003, 3.165452e-002
3.498239e+003, 3.212675e-002
3.500167e+003, 3.174356e-002
3.502095e+003, 2.905897e-002
3.504024e+003, 2.996043e-002
3.505952e+003, 2.953353e-002
3.507881e+003, 2.873644e-002
3.509809e+003, 3.056116e-002
3.511738e+003, 3.303721e-002
3.513666e+003, 3.225382e-002
3.515595e+003, 3.109734e-002
3.517523e+003, 3.107455e-002
3.519452e+003, 3.072900e-002
3.521380e+003, 2.902099e-002
3.523309e+003, 2.980948e-002
3.525237e+003, 3.184521e-002
3.527166e+003, 3.181669e-002
3.529094e+003, 3.007915e-002
3.531022e+003, 2.890516e-002
3.532951e+003, 3.099378e-002
3.534879e+003, 3.061611e-002
3.536808e+003, 2.977577e-002
3.538736e+003, 2.986935e-002
3.540665e+003, 2.885797e-002
3.542593e+003, 3.046285e-002
3.544522e+003, 3.306134e-002
3.546450e+003, 3.154981e-002
3.548379e+003, 2.998347e-002
3.550307e+003, 3.177360e-002
3.552236e+003, 3.406314e-002
3.554164e+003, 3.085787e-002
3.556093e+003, 2.763111e-002
3.558021e+003, 2.811244e-002
3.559949e+003, 2.971986e-002
3.561878e+003, 3.311000e-002
3.563806e+003, 3.154115e-002
3.565735e+003, 2.994582e-002
3.567663e+003, 3.108313e-002
3.569592e+003, 3.064615e-002
3.571520e+003, 3.002119e-002
3.573449e+003, 3.050284e-002
3.575377e+003, 2.934780e-002
3.577306e+003, 2.966395e-002
3.579234e+003, 3.070511e-002
3.581163e+003, 3.241814e-002
3.583091e+003, 2.955014e-002
3.585020e+003, 2.649201e-002
3.586948e+003, 2.770220e-002
3.588876e+003, 3.073131e-002
3.590805e+003, 3.256957e-002
3.592733e+003, 3.107822e-002
3.594662e+003, 2.948073e-002
3.596590e+003, 2.922503e-002
3.598519e+003, 3.068704e-002
3.600447e+003, 3.293248e-002
3.602376e+003, 3.401359e-002
3.604304e+003, 3.435917e-002
3.606233e+003, 3.529510e-002
3.608161e+003, 3.286629e-002
3.610090e+003, 3.016625e-002
3.612018e+003, 3.155651e-002
3.613947e+003, 3.005908e-002
3.615875e+003, 2.696146e-002
3.617803e+003, 3.065835e-002
3.619732e+003, 3.230298e-002
3.621660e+003, 3.174825e-002
3.623589e+003, 3.151844e-002
3.625517e+003, 2.794125e-002
3.627446e+003, 2.580226e-002
3.629374e+003, 2.715289e-002
3.631303e+003, 3.000023e-002
3.633231e+003, 3.034834e-002
3.635160e+003, 3.108942e-002
3.637088e+003, 3.018253e-002
3.639017e+003, 2.985088e-002
3.640945e+003, 3.271150e-002
3.642874e+003, 3.354960e-002
3.644802e+003, 3.175655e-002
3.646730e+003, 3.303044e-002
3.648659e+003, 3.176820e-002
3.650587e+003, 3.067138e-002
3.652516e+003, 2.999837e-002
3.654444e+003, 3.206950e-002
3.656373e+003, 3.244930e-002
3.658301e+003, 2.764113e-002
3.660230e+003, 2.751724e-002
3.662158e+003, 3.112084e-002
3.664087e+003, 3.427532e-002
3.666015e+003, 3.642334e-002
3.667944e+003, 3.462423e-002
3.669872e+003, 3.251499e-002
3.671801e+003, 2.978460e-002
3.673729e+003, 2.896320e-002
3.675657e+003, 2.916928e-002
3.677586e+003, 3.064592e-002
3.679514e+003, 3.348350e-002
3.681443e+003, 3.383629e-002
3.683371e+003, 3.118213e-002
3.685300e+003, 2.840597e-002
3.687228e+003, 2.530491e-002
3.689157e+003, 2.502497e-002
3.691085e+003, 2.683312e-002
3.693014e+003, 3.297781e-002
3.694942e+003, 3.607529e-002
3.696871e+003, 3.319345e-002
3.698799e+003, 3.075585e-002
3.700728e+003, 2.797155e-002
3.702656e+003, 2.867313e-002
3.704584e+003, 3.294006e-002
3.706513e+003, 3.342196e-002
3.708441e+003, 2.936776e-002
3.710370e+003, 2.967916e-002
3.712298e+003, 3.130423e-002
3.714227e+003, 3.001565e-002
3.716155e+003, 2.791651e-002
3.718084e+003, 2.754047e-002
3.720012e+003, 2.739704e-002
3.721941e+003, 2.660078e-002
3.723869e+003, 2.733145e-002
3.725798e+003, 2.830626e-002
3.727726e+003, 2.766630e-002
3.729655e+003, 2.750701e-002
3.731583e+003, 2.771832e-002
3.733511e+003, 2.677628e-002
3.735440e+003, 2.934285e-002
3.737368e+003, 3.055798e-002
3.739297e+003, 3.119452e-002
3.741225e+003, 3.163866e-002
3.743154e+003, 2.859980e-002
3.745082e+003, 2.692702e-002
3.747011e+003, 2.742225e-002
3.748939e+003, 2.530647e-002
3.750868e+003, 2.554785e-002
3.752796e+003, 3.033000e-002
3.754725e+003, 3.203586e-002
3.756653e+003, 2.850913e-002
3.758582e+003, 2.772441e-002
3.760510e+003, 3.030667e-002
3.762438e+003, 3.203658e-002
3.764367e+003, 3.045935e-002
3.766295e+003, 2.624744e-002
3.768224e+003, 2.557957e-002
3.770152e+003, 3.183145e-002
3.772081e+003, 3.473381e-002
3.774009e+003, 3.318497e-002
3.775938e+003, 2.967218e-002
3.777866e+003, 2.651444e-002
3.779795e+003, 2.943126e-002
3.781723e+003, 2.945673e-002
3.783652e+003, 3.061590e-002
3.785580e+003, 3.081183e-002
3.787509e+003, 2.651669e-002
3.789437e+003, 2.318588e-002
3.791365e+003, 2.253518e-002
3.793294e+003, 2.497640e-002
3.795222e+003, 2.655919e-002
3.797151e+003, 2.670017e-002
3.799079e+003, 2.914331e-002
3.801008e+003, 2.880576e-002
3.802936e+003, 2.749788e-002
3.804865e+003, 2.856829e-002
3.806793e+003, 2.848434e-002
3.808722e+003, 2.711388e-002
3.810650e+003, 2.923490e-002
3.812579e+003, 3.194443e-002
3.814507e+003, 2.803345e-002
3.816436e+003, 2.507639e-002
3.818364e+003, 2.874521e-002
3.820292e+003, 3.367655e-002
3.822221e+003, 3.492206e-002
3.824149e+003, 2.957398e-002
3.826078e+003, 2.713666e-002
3.828006e+003, 3.076354e-002
3.829935e+003, 3.192361e-002
3.831863e+003, 2.762648e-002
3.833792e+003, 2.593034e-002
3.835720e+003, 2.958855e-002
3.837649e+003, 3.041053e-002
3.839577e+003, 2.784315e-002
3.841506e+003, 2.973036e-002
3.843434e+003, 3.110769e-002
3.845363e+003, 2.648478e-002
3.847291e+003, 2.568232e-002
3.849219e+003, 2.967698e-002
3.851148e+003, 3.405832e-002
3.853076e+003, 3.516239e-002
3.855005e+003, 3.084507e-002
3.856933e+003, 2.761598e-002
3.858862e+003, 2.619822e-002
3.860790e+003, 2.635009e-002
3.862719e+003, 2.739511e-002
3.864647e+003, 2.840090e-002
3.866576e+003, 2.741543e-002
3.868504e+003, 2.827816e-002
3.870433e+003, 3.103774e-002
3.872361e+003, 2.721272e-002
3.874290e+003, 2.580037e-002
3.876218e+003, 2.734660e-002
3.878146e+003, 2.539460e-002
3.880075e+003, 2.736179e-002
3.882003e+003, 2.857110e-002
3.883932e+003, 2.559972e-002
3.885860e+003, 2.590305e-002
3.887789e+003, 2.702712e-002
3.889717e+003, 2.480531e-002
3.891646e+003, 2.467747e-002
3.893574e+003, 2.578522e-002
3.895503e+003, 2.539255e-002
3.897431e+003, 2.241785e-002
3.899360e+003, 2.508288e-002
3.901288e+003, 2.520445e-002
3.903217e+003, 2.620577e-002
3.905145e+003, 3.023184e-002
3.907073e+003, 2.840106e-002
3.909002e+003, 2.693204e-002
3.910930e+003, 2.743121e-002
3.912859e+003, 2.504012e-002
3.914787e+003, 2.345591e-002
3.916716e+003, 2.525485e-002
3.918644e+003, 2.418833e-002
3.920573e+003, 2.592696e-002
3.922501e+003, 3.001893e-002
3.924430e+003, 2.700795e-002
3.926358e+003, 2.204012e-002
3.928287e+003, 2.581331e-002
3.930215e+003, 3.286422e-002
3.932144e+003, 3.482861e-002
3.934072e+003, 3.306950e-002
3.936000e+003, 2.906004e-002
3.937929e+003, 2.638635e-002
3.939857e+003, 2.844053e-002
3.941786e+003, 3.128335e-002
3.943714e+003, 3.298789e-002
3.945643e+003, 3.157002e-002
3.947571e+003, 2.764395e-002
3.949500e+003, 2.621007e-002
3.951428e+003, 2.708934e-002
3.953357e+003, 2.878505e-002
3.955285e+003, 2.898435e-002
3.957214e+003, 2.877247e-002
3.959142e+003, 2.757860e-002
3.961071e+003, 2.692026e-002
3.962999e+003, 2.795403e-002
3.964927e+003, 2.807019e-002
3.966856e+003, 2.702086e-002
3.968784e+003, 2.903004e-002
3.970713e+003, 3.005022e-002
3.972641e+003, 2.678859e-002
3.974570e+003, 2.618617e-002
3.976498e+003, 2.693383e-002
3.978427e+003, 2.416576e-002
3.980355e+003, 2.109865e-002
3.982284e+003, 2.312762e-002
3.984212e+003, 2.675305e-002
3.986141e+003, 2.568079e-002
3.988069e+003, 2.654559e-002
3.989998e+003, 2.274211e-002
3.991926e+003, 1.912681e-002
3.993854e+003, 2.349553e-002
3.995783e+003, 3.034544e-002
3.997711e+003, 3.014914e-002
3.999640e+003, 2.847664e-002
4.001568e+003, 0.000000e+000
##END=



