##NAMES=Witherite
##RRUFFID=R050148
##IDEAL CHEMISTRY=BaCO_3_
##LOCALITY=Settlingstones mine, Fourstones, Northumberland, England
##OWNER=RRUFF
##SOURCE=Jim McGlasson
##DESCRIPTION=Tan colored crystal fragment
##STATUS=The identification of this mineral has been confirmed by X-ray diffraction and chemical analysis
##URL=rruff.info/R050148
##MEASURED CHEMISTRY=(Ba_0.96_Sr_0.04_)CO_3_
3.741225e+002, 1.983231e-002
3.760510e+002, 1.620027e-002
3.779795e+002, 1.619554e-002
3.799079e+002, 1.709996e-002
3.818364e+002, 1.459154e-002
3.837649e+002, 1.425955e-002
3.856933e+002, 1.454173e-002
3.876218e+002, 1.390636e-002
3.895503e+002, 1.397379e-002
3.914787e+002, 1.253739e-002
3.934072e+002, 1.252330e-002
3.953357e+002, 1.356387e-002
3.972641e+002, 1.252494e-002
3.991926e+002, 1.152657e-002
4.011211e+002, 1.170333e-002
4.030495e+002, 1.199880e-002
4.049780e+002, 1.312968e-002
4.069065e+002, 1.294926e-002
4.088349e+002, 1.099129e-002
4.107634e+002, 9.547501e-003
4.126919e+002, 9.043898e-003
4.146203e+002, 9.632655e-003
4.165488e+002, 1.020670e-002
4.184773e+002, 9.603303e-003
4.204057e+002, 1.016334e-002
4.223342e+002, 1.091137e-002
4.242627e+002, 1.040899e-002
4.261911e+002, 1.037515e-002
4.281196e+002, 1.017376e-002
4.300481e+002, 1.005168e-002
4.319765e+002, 9.529051e-003
4.339050e+002, 8.634141e-003
4.358335e+002, 8.617135e-003
4.377619e+002, 8.981802e-003
4.396904e+002, 8.802838e-003
4.416189e+002, 8.563369e-003
4.435473e+002, 8.162196e-003
4.454758e+002, 7.872539e-003
4.474043e+002, 8.428077e-003
4.493327e+002, 8.276907e-003
4.512612e+002, 7.852630e-003
4.531897e+002, 7.906430e-003
4.551181e+002, 8.252994e-003
4.570466e+002, 7.881533e-003
4.589751e+002, 7.885722e-003
4.609035e+002, 8.324136e-003
4.628320e+002, 8.396328e-003
4.647605e+002, 8.308825e-003
4.666889e+002, 8.024577e-003
4.686174e+002, 7.811839e-003
4.705459e+002, 7.853643e-003
4.724743e+002, 7.991405e-003
4.744028e+002, 7.560534e-003
4.763313e+002, 7.504281e-003
4.782597e+002, 7.802316e-003
4.801882e+002, 7.653973e-003
4.821167e+002, 7.325531e-003
4.840451e+002, 7.456623e-003
4.859736e+002, 7.639492e-003
4.879021e+002, 7.840212e-003
4.898305e+002, 7.721850e-003
4.917590e+002, 7.783291e-003
4.936875e+002, 8.076509e-003
4.956159e+002, 7.948389e-003
4.975444e+002, 7.931904e-003
4.994729e+002, 8.275182e-003
5.014013e+002, 8.403910e-003
5.033298e+002, 8.318136e-003
5.052583e+002, 8.023341e-003
5.071867e+002, 8.048998e-003
5.091152e+002, 8.122719e-003
5.110437e+002, 8.037650e-003
5.129721e+002, 7.888800e-003
5.149006e+002, 8.022644e-003
5.168290e+002, 8.158634e-003
5.187575e+002, 8.006660e-003
5.206860e+002, 8.159414e-003
5.226144e+002, 8.252800e-003
5.245429e+002, 8.321196e-003
5.264714e+002, 8.594057e-003
5.283998e+002, 8.612047e-003
5.303283e+002, 8.620037e-003
5.322568e+002, 8.770509e-003
5.341852e+002, 8.720105e-003
5.361137e+002, 8.900937e-003
5.380422e+002, 9.010872e-003
5.399706e+002, 9.010277e-003
5.418991e+002, 8.954739e-003
5.438276e+002, 9.065085e-003
5.457560e+002, 9.183176e-003
5.476845e+002, 9.401339e-003
5.496130e+002, 9.640786e-003
5.515414e+002, 9.520345e-003
5.534699e+002, 9.523051e-003
5.553984e+002, 9.497670e-003
5.573268e+002, 9.575195e-003
5.592553e+002, 9.591537e-003
5.611838e+002, 9.605886e-003
5.631122e+002, 9.517625e-003
5.650407e+002, 9.363659e-003
5.669692e+002, 9.382052e-003
5.688976e+002, 9.774516e-003
5.708261e+002, 9.834354e-003
5.727546e+002, 9.708123e-003
5.746830e+002, 9.780314e-003
5.766115e+002, 1.005279e-002
5.785400e+002, 1.026027e-002
5.804684e+002, 1.040090e-002
5.823969e+002, 1.054468e-002
5.843254e+002, 1.083850e-002
5.862538e+002, 1.105014e-002
5.881823e+002, 1.119110e-002
5.901108e+002, 1.108619e-002
5.920392e+002, 1.104324e-002
5.939677e+002, 1.128817e-002
5.958962e+002, 1.136484e-002
5.978246e+002, 1.150579e-002
5.997531e+002, 1.163862e-002
6.016816e+002, 1.161317e-002
6.036100e+002, 1.166455e-002
6.055385e+002, 1.174428e-002
6.074670e+002, 1.208485e-002
6.093954e+002, 1.231795e-002
6.113239e+002, 1.231381e-002
6.132524e+002, 1.227155e-002
6.151808e+002, 1.228109e-002
6.171093e+002, 1.228281e-002
6.190378e+002, 1.220565e-002
6.209662e+002, 1.222714e-002
6.228947e+002, 1.243971e-002
6.248232e+002, 1.257772e-002
6.267516e+002, 1.251585e-002
6.286801e+002, 1.264195e-002
6.306086e+002, 1.300199e-002
6.325370e+002, 1.310921e-002
6.344655e+002, 1.321030e-002
6.363940e+002, 1.333457e-002
6.383224e+002, 1.336541e-002
6.402509e+002, 1.359421e-002
6.421794e+002, 1.382321e-002
6.441078e+002, 1.383689e-002
6.460363e+002, 1.409096e-002
6.479648e+002, 1.428297e-002
6.498932e+002, 1.448963e-002
6.518217e+002, 1.473304e-002
6.537502e+002, 1.487689e-002
6.556786e+002, 1.492082e-002
6.576071e+002, 1.497793e-002
6.595356e+002, 1.537161e-002
6.614641e+002, 1.590031e-002
6.633925e+002, 1.631196e-002
6.653210e+002, 1.668636e-002
6.672495e+002, 1.716223e-002
6.691779e+002, 1.782659e-002
6.711064e+002, 1.836414e-002
6.730349e+002, 1.912873e-002
6.749633e+002, 2.013531e-002
6.768918e+002, 2.176774e-002
6.788203e+002, 2.386030e-002
6.807487e+002, 2.607700e-002
6.826772e+002, 2.980658e-002
6.846057e+002, 3.679831e-002
6.865341e+002, 5.044134e-002
6.884626e+002, 7.946700e-002
6.903911e+002, 1.292687e-001
6.923195e+002, 1.692605e-001
6.942480e+002, 1.326277e-001
6.961765e+002, 6.577197e-002
6.981049e+002, 2.906539e-002
7.000334e+002, 1.695090e-002
7.019619e+002, 1.309356e-002
7.038903e+002, 1.174809e-002
7.058188e+002, 1.091435e-002
7.077473e+002, 1.044791e-002
7.096757e+002, 1.045626e-002
7.116042e+002, 1.075220e-002
7.135327e+002, 1.106283e-002
7.154611e+002, 1.134952e-002
7.173896e+002, 1.152728e-002
7.193181e+002, 1.164279e-002
7.212465e+002, 1.195016e-002
7.231750e+002, 1.214434e-002
7.251035e+002, 1.228667e-002
7.270319e+002, 1.256266e-002
7.289604e+002, 1.265741e-002
7.308889e+002, 1.270280e-002
7.328173e+002, 1.291861e-002
7.347458e+002, 1.312957e-002
7.366743e+002, 1.340928e-002
7.386027e+002, 1.351235e-002
7.405312e+002, 1.359207e-002
7.424597e+002, 1.384878e-002
7.443881e+002, 1.406714e-002
7.463166e+002, 1.420133e-002
7.482451e+002, 1.448350e-002
7.501735e+002, 1.472095e-002
7.521020e+002, 1.472655e-002
7.540305e+002, 1.483446e-002
7.559589e+002, 1.501359e-002
7.578874e+002, 1.527536e-002
7.598159e+002, 1.556042e-002
7.617443e+002, 1.565476e-002
7.636728e+002, 1.589439e-002
7.656013e+002, 1.629244e-002
7.675297e+002, 1.639713e-002
7.694582e+002, 1.635305e-002
7.713867e+002, 1.631459e-002
7.733151e+002, 1.640625e-002
7.752436e+002, 1.668148e-002
7.771721e+002, 1.697218e-002
7.791005e+002, 1.708629e-002
7.810290e+002, 1.713318e-002
7.829575e+002, 1.718918e-002
7.848859e+002, 1.732156e-002
7.868144e+002, 1.743898e-002
7.887429e+002, 1.760688e-002
7.906713e+002, 1.793368e-002
7.925998e+002, 1.822903e-002
7.945283e+002, 1.835634e-002
7.964567e+002, 1.859384e-002
7.983852e+002, 1.885321e-002
8.003137e+002, 1.906863e-002
8.022421e+002, 1.914224e-002
8.041706e+002, 1.939519e-002
8.060991e+002, 1.982356e-002
8.080275e+002, 2.031828e-002
8.099560e+002, 2.069773e-002
8.118845e+002, 2.100331e-002
8.138129e+002, 2.143471e-002
8.157414e+002, 2.195477e-002
8.176699e+002, 2.234625e-002
8.195983e+002, 2.296505e-002
8.215268e+002, 2.362407e-002
8.234553e+002, 2.453982e-002
8.253837e+002, 2.564215e-002
8.273122e+002, 2.716598e-002
8.292407e+002, 2.928638e-002
8.311691e+002, 3.225894e-002
8.330976e+002, 3.629865e-002
8.350261e+002, 4.245741e-002
8.369545e+002, 5.241515e-002
8.388830e+002, 6.451201e-002
8.408115e+002, 6.819735e-002
8.427399e+002, 6.889531e-002
8.446684e+002, 7.984047e-002
8.465969e+002, 9.885979e-002
8.485253e+002, 1.224937e-001
8.504538e+002, 1.509328e-001
8.523823e+002, 1.849324e-001
8.543107e+002, 2.178176e-001
8.562392e+002, 2.307035e-001
8.581677e+002, 2.098461e-001
8.600961e+002, 1.634013e-001
8.620246e+002, 1.098788e-001
8.639531e+002, 6.670708e-002
8.658815e+002, 4.230613e-002
8.678100e+002, 3.223615e-002
8.697385e+002, 2.827895e-002
8.716669e+002, 2.651356e-002
8.735954e+002, 2.554534e-002
8.755239e+002, 2.498926e-002
8.774523e+002, 2.453979e-002
8.793808e+002, 2.420181e-002
8.813093e+002, 2.415714e-002
8.832377e+002, 2.450038e-002
8.851662e+002, 2.463364e-002
8.870947e+002, 2.394131e-002
8.890231e+002, 2.299704e-002
8.909516e+002, 2.259769e-002
8.928801e+002, 2.260501e-002
8.948085e+002, 2.258181e-002
8.967370e+002, 2.244300e-002
8.986655e+002, 2.239620e-002
9.005939e+002, 2.241699e-002
9.025224e+002, 2.246002e-002
9.044509e+002, 2.244598e-002
9.063793e+002, 2.233030e-002
9.083078e+002, 2.224870e-002
9.102363e+002, 2.217866e-002
9.121647e+002, 2.208725e-002
9.140932e+002, 2.211332e-002
9.160217e+002, 2.230299e-002
9.179501e+002, 2.252904e-002
9.198786e+002, 2.287761e-002
9.218071e+002, 2.312738e-002
9.237355e+002, 2.329161e-002
9.256640e+002, 2.358263e-002
9.275925e+002, 2.376493e-002
9.295209e+002, 2.374554e-002
9.314494e+002, 2.372077e-002
9.333779e+002, 2.378749e-002
9.353063e+002, 2.392916e-002
9.372348e+002, 2.400775e-002
9.391633e+002, 2.408141e-002
9.410917e+002, 2.428377e-002
9.430202e+002, 2.447296e-002
9.449487e+002, 2.449774e-002
9.468771e+002, 2.465699e-002
9.488056e+002, 2.497404e-002
9.507341e+002, 2.516523e-002
9.526625e+002, 2.534552e-002
9.545910e+002, 2.563959e-002
9.565195e+002, 2.586061e-002
9.584479e+002, 2.613580e-002
9.603764e+002, 2.638489e-002
9.623049e+002, 2.658127e-002
9.642333e+002, 2.669331e-002
9.661618e+002, 2.693583e-002
9.680903e+002, 2.705295e-002
9.700187e+002, 2.723927e-002
9.719472e+002, 2.759857e-002
9.738757e+002, 2.789572e-002
9.758041e+002, 2.818148e-002
9.777326e+002, 2.852060e-002
9.796611e+002, 2.872105e-002
9.815895e+002, 2.899835e-002
9.835180e+002, 2.926194e-002
9.854465e+002, 2.961097e-002
9.873749e+002, 2.997741e-002
9.893034e+002, 3.035231e-002
9.912319e+002, 3.066689e-002
9.931603e+002, 3.099403e-002
9.950888e+002, 3.127927e-002
9.970173e+002, 3.148727e-002
9.989457e+002, 3.178338e-002
1.000874e+003, 3.229006e-002
1.002803e+003, 3.271912e-002
1.004731e+003, 3.296052e-002
1.006660e+003, 3.311732e-002
1.008588e+003, 3.344154e-002
1.010517e+003, 3.370957e-002
1.012445e+003, 3.408442e-002
1.014373e+003, 3.436233e-002
1.016302e+003, 3.484569e-002
1.018230e+003, 3.514853e-002
1.020159e+003, 3.540629e-002
1.022087e+003, 3.562288e-002
1.024016e+003, 3.600509e-002
1.025944e+003, 3.614268e-002
1.027873e+003, 3.634054e-002
1.029801e+003, 3.645429e-002
1.031730e+003, 3.670496e-002
1.033658e+003, 3.695169e-002
1.035587e+003, 3.742524e-002
1.037515e+003, 3.771635e-002
1.039443e+003, 3.799501e-002
1.041372e+003, 3.805056e-002
1.043300e+003, 3.845296e-002
1.045229e+003, 3.881966e-002
1.047157e+003, 3.944013e-002
1.049086e+003, 3.966026e-002
1.051014e+003, 4.027992e-002
1.052943e+003, 4.091416e-002
1.054871e+003, 4.298622e-002
1.056800e+003, 5.120286e-002
1.058728e+003, 7.061492e-002
1.060657e+003, 7.077796e-002
1.062585e+003, 5.068525e-002
1.064514e+003, 4.202634e-002
1.066442e+003, 4.038267e-002
1.068370e+003, 4.032307e-002
1.070299e+003, 4.035996e-002
1.072227e+003, 4.073779e-002
1.074156e+003, 4.076025e-002
1.076084e+003, 4.107680e-002
1.078013e+003, 4.127421e-002
1.079941e+003, 4.176519e-002
1.081870e+003, 4.192931e-002
1.083798e+003, 4.220198e-002
1.085727e+003, 4.249311e-002
1.087655e+003, 4.293558e-002
1.089584e+003, 4.318424e-002
1.091512e+003, 4.364433e-002
1.093441e+003, 4.398508e-002
1.095369e+003, 4.437790e-002
1.097297e+003, 4.476202e-002
1.099226e+003, 4.517736e-002
1.101154e+003, 4.541058e-002
1.103083e+003, 4.592384e-002
1.105011e+003, 4.633515e-002
1.106940e+003, 4.677102e-002
1.108868e+003, 4.711778e-002
1.110797e+003, 4.760103e-002
1.112725e+003, 4.797906e-002
1.114654e+003, 4.838716e-002
1.116582e+003, 4.870925e-002
1.118511e+003, 4.893563e-002
1.120439e+003, 4.910159e-002
1.122368e+003, 4.954315e-002
1.124296e+003, 4.977890e-002
1.126224e+003, 5.002882e-002
1.128153e+003, 5.040511e-002
1.130081e+003, 5.083329e-002
1.132010e+003, 5.125117e-002
1.133938e+003, 5.192400e-002
1.135867e+003, 5.242814e-002
1.137795e+003, 5.290848e-002
1.139724e+003, 5.341146e-002
1.141652e+003, 5.394279e-002
1.143581e+003, 5.446425e-002
1.145509e+003, 5.513474e-002
1.147438e+003, 5.585195e-002
1.149366e+003, 5.646214e-002
1.151295e+003, 5.686973e-002
1.153223e+003, 5.736547e-002
1.155151e+003, 5.784275e-002
1.157080e+003, 5.835927e-002
1.159008e+003, 5.870340e-002
1.160937e+003, 5.909886e-002
1.162865e+003, 5.956588e-002
1.164794e+003, 6.007859e-002
1.166722e+003, 6.060361e-002
1.168651e+003, 6.118507e-002
1.170579e+003, 6.191944e-002
1.172508e+003, 6.272681e-002
1.174436e+003, 6.352969e-002
1.176365e+003, 6.418350e-002
1.178293e+003, 6.467350e-002
1.180222e+003, 6.524015e-002
1.182150e+003, 6.589970e-002
1.184078e+003, 6.654228e-002
1.186007e+003, 6.725583e-002
1.187935e+003, 6.804863e-002
1.189864e+003, 6.878341e-002
1.191792e+003, 6.961532e-002
1.193721e+003, 7.042944e-002
1.195649e+003, 7.130405e-002
1.197578e+003, 7.207078e-002
1.199506e+003, 7.289348e-002
1.201435e+003, 7.393377e-002
1.203363e+003, 7.505710e-002
1.205292e+003, 7.600087e-002
1.207220e+003, 7.705362e-002
1.209149e+003, 7.820502e-002
1.211077e+003, 7.931380e-002
1.213005e+003, 8.044765e-002
1.214934e+003, 8.148652e-002
1.216862e+003, 8.241396e-002
1.218791e+003, 8.331820e-002
1.220719e+003, 8.427382e-002
1.222648e+003, 8.535938e-002
1.224576e+003, 8.648575e-002
1.226505e+003, 8.767018e-002
1.228433e+003, 8.871832e-002
1.230362e+003, 8.989086e-002
1.232290e+003, 9.127770e-002
1.234219e+003, 9.269867e-002
1.236147e+003, 9.416518e-002
1.238076e+003, 9.576885e-002
1.240004e+003, 9.737743e-002
1.241932e+003, 9.901869e-002
1.243861e+003, 1.005342e-001
1.245789e+003, 1.020628e-001
1.247718e+003, 1.036281e-001
1.249646e+003, 1.052633e-001
1.251575e+003, 1.069772e-001
1.253503e+003, 1.086281e-001
1.255432e+003, 1.103050e-001
1.257360e+003, 1.121024e-001
1.259289e+003, 1.139534e-001
1.261217e+003, 1.157770e-001
1.263146e+003, 1.177092e-001
1.265074e+003, 1.196316e-001
1.267003e+003, 1.215480e-001
1.268931e+003, 1.235927e-001
1.270859e+003, 1.256593e-001
1.272788e+003, 1.279389e-001
1.274716e+003, 1.305365e-001
1.276645e+003, 1.331908e-001
1.278573e+003, 1.355985e-001
1.280502e+003, 1.382213e-001
1.282430e+003, 1.411227e-001
1.284359e+003, 1.438886e-001
1.286287e+003, 1.464322e-001
1.288216e+003, 1.489205e-001
1.290144e+003, 1.515857e-001
1.292073e+003, 1.544181e-001
1.294001e+003, 1.572316e-001
1.295930e+003, 1.598981e-001
1.297858e+003, 1.624774e-001
1.299786e+003, 1.652407e-001
1.301715e+003, 1.681387e-001
1.303643e+003, 1.709689e-001
1.305572e+003, 1.738263e-001
1.307500e+003, 1.769884e-001
1.309429e+003, 1.802041e-001
1.311357e+003, 1.833684e-001
1.313286e+003, 1.864815e-001
1.315214e+003, 1.898163e-001
1.317143e+003, 1.932507e-001
1.319071e+003, 1.967399e-001
1.321000e+003, 2.004246e-001
1.322928e+003, 2.043399e-001
1.324857e+003, 2.083722e-001
1.326785e+003, 2.125707e-001
1.328714e+003, 2.168416e-001
1.330642e+003, 2.209900e-001
1.332570e+003, 2.254777e-001
1.334499e+003, 2.302484e-001
1.336427e+003, 2.351024e-001
1.338356e+003, 2.402277e-001
1.340284e+003, 2.455167e-001
1.342213e+003, 2.509288e-001
1.344141e+003, 2.565804e-001
1.346070e+003, 2.624717e-001
1.347998e+003, 2.685597e-001
1.349927e+003, 2.748698e-001
1.351855e+003, 2.814500e-001
1.353784e+003, 2.881730e-001
1.355712e+003, 2.951263e-001
1.357641e+003, 3.025317e-001
1.359569e+003, 3.102264e-001
1.361497e+003, 3.182682e-001
1.363426e+003, 3.267752e-001
1.365354e+003, 3.353965e-001
1.367283e+003, 3.435844e-001
1.369211e+003, 3.502298e-001
1.371140e+003, 3.562844e-001
1.373068e+003, 3.637348e-001
1.374997e+003, 3.707984e-001
1.376925e+003, 3.764808e-001
1.378854e+003, 3.838229e-001
1.380782e+003, 3.933501e-001
1.382711e+003, 4.038424e-001
1.384639e+003, 4.146172e-001
1.386568e+003, 4.253964e-001
1.388496e+003, 4.364632e-001
1.390424e+003, 4.476335e-001
1.392353e+003, 4.588711e-001
1.394281e+003, 4.701624e-001
1.396210e+003, 4.816465e-001
1.398138e+003, 4.932643e-001
1.400067e+003, 5.049909e-001
1.401995e+003, 5.169557e-001
1.403924e+003, 5.282475e-001
1.405852e+003, 5.387390e-001
1.407781e+003, 5.485406e-001
1.409709e+003, 5.572978e-001
1.411638e+003, 5.632434e-001
1.413566e+003, 5.642102e-001
1.415495e+003, 5.594587e-001
1.417423e+003, 5.508848e-001
1.419351e+003, 5.404736e-001
1.421280e+003, 5.286247e-001
1.423208e+003, 5.153279e-001
1.425137e+003, 5.006761e-001
1.427065e+003, 4.845984e-001
1.428994e+003, 4.679841e-001
1.430922e+003, 4.509121e-001
1.432851e+003, 4.335679e-001
1.434779e+003, 4.162114e-001
1.436708e+003, 3.990883e-001
1.438636e+003, 3.827063e-001
1.440565e+003, 3.669895e-001
1.442493e+003, 3.519955e-001
1.444422e+003, 3.378661e-001
1.446350e+003, 3.244290e-001
1.448278e+003, 3.116774e-001
1.450207e+003, 2.997356e-001
1.452135e+003, 2.883568e-001
1.454064e+003, 2.771054e-001
1.455992e+003, 2.663073e-001
1.457921e+003, 2.561022e-001
1.459849e+003, 2.464955e-001
1.461778e+003, 2.371804e-001
1.463706e+003, 2.281200e-001
1.465635e+003, 2.193064e-001
1.467563e+003, 2.108768e-001
1.469492e+003, 2.027052e-001
1.471420e+003, 1.949368e-001
1.473349e+003, 1.877284e-001
1.475277e+003, 1.809248e-001
1.477205e+003, 1.743031e-001
1.479134e+003, 1.678602e-001
1.481062e+003, 1.616517e-001
1.482991e+003, 1.557969e-001
1.484919e+003, 1.500645e-001
1.486848e+003, 1.444279e-001
1.488776e+003, 1.388597e-001
1.490705e+003, 1.333676e-001
1.492633e+003, 1.280132e-001
1.494562e+003, 1.227255e-001
1.496490e+003, 1.171205e-001
1.498419e+003, 1.111163e-001
1.500347e+003, 1.048755e-001
1.502276e+003, 9.826479e-002
1.504204e+003, 9.131525e-002
1.506132e+003, 8.427217e-002
1.508061e+003, 7.731943e-002
1.509989e+003, 7.032343e-002
1.511918e+003, 6.272438e-002
1.513846e+003, 5.479180e-002
1.515775e+003, 4.672116e-002
1.517703e+003, 3.916907e-002
1.519632e+003, 3.270860e-002
1.521560e+003, 2.767406e-002
1.523489e+003, 2.419310e-002
1.525417e+003, 2.166867e-002
1.527346e+003, 1.982980e-002
1.529274e+003, 1.858331e-002
1.531203e+003, 1.756053e-002
1.533131e+003, 1.658337e-002
1.535059e+003, 1.607501e-002
1.536988e+003, 1.569190e-002
1.538916e+003, 1.509352e-002
1.540845e+003, 1.488745e-002
1.542773e+003, 1.490316e-002
1.544702e+003, 1.494623e-002
1.546630e+003, 1.528891e-002
1.548559e+003, 1.549728e-002
1.550487e+003, 1.547957e-002
1.552416e+003, 1.535220e-002
1.554344e+003, 1.524420e-002
1.556273e+003, 1.528247e-002
1.558201e+003, 1.504327e-002
1.560130e+003, 1.498509e-002
1.562058e+003, 1.515978e-002
1.563986e+003, 1.506325e-002
1.565915e+003, 1.494747e-002
1.567843e+003, 1.475211e-002
1.569772e+003, 1.451018e-002
1.571700e+003, 1.442785e-002
1.573629e+003, 1.420536e-002
1.575557e+003, 1.363932e-002
1.577486e+003, 1.335146e-002
1.579414e+003, 1.323231e-002
1.581343e+003, 1.300615e-002
1.583271e+003, 1.271804e-002
1.585200e+003, 1.232236e-002
1.587128e+003, 1.199035e-002
1.589057e+003, 1.166919e-002
1.590985e+003, 1.132546e-002
1.592913e+003, 1.094887e-002
1.594842e+003, 1.077790e-002
1.596770e+003, 1.067767e-002
1.598699e+003, 1.046295e-002
1.600627e+003, 1.026713e-002
1.602556e+003, 1.011575e-002
1.604484e+003, 9.904531e-003
1.606413e+003, 9.717461e-003
1.608341e+003, 9.582860e-003
1.610270e+003, 9.399864e-003
1.612198e+003, 9.221977e-003
1.614127e+003, 8.945580e-003
1.616055e+003, 8.497813e-003
1.617984e+003, 8.367914e-003
1.619912e+003, 8.477513e-003
1.621840e+003, 8.353112e-003
1.623769e+003, 8.128158e-003
1.625697e+003, 8.058968e-003
1.627626e+003, 8.080311e-003
1.629554e+003, 8.105941e-003
1.631483e+003, 8.221677e-003
1.633411e+003, 8.065622e-003
1.635340e+003, 7.690792e-003
1.637268e+003, 7.677376e-003
1.639197e+003, 7.756753e-003
1.641125e+003, 7.713327e-003
1.643054e+003, 7.641716e-003
1.644982e+003, 7.351600e-003
1.646911e+003, 7.084385e-003
1.648839e+003, 7.118062e-003
1.650767e+003, 6.847630e-003
1.652696e+003, 6.213604e-003
1.654624e+003, 6.339042e-003
1.656553e+003, 6.518389e-003
1.658481e+003, 6.519490e-003
1.660410e+003, 6.457567e-003
1.662338e+003, 6.158467e-003
1.664267e+003, 5.971926e-003
1.666195e+003, 5.836912e-003
1.668124e+003, 5.784886e-003
1.670052e+003, 5.776848e-003
1.671981e+003, 5.584133e-003
1.673909e+003, 5.245581e-003
1.675838e+003, 5.141452e-003
1.677766e+003, 5.305040e-003
1.679694e+003, 5.271223e-003
1.681623e+003, 5.057249e-003
1.683551e+003, 4.584353e-003
1.685480e+003, 4.430862e-003
1.687408e+003, 4.567456e-003
1.689337e+003, 4.514495e-003
1.691265e+003, 4.502170e-003
1.693194e+003, 4.291424e-003
1.695122e+003, 3.926476e-003
1.697051e+003, 4.082857e-003
1.698979e+003, 4.082401e-003
1.700908e+003, 4.004924e-003
1.702836e+003, 4.144775e-003
1.704765e+003, 4.179064e-003
1.706693e+003, 4.298620e-003
1.708621e+003, 4.246138e-003
1.710550e+003, 4.150328e-003
1.712478e+003, 4.080206e-003
1.714407e+003, 3.956411e-003
1.716335e+003, 3.838866e-003
1.718264e+003, 4.050256e-003
1.720192e+003, 4.508181e-003
1.722121e+003, 4.662219e-003
1.724049e+003, 4.698596e-003
1.725978e+003, 4.692630e-003
1.727906e+003, 4.721494e-003
1.729835e+003, 4.800538e-003
1.731763e+003, 4.813165e-003
1.733692e+003, 4.733198e-003
1.735620e+003, 4.984223e-003
1.737548e+003, 5.363772e-003
1.739477e+003, 5.953497e-003
1.741405e+003, 7.116955e-003
1.743334e+003, 9.582616e-003
1.745262e+003, 1.462137e-002
1.747191e+003, 2.359463e-002
1.749119e+003, 3.242437e-002
1.751048e+003, 3.468135e-002
1.752976e+003, 3.190473e-002
1.754905e+003, 2.836484e-002
1.756833e+003, 2.461277e-002
1.758762e+003, 1.904443e-002
1.760690e+003, 1.321123e-002
1.762619e+003, 9.242016e-003
1.764547e+003, 7.126491e-003
1.766475e+003, 6.027556e-003
1.768404e+003, 5.521991e-003
1.770332e+003, 5.115793e-003
1.772261e+003, 4.876908e-003
1.774189e+003, 5.088652e-003
1.776118e+003, 5.307298e-003
1.778046e+003, 5.323679e-003
1.779975e+003, 5.311755e-003
1.781903e+003, 5.209381e-003
1.783832e+003, 5.349213e-003
1.785760e+003, 5.607476e-003
1.787689e+003, 5.579583e-003
1.789617e+003, 5.431587e-003
1.791546e+003, 5.314906e-003
1.793474e+003, 5.444430e-003
1.795402e+003, 5.648900e-003
1.797331e+003, 5.580288e-003
1.799259e+003, 5.299796e-003
1.801188e+003, 5.368029e-003
1.803116e+003, 5.608240e-003
1.805045e+003, 5.785272e-003
1.806973e+003, 5.868722e-003
1.808902e+003, 5.963093e-003
1.810830e+003, 5.962256e-003
1.812759e+003, 5.942401e-003
1.814687e+003, 5.873905e-003
1.816616e+003, 5.773788e-003
1.818544e+003, 6.131803e-003
1.820473e+003, 6.404183e-003
1.822401e+003, 6.465817e-003
1.824329e+003, 6.286012e-003
1.826258e+003, 6.107808e-003
1.828186e+003, 6.158638e-003
1.830115e+003, 6.185913e-003
1.832043e+003, 6.499783e-003
1.833972e+003, 6.513978e-003
1.835900e+003, 6.555848e-003
1.837829e+003, 6.871746e-003
1.839757e+003, 6.840406e-003
1.841686e+003, 6.632990e-003
1.843614e+003, 6.571013e-003
1.845543e+003, 6.828119e-003
1.847471e+003, 6.863283e-003
1.849400e+003, 6.747589e-003
1.851328e+003, 6.815312e-003
1.853256e+003, 7.013545e-003
1.855185e+003, 7.036780e-003
1.857113e+003, 6.784297e-003
1.859042e+003, 6.948329e-003
1.860970e+003, 7.266693e-003
1.862899e+003, 7.206587e-003
1.864827e+003, 7.123407e-003
1.866756e+003, 6.977659e-003
1.868684e+003, 6.968755e-003
1.870613e+003, 6.953567e-003
1.872541e+003, 6.955166e-003
1.874470e+003, 7.107547e-003
1.876398e+003, 7.231836e-003
1.878327e+003, 7.482496e-003
1.880255e+003, 7.594367e-003
1.882183e+003, 7.330648e-003
1.884112e+003, 7.344206e-003
1.886040e+003, 7.483267e-003
1.887969e+003, 7.260211e-003
1.889897e+003, 6.978643e-003
1.891826e+003, 7.113224e-003
1.893754e+003, 7.124716e-003
1.895683e+003, 7.244819e-003
1.897611e+003, 7.560333e-003
1.899540e+003, 7.635222e-003
1.901468e+003, 7.623007e-003
1.903397e+003, 7.958293e-003
1.905325e+003, 8.027934e-003
1.907254e+003, 7.695442e-003
1.909182e+003, 7.900285e-003
1.911110e+003, 8.006402e-003
1.913039e+003, 7.710787e-003
1.914967e+003, 7.511538e-003
1.916896e+003, 7.667293e-003
1.918824e+003, 8.081859e-003
1.920753e+003, 8.086704e-003
1.922681e+003, 8.022523e-003
1.924610e+003, 7.710183e-003
1.926538e+003, 7.305171e-003
1.928467e+003, 7.609753e-003
1.930395e+003, 7.860024e-003
1.932324e+003, 7.825611e-003
1.934252e+003, 7.523225e-003
1.936181e+003, 7.267960e-003
1.938109e+003, 7.943877e-003
1.940037e+003, 8.470937e-003
1.941966e+003, 8.068882e-003
1.943894e+003, 7.635469e-003
1.945823e+003, 7.962152e-003
1.947751e+003, 7.968415e-003
1.949680e+003, 7.790666e-003
1.951608e+003, 8.167380e-003
1.953537e+003, 8.297478e-003
1.955465e+003, 7.953274e-003
1.957394e+003, 7.913917e-003
1.959322e+003, 8.381056e-003
1.961251e+003, 8.750003e-003
1.963179e+003, 7.974076e-003
1.965108e+003, 8.121124e-003
1.967036e+003, 7.902511e-003
1.968964e+003, 7.977951e-003
1.970893e+003, 8.799157e-003
1.972821e+003, 9.220635e-003
1.974750e+003, 9.263379e-003
1.976678e+003, 9.967744e-003
1.978607e+003, 1.226813e-002
1.980535e+003, 1.284636e-002
1.982464e+003, 1.108792e-002
1.984392e+003, 1.072901e-002
1.986321e+003, 1.104750e-002
1.988249e+003, 1.045481e-002
1.990178e+003, 1.027281e-002
1.992106e+003, 1.028651e-002
1.994035e+003, 9.651702e-003
1.995963e+003, 9.928178e-003
1.997891e+003, 9.650356e-003
1.999820e+003, 9.739542e-003
2.001748e+003, 9.579118e-003
2.003677e+003, 8.657949e-003
2.005605e+003, 8.799590e-003
2.007534e+003, 9.541368e-003
2.009462e+003, 1.098126e-002
2.011391e+003, 1.096764e-002
2.013319e+003, 9.929087e-003
2.015248e+003, 9.750192e-003
2.017176e+003, 1.037673e-002
2.019105e+003, 1.090104e-002
2.021033e+003, 1.027678e-002
2.022962e+003, 9.453424e-003
2.024890e+003, 1.035219e-002
2.026818e+003, 1.158556e-002
2.028747e+003, 1.187963e-002
2.030675e+003, 1.206600e-002
2.032604e+003, 1.200045e-002
2.034532e+003, 1.254836e-002
2.036461e+003, 1.192637e-002
2.038389e+003, 1.114118e-002
2.040318e+003, 1.082030e-002
2.042246e+003, 1.086088e-002
2.044175e+003, 1.175972e-002
2.046103e+003, 1.217644e-002
2.048031e+003, 1.257779e-002
2.049960e+003, 1.357422e-002
2.051888e+003, 1.221314e-002
2.053817e+003, 1.120380e-002
2.055745e+003, 1.160736e-002
2.057674e+003, 1.149815e-002
2.059602e+003, 1.134981e-002
2.061531e+003, 1.140229e-002
2.063459e+003, 1.163949e-002
2.065388e+003, 1.171235e-002
2.067316e+003, 1.157409e-002
2.069245e+003, 1.180501e-002
2.071173e+003, 1.176511e-002
2.073102e+003, 1.153614e-002
2.075030e+003, 1.148322e-002
2.076958e+003, 1.164704e-002
2.078887e+003, 1.198928e-002
2.080815e+003, 1.226482e-002
2.082744e+003, 1.245018e-002
2.084672e+003, 1.208824e-002
2.086601e+003, 1.111685e-002
2.088529e+003, 1.078868e-002
2.090458e+003, 1.055972e-002
2.092386e+003, 1.039174e-002
2.094315e+003, 1.086919e-002
2.096243e+003, 1.132405e-002
2.098172e+003, 1.156362e-002
2.100100e+003, 1.190215e-002
2.102029e+003, 1.218733e-002
2.103957e+003, 1.237374e-002
2.105885e+003, 1.215567e-002
2.107814e+003, 1.184433e-002
2.109742e+003, 1.196536e-002
2.111671e+003, 1.214304e-002
2.113599e+003, 1.238395e-002
2.115528e+003, 1.157621e-002
2.117456e+003, 1.030061e-002
2.119385e+003, 9.864194e-003
2.121313e+003, 1.018440e-002
2.123242e+003, 1.023293e-002
2.125170e+003, 9.917456e-003
2.127099e+003, 9.383690e-003
2.129027e+003, 8.786868e-003
2.130956e+003, 8.032432e-003
2.132884e+003, 7.153242e-003
2.134813e+003, 7.255662e-003
2.136741e+003, 8.239653e-003
2.138669e+003, 9.484416e-003
2.140598e+003, 9.450979e-003
2.142526e+003, 8.139494e-003
2.144455e+003, 7.198134e-003
2.146383e+003, 7.481295e-003
2.148312e+003, 7.901852e-003
2.150240e+003, 7.587607e-003
2.152169e+003, 7.172359e-003
2.154097e+003, 6.430000e-003
2.156026e+003, 6.111621e-003
2.157954e+003, 8.843096e-003
2.159883e+003, 1.367128e-002
2.161811e+003, 1.436330e-002
2.163740e+003, 1.367605e-002
2.165668e+003, 1.401019e-002
2.167596e+003, 1.341554e-002
2.169525e+003, 1.215658e-002
2.171453e+003, 1.075029e-002
2.173382e+003, 9.762842e-003
2.175310e+003, 1.017374e-002
2.177239e+003, 1.121553e-002
2.179167e+003, 1.160154e-002
2.181096e+003, 1.172543e-002
2.183024e+003, 1.198196e-002
2.184953e+003, 1.158250e-002
2.186881e+003, 1.209956e-002
2.188810e+003, 1.223614e-002
2.190738e+003, 1.161331e-002
2.192667e+003, 1.261514e-002
2.194595e+003, 1.314372e-002
2.196523e+003, 1.220628e-002
2.198452e+003, 1.218107e-002
2.200380e+003, 1.204031e-002
2.202309e+003, 1.217228e-002
2.204237e+003, 1.284114e-002
2.206166e+003, 1.218390e-002
2.208094e+003, 1.106069e-002
2.210023e+003, 1.119991e-002
2.211951e+003, 1.187038e-002
2.213880e+003, 1.168869e-002
2.215808e+003, 1.094411e-002
2.217737e+003, 1.094019e-002
2.219665e+003, 1.133145e-002
2.221594e+003, 1.217450e-002
2.223522e+003, 1.197059e-002
2.225450e+003, 1.125825e-002
2.227379e+003, 1.173397e-002
2.229307e+003, 1.176521e-002
2.231236e+003, 1.189236e-002
2.233164e+003, 1.215923e-002
2.235093e+003, 1.136323e-002
2.237021e+003, 1.088314e-002
2.238950e+003, 1.138952e-002
2.240878e+003, 1.213432e-002
2.242807e+003, 1.238415e-002
2.244735e+003, 1.287499e-002
2.246664e+003, 1.339752e-002
2.248592e+003, 1.270567e-002
2.250521e+003, 1.220111e-002
2.252449e+003, 1.197362e-002
2.254377e+003, 1.240915e-002
2.256306e+003, 1.309264e-002
2.258234e+003, 1.273681e-002
2.260163e+003, 1.261728e-002
2.262091e+003, 1.279850e-002
2.264020e+003, 1.227292e-002
2.265948e+003, 1.212625e-002
2.267877e+003, 1.318758e-002
2.269805e+003, 1.422794e-002
2.271734e+003, 1.410273e-002
2.273662e+003, 1.411264e-002
2.275591e+003, 1.420187e-002
2.277519e+003, 1.443517e-002
2.279448e+003, 1.441896e-002
2.281376e+003, 1.439527e-002
2.283304e+003, 1.493317e-002
2.285233e+003, 1.583423e-002
2.287161e+003, 1.560861e-002
2.289090e+003, 1.490479e-002
2.291018e+003, 1.447814e-002
2.292947e+003, 1.420892e-002
2.294875e+003, 1.400577e-002
2.296804e+003, 1.393928e-002
2.298732e+003, 1.377946e-002
2.300661e+003, 1.365569e-002
2.302589e+003, 1.381805e-002
2.304518e+003, 1.421927e-002
2.306446e+003, 1.428319e-002
2.308375e+003, 1.444798e-002
2.310303e+003, 1.461135e-002
2.312231e+003, 1.450026e-002
2.314160e+003, 1.442375e-002
2.316088e+003, 1.478087e-002
2.318017e+003, 1.510827e-002
2.319945e+003, 1.538391e-002
2.321874e+003, 1.579291e-002
2.323802e+003, 1.617126e-002
2.325731e+003, 1.539528e-002
2.327659e+003, 1.435424e-002
2.329588e+003, 1.378967e-002
2.331516e+003, 1.352687e-002
2.333445e+003, 1.367519e-002
2.335373e+003, 1.384235e-002
2.337302e+003, 1.383204e-002
2.339230e+003, 1.362230e-002
2.341158e+003, 1.341341e-002
2.343087e+003, 1.344625e-002
2.345015e+003, 1.371024e-002
2.346944e+003, 1.382438e-002
2.348872e+003, 1.376829e-002
2.350801e+003, 1.363008e-002
2.352729e+003, 1.372034e-002
2.354658e+003, 1.373950e-002
2.356586e+003, 1.374339e-002
2.358515e+003, 1.364384e-002
2.360443e+003, 1.318105e-002
2.362372e+003, 1.274109e-002
2.364300e+003, 1.275815e-002
2.366229e+003, 1.287692e-002
2.368157e+003, 1.275560e-002
2.370085e+003, 1.277585e-002
2.372014e+003, 1.319169e-002
2.373942e+003, 1.335539e-002
2.375871e+003, 1.347008e-002
2.377799e+003, 1.348828e-002
2.379728e+003, 1.358262e-002
2.381656e+003, 1.389383e-002
2.383585e+003, 1.411114e-002
2.385513e+003, 1.391369e-002
2.387442e+003, 1.354305e-002
2.389370e+003, 1.339936e-002
2.391299e+003, 1.317904e-002
2.393227e+003, 1.311282e-002
2.395156e+003, 1.337449e-002
2.397084e+003, 1.336072e-002
2.399012e+003, 1.317889e-002
2.400941e+003, 1.319327e-002
2.402869e+003, 1.321306e-002
2.404798e+003, 1.347216e-002
2.406726e+003, 1.387376e-002
2.408655e+003, 1.444970e-002
2.410583e+003, 1.422960e-002
2.412512e+003, 1.381712e-002
2.414440e+003, 1.408087e-002
2.416369e+003, 1.432527e-002
2.418297e+003, 1.436327e-002
2.420226e+003, 1.460449e-002
2.422154e+003, 1.507341e-002
2.424083e+003, 1.521318e-002
2.426011e+003, 1.533808e-002
2.427939e+003, 1.520123e-002
2.429868e+003, 1.557864e-002
2.431796e+003, 1.635480e-002
2.433725e+003, 1.712494e-002
2.435653e+003, 1.832110e-002
2.437582e+003, 1.993213e-002
2.439510e+003, 2.173108e-002
2.441439e+003, 2.357044e-002
2.443367e+003, 2.515298e-002
2.445296e+003, 2.712325e-002
2.447224e+003, 2.973089e-002
2.449153e+003, 3.204539e-002
2.451081e+003, 3.342932e-002
2.453010e+003, 3.365073e-002
2.454938e+003, 3.235969e-002
2.456866e+003, 3.057393e-002
2.458795e+003, 2.926129e-002
2.460723e+003, 2.745540e-002
2.462652e+003, 2.570450e-002
2.464580e+003, 2.443054e-002
2.466509e+003, 2.347919e-002
2.468437e+003, 2.317723e-002
2.470366e+003, 2.246330e-002
2.472294e+003, 2.147174e-002
2.474223e+003, 2.120441e-002
2.476151e+003, 2.117374e-002
2.478080e+003, 2.038260e-002
2.480008e+003, 1.958905e-002
2.481937e+003, 1.887711e-002
2.483865e+003, 1.844403e-002
2.485793e+003, 1.800819e-002
2.487722e+003, 1.754226e-002
2.489650e+003, 1.712122e-002
2.491579e+003, 1.691073e-002
2.493507e+003, 1.616980e-002
2.495436e+003, 1.557039e-002
2.497364e+003, 1.568526e-002
2.499293e+003, 1.585214e-002
2.501221e+003, 1.563936e-002
2.503150e+003, 1.555273e-002
2.505078e+003, 1.526315e-002
2.507007e+003, 1.512016e-002
2.508935e+003, 1.497114e-002
2.510864e+003, 1.485841e-002
2.512792e+003, 1.482247e-002
2.514720e+003, 1.468867e-002
2.516649e+003, 1.472816e-002
2.518577e+003, 1.479730e-002
2.520506e+003, 1.463629e-002
2.522434e+003, 1.454967e-002
2.524363e+003, 1.457833e-002
2.526291e+003, 1.476550e-002
2.528220e+003, 1.517726e-002
2.530148e+003, 1.530087e-002
2.532077e+003, 1.506482e-002
2.534005e+003, 1.525788e-002
2.535934e+003, 1.534003e-002
2.537862e+003, 1.475796e-002
2.539791e+003, 1.454677e-002
2.541719e+003, 1.509077e-002
2.543647e+003, 1.524364e-002
2.545576e+003, 1.486214e-002
2.547504e+003, 1.473011e-002
2.549433e+003, 1.522187e-002
2.551361e+003, 1.546499e-002
2.553290e+003, 1.549195e-002
2.555218e+003, 1.538775e-002
2.557147e+003, 1.518624e-002
2.559075e+003, 1.485571e-002
2.561004e+003, 1.507272e-002
2.562932e+003, 1.532227e-002
2.564861e+003, 1.526823e-002
2.566789e+003, 1.485679e-002
2.568718e+003, 1.457300e-002
2.570646e+003, 1.412736e-002
2.572574e+003, 1.398232e-002
2.574503e+003, 1.421119e-002
2.576431e+003, 1.402057e-002
2.578360e+003, 1.368699e-002
2.580288e+003, 1.350303e-002
2.582217e+003, 1.360899e-002
2.584145e+003, 1.383021e-002
2.586074e+003, 1.378319e-002
2.588002e+003, 1.399610e-002
2.589931e+003, 1.426715e-002
2.591859e+003, 1.405383e-002
2.593788e+003, 1.371425e-002
2.595716e+003, 1.381561e-002
2.597645e+003, 1.434521e-002
2.599573e+003, 1.446055e-002
2.601501e+003, 1.415910e-002
2.603430e+003, 1.394722e-002
2.605358e+003, 1.436499e-002
2.607287e+003, 1.466097e-002
2.609215e+003, 1.450875e-002
2.611144e+003, 1.465935e-002
2.613072e+003, 1.470517e-002
2.615001e+003, 1.456392e-002
2.616929e+003, 1.474304e-002
2.618858e+003, 1.485201e-002
2.620786e+003, 1.467961e-002
2.622715e+003, 1.463857e-002
2.624643e+003, 1.492403e-002
2.626572e+003, 1.508393e-002
2.628500e+003, 1.492452e-002
2.630428e+003, 1.476346e-002
2.632357e+003, 1.479452e-002
2.634285e+003, 1.502272e-002
2.636214e+003, 1.561453e-002
2.638142e+003, 1.546460e-002
2.640071e+003, 1.528503e-002
2.641999e+003, 1.535235e-002
2.643928e+003, 1.531721e-002
2.645856e+003, 1.526868e-002
2.647785e+003, 1.539699e-002
2.649713e+003, 1.543490e-002
2.651642e+003, 1.521517e-002
2.653570e+003, 1.528932e-002
2.655499e+003, 1.533315e-002
2.657427e+003, 1.514488e-002
2.659355e+003, 1.485084e-002
2.661284e+003, 1.492539e-002
2.663212e+003, 1.471445e-002
2.665141e+003, 1.430017e-002
2.667069e+003, 1.406325e-002
2.668998e+003, 1.413259e-002
2.670926e+003, 1.426796e-002
2.672855e+003, 1.412307e-002
2.674783e+003, 1.402427e-002
2.676712e+003, 1.414193e-002
2.678640e+003, 1.437261e-002
2.680569e+003, 1.459942e-002
2.682497e+003, 1.438259e-002
2.684426e+003, 1.415342e-002
2.686354e+003, 1.408908e-002
2.688282e+003, 1.403600e-002
2.690211e+003, 1.405653e-002
2.692139e+003, 1.398536e-002
2.694068e+003, 1.396141e-002
2.695996e+003, 1.382894e-002
2.697925e+003, 1.361172e-002
2.699853e+003, 1.376110e-002
2.701782e+003, 1.416891e-002
2.703710e+003, 1.439548e-002
2.705639e+003, 1.437870e-002
2.707567e+003, 1.429677e-002
2.709496e+003, 1.402119e-002
2.711424e+003, 1.389180e-002
2.713353e+003, 1.421858e-002
2.715281e+003, 1.464937e-002
2.717209e+003, 1.469906e-002
2.719138e+003, 1.445254e-002
2.721066e+003, 1.409913e-002
2.722995e+003, 1.391375e-002
2.724923e+003, 1.406028e-002
2.726852e+003, 1.443180e-002
2.728780e+003, 1.422173e-002
2.730709e+003, 1.375561e-002
2.732637e+003, 1.399352e-002
2.734566e+003, 1.417623e-002
2.736494e+003, 1.406355e-002
2.738423e+003, 1.390958e-002
2.740351e+003, 1.381071e-002
2.742280e+003, 1.412188e-002
2.744208e+003, 1.437539e-002
2.746136e+003, 1.402831e-002
2.748065e+003, 1.378105e-002
2.749993e+003, 1.399860e-002
2.751922e+003, 1.410132e-002
2.753850e+003, 1.398555e-002
2.755779e+003, 1.400116e-002
2.757707e+003, 1.406865e-002
2.759636e+003, 1.414362e-002
2.761564e+003, 1.406277e-002
2.763493e+003, 1.399653e-002
2.765421e+003, 1.413804e-002
2.767350e+003, 1.441439e-002
2.769278e+003, 1.438126e-002
2.771207e+003, 1.429612e-002
2.773135e+003, 1.449177e-002
2.775063e+003, 1.461008e-002
2.776992e+003, 1.432149e-002
2.778920e+003, 1.407504e-002
2.780849e+003, 1.395757e-002
2.782777e+003, 1.426092e-002
2.784706e+003, 1.461322e-002
2.786634e+003, 1.466539e-002
2.788563e+003, 1.461326e-002
2.790491e+003, 1.469393e-002
2.792420e+003, 1.505299e-002
2.794348e+003, 1.528492e-002
2.796277e+003, 1.546803e-002
2.798205e+003, 1.549128e-002
2.800134e+003, 1.568014e-002
2.802062e+003, 1.649362e-002
2.803990e+003, 1.706498e-002
2.805919e+003, 1.701090e-002
2.807847e+003, 1.710081e-002
2.809776e+003, 1.761107e-002
2.811704e+003, 1.821933e-002
2.813633e+003, 1.864087e-002
2.815561e+003, 1.912092e-002
2.817490e+003, 1.964818e-002
2.819418e+003, 2.001131e-002
2.821347e+003, 2.029071e-002
2.823275e+003, 2.005038e-002
2.825204e+003, 1.987226e-002
2.827132e+003, 2.003416e-002
2.829061e+003, 1.989129e-002
2.830989e+003, 1.934318e-002
2.832917e+003, 1.862502e-002
2.834846e+003, 1.824944e-002
2.836774e+003, 1.817924e-002
2.838703e+003, 1.815123e-002
2.840631e+003, 1.744280e-002
2.842560e+003, 1.681678e-002
2.844488e+003, 1.631180e-002
2.846417e+003, 1.605482e-002
2.848345e+003, 1.589476e-002
2.850274e+003, 1.590045e-002
2.852202e+003, 1.579960e-002
2.854131e+003, 1.560207e-002
2.856059e+003, 1.537420e-002
2.857988e+003, 1.531843e-002
2.859916e+003, 1.551835e-002
2.861844e+003, 1.606153e-002
2.863773e+003, 1.628404e-002
2.865701e+003, 1.621477e-002
2.867630e+003, 1.637346e-002
2.869558e+003, 1.629921e-002
2.871487e+003, 1.652862e-002
2.873415e+003, 1.686759e-002
2.875344e+003, 1.680639e-002
2.877272e+003, 1.680578e-002
2.879201e+003, 1.734499e-002
2.881129e+003, 1.766291e-002
2.883058e+003, 1.745783e-002
2.884986e+003, 1.757546e-002
2.886915e+003, 1.768033e-002
2.888843e+003, 1.765166e-002
2.890771e+003, 1.749706e-002
2.892700e+003, 1.721408e-002
2.894628e+003, 1.715526e-002
2.896557e+003, 1.705510e-002
2.898485e+003, 1.694983e-002
2.900414e+003, 1.694387e-002
2.902342e+003, 1.676275e-002
2.904271e+003, 1.640473e-002
2.906199e+003, 1.615723e-002
2.908128e+003, 1.598497e-002
2.910056e+003, 1.589665e-002
2.911985e+003, 1.581212e-002
2.913913e+003, 1.537725e-002
2.915842e+003, 1.490236e-002
2.917770e+003, 1.474544e-002
2.919698e+003, 1.456494e-002
2.921627e+003, 1.421934e-002
2.923555e+003, 1.429730e-002
2.925484e+003, 1.420508e-002
2.927412e+003, 1.401926e-002
2.929341e+003, 1.427485e-002
2.931269e+003, 1.440241e-002
2.933198e+003, 1.456395e-002
2.935126e+003, 1.530365e-002
2.937055e+003, 1.545239e-002
2.938983e+003, 1.548146e-002
2.940912e+003, 1.561620e-002
2.942840e+003, 1.565822e-002
2.944769e+003, 1.589193e-002
2.946697e+003, 1.567440e-002
2.948625e+003, 1.540202e-002
2.950554e+003, 1.545741e-002
2.952482e+003, 1.563050e-002
2.954411e+003, 1.574149e-002
2.956339e+003, 1.577745e-002
2.958268e+003, 1.567959e-002
2.960196e+003, 1.573220e-002
2.962125e+003, 1.589010e-002
2.964053e+003, 1.629476e-002
2.965982e+003, 1.677143e-002
2.967910e+003, 1.694493e-002
2.969839e+003, 1.706323e-002
2.971767e+003, 1.698651e-002
2.973696e+003, 1.651811e-002
2.975624e+003, 1.633999e-002
2.977552e+003, 1.629903e-002
2.979481e+003, 1.632778e-002
2.981409e+003, 1.661799e-002
2.983338e+003, 1.714250e-002
2.985266e+003, 1.728869e-002
2.987195e+003, 1.746197e-002
2.989123e+003, 1.788026e-002
2.991052e+003, 1.783905e-002
2.992980e+003, 1.746744e-002
2.994909e+003, 1.746411e-002
2.996837e+003, 1.767484e-002
2.998766e+003, 1.784869e-002
3.000694e+003, 1.793103e-002
3.002623e+003, 1.813189e-002
3.004551e+003, 1.802594e-002
3.006479e+003, 1.782098e-002
3.008408e+003, 1.805686e-002
3.010336e+003, 1.856631e-002
3.012265e+003, 1.887324e-002
3.014193e+003, 1.887741e-002
3.016122e+003, 1.885816e-002
3.018050e+003, 1.912803e-002
3.019979e+003, 1.881721e-002
3.021907e+003, 1.860700e-002
3.023836e+003, 1.895336e-002
3.025764e+003, 1.920744e-002
3.027693e+003, 1.918894e-002
3.029621e+003, 1.927135e-002
3.031550e+003, 1.949728e-002
3.033478e+003, 1.970331e-002
3.035406e+003, 1.994280e-002
3.037335e+003, 2.009689e-002
3.039263e+003, 1.990200e-002
3.041192e+003, 2.010573e-002
3.043120e+003, 2.019199e-002
3.045049e+003, 2.024761e-002
3.046977e+003, 2.050742e-002
3.048906e+003, 2.079314e-002
3.050834e+003, 2.057978e-002
3.052763e+003, 2.053023e-002
3.054691e+003, 2.076062e-002
3.056620e+003, 2.069483e-002
3.058548e+003, 2.075276e-002
3.060477e+003, 2.077347e-002
3.062405e+003, 2.106333e-002
3.064333e+003, 2.099098e-002
3.066262e+003, 2.070150e-002
3.068190e+003, 2.071916e-002
3.070119e+003, 2.068363e-002
3.072047e+003, 2.066188e-002
3.073976e+003, 2.103944e-002
3.075904e+003, 2.121168e-002
3.077833e+003, 2.103672e-002
3.079761e+003, 2.111366e-002
3.081690e+003, 2.131745e-002
3.083618e+003, 2.141883e-002
3.085547e+003, 2.096191e-002
3.087475e+003, 2.092192e-002
3.089404e+003, 2.122490e-002
3.091332e+003, 2.125573e-002
3.093260e+003, 2.110438e-002
3.095189e+003, 2.105680e-002
3.097117e+003, 2.115811e-002
3.099046e+003, 2.135791e-002
3.100974e+003, 2.153959e-002
3.102903e+003, 2.204973e-002
3.104831e+003, 2.206228e-002
3.106760e+003, 2.182687e-002
3.108688e+003, 2.179781e-002
3.110617e+003, 2.200753e-002
3.112545e+003, 2.219740e-002
3.114474e+003, 2.206062e-002
3.116402e+003, 2.213180e-002
3.118331e+003, 2.205780e-002
3.120259e+003, 2.200734e-002
3.122188e+003, 2.211421e-002
3.124116e+003, 2.213986e-002
3.126044e+003, 2.239707e-002
3.127973e+003, 2.269994e-002
3.129901e+003, 2.275706e-002
3.131830e+003, 2.244306e-002
3.133758e+003, 2.234668e-002
3.135687e+003, 2.280568e-002
3.137615e+003, 2.274306e-002
3.139544e+003, 2.260336e-002
3.141472e+003, 2.273588e-002
3.143401e+003, 2.276572e-002
3.145329e+003, 2.307803e-002
3.147258e+003, 2.280543e-002
3.149186e+003, 2.235433e-002
3.151115e+003, 2.245197e-002
3.153043e+003, 2.272561e-002
3.154971e+003, 2.280647e-002
3.156900e+003, 2.296454e-002
3.158828e+003, 2.285426e-002
3.160757e+003, 2.275491e-002
3.162685e+003, 2.288184e-002
3.164614e+003, 2.282106e-002
3.166542e+003, 2.293717e-002
3.168471e+003, 2.289317e-002
3.170399e+003, 2.304831e-002
3.172328e+003, 2.311909e-002
3.174256e+003, 2.331209e-002
3.176185e+003, 2.321719e-002
3.178113e+003, 2.330840e-002
3.180042e+003, 2.369251e-002
3.181970e+003, 2.385083e-002
3.183898e+003, 2.346392e-002
3.185827e+003, 2.333545e-002
3.187755e+003, 2.355723e-002
3.189684e+003, 2.361309e-002
3.191612e+003, 2.366168e-002
3.193541e+003, 2.355586e-002
3.195469e+003, 2.328236e-002
3.197398e+003, 2.311090e-002
3.199326e+003, 2.345330e-002
3.201255e+003, 2.433050e-002
3.203183e+003, 2.466641e-002
3.205112e+003, 2.408166e-002
3.207040e+003, 2.355167e-002
3.208969e+003, 2.328157e-002
3.210897e+003, 2.363356e-002
3.212825e+003, 2.382187e-002
3.214754e+003, 2.334380e-002
3.216682e+003, 2.331163e-002
3.218611e+003, 2.387941e-002
3.220539e+003, 2.414970e-002
3.222468e+003, 2.399698e-002
3.224396e+003, 2.405688e-002
3.226325e+003, 2.434318e-002
3.228253e+003, 2.411928e-002
3.230182e+003, 2.389558e-002
3.232110e+003, 2.421369e-002
3.234039e+003, 2.424199e-002
3.235967e+003, 2.397481e-002
3.237896e+003, 2.386076e-002
3.239824e+003, 2.420148e-002
3.241752e+003, 2.429423e-002
3.243681e+003, 2.425642e-002
3.245609e+003, 2.431887e-002
3.247538e+003, 2.409961e-002
3.249466e+003, 2.436114e-002
3.251395e+003, 2.462092e-002
3.253323e+003, 2.477264e-002
3.255252e+003, 2.504344e-002
3.257180e+003, 2.478685e-002
3.259109e+003, 2.415285e-002
3.261037e+003, 2.403075e-002
3.262966e+003, 2.434608e-002
3.264894e+003, 2.468802e-002
3.266823e+003, 2.483357e-002
3.268751e+003, 2.484890e-002
3.270679e+003, 2.488936e-002
3.272608e+003, 2.460833e-002
3.274536e+003, 2.437678e-002
3.276465e+003, 2.441654e-002
3.278393e+003, 2.475263e-002
3.280322e+003, 2.481320e-002
3.282250e+003, 2.443697e-002
3.284179e+003, 2.408020e-002
3.286107e+003, 2.404052e-002
3.288036e+003, 2.415546e-002
3.289964e+003, 2.442188e-002
3.291893e+003, 2.510251e-002
3.293821e+003, 2.527029e-002
3.295750e+003, 2.471001e-002
3.297678e+003, 2.462953e-002
3.299606e+003, 2.522955e-002
3.301535e+003, 2.565373e-002
3.303463e+003, 2.534203e-002
3.305392e+003, 2.539317e-002
3.307320e+003, 2.504653e-002
3.309249e+003, 2.476414e-002
3.311177e+003, 2.517633e-002
3.313106e+003, 2.515457e-002
3.315034e+003, 2.491919e-002
3.316963e+003, 2.511865e-002
3.318891e+003, 2.577505e-002
3.320820e+003, 2.568193e-002
3.322748e+003, 2.530576e-002
3.324677e+003, 2.547382e-002
3.326605e+003, 2.508613e-002
3.328533e+003, 2.482924e-002
3.330462e+003, 2.514800e-002
3.332390e+003, 2.502685e-002
3.334319e+003, 2.506876e-002
3.336247e+003, 2.534186e-002
3.338176e+003, 2.523799e-002
3.340104e+003, 2.489664e-002
3.342033e+003, 2.500486e-002
3.343961e+003, 2.538523e-002
3.345890e+003, 2.550570e-002
3.347818e+003, 2.559333e-002
3.349747e+003, 2.556616e-002
3.351675e+003, 2.509225e-002
3.353604e+003, 2.483313e-002
3.355532e+003, 2.492782e-002
3.357460e+003, 2.539817e-002
3.359389e+003, 2.553033e-002
3.361317e+003, 2.486080e-002
3.363246e+003, 2.443487e-002
3.365174e+003, 2.474427e-002
3.367103e+003, 2.483062e-002
3.369031e+003, 2.529351e-002
3.370960e+003, 2.573318e-002
3.372888e+003, 2.580785e-002
3.374817e+003, 2.544959e-002
3.376745e+003, 2.519320e-002
3.378674e+003, 2.497675e-002
3.380602e+003, 2.505413e-002
3.382531e+003, 2.518574e-002
3.384459e+003, 2.548590e-002
3.386387e+003, 2.588350e-002
3.388316e+003, 2.589470e-002
3.390244e+003, 2.564137e-002
3.392173e+003, 2.553735e-002
3.394101e+003, 2.513679e-002
3.396030e+003, 2.458392e-002
3.397958e+003, 2.459708e-002
3.399887e+003, 2.448298e-002
3.401815e+003, 2.488289e-002
3.403744e+003, 2.530101e-002
3.405672e+003, 2.541947e-002
3.407601e+003, 2.597428e-002
3.409529e+003, 2.597795e-002
3.411458e+003, 2.538043e-002
3.413386e+003, 2.485194e-002
3.415314e+003, 2.477691e-002
3.417243e+003, 2.491295e-002
3.419171e+003, 2.531151e-002
3.421100e+003, 2.561673e-002
3.423028e+003, 2.547724e-002
3.424957e+003, 2.538412e-002
3.426885e+003, 2.554753e-002
3.428814e+003, 2.527635e-002
3.430742e+003, 2.481440e-002
3.432671e+003, 2.471548e-002
3.434599e+003, 2.450086e-002
3.436528e+003, 2.489816e-002
3.438456e+003, 2.536145e-002
3.440385e+003, 2.508700e-002
3.442313e+003, 2.535521e-002
3.444241e+003, 2.562306e-002
3.446170e+003, 2.567760e-002
3.448098e+003, 2.579959e-002
3.450027e+003, 2.541482e-002
3.451955e+003, 2.553710e-002
3.453884e+003, 2.552436e-002
3.455812e+003, 2.517551e-002
3.457741e+003, 2.528090e-002
3.459669e+003, 2.540890e-002
3.461598e+003, 2.599442e-002
3.463526e+003, 2.624735e-002
3.465455e+003, 2.585014e-002
3.467383e+003, 2.513175e-002
3.469312e+003, 2.482059e-002
3.471240e+003, 2.520719e-002
3.473168e+003, 2.551109e-002
3.475097e+003, 2.560582e-002
3.477025e+003, 2.558746e-002
3.478954e+003, 2.552673e-002
3.480882e+003, 2.587816e-002
3.482811e+003, 2.583169e-002
3.484739e+003, 2.577423e-002
3.486668e+003, 2.578720e-002
3.488596e+003, 2.564945e-002
3.490525e+003, 2.612139e-002
3.492453e+003, 2.584259e-002
3.494382e+003, 2.524385e-002
3.496310e+003, 2.516839e-002
3.498239e+003, 2.543118e-002
3.500167e+003, 2.513613e-002
3.502095e+003, 2.487289e-002
3.504024e+003, 2.511674e-002
3.505952e+003, 2.534398e-002
3.507881e+003, 2.483151e-002
3.509809e+003, 2.440811e-002
3.511738e+003, 2.452687e-002
3.513666e+003, 2.487886e-002
3.515595e+003, 2.474677e-002
3.517523e+003, 2.436073e-002
3.519452e+003, 2.435395e-002
3.521380e+003, 2.445490e-002
3.523309e+003, 2.416928e-002
3.525237e+003, 2.421395e-002
3.527166e+003, 2.467084e-002
3.529094e+003, 2.545218e-002
3.531022e+003, 2.566238e-002
3.532951e+003, 2.574091e-002
3.534879e+003, 2.597485e-002
3.536808e+003, 2.586781e-002
3.538736e+003, 2.547081e-002
3.540665e+003, 2.526643e-002
3.542593e+003, 2.507127e-002
3.544522e+003, 2.503204e-002
3.546450e+003, 2.472751e-002
3.548379e+003, 2.484814e-002
3.550307e+003, 2.548114e-002
3.552236e+003, 2.547105e-002
3.554164e+003, 2.557671e-002
3.556093e+003, 2.576873e-002
3.558021e+003, 2.557594e-002
3.559949e+003, 2.518511e-002
3.561878e+003, 2.560474e-002
3.563806e+003, 2.606395e-002
3.565735e+003, 2.507378e-002
3.567663e+003, 2.495050e-002
3.569592e+003, 2.584587e-002
3.571520e+003, 2.619944e-002
3.573449e+003, 2.592593e-002
3.575377e+003, 2.533652e-002
3.577306e+003, 2.530549e-002
3.579234e+003, 2.523451e-002
3.581163e+003, 2.545121e-002
3.583091e+003, 2.520186e-002
3.585020e+003, 2.497749e-002
3.586948e+003, 2.497233e-002
3.588876e+003, 2.576231e-002
3.590805e+003, 2.561976e-002
3.592733e+003, 2.492333e-002
3.594662e+003, 2.528191e-002
3.596590e+003, 2.549944e-002
3.598519e+003, 2.502865e-002
3.600447e+003, 2.571669e-002
3.602376e+003, 2.594247e-002
3.604304e+003, 2.563741e-002
3.606233e+003, 2.511047e-002
3.608161e+003, 2.528402e-002
3.610090e+003, 2.614202e-002
3.612018e+003, 2.629131e-002
3.613947e+003, 2.628538e-002
3.615875e+003, 2.586830e-002
3.617803e+003, 2.526242e-002
3.619732e+003, 2.541386e-002
3.621660e+003, 2.635283e-002
3.623589e+003, 2.635063e-002
3.625517e+003, 2.609165e-002
3.627446e+003, 2.572737e-002
3.629374e+003, 2.484531e-002
3.631303e+003, 2.548202e-002
3.633231e+003, 2.642233e-002
3.635160e+003, 2.611255e-002
3.637088e+003, 2.561692e-002
3.639017e+003, 2.558148e-002
3.640945e+003, 2.575628e-002
3.642874e+003, 2.555524e-002
3.644802e+003, 2.538603e-002
3.646730e+003, 2.480456e-002
3.648659e+003, 2.474264e-002
3.650587e+003, 2.534299e-002
3.652516e+003, 2.603287e-002
3.654444e+003, 2.629405e-002
3.656373e+003, 2.569746e-002
3.658301e+003, 2.489409e-002
3.660230e+003, 2.469608e-002
3.662158e+003, 2.498123e-002
3.664087e+003, 2.558129e-002
3.666015e+003, 2.628381e-002
3.667944e+003, 2.653884e-002
3.669872e+003, 2.672911e-002
3.671801e+003, 2.676184e-002
3.673729e+003, 2.598696e-002
3.675657e+003, 2.532399e-002
3.677586e+003, 2.617699e-002
3.679514e+003, 2.690188e-002
3.681443e+003, 2.720616e-002
3.683371e+003, 2.732941e-002
3.685300e+003, 2.685712e-002
3.687228e+003, 2.605327e-002
3.689157e+003, 2.508457e-002
3.691085e+003, 2.545178e-002
3.693014e+003, 2.644441e-002
3.694942e+003, 2.703422e-002
3.696871e+003, 2.675823e-002
3.698799e+003, 2.663399e-002
3.700728e+003, 2.696282e-002
3.702656e+003, 2.724388e-002
3.704584e+003, 2.660564e-002
3.706513e+003, 2.578801e-002
3.708441e+003, 2.598898e-002
3.710370e+003, 2.605697e-002
3.712298e+003, 2.604726e-002
3.714227e+003, 2.601677e-002
3.716155e+003, 2.634602e-002
3.718084e+003, 2.722120e-002
3.720012e+003, 2.714081e-002
3.721941e+003, 2.628011e-002
3.723869e+003, 2.571244e-002
3.725798e+003, 2.675736e-002
3.727726e+003, 2.741566e-002
3.729655e+003, 2.676872e-002
3.731583e+003, 2.666982e-002
3.733511e+003, 2.687552e-002
3.735440e+003, 2.672305e-002
3.737368e+003, 2.717778e-002
3.739297e+003, 2.776326e-002
3.741225e+003, 2.732633e-002
3.743154e+003, 2.707835e-002
3.745082e+003, 2.708107e-002
3.747011e+003, 2.627707e-002
3.748939e+003, 2.522825e-002
3.750868e+003, 2.616279e-002
3.752796e+003, 2.685859e-002
3.754725e+003, 2.715370e-002
3.756653e+003, 2.668855e-002
3.758582e+003, 2.585456e-002
3.760510e+003, 2.684008e-002
3.762438e+003, 2.726552e-002
3.764367e+003, 2.657955e-002
3.766295e+003, 2.676618e-002
3.768224e+003, 2.716360e-002
3.770152e+003, 2.681455e-002
3.772081e+003, 2.663643e-002
3.774009e+003, 2.762658e-002
3.775938e+003, 2.792446e-002
3.777866e+003, 2.737604e-002
3.779795e+003, 2.752578e-002
3.781723e+003, 2.779456e-002
3.783652e+003, 2.765675e-002
3.785580e+003, 2.772429e-002
3.787509e+003, 2.755566e-002
3.789437e+003, 2.765575e-002
3.791365e+003, 2.751959e-002
3.793294e+003, 2.754918e-002
3.795222e+003, 2.787599e-002
3.797151e+003, 2.767379e-002
3.799079e+003, 2.754115e-002
3.801008e+003, 2.673958e-002
3.802936e+003, 2.690004e-002
3.804865e+003, 2.766822e-002
3.806793e+003, 2.724876e-002
3.808722e+003, 2.718829e-002
3.810650e+003, 2.786873e-002
3.812579e+003, 2.715033e-002
3.814507e+003, 2.628999e-002
3.816436e+003, 2.690247e-002
3.818364e+003, 2.708993e-002
3.820292e+003, 2.694767e-002
3.822221e+003, 2.731709e-002
3.824149e+003, 2.759870e-002
3.826078e+003, 2.704969e-002
3.828006e+003, 2.728649e-002
3.829935e+003, 2.752562e-002
3.831863e+003, 2.727953e-002
3.833792e+003, 2.774178e-002
3.835720e+003, 2.802584e-002
3.837649e+003, 2.740745e-002
3.839577e+003, 2.700224e-002
3.841506e+003, 2.752466e-002
3.843434e+003, 2.735090e-002
3.845363e+003, 2.758831e-002
3.847291e+003, 2.792151e-002
3.849219e+003, 2.782722e-002
3.851148e+003, 2.712602e-002
3.853076e+003, 2.577332e-002
3.855005e+003, 2.577286e-002
3.856933e+003, 2.743033e-002
3.858862e+003, 2.828179e-002
3.860790e+003, 2.825221e-002
3.862719e+003, 2.726931e-002
3.864647e+003, 2.661149e-002
3.866576e+003, 2.667098e-002
3.868504e+003, 2.691259e-002
3.870433e+003, 2.695194e-002
3.872361e+003, 2.788298e-002
3.874290e+003, 2.816693e-002
3.876218e+003, 2.737127e-002
3.878146e+003, 2.726970e-002
3.880075e+003, 2.785042e-002
3.882003e+003, 2.788427e-002
3.883932e+003, 2.730397e-002
3.885860e+003, 2.766983e-002
3.887789e+003, 2.760408e-002
3.889717e+003, 2.701197e-002
3.891646e+003, 2.717160e-002
3.893574e+003, 2.749160e-002
3.895503e+003, 2.784201e-002
3.897431e+003, 2.844311e-002
3.899360e+003, 2.822569e-002
3.901288e+003, 2.758482e-002
3.903217e+003, 2.785547e-002
3.905145e+003, 2.752306e-002
3.907073e+003, 2.682011e-002
3.909002e+003, 2.714221e-002
3.910930e+003, 2.778709e-002
3.912859e+003, 2.849176e-002
3.914787e+003, 2.839369e-002
3.916716e+003, 2.747746e-002
3.918644e+003, 2.699043e-002
3.920573e+003, 2.665769e-002
3.922501e+003, 2.690185e-002
3.924430e+003, 2.765885e-002
3.926358e+003, 2.808648e-002
3.928287e+003, 2.808612e-002
3.930215e+003, 2.887440e-002
3.932144e+003, 2.958320e-002
3.934072e+003, 2.932743e-002
3.936000e+003, 2.783040e-002
3.937929e+003, 2.704929e-002
3.939857e+003, 2.751046e-002
3.941786e+003, 2.774108e-002
3.943714e+003, 2.741776e-002
3.945643e+003, 2.750795e-002
3.947571e+003, 2.789267e-002
3.949500e+003, 2.820905e-002
3.951428e+003, 2.813525e-002
3.953357e+003, 2.798907e-002
3.955285e+003, 2.797754e-002
3.957214e+003, 2.758795e-002
3.959142e+003, 2.761899e-002
3.961071e+003, 2.808544e-002
3.962999e+003, 2.776012e-002
3.964927e+003, 2.715319e-002
3.966856e+003, 2.799620e-002
3.968784e+003, 2.919134e-002
3.970713e+003, 2.881416e-002
3.972641e+003, 2.814125e-002
3.974570e+003, 2.836013e-002
3.976498e+003, 2.909518e-002
3.978427e+003, 2.897470e-002
3.980355e+003, 2.874011e-002
3.982284e+003, 2.866696e-002
3.984212e+003, 2.847658e-002
3.986141e+003, 2.770050e-002
3.988069e+003, 2.774895e-002
3.989998e+003, 2.832064e-002
3.991926e+003, 2.808656e-002
3.993854e+003, 2.832111e-002
3.995783e+003, 2.902355e-002
3.997711e+003, 2.932313e-002
3.999640e+003, 2.894484e-002
##END=



