##NAMES=Wollastonite
##RRUFFID=R040008
##IDEAL CHEMISTRY=CaSiO_3_
##LOCALITY=Lake Baikal, Siberia, Russia
##OWNER=RRUFF
##SOURCE=University of Arizona Mineral Museum
##DESCRIPTION=2M polytype. Colorless parallel acicular crystals
##STATUS=The identification of this mineral has been confirmed by X-ray diffraction and chemical analysis
##URL=rruff.info/R040008
##MEASURED CHEMISTRY=Ca_1.00_Si_1.00_O_3_; trace amounts of Fe and Mn
3.741225e+002, 5.546982e-002
3.760510e+002, 6.638812e-002
3.779795e+002, 6.529972e-002
3.799079e+002, 6.138962e-002
3.818364e+002, 6.615008e-002
3.837649e+002, 7.481328e-002
3.856933e+002, 8.494922e-002
3.876218e+002, 8.970414e-002
3.895503e+002, 9.847309e-002
3.914787e+002, 1.097505e-001
3.934072e+002, 1.185582e-001
3.953357e+002, 1.210294e-001
3.972641e+002, 1.112900e-001
3.991926e+002, 1.001020e-001
4.011211e+002, 9.752736e-002
4.030495e+002, 9.956838e-002
4.049780e+002, 1.016585e-001
4.069065e+002, 1.038232e-001
4.088349e+002, 1.008699e-001
4.107634e+002, 9.468995e-002
4.126919e+002, 8.932638e-002
4.146203e+002, 8.691756e-002
4.165488e+002, 8.862674e-002
4.184773e+002, 9.044305e-002
4.204057e+002, 9.508251e-002
4.223342e+002, 1.034167e-001
4.242627e+002, 1.110248e-001
4.261911e+002, 1.169779e-001
4.281196e+002, 1.253307e-001
4.300481e+002, 1.350456e-001
4.319765e+002, 1.445041e-001
4.339050e+002, 1.554309e-001
4.358335e+002, 1.659728e-001
4.377619e+002, 1.764778e-001
4.396904e+002, 1.880211e-001
4.416189e+002, 1.996603e-001
4.435473e+002, 2.089237e-001
4.454758e+002, 2.141252e-001
4.474043e+002, 2.175201e-001
4.493327e+002, 2.216137e-001
4.512612e+002, 2.252911e-001
4.531897e+002, 2.256134e-001
4.551181e+002, 2.245823e-001
4.570466e+002, 2.176501e-001
4.589751e+002, 2.064234e-001
4.609035e+002, 1.941701e-001
4.628320e+002, 1.858406e-001
4.647605e+002, 1.860765e-001
4.666889e+002, 1.940166e-001
4.686174e+002, 1.999106e-001
4.705459e+002, 1.984894e-001
4.724743e+002, 1.921062e-001
4.744028e+002, 1.824880e-001
4.763313e+002, 1.709309e-001
4.782597e+002, 1.600637e-001
4.801882e+002, 1.516701e-001
4.821167e+002, 1.437276e-001
4.840451e+002, 1.380225e-001
4.859736e+002, 1.333593e-001
4.879021e+002, 1.286018e-001
4.898305e+002, 1.235380e-001
4.917590e+002, 1.175762e-001
4.936875e+002, 1.109901e-001
4.956159e+002, 1.037038e-001
4.975444e+002, 9.679241e-002
4.994729e+002, 9.109914e-002
5.014013e+002, 8.786963e-002
5.033298e+002, 8.812568e-002
5.052583e+002, 9.151921e-002
5.071867e+002, 9.568954e-002
5.091152e+002, 9.749871e-002
5.110437e+002, 9.636746e-002
5.129721e+002, 9.267114e-002
5.149006e+002, 8.695213e-002
5.168290e+002, 8.091386e-002
5.187575e+002, 7.535385e-002
5.206860e+002, 7.074415e-002
5.226144e+002, 6.699301e-002
5.245429e+002, 6.351070e-002
5.264714e+002, 5.993052e-002
5.283998e+002, 5.649398e-002
5.303283e+002, 5.393464e-002
5.322568e+002, 5.155714e-002
5.341852e+002, 4.992176e-002
5.361137e+002, 4.803771e-002
5.380422e+002, 4.587004e-002
5.399706e+002, 4.471676e-002
5.418991e+002, 4.409307e-002
5.438276e+002, 4.403980e-002
5.457560e+002, 4.474059e-002
5.476845e+002, 4.635727e-002
5.496130e+002, 4.874788e-002
5.515414e+002, 5.225547e-002
5.534699e+002, 5.750865e-002
5.553984e+002, 6.390420e-002
5.573268e+002, 7.066078e-002
5.592553e+002, 7.642474e-002
5.611838e+002, 8.040494e-002
5.631122e+002, 8.200161e-002
5.650407e+002, 8.078677e-002
5.669692e+002, 7.640126e-002
5.688976e+002, 6.918236e-002
5.708261e+002, 6.054980e-002
5.727546e+002, 5.119725e-002
5.746830e+002, 4.255117e-002
5.766115e+002, 3.528889e-002
5.785400e+002, 3.007702e-002
5.804684e+002, 2.635454e-002
5.823969e+002, 2.387006e-002
5.843254e+002, 2.190844e-002
5.862538e+002, 2.077031e-002
5.881823e+002, 1.992835e-002
5.901108e+002, 1.929953e-002
5.920392e+002, 1.930136e-002
5.939677e+002, 1.915208e-002
5.958962e+002, 1.873741e-002
5.978246e+002, 1.874917e-002
5.997531e+002, 1.928633e-002
6.016816e+002, 1.953626e-002
6.036100e+002, 1.958037e-002
6.055385e+002, 2.017866e-002
6.074670e+002, 2.080083e-002
6.093954e+002, 2.126687e-002
6.113239e+002, 2.198209e-002
6.132524e+002, 2.311290e-002
6.151808e+002, 2.448651e-002
6.171093e+002, 2.596782e-002
6.190378e+002, 2.767320e-002
6.209662e+002, 2.939449e-002
6.228947e+002, 3.144506e-002
6.248232e+002, 3.389003e-002
6.267516e+002, 3.707881e-002
6.286801e+002, 4.076807e-002
6.306086e+002, 4.528034e-002
6.325370e+002, 5.051624e-002
6.344655e+002, 5.714702e-002
6.363940e+002, 6.536791e-002
6.383224e+002, 7.442757e-002
6.402509e+002, 8.273850e-002
6.421794e+002, 8.768033e-002
6.441078e+002, 8.732782e-002
6.460363e+002, 8.103007e-002
6.479648e+002, 6.998157e-002
6.498932e+002, 5.692382e-002
6.518217e+002, 4.486942e-002
6.537502e+002, 3.564613e-002
6.556786e+002, 2.980442e-002
6.576071e+002, 2.632765e-002
6.595356e+002, 2.432135e-002
6.614641e+002, 2.337301e-002
6.633925e+002, 2.322793e-002
6.653210e+002, 2.392896e-002
6.672495e+002, 2.555596e-002
6.691779e+002, 2.770459e-002
6.711064e+002, 3.043466e-002
6.730349e+002, 3.425050e-002
6.749633e+002, 3.935814e-002
6.768918e+002, 4.561370e-002
6.788203e+002, 5.206386e-002
6.807487e+002, 5.594381e-002
6.826772e+002, 5.463654e-002
6.846057e+002, 4.924430e-002
6.865341e+002, 4.325346e-002
6.884626e+002, 3.832909e-002
6.903911e+002, 3.373520e-002
6.923195e+002, 2.882904e-002
6.942480e+002, 2.441016e-002
6.961765e+002, 2.162606e-002
6.981049e+002, 1.983977e-002
7.000334e+002, 1.856386e-002
7.019619e+002, 1.775969e-002
7.038903e+002, 1.762900e-002
7.058188e+002, 1.761913e-002
7.077473e+002, 1.816588e-002
7.096757e+002, 1.943628e-002
7.116042e+002, 2.130375e-002
7.135327e+002, 2.140327e-002
7.154611e+002, 1.974473e-002
7.173896e+002, 1.871380e-002
7.193181e+002, 1.854546e-002
7.212465e+002, 1.848191e-002
7.231750e+002, 1.863960e-002
7.251035e+002, 1.901489e-002
7.270319e+002, 1.924353e-002
7.289604e+002, 1.944729e-002
7.308889e+002, 1.984983e-002
7.328173e+002, 2.033814e-002
7.347458e+002, 2.079065e-002
7.366743e+002, 2.130063e-002
7.386027e+002, 2.193845e-002
7.405312e+002, 2.248064e-002
7.424597e+002, 2.267466e-002
7.443881e+002, 2.310028e-002
7.463166e+002, 2.359003e-002
7.482451e+002, 2.406779e-002
7.501735e+002, 2.468119e-002
7.521020e+002, 2.509177e-002
7.540305e+002, 2.548165e-002
7.559589e+002, 2.603632e-002
7.578874e+002, 2.662431e-002
7.598159e+002, 2.735090e-002
7.617443e+002, 2.806931e-002
7.636728e+002, 2.895557e-002
7.656013e+002, 2.978899e-002
7.675297e+002, 3.071090e-002
7.694582e+002, 3.139107e-002
7.713867e+002, 3.189657e-002
7.733151e+002, 3.280097e-002
7.752436e+002, 3.385805e-002
7.771721e+002, 3.490653e-002
7.791005e+002, 3.604753e-002
7.810290e+002, 3.706286e-002
7.829575e+002, 3.814201e-002
7.848859e+002, 3.934248e-002
7.868144e+002, 4.050715e-002
7.887429e+002, 4.178453e-002
7.906713e+002, 4.328799e-002
7.925998e+002, 4.470462e-002
7.945283e+002, 4.600167e-002
7.964567e+002, 4.759620e-002
7.983852e+002, 4.912546e-002
8.003137e+002, 5.059434e-002
8.022421e+002, 5.223989e-002
8.041706e+002, 5.416347e-002
8.060991e+002, 5.600504e-002
8.080275e+002, 5.768439e-002
8.099560e+002, 5.973877e-002
8.118845e+002, 6.199792e-002
8.138129e+002, 6.406096e-002
8.157414e+002, 6.614585e-002
8.176699e+002, 6.850859e-002
8.195983e+002, 7.114958e-002
8.215268e+002, 7.403971e-002
8.234553e+002, 7.690660e-002
8.253837e+002, 7.993436e-002
8.273122e+002, 8.327732e-002
8.292407e+002, 8.669486e-002
8.311691e+002, 9.028216e-002
8.330976e+002, 9.412246e-002
8.350261e+002, 9.818547e-002
8.369545e+002, 1.024875e-001
8.388830e+002, 1.070835e-001
8.408115e+002, 1.120891e-001
8.427399e+002, 1.174686e-001
8.446684e+002, 1.230078e-001
8.465969e+002, 1.290712e-001
8.485253e+002, 1.349630e-001
8.504538e+002, 1.406666e-001
8.523823e+002, 1.471824e-001
8.543107e+002, 1.544444e-001
8.562392e+002, 1.620939e-001
8.581677e+002, 1.704610e-001
8.600961e+002, 1.792702e-001
8.620246e+002, 1.885943e-001
8.639531e+002, 1.988485e-001
8.658815e+002, 2.099511e-001
8.678100e+002, 2.222011e-001
8.697385e+002, 2.360303e-001
8.716669e+002, 2.499077e-001
8.735954e+002, 2.601786e-001
8.755239e+002, 2.655942e-001
8.774523e+002, 2.678369e-001
8.793808e+002, 2.689850e-001
8.813093e+002, 2.715408e-001
8.832377e+002, 2.754810e-001
8.851662e+002, 2.807088e-001
8.870947e+002, 2.882935e-001
8.890231e+002, 2.971039e-001
8.909516e+002, 3.051692e-001
8.928801e+002, 3.120431e-001
8.948085e+002, 3.179670e-001
8.967370e+002, 3.222488e-001
8.986655e+002, 3.227739e-001
9.005939e+002, 3.184332e-001
9.025224e+002, 3.091050e-001
9.044509e+002, 2.953343e-001
9.063793e+002, 2.801661e-001
9.083078e+002, 2.673478e-001
9.102363e+002, 2.593504e-001
9.121647e+002, 2.558451e-001
9.140932e+002, 2.545233e-001
9.160217e+002, 2.529907e-001
9.179501e+002, 2.501211e-001
9.198786e+002, 2.460708e-001
9.218071e+002, 2.417466e-001
9.237355e+002, 2.380221e-001
9.256640e+002, 2.350797e-001
9.275925e+002, 2.324331e-001
9.295209e+002, 2.293781e-001
9.314494e+002, 2.255159e-001
9.333779e+002, 2.203200e-001
9.353063e+002, 2.143481e-001
9.372348e+002, 2.080407e-001
9.391633e+002, 2.016257e-001
9.410917e+002, 1.952703e-001
9.430202e+002, 1.890870e-001
9.449487e+002, 1.832861e-001
9.468771e+002, 1.784323e-001
9.488056e+002, 1.746586e-001
9.507341e+002, 1.720518e-001
9.526625e+002, 1.709644e-001
9.545910e+002, 1.708150e-001
9.565195e+002, 1.707966e-001
9.584479e+002, 1.708789e-001
9.603764e+002, 1.705572e-001
9.623049e+002, 1.694794e-001
9.642333e+002, 1.674204e-001
9.661618e+002, 1.639782e-001
9.680903e+002, 1.586696e-001
9.700187e+002, 1.514676e-001
9.719472e+002, 1.424743e-001
9.738757e+002, 1.317791e-001
9.758041e+002, 1.195062e-001
9.777326e+002, 1.064891e-001
9.796611e+002, 9.488661e-002
9.815895e+002, 8.726729e-002
9.835180e+002, 8.418771e-002
9.854465e+002, 8.495333e-002
9.873749e+002, 8.911097e-002
9.893034e+002, 9.608404e-002
9.912319e+002, 1.055995e-001
9.931603e+002, 1.172322e-001
9.950888e+002, 1.296442e-001
9.970173e+002, 1.421416e-001
9.989457e+002, 1.542134e-001
1.000874e+003, 1.660914e-001
1.002803e+003, 1.782028e-001
1.004731e+003, 1.898924e-001
1.006660e+003, 1.999125e-001
1.008588e+003, 2.070546e-001
1.010517e+003, 2.110578e-001
1.012445e+003, 2.118552e-001
1.014373e+003, 2.095532e-001
1.016302e+003, 2.043968e-001
1.018230e+003, 1.980024e-001
1.020159e+003, 1.920225e-001
1.022087e+003, 1.872324e-001
1.024016e+003, 1.840242e-001
1.025944e+003, 1.806903e-001
1.027873e+003, 1.749873e-001
1.029801e+003, 1.665231e-001
1.031730e+003, 1.565325e-001
1.033658e+003, 1.463652e-001
1.035587e+003, 1.382815e-001
1.037515e+003, 1.339296e-001
1.039443e+003, 1.326419e-001
1.041372e+003, 1.328625e-001
1.043300e+003, 1.336922e-001
1.045229e+003, 1.351766e-001
1.047157e+003, 1.377728e-001
1.049086e+003, 1.420562e-001
1.051014e+003, 1.485718e-001
1.052943e+003, 1.564560e-001
1.054871e+003, 1.645412e-001
1.056800e+003, 1.709782e-001
1.058728e+003, 1.741757e-001
1.060657e+003, 1.733932e-001
1.062585e+003, 1.686982e-001
1.064514e+003, 1.612290e-001
1.066442e+003, 1.525876e-001
1.068370e+003, 1.434171e-001
1.070299e+003, 1.345577e-001
1.072227e+003, 1.264652e-001
1.074156e+003, 1.188683e-001
1.076084e+003, 1.118617e-001
1.078013e+003, 1.058824e-001
1.079941e+003, 1.009687e-001
1.081870e+003, 9.700119e-002
1.083798e+003, 9.412374e-002
1.085727e+003, 9.207751e-002
1.087655e+003, 9.039699e-002
1.089584e+003, 8.892048e-002
1.091512e+003, 8.735709e-002
1.093441e+003, 8.536581e-002
1.095369e+003, 8.288658e-002
1.097297e+003, 8.003526e-002
1.099226e+003, 7.703934e-002
1.101154e+003, 7.371341e-002
1.103083e+003, 7.008290e-002
1.105011e+003, 6.633496e-002
1.106940e+003, 6.238445e-002
1.108868e+003, 5.839331e-002
1.110797e+003, 5.474244e-002
1.112725e+003, 5.101226e-002
1.114654e+003, 4.694754e-002
1.116582e+003, 4.300100e-002
1.118511e+003, 3.918304e-002
1.120439e+003, 3.540867e-002
1.122368e+003, 3.201781e-002
1.124296e+003, 2.888897e-002
1.126224e+003, 2.589142e-002
1.128153e+003, 2.304495e-002
1.130081e+003, 2.044838e-002
1.132010e+003, 1.820404e-002
1.133938e+003, 1.632494e-002
1.135867e+003, 1.486040e-002
1.137795e+003, 1.387264e-002
1.139724e+003, 1.318277e-002
1.141652e+003, 1.245463e-002
1.143581e+003, 1.187841e-002
1.145509e+003, 1.148439e-002
1.147438e+003, 1.107345e-002
1.149366e+003, 1.076909e-002
1.151295e+003, 1.065393e-002
1.153223e+003, 1.042483e-002
1.155151e+003, 1.015253e-002
1.157080e+003, 1.001796e-002
1.159008e+003, 9.960487e-003
1.160937e+003, 9.847787e-003
1.162865e+003, 9.645022e-003
1.164794e+003, 9.624337e-003
1.166722e+003, 9.664322e-003
1.168651e+003, 9.416328e-003
1.170579e+003, 9.041010e-003
1.172508e+003, 8.850141e-003
1.174436e+003, 8.843536e-003
1.176365e+003, 8.770202e-003
1.178293e+003, 8.559152e-003
1.180222e+003, 8.466791e-003
1.182150e+003, 8.401058e-003
1.184078e+003, 8.247282e-003
1.186007e+003, 8.097087e-003
1.187935e+003, 7.864570e-003
1.189864e+003, 7.656453e-003
1.191792e+003, 7.546279e-003
1.193721e+003, 7.421521e-003
1.195649e+003, 7.316412e-003
1.197578e+003, 7.186526e-003
1.199506e+003, 7.153443e-003
1.201435e+003, 6.998048e-003
1.203363e+003, 6.817685e-003
1.205292e+003, 6.861047e-003
1.207220e+003, 6.872095e-003
1.209149e+003, 6.753024e-003
1.211077e+003, 6.607897e-003
1.213005e+003, 6.416715e-003
1.214934e+003, 6.260936e-003
1.216862e+003, 6.284199e-003
1.218791e+003, 6.225260e-003
1.220719e+003, 6.027828e-003
1.222648e+003, 5.796440e-003
1.224576e+003, 5.731750e-003
1.226505e+003, 5.710662e-003
1.228433e+003, 5.629756e-003
1.230362e+003, 5.584206e-003
1.232290e+003, 5.551699e-003
1.234219e+003, 5.477292e-003
1.236147e+003, 5.393705e-003
1.238076e+003, 5.287613e-003
1.240004e+003, 5.212833e-003
1.241932e+003, 5.197541e-003
1.243861e+003, 5.102802e-003
1.245789e+003, 5.017713e-003
1.247718e+003, 5.076928e-003
1.249646e+003, 5.052631e-003
1.251575e+003, 4.996228e-003
1.253503e+003, 5.022075e-003
1.255432e+003, 5.063682e-003
1.257360e+003, 5.052415e-003
1.259289e+003, 5.015863e-003
1.261217e+003, 5.042228e-003
1.263146e+003, 5.085922e-003
1.265074e+003, 5.091618e-003
1.267003e+003, 4.983010e-003
1.268931e+003, 4.896807e-003
1.270859e+003, 4.967252e-003
1.272788e+003, 5.068671e-003
1.274716e+003, 5.024957e-003
1.276645e+003, 4.983739e-003
1.278573e+003, 5.040725e-003
1.280502e+003, 5.140811e-003
1.282430e+003, 5.204870e-003
1.284359e+003, 5.258410e-003
1.286287e+003, 5.380245e-003
1.288216e+003, 5.345568e-003
1.290144e+003, 5.295065e-003
1.292073e+003, 5.382161e-003
1.294001e+003, 5.399338e-003
1.295930e+003, 5.389617e-003
1.297858e+003, 5.513751e-003
1.299786e+003, 5.690801e-003
1.301715e+003, 5.797245e-003
1.303643e+003, 5.972348e-003
1.305572e+003, 6.025607e-003
1.307500e+003, 6.227856e-003
1.309429e+003, 6.430384e-003
1.311357e+003, 6.523763e-003
1.313286e+003, 6.669654e-003
1.315214e+003, 6.847245e-003
1.317143e+003, 7.107026e-003
1.319071e+003, 7.339221e-003
1.321000e+003, 7.416162e-003
1.322928e+003, 7.485665e-003
1.324857e+003, 7.574598e-003
1.326785e+003, 7.769757e-003
1.328714e+003, 8.016900e-003
1.330642e+003, 8.244605e-003
1.332570e+003, 8.501641e-003
1.334499e+003, 8.695798e-003
1.336427e+003, 8.972875e-003
1.338356e+003, 9.214564e-003
1.340284e+003, 9.452045e-003
1.342213e+003, 9.774229e-003
1.344141e+003, 1.020341e-002
1.346070e+003, 1.051360e-002
1.347998e+003, 1.077779e-002
1.349927e+003, 1.116843e-002
1.351855e+003, 1.151145e-002
1.353784e+003, 1.186685e-002
1.355712e+003, 1.223932e-002
1.357641e+003, 1.254714e-002
1.359569e+003, 1.295186e-002
1.361497e+003, 1.335919e-002
1.363426e+003, 1.369686e-002
1.365354e+003, 1.416314e-002
1.367283e+003, 1.470587e-002
1.369211e+003, 1.511563e-002
1.371140e+003, 1.571737e-002
1.373068e+003, 1.639179e-002
1.374997e+003, 1.695008e-002
1.376925e+003, 1.754643e-002
1.378854e+003, 1.821057e-002
1.380782e+003, 1.894839e-002
1.382711e+003, 1.984022e-002
1.384639e+003, 2.071787e-002
1.386568e+003, 2.184951e-002
1.388496e+003, 2.310689e-002
1.390424e+003, 2.439018e-002
1.392353e+003, 2.575757e-002
1.394281e+003, 2.719839e-002
1.396210e+003, 2.863613e-002
1.398138e+003, 2.989803e-002
1.400067e+003, 3.107356e-002
1.401995e+003, 3.231747e-002
1.403924e+003, 3.370434e-002
1.405852e+003, 3.535762e-002
1.407781e+003, 3.713980e-002
1.409709e+003, 3.888816e-002
1.411638e+003, 4.063575e-002
1.413566e+003, 4.233170e-002
1.415495e+003, 4.360924e-002
1.417423e+003, 4.468530e-002
1.419351e+003, 4.563242e-002
1.421280e+003, 4.625973e-002
1.423208e+003, 4.687104e-002
1.425137e+003, 4.757665e-002
1.427065e+003, 4.809824e-002
1.428994e+003, 4.842231e-002
1.430922e+003, 4.878399e-002
1.432851e+003, 4.907953e-002
1.434779e+003, 4.921303e-002
1.436708e+003, 4.934621e-002
1.438636e+003, 4.926028e-002
1.440565e+003, 4.917415e-002
1.442493e+003, 4.911163e-002
1.444422e+003, 4.896009e-002
1.446350e+003, 4.878258e-002
1.448278e+003, 4.851348e-002
1.450207e+003, 4.821342e-002
1.452135e+003, 4.798519e-002
1.454064e+003, 4.754902e-002
1.455992e+003, 4.725071e-002
1.457921e+003, 4.660604e-002
1.459849e+003, 4.555324e-002
1.461778e+003, 4.466794e-002
1.463706e+003, 4.408601e-002
1.465635e+003, 4.355297e-002
1.467563e+003, 4.259968e-002
1.469492e+003, 4.172782e-002
1.471420e+003, 4.116349e-002
1.473349e+003, 4.039308e-002
1.475277e+003, 3.941836e-002
1.477205e+003, 3.837108e-002
1.479134e+003, 3.732626e-002
1.481062e+003, 3.643003e-002
1.482991e+003, 3.549204e-002
1.484919e+003, 3.467081e-002
1.486848e+003, 3.390650e-002
1.488776e+003, 3.306396e-002
1.490705e+003, 3.218648e-002
1.492633e+003, 3.123029e-002
1.494562e+003, 3.040631e-002
1.496490e+003, 2.971245e-002
1.498419e+003, 2.871122e-002
1.500347e+003, 2.760944e-002
1.502276e+003, 2.659055e-002
1.504204e+003, 2.575037e-002
1.506132e+003, 2.517190e-002
1.508061e+003, 2.413257e-002
1.509989e+003, 2.292226e-002
1.511918e+003, 2.198561e-002
1.513846e+003, 2.110282e-002
1.515775e+003, 2.031804e-002
1.517703e+003, 1.956043e-002
1.519632e+003, 1.889730e-002
1.521560e+003, 1.822125e-002
1.523489e+003, 1.732155e-002
1.525417e+003, 1.670544e-002
1.527346e+003, 1.609208e-002
1.529274e+003, 1.553653e-002
1.531203e+003, 1.526501e-002
1.533131e+003, 1.492037e-002
1.535059e+003, 1.431897e-002
1.536988e+003, 1.424250e-002
1.538916e+003, 1.459107e-002
1.540845e+003, 1.443272e-002
1.542773e+003, 1.399226e-002
1.544702e+003, 1.366349e-002
1.546630e+003, 1.328185e-002
1.548559e+003, 1.293569e-002
1.550487e+003, 1.276395e-002
1.552416e+003, 1.277141e-002
1.554344e+003, 1.284918e-002
1.556273e+003, 1.299959e-002
1.558201e+003, 1.348698e-002
1.560130e+003, 1.342312e-002
1.562058e+003, 1.277094e-002
1.563986e+003, 1.258214e-002
1.565915e+003, 1.260635e-002
1.567843e+003, 1.257862e-002
1.569772e+003, 1.267698e-002
1.571700e+003, 1.257789e-002
1.573629e+003, 1.244948e-002
1.575557e+003, 1.268091e-002
1.577486e+003, 1.257794e-002
1.579414e+003, 1.246842e-002
1.581343e+003, 1.255502e-002
1.583271e+003, 1.241779e-002
1.585200e+003, 1.225108e-002
1.587128e+003, 1.202121e-002
1.589057e+003, 1.193881e-002
1.590985e+003, 1.198761e-002
1.592913e+003, 1.188527e-002
1.594842e+003, 1.173317e-002
1.596770e+003, 1.161088e-002
1.598699e+003, 1.141749e-002
1.600627e+003, 1.129075e-002
1.602556e+003, 1.117854e-002
1.604484e+003, 1.107075e-002
1.606413e+003, 1.084619e-002
1.608341e+003, 1.057499e-002
1.610270e+003, 1.039045e-002
1.612198e+003, 1.018414e-002
1.614127e+003, 1.012652e-002
1.616055e+003, 1.023355e-002
1.617984e+003, 9.769670e-003
1.619912e+003, 9.375353e-003
1.621840e+003, 9.422710e-003
1.623769e+003, 9.283803e-003
1.625697e+003, 9.007897e-003
1.627626e+003, 8.743207e-003
1.629554e+003, 8.374935e-003
1.631483e+003, 8.228405e-003
1.633411e+003, 8.272664e-003
1.635340e+003, 8.326160e-003
1.637268e+003, 7.979885e-003
1.639197e+003, 7.588376e-003
1.641125e+003, 7.407197e-003
1.643054e+003, 7.145172e-003
1.644982e+003, 7.224123e-003
1.646911e+003, 7.129340e-003
1.648839e+003, 6.770279e-003
1.650767e+003, 6.944286e-003
1.652696e+003, 7.312702e-003
1.654624e+003, 6.533409e-003
1.656553e+003, 5.879258e-003
1.658481e+003, 5.765045e-003
1.660410e+003, 5.540572e-003
1.662338e+003, 5.510084e-003
1.664267e+003, 5.297292e-003
1.666195e+003, 4.994666e-003
1.668124e+003, 5.079452e-003
1.670052e+003, 5.101694e-003
1.671981e+003, 5.057252e-003
1.673909e+003, 5.096527e-003
1.675838e+003, 4.913805e-003
1.677766e+003, 4.561686e-003
1.679694e+003, 4.546421e-003
1.681623e+003, 4.771876e-003
1.683551e+003, 5.272892e-003
1.685480e+003, 5.123126e-003
1.687408e+003, 4.637794e-003
1.689337e+003, 4.438865e-003
1.691265e+003, 4.253279e-003
1.693194e+003, 4.421492e-003
1.695122e+003, 5.030381e-003
1.697051e+003, 5.054665e-003
1.698979e+003, 4.885902e-003
1.700908e+003, 4.821436e-003
1.702836e+003, 4.383440e-003
1.704765e+003, 4.482610e-003
1.706693e+003, 4.470889e-003
1.708621e+003, 4.390209e-003
1.710550e+003, 4.310498e-003
1.712478e+003, 4.377617e-003
1.714407e+003, 4.431738e-003
1.716335e+003, 4.585356e-003
1.718264e+003, 4.633236e-003
1.720192e+003, 4.459230e-003
1.722121e+003, 4.388904e-003
1.724049e+003, 4.273042e-003
1.725978e+003, 4.153307e-003
1.727906e+003, 4.317599e-003
1.729835e+003, 4.460892e-003
1.731763e+003, 4.712369e-003
1.733692e+003, 5.062087e-003
1.735620e+003, 4.820010e-003
1.737548e+003, 4.415707e-003
1.739477e+003, 4.176287e-003
1.741405e+003, 3.938609e-003
1.743334e+003, 3.851754e-003
1.745262e+003, 3.484242e-003
1.747191e+003, 3.217998e-003
1.749119e+003, 3.485404e-003
1.751048e+003, 3.582797e-003
1.752976e+003, 3.326808e-003
1.754905e+003, 3.322640e-003
1.756833e+003, 3.514217e-003
1.758762e+003, 3.397134e-003
1.760690e+003, 3.378415e-003
1.762619e+003, 3.351893e-003
1.764547e+003, 3.145892e-003
1.766475e+003, 3.186591e-003
1.768404e+003, 3.378372e-003
1.770332e+003, 3.513332e-003
1.772261e+003, 3.769975e-003
1.774189e+003, 3.631841e-003
1.776118e+003, 3.359526e-003
1.778046e+003, 3.362820e-003
1.779975e+003, 3.530151e-003
1.781903e+003, 3.524724e-003
1.783832e+003, 3.645577e-003
1.785760e+003, 3.803803e-003
1.787689e+003, 3.769151e-003
1.789617e+003, 3.930958e-003
1.791546e+003, 4.318018e-003
1.793474e+003, 4.458146e-003
1.795402e+003, 4.358190e-003
1.797331e+003, 4.311793e-003
1.799259e+003, 4.195463e-003
1.801188e+003, 3.941809e-003
1.803116e+003, 3.572940e-003
1.805045e+003, 3.277860e-003
1.806973e+003, 3.318524e-003
1.808902e+003, 3.510727e-003
1.810830e+003, 3.419137e-003
1.812759e+003, 3.346055e-003
1.814687e+003, 3.144634e-003
1.816616e+003, 3.046282e-003
1.818544e+003, 3.206262e-003
1.820473e+003, 3.244858e-003
1.822401e+003, 3.059884e-003
1.824329e+003, 3.044561e-003
1.826258e+003, 3.122566e-003
1.828186e+003, 3.289220e-003
1.830115e+003, 3.343604e-003
1.832043e+003, 3.280755e-003
1.833972e+003, 3.124599e-003
1.835900e+003, 2.986775e-003
1.837829e+003, 3.224117e-003
1.839757e+003, 3.402390e-003
1.841686e+003, 3.277455e-003
1.843614e+003, 3.112423e-003
1.845543e+003, 3.320750e-003
1.847471e+003, 3.326874e-003
1.849400e+003, 3.108319e-003
1.851328e+003, 3.058060e-003
1.853256e+003, 3.254334e-003
1.855185e+003, 3.292467e-003
1.857113e+003, 3.007232e-003
1.859042e+003, 2.996703e-003
1.860970e+003, 3.175239e-003
1.862899e+003, 3.180215e-003
1.864827e+003, 3.349659e-003
1.866756e+003, 3.483513e-003
1.868684e+003, 3.738557e-003
1.870613e+003, 3.854703e-003
1.872541e+003, 3.597905e-003
1.874470e+003, 3.211010e-003
1.876398e+003, 3.241835e-003
1.878327e+003, 3.475110e-003
1.880255e+003, 3.565391e-003
1.882183e+003, 3.511102e-003
1.884112e+003, 3.334969e-003
1.886040e+003, 3.644391e-003
1.887969e+003, 3.986496e-003
1.889897e+003, 4.096516e-003
1.891826e+003, 4.217009e-003
1.893754e+003, 4.364599e-003
1.895683e+003, 4.216819e-003
1.897611e+003, 4.377047e-003
1.899540e+003, 4.499660e-003
1.901468e+003, 4.375217e-003
1.903397e+003, 4.331334e-003
1.905325e+003, 4.667256e-003
1.907254e+003, 5.057841e-003
1.909182e+003, 5.097102e-003
1.911110e+003, 4.616454e-003
1.913039e+003, 4.845359e-003
1.914967e+003, 4.888229e-003
1.916896e+003, 4.914235e-003
1.918824e+003, 5.025815e-003
1.920753e+003, 5.074362e-003
1.922681e+003, 4.994311e-003
1.924610e+003, 4.083158e-003
1.926538e+003, 3.767311e-003
1.928467e+003, 4.180707e-003
1.930395e+003, 4.424253e-003
1.932324e+003, 4.840695e-003
1.934252e+003, 5.104486e-003
1.936181e+003, 4.891562e-003
1.938109e+003, 4.784528e-003
1.940037e+003, 4.408802e-003
1.941966e+003, 4.463008e-003
1.943894e+003, 4.943382e-003
1.945823e+003, 5.037596e-003
1.947751e+003, 5.223073e-003
1.949680e+003, 5.466591e-003
1.951608e+003, 5.165769e-003
1.953537e+003, 5.178911e-003
1.955465e+003, 4.944792e-003
1.957394e+003, 5.831362e-003
1.959322e+003, 7.415002e-003
1.961251e+003, 8.150006e-003
1.963179e+003, 8.144651e-003
1.965108e+003, 7.797192e-003
1.967036e+003, 6.789071e-003
1.968964e+003, 6.297534e-003
1.970893e+003, 7.566835e-003
1.972821e+003, 8.477303e-003
1.974750e+003, 8.467864e-003
1.976678e+003, 8.905848e-003
1.978607e+003, 9.532285e-003
1.980535e+003, 1.091733e-002
1.982464e+003, 9.910423e-003
1.984392e+003, 7.861950e-003
1.986321e+003, 7.019837e-003
1.988249e+003, 6.567274e-003
1.990178e+003, 6.913223e-003
1.992106e+003, 8.146491e-003
1.994035e+003, 7.409718e-003
1.995963e+003, 6.670128e-003
1.997891e+003, 6.769495e-003
1.999820e+003, 6.501354e-003
2.001748e+003, 5.924281e-003
2.003677e+003, 5.530887e-003
2.005605e+003, 4.786961e-003
2.007534e+003, 5.977791e-003
2.009462e+003, 6.352745e-003
2.011391e+003, 5.346999e-003
2.013319e+003, 4.985595e-003
2.015248e+003, 4.908946e-003
2.017176e+003, 5.248211e-003
2.019105e+003, 5.564915e-003
2.021033e+003, 5.306507e-003
2.022962e+003, 5.963777e-003
2.024890e+003, 6.419525e-003
2.026818e+003, 6.318747e-003
2.028747e+003, 6.904901e-003
2.030675e+003, 6.958202e-003
2.032604e+003, 6.532760e-003
2.034532e+003, 6.346732e-003
2.036461e+003, 5.691672e-003
2.038389e+003, 5.642002e-003
2.040318e+003, 6.704019e-003
2.042246e+003, 7.882626e-003
2.044175e+003, 7.097592e-003
2.046103e+003, 5.508971e-003
2.048031e+003, 6.291643e-003
2.049960e+003, 7.502714e-003
2.051888e+003, 6.939988e-003
2.053817e+003, 5.739141e-003
2.055745e+003, 5.091402e-003
2.057674e+003, 5.057232e-003
2.059602e+003, 5.341976e-003
2.061531e+003, 5.656870e-003
2.063459e+003, 4.967535e-003
2.065388e+003, 4.662268e-003
2.067316e+003, 5.100982e-003
2.069245e+003, 5.393502e-003
2.071173e+003, 5.416076e-003
2.073102e+003, 5.509387e-003
2.075030e+003, 5.910801e-003
2.076958e+003, 5.685590e-003
2.078887e+003, 5.917143e-003
2.080815e+003, 5.964309e-003
2.082744e+003, 5.168883e-003
2.084672e+003, 5.237736e-003
2.086601e+003, 5.380949e-003
2.088529e+003, 5.497546e-003
2.090458e+003, 5.582940e-003
2.092386e+003, 5.494957e-003
2.094315e+003, 5.182318e-003
2.096243e+003, 5.194451e-003
2.098172e+003, 5.680289e-003
2.100100e+003, 6.277177e-003
2.102029e+003, 6.541359e-003
2.103957e+003, 6.299559e-003
2.105885e+003, 6.150963e-003
2.107814e+003, 5.869139e-003
2.109742e+003, 5.721045e-003
2.111671e+003, 5.776437e-003
2.113599e+003, 5.907904e-003
2.115528e+003, 5.651818e-003
2.117456e+003, 4.659303e-003
2.119385e+003, 4.312235e-003
2.121313e+003, 4.312331e-003
2.123242e+003, 4.446648e-003
2.125170e+003, 4.458187e-003
2.127099e+003, 4.448640e-003
2.129027e+003, 4.309668e-003
2.130956e+003, 4.147327e-003
2.132884e+003, 4.391594e-003
2.134813e+003, 4.544442e-003
2.136741e+003, 5.293627e-003
2.138669e+003, 6.307897e-003
2.140598e+003, 6.320958e-003
2.142526e+003, 5.864879e-003
2.144455e+003, 5.595629e-003
2.146383e+003, 5.669111e-003
2.148312e+003, 6.016563e-003
2.150240e+003, 6.166894e-003
2.152169e+003, 6.515875e-003
2.154097e+003, 6.963721e-003
2.156026e+003, 7.013098e-003
2.157954e+003, 9.050892e-003
2.159883e+003, 1.114666e-002
2.161811e+003, 1.099901e-002
2.163740e+003, 1.026753e-002
2.165668e+003, 1.030618e-002
2.167596e+003, 1.055740e-002
2.169525e+003, 9.272126e-003
2.171453e+003, 7.968318e-003
2.173382e+003, 7.547035e-003
2.175310e+003, 7.760353e-003
2.177239e+003, 9.046147e-003
2.179167e+003, 8.573660e-003
2.181096e+003, 7.989512e-003
2.183024e+003, 8.824905e-003
2.184953e+003, 9.131897e-003
2.186881e+003, 8.206060e-003
2.188810e+003, 7.225996e-003
2.190738e+003, 7.579700e-003
2.192667e+003, 7.840063e-003
2.194595e+003, 8.513608e-003
2.196523e+003, 9.410422e-003
2.198452e+003, 9.010326e-003
2.200380e+003, 8.484583e-003
2.202309e+003, 9.006758e-003
2.204237e+003, 9.291143e-003
2.206166e+003, 8.817561e-003
2.208094e+003, 8.543504e-003
2.210023e+003, 8.802605e-003
2.211951e+003, 8.615633e-003
2.213880e+003, 8.236268e-003
2.215808e+003, 8.626426e-003
2.217737e+003, 9.062266e-003
2.219665e+003, 8.668255e-003
2.221594e+003, 8.276070e-003
2.223522e+003, 8.681657e-003
2.225450e+003, 8.801414e-003
2.227379e+003, 8.506308e-003
2.229307e+003, 9.037515e-003
2.231236e+003, 8.891628e-003
2.233164e+003, 8.509954e-003
2.235093e+003, 8.825890e-003
2.237021e+003, 9.023154e-003
2.238950e+003, 9.568871e-003
2.240878e+003, 9.852646e-003
2.242807e+003, 9.084659e-003
2.244735e+003, 8.694092e-003
2.246664e+003, 8.695432e-003
2.248592e+003, 8.704314e-003
2.250521e+003, 8.921006e-003
2.252449e+003, 8.964347e-003
2.254377e+003, 8.864010e-003
2.256306e+003, 8.964092e-003
2.258234e+003, 8.802317e-003
2.260163e+003, 8.558899e-003
2.262091e+003, 8.540167e-003
2.264020e+003, 8.518058e-003
2.265948e+003, 8.448040e-003
2.267877e+003, 8.883513e-003
2.269805e+003, 9.150388e-003
2.271734e+003, 8.658663e-003
2.273662e+003, 8.713900e-003
2.275591e+003, 9.421317e-003
2.277519e+003, 9.585986e-003
2.279448e+003, 9.405511e-003
2.281376e+003, 9.441989e-003
2.283304e+003, 9.219277e-003
2.285233e+003, 9.040634e-003
2.287161e+003, 8.471873e-003
2.289090e+003, 8.257112e-003
2.291018e+003, 8.491541e-003
2.292947e+003, 8.427397e-003
2.294875e+003, 8.251940e-003
2.296804e+003, 8.011346e-003
2.298732e+003, 7.828642e-003
2.300661e+003, 7.732539e-003
2.302589e+003, 7.563161e-003
2.304518e+003, 7.694482e-003
2.306446e+003, 7.804455e-003
2.308375e+003, 7.908131e-003
2.310303e+003, 7.953273e-003
2.312231e+003, 7.880558e-003
2.314160e+003, 7.727537e-003
2.316088e+003, 7.717233e-003
2.318017e+003, 7.965281e-003
2.319945e+003, 8.217758e-003
2.321874e+003, 8.529857e-003
2.323802e+003, 8.731090e-003
2.325731e+003, 8.173187e-003
2.327659e+003, 7.445618e-003
2.329588e+003, 7.358431e-003
2.331516e+003, 7.510801e-003
2.333445e+003, 7.410869e-003
2.335373e+003, 7.318507e-003
2.337302e+003, 7.358792e-003
2.339230e+003, 7.192915e-003
2.341158e+003, 7.182449e-003
2.343087e+003, 7.559399e-003
2.345015e+003, 7.462903e-003
2.346944e+003, 6.888465e-003
2.348872e+003, 6.721492e-003
2.350801e+003, 7.041935e-003
2.352729e+003, 7.091060e-003
2.354658e+003, 7.232247e-003
2.356586e+003, 7.325178e-003
2.358515e+003, 7.384152e-003
2.360443e+003, 7.724300e-003
2.362372e+003, 7.723224e-003
2.364300e+003, 7.736959e-003
2.366229e+003, 7.700038e-003
2.368157e+003, 7.348236e-003
2.370085e+003, 7.003006e-003
2.372014e+003, 7.032931e-003
2.373942e+003, 6.684747e-003
2.375871e+003, 6.598582e-003
2.377799e+003, 6.420772e-003
2.379728e+003, 6.294706e-003
2.381656e+003, 6.380763e-003
2.383585e+003, 6.422102e-003
2.385513e+003, 6.617385e-003
2.387442e+003, 6.941364e-003
2.389370e+003, 6.888952e-003
2.391299e+003, 6.556596e-003
2.393227e+003, 6.457927e-003
2.395156e+003, 6.219585e-003
2.397084e+003, 6.188630e-003
2.399012e+003, 6.341823e-003
2.400941e+003, 6.349947e-003
2.402869e+003, 6.052144e-003
2.404798e+003, 6.374909e-003
2.406726e+003, 7.089610e-003
2.408655e+003, 7.116898e-003
2.410583e+003, 6.580580e-003
2.412512e+003, 6.566975e-003
2.414440e+003, 6.788984e-003
2.416369e+003, 6.921364e-003
2.418297e+003, 6.674780e-003
2.420226e+003, 6.289900e-003
2.422154e+003, 6.148629e-003
2.424083e+003, 6.379823e-003
2.426011e+003, 6.261974e-003
2.427939e+003, 6.674861e-003
2.429868e+003, 7.076500e-003
2.431796e+003, 7.321139e-003
2.433725e+003, 7.049627e-003
2.435653e+003, 6.677601e-003
2.437582e+003, 6.546058e-003
2.439510e+003, 6.613144e-003
2.441439e+003, 6.987166e-003
2.443367e+003, 7.213153e-003
2.445296e+003, 7.187444e-003
2.447224e+003, 7.008080e-003
2.449153e+003, 7.041472e-003
2.451081e+003, 6.851654e-003
2.453010e+003, 6.792605e-003
2.454938e+003, 6.903386e-003
2.456866e+003, 7.136289e-003
2.458795e+003, 7.293216e-003
2.460723e+003, 7.056408e-003
2.462652e+003, 7.109113e-003
2.464580e+003, 7.329416e-003
2.466509e+003, 7.284976e-003
2.468437e+003, 6.867019e-003
2.470366e+003, 7.071520e-003
2.472294e+003, 6.939188e-003
2.474223e+003, 6.961366e-003
2.476151e+003, 7.304342e-003
2.478080e+003, 7.309373e-003
2.480008e+003, 7.240543e-003
2.481937e+003, 7.038815e-003
2.483865e+003, 6.655457e-003
2.485793e+003, 6.427458e-003
2.487722e+003, 6.724201e-003
2.489650e+003, 7.276325e-003
2.491579e+003, 7.597494e-003
2.493507e+003, 7.700656e-003
2.495436e+003, 7.473485e-003
2.497364e+003, 7.316825e-003
2.499293e+003, 7.305723e-003
2.501221e+003, 7.060945e-003
2.503150e+003, 7.486960e-003
2.505078e+003, 7.843128e-003
2.507007e+003, 7.750047e-003
2.508935e+003, 7.892655e-003
2.510864e+003, 8.090734e-003
2.512792e+003, 7.733584e-003
2.514720e+003, 7.479540e-003
2.516649e+003, 7.710307e-003
2.518577e+003, 7.609932e-003
2.520506e+003, 7.658583e-003
2.522434e+003, 7.924202e-003
2.524363e+003, 7.742596e-003
2.526291e+003, 7.365040e-003
2.528220e+003, 7.457545e-003
2.530148e+003, 7.683973e-003
2.532077e+003, 7.523178e-003
2.534005e+003, 7.361478e-003
2.535934e+003, 7.480947e-003
2.537862e+003, 7.782154e-003
2.539791e+003, 7.517698e-003
2.541719e+003, 7.007687e-003
2.543647e+003, 7.025226e-003
2.545576e+003, 7.344586e-003
2.547504e+003, 7.373537e-003
2.549433e+003, 7.262637e-003
2.551361e+003, 6.954387e-003
2.553290e+003, 7.382486e-003
2.555218e+003, 7.685564e-003
2.557147e+003, 7.777542e-003
2.559075e+003, 7.668337e-003
2.561004e+003, 7.500451e-003
2.562932e+003, 7.862749e-003
2.564861e+003, 8.077186e-003
2.566789e+003, 7.713192e-003
2.568718e+003, 7.588925e-003
2.570646e+003, 7.768468e-003
2.572574e+003, 7.911570e-003
2.574503e+003, 8.092085e-003
2.576431e+003, 8.223284e-003
2.578360e+003, 8.076461e-003
2.580288e+003, 7.864674e-003
2.582217e+003, 7.878329e-003
2.584145e+003, 7.934751e-003
2.586074e+003, 8.052879e-003
2.588002e+003, 8.026780e-003
2.589931e+003, 7.862627e-003
2.591859e+003, 7.793185e-003
2.593788e+003, 7.837935e-003
2.595716e+003, 7.811138e-003
2.597645e+003, 7.796499e-003
2.599573e+003, 7.999809e-003
2.601501e+003, 8.215587e-003
2.603430e+003, 8.359427e-003
2.605358e+003, 8.294423e-003
2.607287e+003, 8.133940e-003
2.609215e+003, 8.013993e-003
2.611144e+003, 8.280483e-003
2.613072e+003, 8.252262e-003
2.615001e+003, 7.861773e-003
2.616929e+003, 7.809713e-003
2.618858e+003, 7.886612e-003
2.620786e+003, 8.059276e-003
2.622715e+003, 8.279400e-003
2.624643e+003, 8.420056e-003
2.626572e+003, 8.352451e-003
2.628500e+003, 8.051162e-003
2.630428e+003, 8.051026e-003
2.632357e+003, 8.301158e-003
2.634285e+003, 8.069550e-003
2.636214e+003, 7.954893e-003
2.638142e+003, 8.022176e-003
2.640071e+003, 8.246631e-003
2.641999e+003, 8.393584e-003
2.643928e+003, 8.470763e-003
2.645856e+003, 8.526499e-003
2.647785e+003, 8.422269e-003
2.649713e+003, 8.405791e-003
2.651642e+003, 8.154859e-003
2.653570e+003, 7.861841e-003
2.655499e+003, 7.884400e-003
2.657427e+003, 7.834305e-003
2.659355e+003, 7.615953e-003
2.661284e+003, 7.381069e-003
2.663212e+003, 7.563991e-003
2.665141e+003, 7.529754e-003
2.667069e+003, 7.361714e-003
2.668998e+003, 7.368387e-003
2.670926e+003, 7.449799e-003
2.672855e+003, 7.441034e-003
2.674783e+003, 7.423140e-003
2.676712e+003, 7.602759e-003
2.678640e+003, 7.566892e-003
2.680569e+003, 7.413347e-003
2.682497e+003, 7.239191e-003
2.684426e+003, 7.518317e-003
2.686354e+003, 7.871288e-003
2.688282e+003, 7.736816e-003
2.690211e+003, 7.507785e-003
2.692139e+003, 7.529971e-003
2.694068e+003, 7.364444e-003
2.695996e+003, 7.494956e-003
2.697925e+003, 7.673629e-003
2.699853e+003, 7.660596e-003
2.701782e+003, 7.531296e-003
2.703710e+003, 7.554554e-003
2.705639e+003, 7.663902e-003
2.707567e+003, 7.567365e-003
2.709496e+003, 7.465167e-003
2.711424e+003, 7.661469e-003
2.713353e+003, 7.643241e-003
2.715281e+003, 7.585593e-003
2.717209e+003, 7.491798e-003
2.719138e+003, 7.485347e-003
2.721066e+003, 7.387078e-003
2.722995e+003, 7.427194e-003
2.724923e+003, 7.583764e-003
2.726852e+003, 7.538958e-003
2.728780e+003, 7.407391e-003
2.730709e+003, 7.362220e-003
2.732637e+003, 7.580913e-003
2.734566e+003, 7.950996e-003
2.736494e+003, 7.861243e-003
2.738423e+003, 7.618779e-003
2.740351e+003, 7.750012e-003
2.742280e+003, 7.950490e-003
2.744208e+003, 7.753388e-003
2.746136e+003, 7.716089e-003
2.748065e+003, 7.650703e-003
2.749993e+003, 7.619412e-003
2.751922e+003, 7.663604e-003
2.753850e+003, 7.578730e-003
2.755779e+003, 7.601528e-003
2.757707e+003, 7.762659e-003
2.759636e+003, 7.778323e-003
2.761564e+003, 7.933085e-003
2.763493e+003, 7.841963e-003
2.765421e+003, 7.645615e-003
2.767350e+003, 7.847901e-003
2.769278e+003, 8.073967e-003
2.771207e+003, 8.040338e-003
2.773135e+003, 7.953090e-003
2.775063e+003, 7.722109e-003
2.776992e+003, 7.742405e-003
2.778920e+003, 7.899891e-003
2.780849e+003, 7.719461e-003
2.782777e+003, 7.642265e-003
2.784706e+003, 7.910299e-003
2.786634e+003, 7.945167e-003
2.788563e+003, 7.866817e-003
2.790491e+003, 8.191434e-003
2.792420e+003, 8.344871e-003
2.794348e+003, 8.173545e-003
2.796277e+003, 8.169894e-003
2.798205e+003, 8.103122e-003
2.800134e+003, 7.903473e-003
2.802062e+003, 7.945489e-003
2.803990e+003, 7.976042e-003
2.805919e+003, 8.003554e-003
2.807847e+003, 8.202658e-003
2.809776e+003, 8.098582e-003
2.811704e+003, 8.019858e-003
2.813633e+003, 8.405216e-003
2.815561e+003, 8.589777e-003
2.817490e+003, 8.283908e-003
2.819418e+003, 8.147607e-003
2.821347e+003, 8.086864e-003
2.823275e+003, 8.078774e-003
2.825204e+003, 8.233121e-003
2.827132e+003, 8.411915e-003
2.829061e+003, 8.627607e-003
2.830989e+003, 8.605364e-003
2.832917e+003, 8.569768e-003
2.834846e+003, 8.503273e-003
2.836774e+003, 8.428179e-003
2.838703e+003, 8.380063e-003
2.840631e+003, 8.533238e-003
2.842560e+003, 8.838988e-003
2.844488e+003, 9.008572e-003
2.846417e+003, 8.986124e-003
2.848345e+003, 8.734645e-003
2.850274e+003, 8.580352e-003
2.852202e+003, 8.983167e-003
2.854131e+003, 9.058232e-003
2.856059e+003, 8.948770e-003
2.857988e+003, 8.836287e-003
2.859916e+003, 8.787416e-003
2.861844e+003, 8.822302e-003
2.863773e+003, 9.114333e-003
2.865701e+003, 9.154069e-003
2.867630e+003, 9.195219e-003
2.869558e+003, 9.250865e-003
2.871487e+003, 8.983201e-003
2.873415e+003, 8.548055e-003
2.875344e+003, 8.780121e-003
2.877272e+003, 9.378828e-003
2.879201e+003, 9.630836e-003
2.881129e+003, 9.141811e-003
2.883058e+003, 8.576913e-003
2.884986e+003, 8.327943e-003
2.886915e+003, 8.608582e-003
2.888843e+003, 8.984014e-003
2.890771e+003, 9.450578e-003
2.892700e+003, 9.292370e-003
2.894628e+003, 9.026085e-003
2.896557e+003, 8.982068e-003
2.898485e+003, 9.191406e-003
2.900414e+003, 9.358169e-003
2.902342e+003, 9.229956e-003
2.904271e+003, 9.562454e-003
2.906199e+003, 9.491215e-003
2.908128e+003, 9.454355e-003
2.910056e+003, 9.728516e-003
2.911985e+003, 9.927519e-003
2.913913e+003, 9.894434e-003
2.915842e+003, 1.014855e-002
2.917770e+003, 1.023640e-002
2.919698e+003, 1.015425e-002
2.921627e+003, 1.006304e-002
2.923555e+003, 9.947972e-003
2.925484e+003, 9.769158e-003
2.927412e+003, 9.957260e-003
2.929341e+003, 1.007674e-002
2.931269e+003, 9.773619e-003
2.933198e+003, 1.006960e-002
2.935126e+003, 1.002148e-002
2.937055e+003, 9.633767e-003
2.938983e+003, 9.494653e-003
2.940912e+003, 9.222453e-003
2.942840e+003, 9.416915e-003
2.944769e+003, 9.659539e-003
2.946697e+003, 9.588183e-003
2.948625e+003, 9.438891e-003
2.950554e+003, 9.730336e-003
2.952482e+003, 9.951442e-003
2.954411e+003, 1.010133e-002
2.956339e+003, 1.045138e-002
2.958268e+003, 1.074780e-002
2.960196e+003, 1.075593e-002
2.962125e+003, 1.069509e-002
2.964053e+003, 1.038751e-002
2.965982e+003, 9.891461e-003
2.967910e+003, 9.748215e-003
2.969839e+003, 9.882585e-003
2.971767e+003, 9.796876e-003
2.973696e+003, 9.359667e-003
2.975624e+003, 9.348305e-003
2.977552e+003, 9.507535e-003
2.979481e+003, 9.283935e-003
2.981409e+003, 8.932955e-003
2.983338e+003, 8.853272e-003
2.985266e+003, 8.859439e-003
2.987195e+003, 8.744420e-003
2.989123e+003, 9.022842e-003
2.991052e+003, 9.192680e-003
2.992980e+003, 9.086503e-003
2.994909e+003, 9.229811e-003
2.996837e+003, 9.399999e-003
2.998766e+003, 9.179837e-003
3.000694e+003, 8.559141e-003
3.002623e+003, 8.275012e-003
3.004551e+003, 8.802835e-003
3.006479e+003, 9.411186e-003
3.008408e+003, 9.288151e-003
3.010336e+003, 8.979068e-003
3.012265e+003, 8.672071e-003
3.014193e+003, 8.513596e-003
3.016122e+003, 8.778539e-003
3.018050e+003, 8.860596e-003
3.019979e+003, 8.724067e-003
3.021907e+003, 8.682503e-003
3.023836e+003, 8.653903e-003
3.025764e+003, 9.073692e-003
3.027693e+003, 9.205377e-003
3.029621e+003, 9.004787e-003
3.031550e+003, 9.447929e-003
3.033478e+003, 9.617994e-003
3.035406e+003, 9.340117e-003
3.037335e+003, 9.202580e-003
3.039263e+003, 9.360790e-003
3.041192e+003, 9.317955e-003
3.043120e+003, 9.007356e-003
3.045049e+003, 9.229384e-003
3.046977e+003, 9.403541e-003
3.048906e+003, 9.362640e-003
3.050834e+003, 9.307416e-003
3.052763e+003, 9.357660e-003
3.054691e+003, 9.423032e-003
3.056620e+003, 9.525217e-003
3.058548e+003, 9.304794e-003
3.060477e+003, 9.252199e-003
3.062405e+003, 9.630865e-003
3.064333e+003, 9.627559e-003
3.066262e+003, 9.582401e-003
3.068190e+003, 9.709818e-003
3.070119e+003, 9.635434e-003
3.072047e+003, 9.735133e-003
3.073976e+003, 9.883191e-003
3.075904e+003, 9.609590e-003
3.077833e+003, 9.289678e-003
3.079761e+003, 1.009161e-002
3.081690e+003, 1.062687e-002
3.083618e+003, 1.030149e-002
3.085547e+003, 1.004673e-002
3.087475e+003, 9.847043e-003
3.089404e+003, 9.729807e-003
3.091332e+003, 9.808993e-003
3.093260e+003, 9.978706e-003
3.095189e+003, 1.005481e-002
3.097117e+003, 1.013391e-002
3.099046e+003, 1.031346e-002
3.100974e+003, 1.050807e-002
3.102903e+003, 1.047226e-002
3.104831e+003, 1.004771e-002
3.106760e+003, 1.014350e-002
3.108688e+003, 1.067246e-002
3.110617e+003, 1.094136e-002
3.112545e+003, 1.058362e-002
3.114474e+003, 1.006574e-002
3.116402e+003, 9.993575e-003
3.118331e+003, 1.005915e-002
3.120259e+003, 1.005553e-002
3.122188e+003, 1.013849e-002
3.124116e+003, 1.003197e-002
3.126044e+003, 1.016040e-002
3.127973e+003, 1.006335e-002
3.129901e+003, 1.022245e-002
3.131830e+003, 1.063148e-002
3.133758e+003, 1.106144e-002
3.135687e+003, 1.108578e-002
3.137615e+003, 1.079723e-002
3.139544e+003, 1.091505e-002
3.141472e+003, 1.076139e-002
3.143401e+003, 1.081676e-002
3.145329e+003, 1.121164e-002
3.147258e+003, 1.110775e-002
3.149186e+003, 1.072944e-002
3.151115e+003, 1.045682e-002
3.153043e+003, 1.044673e-002
3.154971e+003, 1.079113e-002
3.156900e+003, 1.095434e-002
3.158828e+003, 1.047196e-002
3.160757e+003, 1.030587e-002
3.162685e+003, 1.103889e-002
3.164614e+003, 1.155006e-002
3.166542e+003, 1.141802e-002
3.168471e+003, 1.103692e-002
3.170399e+003, 1.067057e-002
3.172328e+003, 1.107048e-002
3.174256e+003, 1.154446e-002
3.176185e+003, 1.120137e-002
3.178113e+003, 1.114369e-002
3.180042e+003, 1.106265e-002
3.181970e+003, 1.121471e-002
3.183898e+003, 1.139119e-002
3.185827e+003, 1.135876e-002
3.187755e+003, 1.145216e-002
3.189684e+003, 1.149185e-002
3.191612e+003, 1.133327e-002
3.193541e+003, 1.148601e-002
3.195469e+003, 1.150326e-002
3.197398e+003, 1.138880e-002
3.199326e+003, 1.125668e-002
3.201255e+003, 1.087520e-002
3.203183e+003, 1.104793e-002
3.205112e+003, 1.142666e-002
3.207040e+003, 1.137776e-002
3.208969e+003, 1.142657e-002
3.210897e+003, 1.162571e-002
3.212825e+003, 1.154806e-002
3.214754e+003, 1.166085e-002
3.216682e+003, 1.179213e-002
3.218611e+003, 1.160655e-002
3.220539e+003, 1.169038e-002
3.222468e+003, 1.159064e-002
3.224396e+003, 1.171214e-002
3.226325e+003, 1.174658e-002
3.228253e+003, 1.201265e-002
3.230182e+003, 1.211175e-002
3.232110e+003, 1.160140e-002
3.234039e+003, 1.154571e-002
3.235967e+003, 1.185948e-002
3.237896e+003, 1.178004e-002
3.239824e+003, 1.181591e-002
3.241752e+003, 1.140192e-002
3.243681e+003, 1.095477e-002
3.245609e+003, 1.156600e-002
3.247538e+003, 1.174716e-002
3.249466e+003, 1.174898e-002
3.251395e+003, 1.144307e-002
3.253323e+003, 1.152664e-002
3.255252e+003, 1.207026e-002
3.257180e+003, 1.197548e-002
3.259109e+003, 1.198198e-002
3.261037e+003, 1.229883e-002
3.262966e+003, 1.185551e-002
3.264894e+003, 1.161682e-002
3.266823e+003, 1.145034e-002
3.268751e+003, 1.141775e-002
3.270679e+003, 1.154668e-002
3.272608e+003, 1.153911e-002
3.274536e+003, 1.166137e-002
3.276465e+003, 1.189850e-002
3.278393e+003, 1.183184e-002
3.280322e+003, 1.212668e-002
3.282250e+003, 1.201990e-002
3.284179e+003, 1.169193e-002
3.286107e+003, 1.193433e-002
3.288036e+003, 1.191009e-002
3.289964e+003, 1.161544e-002
3.291893e+003, 1.200259e-002
3.293821e+003, 1.202246e-002
3.295750e+003, 1.200752e-002
3.297678e+003, 1.210287e-002
3.299606e+003, 1.194981e-002
3.301535e+003, 1.177927e-002
3.303463e+003, 1.188764e-002
3.305392e+003, 1.193206e-002
3.307320e+003, 1.153240e-002
3.309249e+003, 1.117691e-002
3.311177e+003, 1.162593e-002
3.313106e+003, 1.207293e-002
3.315034e+003, 1.209121e-002
3.316963e+003, 1.199058e-002
3.318891e+003, 1.187386e-002
3.320820e+003, 1.176824e-002
3.322748e+003, 1.197914e-002
3.324677e+003, 1.212857e-002
3.326605e+003, 1.216500e-002
3.328533e+003, 1.216900e-002
3.330462e+003, 1.194132e-002
3.332390e+003, 1.140389e-002
3.334319e+003, 1.127527e-002
3.336247e+003, 1.184398e-002
3.338176e+003, 1.182524e-002
3.340104e+003, 1.150558e-002
3.342033e+003, 1.127279e-002
3.343961e+003, 1.127210e-002
3.345890e+003, 1.148805e-002
3.347818e+003, 1.175079e-002
3.349747e+003, 1.212532e-002
3.351675e+003, 1.223920e-002
3.353604e+003, 1.224226e-002
3.355532e+003, 1.264676e-002
3.357460e+003, 1.254335e-002
3.359389e+003, 1.197321e-002
3.361317e+003, 1.183743e-002
3.363246e+003, 1.167229e-002
3.365174e+003, 1.152631e-002
3.367103e+003, 1.188767e-002
3.369031e+003, 1.219685e-002
3.370960e+003, 1.203025e-002
3.372888e+003, 1.266211e-002
3.374817e+003, 1.270021e-002
3.376745e+003, 1.181566e-002
3.378674e+003, 1.196851e-002
3.380602e+003, 1.226350e-002
3.382531e+003, 1.198512e-002
3.384459e+003, 1.155025e-002
3.386387e+003, 1.149334e-002
3.388316e+003, 1.198509e-002
3.390244e+003, 1.187816e-002
3.392173e+003, 1.184782e-002
3.394101e+003, 1.225598e-002
3.396030e+003, 1.222863e-002
3.397958e+003, 1.172578e-002
3.399887e+003, 1.164144e-002
3.401815e+003, 1.194965e-002
3.403744e+003, 1.169921e-002
3.405672e+003, 1.188415e-002
3.407601e+003, 1.197959e-002
3.409529e+003, 1.181050e-002
3.411458e+003, 1.165751e-002
3.413386e+003, 1.186046e-002
3.415314e+003, 1.234754e-002
3.417243e+003, 1.172025e-002
3.419171e+003, 1.149630e-002
3.421100e+003, 1.211275e-002
3.423028e+003, 1.165365e-002
3.424957e+003, 1.173450e-002
3.426885e+003, 1.188618e-002
3.428814e+003, 1.146745e-002
3.430742e+003, 1.118199e-002
3.432671e+003, 1.136231e-002
3.434599e+003, 1.144214e-002
3.436528e+003, 1.174022e-002
3.438456e+003, 1.143766e-002
3.440385e+003, 1.162783e-002
3.442313e+003, 1.179282e-002
3.444241e+003, 1.119309e-002
3.446170e+003, 1.076730e-002
3.448098e+003, 1.130602e-002
3.450027e+003, 1.183944e-002
3.451955e+003, 1.221564e-002
3.453884e+003, 1.207002e-002
3.455812e+003, 1.143288e-002
3.457741e+003, 1.125127e-002
3.459669e+003, 1.147996e-002
3.461598e+003, 1.158246e-002
3.463526e+003, 1.201832e-002
3.465455e+003, 1.215065e-002
3.467383e+003, 1.238890e-002
3.469312e+003, 1.195817e-002
3.471240e+003, 1.101735e-002
3.473168e+003, 1.122815e-002
3.475097e+003, 1.172846e-002
3.477025e+003, 1.196123e-002
3.478954e+003, 1.236498e-002
3.480882e+003, 1.193208e-002
3.482811e+003, 1.164823e-002
3.484739e+003, 1.167430e-002
3.486668e+003, 1.118927e-002
3.488596e+003, 1.121286e-002
3.490525e+003, 1.126714e-002
3.492453e+003, 1.156548e-002
3.494382e+003, 1.193983e-002
3.496310e+003, 1.177603e-002
3.498239e+003, 1.181286e-002
3.500167e+003, 1.179209e-002
3.502095e+003, 1.117174e-002
3.504024e+003, 1.111692e-002
3.505952e+003, 1.100082e-002
3.507881e+003, 1.078101e-002
3.509809e+003, 1.120237e-002
3.511738e+003, 1.108821e-002
3.513666e+003, 1.101475e-002
3.515595e+003, 1.096805e-002
3.517523e+003, 1.084772e-002
3.519452e+003, 1.046821e-002
3.521380e+003, 9.803156e-003
3.523309e+003, 1.010469e-002
3.525237e+003, 1.110013e-002
3.527166e+003, 1.120046e-002
3.529094e+003, 1.123385e-002
3.531022e+003, 1.130771e-002
3.532951e+003, 1.056024e-002
3.534879e+003, 1.094657e-002
3.536808e+003, 1.145358e-002
3.538736e+003, 1.147738e-002
3.540665e+003, 1.091259e-002
3.542593e+003, 1.028262e-002
3.544522e+003, 1.090628e-002
3.546450e+003, 1.156577e-002
3.548379e+003, 1.164997e-002
3.550307e+003, 1.131363e-002
3.552236e+003, 1.110550e-002
3.554164e+003, 1.138704e-002
3.556093e+003, 1.184737e-002
3.558021e+003, 1.173840e-002
3.559949e+003, 1.116303e-002
3.561878e+003, 1.096720e-002
3.563806e+003, 1.117895e-002
3.565735e+003, 1.120447e-002
3.567663e+003, 1.091332e-002
3.569592e+003, 1.100647e-002
3.571520e+003, 1.126017e-002
3.573449e+003, 1.079447e-002
3.575377e+003, 1.067429e-002
3.577306e+003, 1.072677e-002
3.579234e+003, 1.020682e-002
3.581163e+003, 1.039419e-002
3.583091e+003, 1.075987e-002
3.585020e+003, 1.071670e-002
3.586948e+003, 1.070996e-002
3.588876e+003, 1.067365e-002
3.590805e+003, 1.022969e-002
3.592733e+003, 9.915369e-003
3.594662e+003, 1.009816e-002
3.596590e+003, 9.852400e-003
3.598519e+003, 9.672645e-003
3.600447e+003, 9.743433e-003
3.602376e+003, 9.901148e-003
3.604304e+003, 9.902907e-003
3.606233e+003, 1.000292e-002
3.608161e+003, 1.054142e-002
3.610090e+003, 1.041130e-002
3.612018e+003, 9.761931e-003
3.613947e+003, 9.951326e-003
3.615875e+003, 1.013070e-002
3.617803e+003, 1.002819e-002
3.619732e+003, 1.033431e-002
3.621660e+003, 1.041514e-002
3.623589e+003, 1.036820e-002
3.625517e+003, 1.014842e-002
3.627446e+003, 1.051912e-002
3.629374e+003, 1.092204e-002
3.631303e+003, 1.031728e-002
3.633231e+003, 9.696754e-003
3.635160e+003, 9.581873e-003
3.637088e+003, 9.623771e-003
3.639017e+003, 1.000081e-002
3.640945e+003, 9.457895e-003
3.642874e+003, 8.880614e-003
3.644802e+003, 8.829518e-003
3.646730e+003, 9.844533e-003
3.648659e+003, 1.058911e-002
3.650587e+003, 1.057677e-002
3.652516e+003, 9.963046e-003
3.654444e+003, 9.446953e-003
3.656373e+003, 9.366953e-003
3.658301e+003, 9.033887e-003
3.660230e+003, 8.871031e-003
3.662158e+003, 8.855393e-003
3.664087e+003, 9.121411e-003
3.666015e+003, 9.077915e-003
3.667944e+003, 9.625166e-003
3.669872e+003, 1.092474e-002
3.671801e+003, 1.038737e-002
3.673729e+003, 1.007587e-002
3.675657e+003, 9.882204e-003
3.677586e+003, 9.153832e-003
3.679514e+003, 9.551374e-003
3.681443e+003, 1.001717e-002
3.683371e+003, 9.446742e-003
3.685300e+003, 8.907959e-003
3.687228e+003, 9.874553e-003
3.689157e+003, 1.018717e-002
3.691085e+003, 9.704027e-003
3.693014e+003, 9.303721e-003
3.694942e+003, 8.980393e-003
3.696871e+003, 9.590815e-003
3.698799e+003, 9.474341e-003
3.700728e+003, 9.419665e-003
3.702656e+003, 9.704418e-003
3.704584e+003, 9.654727e-003
3.706513e+003, 1.016880e-002
3.708441e+003, 1.054492e-002
3.710370e+003, 1.032627e-002
3.712298e+003, 1.009330e-002
3.714227e+003, 9.517564e-003
3.716155e+003, 9.682977e-003
3.718084e+003, 9.625373e-003
3.720012e+003, 8.614765e-003
3.721941e+003, 8.477968e-003
3.723869e+003, 8.977176e-003
3.725798e+003, 9.469074e-003
3.727726e+003, 9.502010e-003
3.729655e+003, 9.918121e-003
3.731583e+003, 1.118212e-002
3.733511e+003, 1.119843e-002
3.735440e+003, 1.079969e-002
3.737368e+003, 9.997718e-003
3.739297e+003, 9.761955e-003
3.741225e+003, 1.036249e-002
3.743154e+003, 1.075522e-002
3.745082e+003, 1.065401e-002
3.747011e+003, 1.010040e-002
3.748939e+003, 1.061805e-002
3.750868e+003, 1.178771e-002
3.752796e+003, 1.121578e-002
3.754725e+003, 9.149754e-003
3.756653e+003, 8.353213e-003
3.758582e+003, 9.205074e-003
3.760510e+003, 1.008857e-002
3.762438e+003, 9.501721e-003
3.764367e+003, 9.514043e-003
3.766295e+003, 9.892916e-003
3.768224e+003, 9.965363e-003
3.770152e+003, 9.136565e-003
3.772081e+003, 8.788916e-003
3.774009e+003, 8.600984e-003
3.775938e+003, 8.440052e-003
3.777866e+003, 8.830604e-003
3.779795e+003, 9.285860e-003
3.781723e+003, 8.948309e-003
3.783652e+003, 8.938670e-003
3.785580e+003, 8.923999e-003
3.787509e+003, 8.787653e-003
3.789437e+003, 9.044285e-003
3.791365e+003, 9.433237e-003
3.793294e+003, 9.372854e-003
3.795222e+003, 9.085435e-003
3.797151e+003, 9.125393e-003
3.799079e+003, 9.570757e-003
3.801008e+003, 1.006292e-002
3.802936e+003, 9.686408e-003
3.804865e+003, 9.811475e-003
3.806793e+003, 9.942495e-003
3.808722e+003, 9.184748e-003
3.810650e+003, 9.509683e-003
3.812579e+003, 9.418380e-003
3.814507e+003, 9.724345e-003
3.816436e+003, 1.015803e-002
3.818364e+003, 9.621183e-003
3.820292e+003, 9.921623e-003
3.822221e+003, 1.014916e-002
3.824149e+003, 9.838324e-003
3.826078e+003, 8.825624e-003
3.828006e+003, 8.279619e-003
3.829935e+003, 9.298443e-003
3.831863e+003, 9.801076e-003
3.833792e+003, 9.632675e-003
3.835720e+003, 1.041830e-002
3.837649e+003, 1.063793e-002
3.839577e+003, 9.567430e-003
3.841506e+003, 8.515851e-003
3.843434e+003, 8.521731e-003
3.845363e+003, 8.605850e-003
3.847291e+003, 8.077024e-003
3.849219e+003, 8.279159e-003
3.851148e+003, 9.350397e-003
3.853076e+003, 1.058808e-002
3.855005e+003, 1.026209e-002
3.856933e+003, 9.221619e-003
3.858862e+003, 9.028568e-003
3.860790e+003, 9.269563e-003
3.862719e+003, 9.317768e-003
3.864647e+003, 9.140031e-003
3.866576e+003, 9.348465e-003
3.868504e+003, 1.022152e-002
3.870433e+003, 9.755041e-003
3.872361e+003, 9.652080e-003
3.874290e+003, 9.886924e-003
3.876218e+003, 9.240018e-003
3.878146e+003, 8.822359e-003
3.880075e+003, 8.800331e-003
3.882003e+003, 9.277429e-003
3.883932e+003, 1.030055e-002
3.885860e+003, 1.048608e-002
3.887789e+003, 9.684661e-003
3.889717e+003, 9.378737e-003
3.891646e+003, 9.025490e-003
3.893574e+003, 8.757176e-003
3.895503e+003, 8.738359e-003
3.897431e+003, 8.669556e-003
3.899360e+003, 8.462509e-003
3.901288e+003, 8.807965e-003
3.903217e+003, 8.872855e-003
3.905145e+003, 9.013764e-003
3.907073e+003, 9.608621e-003
3.909002e+003, 9.337184e-003
3.910930e+003, 9.034004e-003
3.912859e+003, 9.498307e-003
3.914787e+003, 8.875512e-003
3.916716e+003, 8.707516e-003
3.918644e+003, 9.349279e-003
3.920573e+003, 8.852589e-003
3.922501e+003, 8.623047e-003
3.924430e+003, 8.852837e-003
3.926358e+003, 9.155586e-003
3.928287e+003, 8.552952e-003
3.930215e+003, 9.047324e-003
3.932144e+003, 9.440638e-003
3.934072e+003, 9.030294e-003
3.936000e+003, 8.626579e-003
3.937929e+003, 8.073640e-003
3.939857e+003, 7.573560e-003
3.941786e+003, 7.965065e-003
3.943714e+003, 9.144037e-003
3.945643e+003, 9.567134e-003
3.947571e+003, 8.845735e-003
3.949500e+003, 8.716103e-003
3.951428e+003, 8.947354e-003
3.953357e+003, 8.228128e-003
3.955285e+003, 7.825772e-003
3.957214e+003, 8.357814e-003
3.959142e+003, 8.544043e-003
3.961071e+003, 8.714374e-003
3.962999e+003, 9.205244e-003
3.964927e+003, 9.201238e-003
3.966856e+003, 8.730941e-003
3.968784e+003, 8.879622e-003
3.970713e+003, 9.432408e-003
3.972641e+003, 9.259481e-003
3.974570e+003, 8.420208e-003
3.976498e+003, 7.745682e-003
3.978427e+003, 8.238489e-003
3.980355e+003, 8.579729e-003
3.982284e+003, 8.791002e-003
3.984212e+003, 9.139456e-003
3.986141e+003, 9.217810e-003
3.988069e+003, 8.752687e-003
3.989998e+003, 9.297770e-003
3.991926e+003, 9.733287e-003
3.993854e+003, 8.930078e-003
3.995783e+003, 8.934230e-003
3.997711e+003, 8.935973e-003
3.999640e+003, 8.720074e-003
##END=



