##NAMES=Wulfenite
##RRUFFID=R050024
##IDEAL CHEMISTRY=Pb^2+^Mo^6+^O_4_
##LOCALITY=Old Yuma mine, Tucson, Arizona, USA
##OWNER=RRUFF
##SOURCE=Eugene Schlepp
##DESCRIPTION=Orange flat tabular crystals
##STATUS=The identification of this mineral has been confirmed by X-ray diffraction.
##URL=rruff.info/R050024
3.991926e+002, 1.497755e-001
4.011211e+002, 1.554263e-001
4.030496e+002, 1.561735e-001
4.049780e+002, 1.609909e-001
4.069065e+002, 1.658095e-001
4.088350e+002, 1.708075e-001
4.107634e+002, 1.743900e-001
4.126919e+002, 1.800582e-001
4.146204e+002, 1.842988e-001
4.165488e+002, 1.888204e-001
4.184773e+002, 1.931778e-001
4.204058e+002, 1.993123e-001
4.223342e+002, 2.022165e-001
4.242627e+002, 2.066968e-001
4.261912e+002, 2.106044e-001
4.281196e+002, 2.111276e-001
4.300481e+002, 2.166934e-001
4.319766e+002, 2.225483e-001
4.339050e+002, 2.262248e-001
4.358335e+002, 2.313559e-001
4.377620e+002, 2.368351e-001
4.396904e+002, 2.395792e-001
4.416189e+002, 2.420900e-001
4.435474e+002, 2.453182e-001
4.454758e+002, 2.485366e-001
4.474043e+002, 2.549461e-001
4.493328e+002, 2.592211e-001
4.512612e+002, 2.611156e-001
4.531897e+002, 2.635375e-001
4.551182e+002, 2.669533e-001
4.570466e+002, 2.704121e-001
4.589751e+002, 2.733130e-001
4.609036e+002, 2.760206e-001
4.628320e+002, 2.796446e-001
4.647605e+002, 2.833945e-001
4.666890e+002, 2.869155e-001
4.686174e+002, 2.896720e-001
4.705459e+002, 2.939231e-001
4.724744e+002, 2.982587e-001
4.744028e+002, 3.008867e-001
4.763313e+002, 3.032568e-001
4.782598e+002, 3.058290e-001
4.801882e+002, 3.069071e-001
4.821167e+002, 3.094054e-001
4.840452e+002, 3.142448e-001
4.859736e+002, 3.176448e-001
4.879021e+002, 3.216833e-001
4.898306e+002, 3.251493e-001
4.917590e+002, 3.284739e-001
4.936875e+002, 3.327340e-001
4.956160e+002, 3.359714e-001
4.975444e+002, 3.389842e-001
4.994729e+002, 3.441252e-001
5.014014e+002, 3.473285e-001
5.033298e+002, 3.494285e-001
5.052583e+002, 3.542929e-001
5.071868e+002, 3.585896e-001
5.091152e+002, 3.608957e-001
5.110437e+002, 3.646487e-001
5.129722e+002, 3.682899e-001
5.149006e+002, 3.702535e-001
5.168291e+002, 3.722069e-001
5.187576e+002, 3.751986e-001
5.206860e+002, 3.781982e-001
5.226145e+002, 3.807767e-001
5.245430e+002, 3.829005e-001
5.264714e+002, 3.844239e-001
5.283999e+002, 3.880953e-001
5.303284e+002, 3.938048e-001
5.322568e+002, 3.983440e-001
5.341853e+002, 4.012193e-001
5.361138e+002, 4.024211e-001
5.380422e+002, 4.032762e-001
5.399707e+002, 4.050483e-001
5.418992e+002, 4.084134e-001
5.438276e+002, 4.125066e-001
5.457561e+002, 4.165812e-001
5.476846e+002, 4.207322e-001
5.496130e+002, 4.233813e-001
5.515415e+002, 4.267897e-001
5.534700e+002, 4.306775e-001
5.553984e+002, 4.316338e-001
5.573269e+002, 4.336868e-001
5.592554e+002, 4.373896e-001
5.611838e+002, 4.393854e-001
5.631123e+002, 4.417526e-001
5.650408e+002, 4.459836e-001
5.669692e+002, 4.490998e-001
5.688977e+002, 4.515767e-001
5.708262e+002, 4.549122e-001
5.727546e+002, 4.584563e-001
5.746831e+002, 4.610373e-001
5.766116e+002, 4.631081e-001
5.785400e+002, 4.656202e-001
5.804685e+002, 4.699616e-001
5.823970e+002, 4.740695e-001
5.843254e+002, 4.767226e-001
5.862539e+002, 4.797212e-001
5.881824e+002, 4.824700e-001
5.901108e+002, 4.865712e-001
5.920393e+002, 4.907824e-001
5.939678e+002, 4.944362e-001
5.958962e+002, 4.980681e-001
5.978247e+002, 4.993351e-001
5.997532e+002, 5.020393e-001
6.016816e+002, 5.049502e-001
6.036101e+002, 5.092096e-001
6.055386e+002, 5.147323e-001
6.074670e+002, 5.187029e-001
6.093955e+002, 5.217959e-001
6.113240e+002, 5.254576e-001
6.132524e+002, 5.304954e-001
6.151809e+002, 5.340626e-001
6.171094e+002, 5.383624e-001
6.190378e+002, 5.414792e-001
6.209663e+002, 5.441769e-001
6.228948e+002, 5.490822e-001
6.248232e+002, 5.535994e-001
6.267517e+002, 5.573098e-001
6.286802e+002, 5.599931e-001
6.306086e+002, 5.642216e-001
6.325371e+002, 5.686855e-001
6.344656e+002, 5.729980e-001
6.363940e+002, 5.766807e-001
6.383225e+002, 5.807455e-001
6.402510e+002, 5.854399e-001
6.421794e+002, 5.909460e-001
6.441079e+002, 5.955313e-001
6.460364e+002, 5.988061e-001
6.479648e+002, 6.018043e-001
6.498933e+002, 6.059156e-001
6.518218e+002, 6.094077e-001
6.537502e+002, 6.131592e-001
6.556787e+002, 6.176793e-001
6.576072e+002, 6.208553e-001
6.595356e+002, 6.242017e-001
6.614641e+002, 6.286427e-001
6.633926e+002, 6.312740e-001
6.653210e+002, 6.338317e-001
6.672495e+002, 6.365620e-001
6.691780e+002, 6.399477e-001
6.711064e+002, 6.435955e-001
6.730349e+002, 6.491186e-001
6.749634e+002, 6.529692e-001
6.768918e+002, 6.526923e-001
6.788203e+002, 6.507178e-001
6.807488e+002, 6.506333e-001
6.826772e+002, 6.522630e-001
6.846057e+002, 6.558885e-001
6.865342e+002, 6.600339e-001
6.884626e+002, 6.620194e-001
6.903911e+002, 6.631247e-001
6.923196e+002, 6.664745e-001
6.942480e+002, 6.708696e-001
6.961765e+002, 6.739195e-001
6.981050e+002, 6.758742e-001
7.000334e+002, 6.786465e-001
7.019619e+002, 6.803968e-001
7.038904e+002, 6.828424e-001
7.058188e+002, 6.868272e-001
7.077473e+002, 6.904502e-001
7.096758e+002, 6.919028e-001
7.116042e+002, 6.936976e-001
7.135327e+002, 6.972849e-001
7.154612e+002, 6.992331e-001
7.173896e+002, 6.997761e-001
7.193181e+002, 6.997353e-001
7.212466e+002, 6.991009e-001
7.231750e+002, 6.974240e-001
7.251035e+002, 6.943851e-001
7.270320e+002, 6.920053e-001
7.289604e+002, 6.900418e-001
7.308889e+002, 6.869031e-001
7.328174e+002, 6.820400e-001
7.347458e+002, 6.748342e-001
7.366743e+002, 6.662220e-001
7.386028e+002, 6.576276e-001
7.405313e+002, 6.459501e-001
7.424597e+002, 6.324819e-001
7.443882e+002, 6.178426e-001
7.463167e+002, 6.012187e-001
7.482451e+002, 5.810945e-001
7.501736e+002, 5.582173e-001
7.521021e+002, 5.347985e-001
7.540305e+002, 5.133374e-001
7.559590e+002, 4.951678e-001
7.578875e+002, 4.801259e-001
7.598159e+002, 4.674481e-001
7.617444e+002, 4.566343e-001
7.636729e+002, 4.451556e-001
7.656013e+002, 4.334846e-001
7.675298e+002, 4.228536e-001
7.694583e+002, 4.126098e-001
7.713867e+002, 4.021860e-001
7.733152e+002, 3.916214e-001
7.752437e+002, 3.815373e-001
7.771721e+002, 3.711469e-001
7.791006e+002, 3.606641e-001
7.810291e+002, 3.508057e-001
7.829575e+002, 3.415872e-001
7.848860e+002, 3.329560e-001
7.868145e+002, 3.237764e-001
7.887429e+002, 3.150389e-001
7.906714e+002, 3.069226e-001
7.925999e+002, 2.986565e-001
7.945283e+002, 2.905480e-001
7.964568e+002, 2.833118e-001
7.983853e+002, 2.769005e-001
8.003137e+002, 2.707646e-001
8.022422e+002, 2.653165e-001
8.041707e+002, 2.599830e-001
8.060991e+002, 2.543408e-001
8.080276e+002, 2.490644e-001
8.099561e+002, 2.443890e-001
8.118845e+002, 2.400016e-001
8.138130e+002, 2.353728e-001
8.157415e+002, 2.305094e-001
8.176699e+002, 2.252988e-001
8.195984e+002, 2.198811e-001
8.215269e+002, 2.144211e-001
8.234553e+002, 2.092205e-001
8.253838e+002, 2.040462e-001
8.273123e+002, 1.989229e-001
8.292407e+002, 1.934021e-001
8.311692e+002, 1.872122e-001
8.330977e+002, 1.805909e-001
8.350261e+002, 1.733758e-001
8.369546e+002, 1.659487e-001
8.388831e+002, 1.583348e-001
8.408115e+002, 1.506306e-001
8.427400e+002, 1.429455e-001
8.446685e+002, 1.357388e-001
8.465969e+002, 1.292723e-001
8.485254e+002, 1.228557e-001
8.504539e+002, 1.167194e-001
8.523823e+002, 1.109491e-001
8.543108e+002, 1.049846e-001
8.562393e+002, 9.881870e-002
8.581677e+002, 9.290012e-002
8.600962e+002, 8.750391e-002
8.620247e+002, 8.227149e-002
8.639531e+002, 7.696900e-002
8.658816e+002, 7.164733e-002
8.678101e+002, 6.660493e-002
8.697385e+002, 6.178541e-002
8.716670e+002, 5.654148e-002
8.735955e+002, 5.054257e-002
8.755239e+002, 4.401584e-002
8.774524e+002, 3.784511e-002
8.793809e+002, 3.250267e-002
8.813093e+002, 2.760104e-002
8.832378e+002, 2.347966e-002
8.851663e+002, 2.022196e-002
8.870947e+002, 1.798145e-002
8.890232e+002, 1.648024e-002
8.909517e+002, 1.550551e-002
8.928801e+002, 1.492371e-002
8.948085e+002, 1.449139e-002
8.967370e+002, 1.399904e-002
8.986655e+002, 1.360052e-002
9.005939e+002, 1.333656e-002
9.025224e+002, 1.310399e-002
9.044509e+002, 1.311226e-002
9.063793e+002, 1.309665e-002
9.083078e+002, 1.287985e-002
9.102363e+002, 1.278765e-002
9.121647e+002, 1.270456e-002
9.140932e+002, 1.266982e-002
9.160217e+002, 1.271757e-002
9.179501e+002, 1.262431e-002
9.198786e+002, 1.252844e-002
9.218071e+002, 1.245764e-002
9.237355e+002, 1.244136e-002
9.256640e+002, 1.242701e-002
9.275925e+002, 1.213105e-002
9.295209e+002, 1.189929e-002
9.314494e+002, 1.176047e-002
9.333779e+002, 1.142125e-002
9.353063e+002, 1.125488e-002
9.372348e+002, 1.098424e-002
9.391633e+002, 1.063281e-002
9.410917e+002, 1.056920e-002
9.430202e+002, 1.063107e-002
9.449487e+002, 1.060175e-002
9.468771e+002, 1.042875e-002
9.488056e+002, 1.036974e-002
9.507341e+002, 1.037628e-002
9.526625e+002, 1.024347e-002
9.545910e+002, 1.005838e-002
9.565195e+002, 9.753688e-003
9.584479e+002, 9.431763e-003
9.603764e+002, 8.870671e-003
9.623049e+002, 8.448493e-003
9.642333e+002, 8.325163e-003
9.661618e+002, 8.180821e-003
9.680903e+002, 8.197150e-003
9.700187e+002, 8.255725e-003
9.719472e+002, 8.432010e-003
9.738757e+002, 8.482154e-003
9.758041e+002, 8.261939e-003
9.777326e+002, 8.285402e-003
9.796611e+002, 8.504329e-003
9.815895e+002, 8.514035e-003
9.835180e+002, 8.612320e-003
9.854465e+002, 8.722406e-003
9.873749e+002, 8.738540e-003
9.893034e+002, 8.861336e-003
9.912319e+002, 9.133765e-003
9.931603e+002, 9.314085e-003
9.950888e+002, 9.287767e-003
9.970173e+002, 9.484595e-003
9.989457e+002, 9.576700e-003
1.000874e+003, 9.743098e-003
1.002803e+003, 1.013238e-002
1.004731e+003, 1.038721e-002
1.006660e+003, 1.064502e-002
1.008588e+003, 1.095506e-002
1.010517e+003, 1.118084e-002
1.012445e+003, 1.142443e-002
1.014373e+003, 1.187535e-002
1.016302e+003, 1.252934e-002
1.018230e+003, 1.286558e-002
1.020159e+003, 1.307926e-002
1.022087e+003, 1.334437e-002
1.024016e+003, 1.370629e-002
1.025944e+003, 1.408931e-002
1.027873e+003, 1.437265e-002
1.029801e+003, 1.472304e-002
1.031730e+003, 1.510825e-002
1.033658e+003, 1.545897e-002
1.035587e+003, 1.587488e-002
1.037515e+003, 1.656172e-002
1.039444e+003, 1.713178e-002
1.041372e+003, 1.729483e-002
1.043301e+003, 1.766395e-002
1.045229e+003, 1.821792e-002
1.047157e+003, 1.870543e-002
1.049086e+003, 1.969665e-002
1.051014e+003, 2.188782e-002
1.052943e+003, 2.223667e-002
1.054871e+003, 2.054598e-002
1.056800e+003, 1.995850e-002
1.058728e+003, 1.994502e-002
1.060657e+003, 2.008126e-002
1.062585e+003, 2.042654e-002
1.064514e+003, 2.071977e-002
1.066442e+003, 2.093654e-002
1.068371e+003, 2.135354e-002
1.070299e+003, 2.161639e-002
1.072228e+003, 2.191147e-002
1.074156e+003, 2.233078e-002
1.076084e+003, 2.273341e-002
1.078013e+003, 2.318374e-002
1.079941e+003, 2.377374e-002
1.081870e+003, 2.418318e-002
1.083798e+003, 2.454636e-002
1.085727e+003, 2.488557e-002
1.087655e+003, 2.519567e-002
1.089584e+003, 2.566905e-002
1.091512e+003, 2.623451e-002
1.093441e+003, 2.653250e-002
1.095369e+003, 2.698937e-002
1.097298e+003, 2.742635e-002
1.099226e+003, 2.785277e-002
1.101155e+003, 2.842024e-002
1.103083e+003, 2.917091e-002
1.105011e+003, 2.963694e-002
1.106940e+003, 2.993076e-002
1.108868e+003, 3.025611e-002
1.110797e+003, 3.070766e-002
1.112725e+003, 3.111587e-002
1.114654e+003, 3.131868e-002
1.116582e+003, 3.153811e-002
1.118511e+003, 3.186556e-002
1.120439e+003, 3.193545e-002
1.122368e+003, 3.211568e-002
1.124296e+003, 3.239907e-002
1.126225e+003, 3.277392e-002
1.128153e+003, 3.310015e-002
1.130082e+003, 3.350703e-002
1.132010e+003, 3.383520e-002
1.133938e+003, 3.421356e-002
1.135867e+003, 3.473535e-002
1.137795e+003, 3.517345e-002
1.139724e+003, 3.534706e-002
1.141652e+003, 3.567358e-002
1.143581e+003, 3.599137e-002
1.145509e+003, 3.635013e-002
1.147438e+003, 3.676763e-002
1.149366e+003, 3.722116e-002
1.151295e+003, 3.772419e-002
1.153223e+003, 3.819032e-002
1.155152e+003, 3.849305e-002
1.157080e+003, 3.903011e-002
1.159009e+003, 3.963230e-002
1.160937e+003, 4.004996e-002
1.162865e+003, 4.044948e-002
1.164794e+003, 4.104000e-002
1.166722e+003, 4.149968e-002
1.168651e+003, 4.186356e-002
1.170579e+003, 4.242628e-002
1.172508e+003, 4.283701e-002
1.174436e+003, 4.317531e-002
1.176365e+003, 4.363646e-002
1.178293e+003, 4.421593e-002
1.180222e+003, 4.494486e-002
1.182150e+003, 4.545292e-002
1.184079e+003, 4.612276e-002
1.186007e+003, 4.666732e-002
1.187936e+003, 4.714219e-002
1.189864e+003, 4.766682e-002
1.191792e+003, 4.841795e-002
1.193721e+003, 4.891905e-002
1.195649e+003, 4.920375e-002
1.197578e+003, 4.949207e-002
1.199506e+003, 4.984303e-002
1.201435e+003, 5.025422e-002
1.203363e+003, 5.081870e-002
1.205292e+003, 5.161998e-002
1.207220e+003, 5.231925e-002
1.209149e+003, 5.262323e-002
1.211077e+003, 5.285778e-002
1.213006e+003, 5.324307e-002
1.214934e+003, 5.371274e-002
1.216863e+003, 5.419604e-002
1.218791e+003, 5.476871e-002
1.220719e+003, 5.542171e-002
1.222648e+003, 5.579696e-002
1.224576e+003, 5.607408e-002
1.226505e+003, 5.669398e-002
1.228433e+003, 5.747622e-002
1.230362e+003, 5.823080e-002
1.232290e+003, 5.861155e-002
1.234219e+003, 5.913472e-002
1.236147e+003, 5.989226e-002
1.238076e+003, 6.046018e-002
1.240004e+003, 6.110958e-002
1.241933e+003, 6.171669e-002
1.243861e+003, 6.223242e-002
1.245790e+003, 6.287996e-002
1.247718e+003, 6.356750e-002
1.249646e+003, 6.423921e-002
1.251575e+003, 6.503250e-002
1.253503e+003, 6.591785e-002
1.255432e+003, 6.668709e-002
1.257360e+003, 6.734209e-002
1.259289e+003, 6.800571e-002
1.261217e+003, 6.885895e-002
1.263146e+003, 6.981485e-002
1.265074e+003, 7.083657e-002
1.267003e+003, 7.169191e-002
1.268931e+003, 7.274088e-002
1.270860e+003, 7.383992e-002
1.272788e+003, 7.504606e-002
1.274717e+003, 7.625638e-002
1.276645e+003, 7.744370e-002
1.278573e+003, 7.827778e-002
1.280502e+003, 7.892301e-002
1.282430e+003, 7.938536e-002
1.284359e+003, 7.966582e-002
1.286287e+003, 8.001760e-002
1.288216e+003, 8.044019e-002
1.290144e+003, 8.102969e-002
1.292073e+003, 8.177903e-002
1.294001e+003, 8.260151e-002
1.295930e+003, 8.340649e-002
1.297858e+003, 8.423795e-002
1.299787e+003, 8.517420e-002
1.301715e+003, 8.607113e-002
1.303644e+003, 8.696496e-002
1.305572e+003, 8.776617e-002
1.307500e+003, 8.845370e-002
1.309429e+003, 8.922288e-002
1.311357e+003, 9.008647e-002
1.313286e+003, 9.092004e-002
1.315214e+003, 9.188744e-002
1.317143e+003, 9.255020e-002
1.319071e+003, 9.327057e-002
1.321000e+003, 9.408085e-002
1.322928e+003, 9.480301e-002
1.324857e+003, 9.549887e-002
1.326785e+003, 9.638654e-002
1.328714e+003, 9.729926e-002
1.330642e+003, 9.815922e-002
1.332571e+003, 9.894091e-002
1.334499e+003, 9.978046e-002
1.336427e+003, 1.003874e-001
1.338356e+003, 1.009632e-001
1.340284e+003, 1.019539e-001
1.342213e+003, 1.032211e-001
1.344141e+003, 1.043401e-001
1.346070e+003, 1.054829e-001
1.347998e+003, 1.065162e-001
1.349927e+003, 1.078382e-001
1.351855e+003, 1.090912e-001
1.353784e+003, 1.102116e-001
1.355712e+003, 1.116665e-001
1.357641e+003, 1.133249e-001
1.359569e+003, 1.146278e-001
1.361498e+003, 1.159068e-001
1.363426e+003, 1.176841e-001
1.365354e+003, 1.202208e-001
1.367283e+003, 1.224765e-001
1.369211e+003, 1.245563e-001
1.371140e+003, 1.266793e-001
1.373068e+003, 1.289799e-001
1.374997e+003, 1.318018e-001
1.376925e+003, 1.352209e-001
1.378854e+003, 1.384021e-001
1.380782e+003, 1.415554e-001
1.382711e+003, 1.447674e-001
1.384639e+003, 1.481029e-001
1.386568e+003, 1.513086e-001
1.388496e+003, 1.555569e-001
1.390424e+003, 1.599827e-001
1.392353e+003, 1.634153e-001
1.394281e+003, 1.659076e-001
1.396210e+003, 1.691679e-001
1.398138e+003, 1.716702e-001
1.400067e+003, 1.733483e-001
1.401995e+003, 1.747693e-001
1.403924e+003, 1.750768e-001
1.405852e+003, 1.750960e-001
1.407781e+003, 1.750521e-001
1.409709e+003, 1.739952e-001
1.411638e+003, 1.726897e-001
1.413566e+003, 1.717893e-001
1.415495e+003, 1.709045e-001
1.417423e+003, 1.690256e-001
1.419351e+003, 1.677656e-001
1.421280e+003, 1.695099e-001
1.423208e+003, 1.707365e-001
1.425137e+003, 1.717541e-001
1.427065e+003, 1.732386e-001
1.428994e+003, 1.741157e-001
1.430922e+003, 1.753970e-001
1.432851e+003, 1.767731e-001
1.434779e+003, 1.761972e-001
1.436708e+003, 1.749602e-001
1.438636e+003, 1.766224e-001
1.440565e+003, 1.771344e-001
1.442493e+003, 1.760104e-001
1.444422e+003, 1.741995e-001
1.446350e+003, 1.720285e-001
1.448278e+003, 1.701119e-001
1.450207e+003, 1.687460e-001
1.452135e+003, 1.666604e-001
1.454064e+003, 1.636740e-001
1.455992e+003, 1.580825e-001
1.457921e+003, 1.562770e-001
1.459849e+003, 1.579756e-001
1.461778e+003, 1.572670e-001
1.463706e+003, 1.544352e-001
1.465635e+003, 1.523711e-001
1.467563e+003, 1.516758e-001
1.469492e+003, 1.499680e-001
1.471420e+003, 1.463874e-001
1.473349e+003, 1.443774e-001
1.475277e+003, 1.447073e-001
1.477205e+003, 1.449308e-001
1.479134e+003, 1.451127e-001
1.481062e+003, 1.444159e-001
1.482991e+003, 1.439304e-001
1.484919e+003, 1.429525e-001
1.486848e+003, 1.417810e-001
1.488776e+003, 1.408767e-001
1.490705e+003, 1.407959e-001
1.492633e+003, 1.413890e-001
1.494562e+003, 1.399817e-001
1.496490e+003, 1.379960e-001
1.498419e+003, 1.385444e-001
1.500347e+003, 1.395231e-001
1.502276e+003, 1.396396e-001
1.504204e+003, 1.363335e-001
1.506132e+003, 1.319157e-001
1.508061e+003, 1.335983e-001
1.509989e+003, 1.369907e-001
1.511918e+003, 1.375061e-001
1.513846e+003, 1.376383e-001
1.515775e+003, 1.371409e-001
1.517703e+003, 1.369121e-001
1.519632e+003, 1.356721e-001
1.521560e+003, 1.346890e-001
1.523489e+003, 1.373637e-001
1.525417e+003, 1.384944e-001
1.527346e+003, 1.393205e-001
1.529274e+003, 1.405923e-001
1.531203e+003, 1.405825e-001
1.533131e+003, 1.393592e-001
1.535059e+003, 1.406057e-001
1.536988e+003, 1.398964e-001
1.538916e+003, 1.354677e-001
1.540845e+003, 1.353950e-001
1.542773e+003, 1.384491e-001
1.544702e+003, 1.403389e-001
1.546630e+003, 1.420331e-001
1.548559e+003, 1.425596e-001
1.550487e+003, 1.423117e-001
1.552416e+003, 1.418336e-001
1.554344e+003, 1.406607e-001
1.556273e+003, 1.390497e-001
1.558201e+003, 1.344454e-001
1.560130e+003, 1.356229e-001
1.562058e+003, 1.416823e-001
1.563986e+003, 1.436627e-001
1.565915e+003, 1.439851e-001
1.567843e+003, 1.434516e-001
1.569772e+003, 1.430348e-001
1.571700e+003, 1.449484e-001
1.573629e+003, 1.448041e-001
1.575557e+003, 1.420987e-001
1.577486e+003, 1.444238e-001
1.579414e+003, 1.482899e-001
1.581343e+003, 1.492626e-001
1.583271e+003, 1.499452e-001
1.585200e+003, 1.508990e-001
1.587128e+003, 1.516699e-001
1.589057e+003, 1.522162e-001
1.590985e+003, 1.528169e-001
1.592913e+003, 1.533161e-001
1.594842e+003, 1.542526e-001
1.596770e+003, 1.557572e-001
1.598699e+003, 1.569173e-001
1.600627e+003, 1.577402e-001
1.602556e+003, 1.588854e-001
1.604484e+003, 1.599779e-001
1.606413e+003, 1.606892e-001
1.608341e+003, 1.611934e-001
1.610270e+003, 1.616072e-001
1.612198e+003, 1.618944e-001
1.614127e+003, 1.603554e-001
1.616055e+003, 1.562704e-001
1.617984e+003, 1.567246e-001
1.619912e+003, 1.589594e-001
1.621840e+003, 1.576634e-001
1.623769e+003, 1.562973e-001
1.625697e+003, 1.565797e-001
1.627626e+003, 1.562668e-001
1.629554e+003, 1.563279e-001
1.631483e+003, 1.566034e-001
1.633411e+003, 1.543930e-001
1.635340e+003, 1.510049e-001
1.637268e+003, 1.528734e-001
1.639197e+003, 1.554677e-001
1.641125e+003, 1.559988e-001
1.643054e+003, 1.562913e-001
1.644982e+003, 1.540437e-001
1.646911e+003, 1.533356e-001
1.648839e+003, 1.560708e-001
1.650767e+003, 1.536235e-001
1.652696e+003, 1.475878e-001
1.654624e+003, 1.521228e-001
1.656553e+003, 1.581526e-001
1.658481e+003, 1.594551e-001
1.660410e+003, 1.593214e-001
1.662338e+003, 1.586607e-001
1.664267e+003, 1.596260e-001
1.666195e+003, 1.603180e-001
1.668124e+003, 1.588603e-001
1.670052e+003, 1.585399e-001
1.671981e+003, 1.600154e-001
1.673909e+003, 1.595353e-001
1.675838e+003, 1.594676e-001
1.677766e+003, 1.619008e-001
1.679694e+003, 1.624040e-001
1.681623e+003, 1.612842e-001
1.683551e+003, 1.568287e-001
1.685480e+003, 1.580343e-001
1.687408e+003, 1.630626e-001
1.689337e+003, 1.647100e-001
1.691265e+003, 1.658774e-001
1.693194e+003, 1.653415e-001
1.695122e+003, 1.612937e-001
1.697051e+003, 1.617993e-001
1.698979e+003, 1.614539e-001
1.700908e+003, 1.614039e-001
1.702836e+003, 1.667958e-001
1.704765e+003, 1.680767e-001
1.706693e+003, 1.691759e-001
1.708621e+003, 1.704600e-001
1.710550e+003, 1.711485e-001
1.712478e+003, 1.710266e-001
1.714407e+003, 1.700460e-001
1.716335e+003, 1.676281e-001
1.718264e+003, 1.684902e-001
1.720192e+003, 1.730791e-001
1.722121e+003, 1.755235e-001
1.724049e+003, 1.765812e-001
1.725978e+003, 1.777474e-001
1.727906e+003, 1.778265e-001
1.729835e+003, 1.772838e-001
1.731763e+003, 1.745185e-001
1.733692e+003, 1.703119e-001
1.735620e+003, 1.723375e-001
1.737548e+003, 1.745556e-001
1.739477e+003, 1.730789e-001
1.741405e+003, 1.730824e-001
1.743334e+003, 1.726900e-001
1.745262e+003, 1.724382e-001
1.747191e+003, 1.718994e-001
1.749119e+003, 1.708122e-001
1.751048e+003, 1.700328e-001
1.752976e+003, 1.720100e-001
1.754905e+003, 1.734433e-001
1.756833e+003, 1.736979e-001
1.758762e+003, 1.748578e-001
1.760690e+003, 1.748003e-001
1.762619e+003, 1.753517e-001
1.764547e+003, 1.769712e-001
1.766475e+003, 1.767439e-001
1.768404e+003, 1.767520e-001
1.770332e+003, 1.763321e-001
1.772261e+003, 1.751876e-001
1.774189e+003, 1.774227e-001
1.776118e+003, 1.795481e-001
1.778046e+003, 1.796275e-001
1.779975e+003, 1.796881e-001
1.781903e+003, 1.805281e-001
1.783832e+003, 1.809554e-001
1.785760e+003, 1.813247e-001
1.787689e+003, 1.821752e-001
1.789617e+003, 1.819084e-001
1.791546e+003, 1.808699e-001
1.793474e+003, 1.818115e-001
1.795402e+003, 1.835457e-001
1.797331e+003, 1.837094e-001
1.799259e+003, 1.838821e-001
1.801188e+003, 1.843170e-001
1.803116e+003, 1.850925e-001
1.805045e+003, 1.857773e-001
1.806973e+003, 1.864665e-001
1.808902e+003, 1.865773e-001
1.810830e+003, 1.866524e-001
1.812759e+003, 1.873191e-001
1.814687e+003, 1.882598e-001
1.816616e+003, 1.885254e-001
1.818544e+003, 1.892954e-001
1.820473e+003, 1.903445e-001
1.822401e+003, 1.908134e-001
1.824329e+003, 1.901773e-001
1.826258e+003, 1.904607e-001
1.828186e+003, 1.905837e-001
1.830115e+003, 1.905465e-001
1.832043e+003, 1.916302e-001
1.833972e+003, 1.927834e-001
1.835900e+003, 1.939054e-001
1.837829e+003, 1.943935e-001
1.839757e+003, 1.942810e-001
1.841686e+003, 1.936873e-001
1.843614e+003, 1.923812e-001
1.845543e+003, 1.933913e-001
1.847471e+003, 1.947142e-001
1.849400e+003, 1.956881e-001
1.851328e+003, 1.962072e-001
1.853256e+003, 1.968128e-001
1.855185e+003, 1.976212e-001
1.857113e+003, 1.979628e-001
1.859042e+003, 1.982515e-001
1.860970e+003, 1.990847e-001
1.862899e+003, 1.996967e-001
1.864827e+003, 1.996373e-001
1.866756e+003, 1.994560e-001
1.868684e+003, 1.990538e-001
1.870613e+003, 2.001313e-001
1.872541e+003, 2.012332e-001
1.874470e+003, 2.013057e-001
1.876398e+003, 2.018708e-001
1.878327e+003, 2.021847e-001
1.880255e+003, 2.027793e-001
1.882183e+003, 2.040773e-001
1.884112e+003, 2.046349e-001
1.886040e+003, 2.048914e-001
1.887969e+003, 2.055151e-001
1.889897e+003, 2.059350e-001
1.891826e+003, 2.057756e-001
1.893754e+003, 2.054373e-001
1.895683e+003, 2.059657e-001
1.897611e+003, 2.062437e-001
1.899540e+003, 2.070965e-001
1.901468e+003, 2.080831e-001
1.903397e+003, 2.084710e-001
1.905325e+003, 2.088450e-001
1.907254e+003, 2.089427e-001
1.909182e+003, 2.088928e-001
1.911110e+003, 2.088612e-001
1.913039e+003, 2.088606e-001
1.914967e+003, 2.103816e-001
1.916896e+003, 2.103064e-001
1.918824e+003, 2.100265e-001
1.920753e+003, 2.110545e-001
1.922681e+003, 2.122648e-001
1.924610e+003, 2.129082e-001
1.926538e+003, 2.135494e-001
1.928467e+003, 2.142136e-001
1.930395e+003, 2.144163e-001
1.932324e+003, 2.148703e-001
1.934252e+003, 2.158938e-001
1.936181e+003, 2.164866e-001
1.938109e+003, 2.176256e-001
1.940037e+003, 2.171033e-001
1.941966e+003, 2.172004e-001
1.943894e+003, 2.178354e-001
1.945823e+003, 2.185838e-001
1.947751e+003, 2.186209e-001
1.949680e+003, 2.190470e-001
1.951608e+003, 2.183512e-001
1.953537e+003, 2.178911e-001
1.955465e+003, 2.188913e-001
1.957394e+003, 2.204155e-001
1.959322e+003, 2.212690e-001
1.961251e+003, 2.224898e-001
1.963179e+003, 2.231468e-001
1.965108e+003, 2.236344e-001
1.967036e+003, 2.243699e-001
1.968964e+003, 2.243688e-001
1.970893e+003, 2.247617e-001
1.972821e+003, 2.251398e-001
1.974750e+003, 2.248297e-001
1.976678e+003, 2.257748e-001
1.978607e+003, 2.277594e-001
1.980535e+003, 2.277583e-001
1.982464e+003, 2.262408e-001
1.984392e+003, 2.274679e-001
1.986321e+003, 2.274958e-001
1.988249e+003, 2.258836e-001
1.990178e+003, 2.250876e-001
1.992106e+003, 2.260219e-001
1.994035e+003, 2.284992e-001
1.995963e+003, 2.301448e-001
1.997891e+003, 2.283666e-001
1.999820e+003, 2.275684e-001
2.001748e+003, 2.277666e-001
2.003677e+003, 2.270065e-001
2.005605e+003, 2.260883e-001
2.007534e+003, 2.273829e-001
2.009462e+003, 2.299384e-001
2.011391e+003, 2.309981e-001
2.013319e+003, 2.307283e-001
2.015248e+003, 2.308758e-001
2.017176e+003, 2.311592e-001
2.019105e+003, 2.296114e-001
2.021033e+003, 2.303236e-001
2.022962e+003, 2.293911e-001
2.024890e+003, 2.295030e-001
2.026818e+003, 2.331343e-001
2.028747e+003, 2.331477e-001
2.030675e+003, 2.318070e-001
2.032604e+003, 2.332751e-001
2.034532e+003, 2.368553e-001
2.036461e+003, 2.365267e-001
2.038389e+003, 2.350092e-001
2.040318e+003, 2.345479e-001
2.042246e+003, 2.344034e-001
2.044175e+003, 2.350177e-001
2.046103e+003, 2.355792e-001
2.048032e+003, 2.351902e-001
2.049960e+003, 2.366593e-001
2.051889e+003, 2.364768e-001
2.053817e+003, 2.356092e-001
2.055746e+003, 2.360160e-001
2.057674e+003, 2.366803e-001
2.059603e+003, 2.369248e-001
2.061531e+003, 2.378577e-001
2.063459e+003, 2.386920e-001
2.065388e+003, 2.383804e-001
2.067316e+003, 2.390379e-001
2.069245e+003, 2.387256e-001
2.071173e+003, 2.385675e-001
2.073102e+003, 2.406950e-001
2.075030e+003, 2.416124e-001
2.076959e+003, 2.409861e-001
2.078887e+003, 2.408246e-001
2.080816e+003, 2.405075e-001
2.082744e+003, 2.403345e-001
2.084673e+003, 2.409222e-001
2.086601e+003, 2.410606e-001
2.088530e+003, 2.397776e-001
2.090458e+003, 2.396375e-001
2.092386e+003, 2.413466e-001
2.094315e+003, 2.433671e-001
2.096243e+003, 2.437942e-001
2.098172e+003, 2.434690e-001
2.100100e+003, 2.433842e-001
2.102029e+003, 2.432406e-001
2.103957e+003, 2.435419e-001
2.105886e+003, 2.441777e-001
2.107814e+003, 2.442044e-001
2.109743e+003, 2.440983e-001
2.111671e+003, 2.450491e-001
2.113600e+003, 2.457653e-001
2.115528e+003, 2.464834e-001
2.117457e+003, 2.466571e-001
2.119385e+003, 2.465418e-001
2.121313e+003, 2.456335e-001
2.123242e+003, 2.450457e-001
2.125170e+003, 2.453683e-001
2.127099e+003, 2.461890e-001
2.129027e+003, 2.470150e-001
2.130956e+003, 2.492669e-001
2.132884e+003, 2.502885e-001
2.134813e+003, 2.494150e-001
2.136741e+003, 2.496121e-001
2.138670e+003, 2.498844e-001
2.140598e+003, 2.501682e-001
2.142527e+003, 2.500954e-001
2.144455e+003, 2.499555e-001
2.146384e+003, 2.505663e-001
2.148312e+003, 2.503420e-001
2.150240e+003, 2.504853e-001
2.152169e+003, 2.509975e-001
2.154097e+003, 2.511484e-001
2.156026e+003, 2.519985e-001
2.157954e+003, 2.541028e-001
2.159883e+003, 2.555433e-001
2.161811e+003, 2.548115e-001
2.163740e+003, 2.552150e-001
2.165668e+003, 2.575501e-001
2.167597e+003, 2.557458e-001
2.169525e+003, 2.544784e-001
2.171454e+003, 2.556812e-001
2.173382e+003, 2.548029e-001
2.175311e+003, 2.542577e-001
2.177239e+003, 2.554294e-001
2.179167e+003, 2.572007e-001
2.181096e+003, 2.588055e-001
2.183024e+003, 2.569182e-001
2.184953e+003, 2.553309e-001
2.186881e+003, 2.574675e-001
2.188810e+003, 2.585892e-001
2.190738e+003, 2.593870e-001
2.192667e+003, 2.608583e-001
2.194595e+003, 2.617320e-001
2.196524e+003, 2.621198e-001
2.198452e+003, 2.621080e-001
2.200381e+003, 2.607586e-001
2.202309e+003, 2.615973e-001
2.204238e+003, 2.625461e-001
2.206166e+003, 2.604752e-001
2.208094e+003, 2.578594e-001
2.210023e+003, 2.578906e-001
2.211951e+003, 2.601480e-001
2.213880e+003, 2.621908e-001
2.215808e+003, 2.632158e-001
2.217737e+003, 2.630219e-001
2.219665e+003, 2.626613e-001
2.221594e+003, 2.633408e-001
2.223522e+003, 2.643279e-001
2.225451e+003, 2.652234e-001
2.227379e+003, 2.645827e-001
2.229308e+003, 2.635183e-001
2.231236e+003, 2.635814e-001
2.233165e+003, 2.643195e-001
2.235093e+003, 2.645005e-001
2.237021e+003, 2.649374e-001
2.238950e+003, 2.664692e-001
2.240878e+003, 2.661914e-001
2.242807e+003, 2.657200e-001
2.244735e+003, 2.662062e-001
2.246664e+003, 2.667519e-001
2.248592e+003, 2.671546e-001
2.250521e+003, 2.675316e-001
2.252449e+003, 2.661144e-001
2.254378e+003, 2.668580e-001
2.256306e+003, 2.673955e-001
2.258235e+003, 2.669202e-001
2.260163e+003, 2.680421e-001
2.262092e+003, 2.684173e-001
2.264020e+003, 2.684123e-001
2.265948e+003, 2.682382e-001
2.267877e+003, 2.686058e-001
2.269805e+003, 2.691969e-001
2.271734e+003, 2.699355e-001
2.273662e+003, 2.711524e-001
2.275591e+003, 2.700051e-001
2.277519e+003, 2.697189e-001
2.279448e+003, 2.704861e-001
2.281376e+003, 2.706911e-001
2.283305e+003, 2.709037e-001
2.285233e+003, 2.713729e-001
2.287162e+003, 2.729892e-001
2.289090e+003, 2.732034e-001
2.291019e+003, 2.722078e-001
2.292947e+003, 2.721342e-001
2.294875e+003, 2.717535e-001
2.296804e+003, 2.721712e-001
2.298732e+003, 2.725909e-001
2.300661e+003, 2.723035e-001
2.302589e+003, 2.733620e-001
2.304518e+003, 2.750247e-001
2.306446e+003, 2.747787e-001
2.308375e+003, 2.739433e-001
2.310303e+003, 2.734084e-001
2.312232e+003, 2.741293e-001
2.314160e+003, 2.756016e-001
2.316089e+003, 2.762723e-001
2.318017e+003, 2.762490e-001
2.319946e+003, 2.767228e-001
2.321874e+003, 2.774407e-001
2.323802e+003, 2.775665e-001
2.325731e+003, 2.770958e-001
2.327659e+003, 2.772209e-001
2.329588e+003, 2.779211e-001
2.331516e+003, 2.782114e-001
2.333445e+003, 2.784619e-001
2.335373e+003, 2.786167e-001
2.337302e+003, 2.787920e-001
2.339230e+003, 2.792276e-001
2.341159e+003, 2.793783e-001
2.343087e+003, 2.793049e-001
2.345016e+003, 2.792044e-001
2.346944e+003, 2.792415e-001
2.348873e+003, 2.790574e-001
2.350801e+003, 2.794213e-001
2.352729e+003, 2.800629e-001
2.354658e+003, 2.808251e-001
2.356586e+003, 2.823678e-001
2.358515e+003, 2.835435e-001
2.360443e+003, 2.835266e-001
2.362372e+003, 2.832460e-001
2.364300e+003, 2.835902e-001
2.366229e+003, 2.838429e-001
2.368157e+003, 2.835156e-001
2.370086e+003, 2.839913e-001
2.372014e+003, 2.843654e-001
2.373942e+003, 2.837733e-001
2.375871e+003, 2.829472e-001
2.377799e+003, 2.829711e-001
2.379728e+003, 2.838421e-001
2.381656e+003, 2.846129e-001
2.383585e+003, 2.844317e-001
2.385513e+003, 2.840499e-001
2.387442e+003, 2.840250e-001
2.389370e+003, 2.842719e-001
2.391299e+003, 2.854817e-001
2.393227e+003, 2.865785e-001
2.395156e+003, 2.870314e-001
2.397084e+003, 2.869297e-001
2.399012e+003, 2.869616e-001
2.400941e+003, 2.877073e-001
2.402869e+003, 2.886183e-001
2.404798e+003, 2.891442e-001
2.406726e+003, 2.894427e-001
2.408655e+003, 2.892692e-001
2.410583e+003, 2.888013e-001
2.412512e+003, 2.891711e-001
2.414440e+003, 2.895913e-001
2.416369e+003, 2.903689e-001
2.418297e+003, 2.912345e-001
2.420226e+003, 2.910862e-001
2.422154e+003, 2.905723e-001
2.424083e+003, 2.907557e-001
2.426011e+003, 2.911963e-001
2.427939e+003, 2.917165e-001
2.429868e+003, 2.920958e-001
2.431796e+003, 2.926605e-001
2.433725e+003, 2.934888e-001
2.435653e+003, 2.931387e-001
2.437582e+003, 2.927260e-001
2.439510e+003, 2.929461e-001
2.441439e+003, 2.938388e-001
2.443367e+003, 2.943112e-001
2.445296e+003, 2.942090e-001
2.447224e+003, 2.950522e-001
2.449153e+003, 2.949423e-001
2.451081e+003, 2.942208e-001
2.453010e+003, 2.938094e-001
2.454938e+003, 2.943539e-001
2.456866e+003, 2.958183e-001
2.458795e+003, 2.961653e-001
2.460723e+003, 2.952913e-001
2.462652e+003, 2.946161e-001
2.464580e+003, 2.950397e-001
2.466509e+003, 2.962054e-001
2.468437e+003, 2.967612e-001
2.470366e+003, 2.962910e-001
2.472294e+003, 2.966053e-001
2.474223e+003, 2.971408e-001
2.476151e+003, 2.973325e-001
2.478080e+003, 2.972016e-001
2.480008e+003, 2.972928e-001
2.481937e+003, 2.984313e-001
2.483865e+003, 2.991436e-001
2.485793e+003, 2.987238e-001
2.487722e+003, 2.986391e-001
2.489650e+003, 2.986059e-001
2.491579e+003, 2.989163e-001
2.493507e+003, 3.004337e-001
2.495436e+003, 3.005796e-001
2.497364e+003, 3.001064e-001
2.499293e+003, 3.011874e-001
2.501221e+003, 3.015159e-001
2.503150e+003, 3.016160e-001
2.505078e+003, 3.018616e-001
2.507007e+003, 3.018888e-001
2.508935e+003, 3.021634e-001
2.510864e+003, 3.026415e-001
2.512792e+003, 3.034810e-001
2.514720e+003, 3.035117e-001
2.516649e+003, 3.033054e-001
2.518577e+003, 3.029605e-001
2.520506e+003, 3.029759e-001
2.522434e+003, 3.030631e-001
2.524363e+003, 3.036728e-001
2.526291e+003, 3.042074e-001
2.528220e+003, 3.048601e-001
2.530148e+003, 3.057498e-001
2.532077e+003, 3.053897e-001
2.534005e+003, 3.042873e-001
2.535934e+003, 3.043472e-001
2.537862e+003, 3.048658e-001
2.539791e+003, 3.060396e-001
2.541719e+003, 3.062754e-001
2.543647e+003, 3.065682e-001
2.545576e+003, 3.065523e-001
2.547504e+003, 3.069116e-001
2.549433e+003, 3.077624e-001
2.551361e+003, 3.076702e-001
2.553290e+003, 3.077769e-001
2.555218e+003, 3.077478e-001
2.557147e+003, 3.082448e-001
2.559075e+003, 3.092433e-001
2.561004e+003, 3.093542e-001
2.562932e+003, 3.092665e-001
2.564861e+003, 3.091375e-001
2.566789e+003, 3.096105e-001
2.568718e+003, 3.100698e-001
2.570646e+003, 3.106312e-001
2.572574e+003, 3.106237e-001
2.574503e+003, 3.095811e-001
2.576431e+003, 3.099443e-001
2.578360e+003, 3.111367e-001
2.580288e+003, 3.115421e-001
2.582217e+003, 3.110504e-001
2.584145e+003, 3.108229e-001
2.586074e+003, 3.113655e-001
2.588002e+003, 3.114271e-001
2.589931e+003, 3.116898e-001
2.591859e+003, 3.123768e-001
2.593788e+003, 3.128864e-001
2.595716e+003, 3.134348e-001
2.597645e+003, 3.134719e-001
2.599573e+003, 3.130789e-001
2.601501e+003, 3.131796e-001
2.603430e+003, 3.136952e-001
2.605358e+003, 3.144556e-001
2.607287e+003, 3.153106e-001
2.609215e+003, 3.157764e-001
2.611144e+003, 3.156749e-001
2.613072e+003, 3.162532e-001
2.615001e+003, 3.164113e-001
2.616929e+003, 3.158436e-001
2.618858e+003, 3.158504e-001
2.620786e+003, 3.160001e-001
2.622715e+003, 3.160109e-001
2.624643e+003, 3.169798e-001
2.626572e+003, 3.172285e-001
2.628500e+003, 3.172197e-001
2.630428e+003, 3.174712e-001
2.632357e+003, 3.173913e-001
2.634285e+003, 3.172215e-001
2.636214e+003, 3.170812e-001
2.638142e+003, 3.172763e-001
2.640071e+003, 3.178149e-001
2.641999e+003, 3.184789e-001
2.643928e+003, 3.186937e-001
2.645856e+003, 3.174976e-001
2.647785e+003, 3.175741e-001
2.649713e+003, 3.188733e-001
2.651642e+003, 3.194614e-001
2.653570e+003, 3.186242e-001
2.655499e+003, 3.182403e-001
2.657427e+003, 3.187075e-001
2.659355e+003, 3.199420e-001
2.661284e+003, 3.197569e-001
2.663212e+003, 3.196530e-001
2.665141e+003, 3.204223e-001
2.667069e+003, 3.213110e-001
2.668998e+003, 3.216938e-001
2.670926e+003, 3.219713e-001
2.672855e+003, 3.209764e-001
2.674783e+003, 3.200243e-001
2.676712e+003, 3.201202e-001
2.678640e+003, 3.208408e-001
2.680569e+003, 3.215626e-001
2.682497e+003, 3.222799e-001
2.684426e+003, 3.235019e-001
2.686354e+003, 3.244699e-001
2.688282e+003, 3.241170e-001
2.690211e+003, 3.234895e-001
2.692139e+003, 3.236158e-001
2.694068e+003, 3.240141e-001
2.695996e+003, 3.243966e-001
2.697925e+003, 3.242159e-001
2.699853e+003, 3.238915e-001
2.701782e+003, 3.246644e-001
2.703710e+003, 3.258641e-001
2.705639e+003, 3.260122e-001
2.707567e+003, 3.257780e-001
2.709496e+003, 3.261144e-001
2.711424e+003, 3.263180e-001
2.713353e+003, 3.260630e-001
2.715281e+003, 3.257416e-001
2.717209e+003, 3.259398e-001
2.719138e+003, 3.265380e-001
2.721066e+003, 3.273416e-001
2.722995e+003, 3.281542e-001
2.724923e+003, 3.285367e-001
2.726852e+003, 3.293688e-001
2.728780e+003, 3.299214e-001
2.730709e+003, 3.297522e-001
2.732637e+003, 3.294412e-001
2.734566e+003, 3.294929e-001
2.736494e+003, 3.300259e-001
2.738423e+003, 3.302085e-001
2.740351e+003, 3.299391e-001
2.742280e+003, 3.303688e-001
2.744208e+003, 3.317483e-001
2.746136e+003, 3.314285e-001
2.748065e+003, 3.313088e-001
2.749993e+003, 3.314985e-001
2.751922e+003, 3.314691e-001
2.753850e+003, 3.316276e-001
2.755779e+003, 3.320860e-001
2.757707e+003, 3.329578e-001
2.759636e+003, 3.325077e-001
2.761564e+003, 3.322251e-001
2.763493e+003, 3.324147e-001
2.765421e+003, 3.322937e-001
2.767350e+003, 3.325125e-001
2.769278e+003, 3.328548e-001
2.771207e+003, 3.336720e-001
2.773135e+003, 3.345763e-001
2.775063e+003, 3.353269e-001
2.776992e+003, 3.353065e-001
2.778920e+003, 3.351095e-001
2.780849e+003, 3.354752e-001
2.782777e+003, 3.361008e-001
2.784706e+003, 3.361636e-001
2.786634e+003, 3.357154e-001
2.788563e+003, 3.355833e-001
2.790491e+003, 3.354394e-001
2.792420e+003, 3.357599e-001
2.794348e+003, 3.370271e-001
2.796277e+003, 3.379793e-001
2.798205e+003, 3.382260e-001
2.800134e+003, 3.382904e-001
2.802062e+003, 3.390371e-001
2.803990e+003, 3.391328e-001
2.805919e+003, 3.380485e-001
2.807847e+003, 3.386935e-001
2.809776e+003, 3.402924e-001
2.811704e+003, 3.403867e-001
2.813633e+003, 3.399379e-001
2.815561e+003, 3.399030e-001
2.817490e+003, 3.409490e-001
2.819418e+003, 3.413588e-001
2.821347e+003, 3.405710e-001
2.823275e+003, 3.405266e-001
2.825204e+003, 3.413083e-001
2.827132e+003, 3.420721e-001
2.829061e+003, 3.418365e-001
2.830989e+003, 3.420554e-001
2.832917e+003, 3.425108e-001
2.834846e+003, 3.436130e-001
2.836774e+003, 3.449041e-001
2.838703e+003, 3.449723e-001
2.840631e+003, 3.451968e-001
2.842560e+003, 3.456104e-001
2.844488e+003, 3.456483e-001
2.846417e+003, 3.455250e-001
2.848345e+003, 3.447284e-001
2.850274e+003, 3.440762e-001
2.852202e+003, 3.446467e-001
2.854131e+003, 3.454569e-001
2.856059e+003, 3.461140e-001
2.857988e+003, 3.463824e-001
2.859916e+003, 3.469880e-001
2.861844e+003, 3.472720e-001
2.863773e+003, 3.468002e-001
2.865701e+003, 3.460910e-001
2.867630e+003, 3.460771e-001
2.869558e+003, 3.468775e-001
2.871487e+003, 3.475533e-001
2.873415e+003, 3.470840e-001
2.875344e+003, 3.469231e-001
2.877272e+003, 3.489504e-001
2.879201e+003, 3.500235e-001
2.881129e+003, 3.487497e-001
2.883058e+003, 3.481137e-001
2.884986e+003, 3.490471e-001
2.886915e+003, 3.504882e-001
2.888843e+003, 3.511864e-001
2.890771e+003, 3.509840e-001
2.892700e+003, 3.512076e-001
2.894628e+003, 3.522391e-001
2.896557e+003, 3.521712e-001
2.898485e+003, 3.522723e-001
2.900414e+003, 3.527471e-001
2.902342e+003, 3.521946e-001
2.904271e+003, 3.526861e-001
2.906199e+003, 3.541720e-001
2.908128e+003, 3.546405e-001
2.910056e+003, 3.553918e-001
2.911985e+003, 3.563124e-001
2.913913e+003, 3.544491e-001
2.915842e+003, 3.539034e-001
2.917770e+003, 3.552867e-001
2.919698e+003, 3.561635e-001
2.921627e+003, 3.555905e-001
2.923555e+003, 3.554564e-001
2.925484e+003, 3.546520e-001
2.927412e+003, 3.549676e-001
2.929341e+003, 3.558801e-001
2.931269e+003, 3.554138e-001
2.933198e+003, 3.548653e-001
2.935126e+003, 3.543306e-001
2.937055e+003, 3.545904e-001
2.938983e+003, 3.558359e-001
2.940912e+003, 3.563912e-001
2.942840e+003, 3.562486e-001
2.944769e+003, 3.557810e-001
2.946697e+003, 3.554122e-001
2.948625e+003, 3.566743e-001
2.950554e+003, 3.574071e-001
2.952482e+003, 3.572209e-001
2.954411e+003, 3.575015e-001
2.956339e+003, 3.580988e-001
2.958268e+003, 3.590230e-001
2.960196e+003, 3.583741e-001
2.962125e+003, 3.583848e-001
2.964053e+003, 3.590812e-001
2.965982e+003, 3.589034e-001
2.967910e+003, 3.579433e-001
2.969839e+003, 3.573895e-001
2.971767e+003, 3.580155e-001
2.973696e+003, 3.577342e-001
2.975624e+003, 3.586082e-001
2.977552e+003, 3.602659e-001
2.979481e+003, 3.600390e-001
2.981409e+003, 3.601731e-001
2.983338e+003, 3.617774e-001
2.985266e+003, 3.627235e-001
2.987195e+003, 3.621762e-001
2.989123e+003, 3.619707e-001
2.991052e+003, 3.628276e-001
2.992980e+003, 3.626325e-001
2.994909e+003, 3.616450e-001
2.996837e+003, 3.621162e-001
2.998766e+003, 3.628513e-001
3.000694e+003, 3.627333e-001
3.002623e+003, 3.639636e-001
3.004551e+003, 3.642891e-001
3.006479e+003, 3.632465e-001
3.008408e+003, 3.636057e-001
3.010336e+003, 3.644897e-001
3.012265e+003, 3.656778e-001
3.014193e+003, 3.668234e-001
3.016122e+003, 3.655781e-001
3.018050e+003, 3.650393e-001
3.019979e+003, 3.659017e-001
3.021907e+003, 3.660024e-001
3.023836e+003, 3.663910e-001
3.025764e+003, 3.664698e-001
3.027693e+003, 3.666417e-001
3.029621e+003, 3.671935e-001
3.031550e+003, 3.667440e-001
3.033478e+003, 3.668064e-001
3.035406e+003, 3.674462e-001
3.037335e+003, 3.683925e-001
3.039263e+003, 3.685604e-001
3.041192e+003, 3.683245e-001
3.043120e+003, 3.687819e-001
3.045049e+003, 3.696069e-001
3.046977e+003, 3.702527e-001
3.048906e+003, 3.723379e-001
3.050834e+003, 3.737538e-001
3.052763e+003, 3.723114e-001
3.054691e+003, 3.720130e-001
3.056620e+003, 3.726686e-001
3.058548e+003, 3.736813e-001
3.060477e+003, 3.734770e-001
3.062405e+003, 3.723092e-001
3.064333e+003, 3.719392e-001
3.066262e+003, 3.735506e-001
3.068190e+003, 3.747785e-001
3.070119e+003, 3.729538e-001
3.072047e+003, 3.723963e-001
3.073976e+003, 3.740027e-001
3.075904e+003, 3.753142e-001
3.077833e+003, 3.761987e-001
3.079761e+003, 3.757199e-001
3.081690e+003, 3.746268e-001
3.083618e+003, 3.756342e-001
3.085547e+003, 3.756024e-001
3.087475e+003, 3.749163e-001
3.089404e+003, 3.749136e-001
3.091332e+003, 3.757146e-001
3.093260e+003, 3.762571e-001
3.095189e+003, 3.762749e-001
3.097117e+003, 3.763908e-001
3.099046e+003, 3.762737e-001
3.100974e+003, 3.769019e-001
3.102903e+003, 3.767303e-001
3.104831e+003, 3.764690e-001
3.106760e+003, 3.782215e-001
3.108688e+003, 3.800646e-001
3.110617e+003, 3.802690e-001
3.112545e+003, 3.797494e-001
3.114474e+003, 3.806275e-001
3.116402e+003, 3.809703e-001
3.118331e+003, 3.799241e-001
3.120259e+003, 3.797517e-001
3.122188e+003, 3.807088e-001
3.124116e+003, 3.816175e-001
3.126044e+003, 3.821205e-001
3.127973e+003, 3.833960e-001
3.129901e+003, 3.840486e-001
3.131830e+003, 3.821120e-001
3.133758e+003, 3.811433e-001
3.135687e+003, 3.818331e-001
3.137615e+003, 3.830679e-001
3.139544e+003, 3.845366e-001
3.141472e+003, 3.841585e-001
3.143401e+003, 3.844870e-001
3.145329e+003, 3.857865e-001
3.147258e+003, 3.856947e-001
3.149186e+003, 3.853200e-001
3.151115e+003, 3.853740e-001
3.153043e+003, 3.857087e-001
3.154971e+003, 3.873481e-001
3.156900e+003, 3.882966e-001
3.158828e+003, 3.874252e-001
3.160757e+003, 3.862414e-001
3.162685e+003, 3.868464e-001
3.164614e+003, 3.867921e-001
3.166542e+003, 3.876716e-001
3.168471e+003, 3.884538e-001
3.170399e+003, 3.872704e-001
3.172328e+003, 3.871951e-001
3.174256e+003, 3.888536e-001
3.176185e+003, 3.884104e-001
3.178113e+003, 3.879701e-001
3.180042e+003, 3.884068e-001
3.181970e+003, 3.885471e-001
3.183898e+003, 3.889759e-001
3.185827e+003, 3.906834e-001
3.187755e+003, 3.904327e-001
3.189684e+003, 3.892833e-001
3.191612e+003, 3.901937e-001
3.193541e+003, 3.915278e-001
3.195469e+003, 3.904711e-001
3.197398e+003, 3.902841e-001
3.199326e+003, 3.910945e-001
3.201255e+003, 3.900952e-001
3.203183e+003, 3.900770e-001
3.205112e+003, 3.915217e-001
3.207040e+003, 3.928804e-001
3.208969e+003, 3.938423e-001
3.210897e+003, 3.945365e-001
3.212825e+003, 3.924637e-001
3.214754e+003, 3.912506e-001
3.216682e+003, 3.912260e-001
3.218611e+003, 3.915971e-001
3.220539e+003, 3.938064e-001
3.222468e+003, 3.944334e-001
3.224396e+003, 3.946867e-001
3.226325e+003, 3.941949e-001
3.228253e+003, 3.943081e-001
3.230182e+003, 3.944078e-001
3.232110e+003, 3.955099e-001
3.234039e+003, 3.953944e-001
3.235967e+003, 3.943689e-001
3.237896e+003, 3.958299e-001
3.239824e+003, 3.958237e-001
3.241752e+003, 3.952614e-001
3.243681e+003, 3.947019e-001
3.245609e+003, 3.956633e-001
3.247538e+003, 3.973395e-001
3.249466e+003, 3.974338e-001
3.251395e+003, 3.977977e-001
3.253323e+003, 3.984052e-001
3.255252e+003, 3.983305e-001
3.257180e+003, 3.992878e-001
3.259109e+003, 4.010718e-001
3.261037e+003, 4.022806e-001
3.262966e+003, 4.021790e-001
3.264894e+003, 3.999043e-001
3.266823e+003, 3.988827e-001
3.268751e+003, 3.996893e-001
3.270679e+003, 3.999206e-001
3.272608e+003, 3.999077e-001
3.274536e+003, 3.997183e-001
3.276465e+003, 3.981847e-001
3.278393e+003, 3.986329e-001
3.280322e+003, 4.002306e-001
3.282250e+003, 3.998854e-001
3.284179e+003, 3.984764e-001
3.286107e+003, 3.980463e-001
3.288036e+003, 4.010740e-001
3.289964e+003, 4.047119e-001
3.291893e+003, 4.043252e-001
3.293821e+003, 4.029400e-001
3.295750e+003, 4.045086e-001
3.297678e+003, 4.044140e-001
3.299606e+003, 4.034565e-001
3.301535e+003, 4.036850e-001
3.303463e+003, 4.042919e-001
3.305392e+003, 4.054559e-001
3.307320e+003, 4.050305e-001
3.309249e+003, 4.049139e-001
3.311177e+003, 4.076723e-001
3.313106e+003, 4.077456e-001
3.315034e+003, 4.069347e-001
3.316963e+003, 4.068818e-001
3.318891e+003, 4.070591e-001
3.320820e+003, 4.061368e-001
3.322748e+003, 4.062241e-001
3.324677e+003, 4.070828e-001
3.326605e+003, 4.076675e-001
3.328533e+003, 4.083928e-001
3.330462e+003, 4.082346e-001
3.332390e+003, 4.083437e-001
3.334319e+003, 4.082210e-001
3.336247e+003, 4.074929e-001
3.338176e+003, 4.075271e-001
3.340104e+003, 4.078138e-001
3.342033e+003, 4.088255e-001
3.343961e+003, 4.091065e-001
3.345890e+003, 4.083398e-001
3.347818e+003, 4.080282e-001
3.349747e+003, 4.102075e-001
3.351675e+003, 4.129356e-001
3.353604e+003, 4.125552e-001
3.355532e+003, 4.110702e-001
3.357460e+003, 4.106914e-001
3.359389e+003, 4.102720e-001
3.361317e+003, 4.121313e-001
3.363246e+003, 4.128452e-001
3.365174e+003, 4.130291e-001
3.367103e+003, 4.137716e-001
3.369031e+003, 4.146887e-001
3.370960e+003, 4.161019e-001
3.372888e+003, 4.157903e-001
3.374817e+003, 4.134810e-001
3.376745e+003, 4.143179e-001
3.378674e+003, 4.155086e-001
3.380602e+003, 4.138492e-001
3.382531e+003, 4.129858e-001
3.384459e+003, 4.132655e-001
3.386387e+003, 4.138343e-001
3.388316e+003, 4.140135e-001
3.390244e+003, 4.148122e-001
3.392173e+003, 4.152201e-001
3.394101e+003, 4.161031e-001
3.396030e+003, 4.168353e-001
3.397958e+003, 4.164617e-001
3.399887e+003, 4.180573e-001
3.401815e+003, 4.187250e-001
3.403744e+003, 4.178140e-001
3.405672e+003, 4.177856e-001
3.407601e+003, 4.204184e-001
3.409529e+003, 4.197961e-001
3.411458e+003, 4.163994e-001
3.413386e+003, 4.162881e-001
3.415314e+003, 4.165146e-001
3.417243e+003, 4.158789e-001
3.419171e+003, 4.185705e-001
3.421100e+003, 4.206618e-001
3.423028e+003, 4.188977e-001
3.424957e+003, 4.200330e-001
3.426885e+003, 4.216275e-001
3.428814e+003, 4.211612e-001
3.430742e+003, 4.200234e-001
3.432671e+003, 4.210673e-001
3.434599e+003, 4.240357e-001
3.436528e+003, 4.234998e-001
3.438456e+003, 4.210056e-001
3.440385e+003, 4.194351e-001
3.442313e+003, 4.176508e-001
3.444241e+003, 4.191297e-001
3.446170e+003, 4.218859e-001
3.448098e+003, 4.202117e-001
3.450027e+003, 4.202087e-001
3.451955e+003, 4.207824e-001
3.453884e+003, 4.206571e-001
3.455812e+003, 4.225863e-001
3.457741e+003, 4.230175e-001
3.459669e+003, 4.246978e-001
3.461598e+003, 4.248143e-001
3.463526e+003, 4.236319e-001
3.465455e+003, 4.253398e-001
3.467383e+003, 4.272141e-001
3.469312e+003, 4.244031e-001
3.471240e+003, 4.208878e-001
3.473168e+003, 4.207495e-001
3.475097e+003, 4.224224e-001
3.477025e+003, 4.244860e-001
3.478954e+003, 4.250257e-001
3.480882e+003, 4.258584e-001
3.482811e+003, 4.263769e-001
3.484739e+003, 4.280912e-001
3.486668e+003, 4.286755e-001
3.488596e+003, 4.279325e-001
3.490525e+003, 4.290937e-001
3.492453e+003, 4.291325e-001
3.494382e+003, 4.304847e-001
3.496310e+003, 4.308237e-001
3.498239e+003, 4.314183e-001
3.500167e+003, 4.322056e-001
3.502095e+003, 4.300232e-001
3.504024e+003, 4.258493e-001
3.505952e+003, 4.281596e-001
3.507881e+003, 4.299674e-001
3.509809e+003, 4.294013e-001
3.511738e+003, 4.296542e-001
3.513666e+003, 4.311555e-001
3.515595e+003, 4.332818e-001
3.517523e+003, 4.338076e-001
3.519452e+003, 4.325998e-001
3.521380e+003, 4.317925e-001
3.523309e+003, 4.319632e-001
3.525237e+003, 4.313087e-001
3.527166e+003, 4.308345e-001
3.529094e+003, 4.348651e-001
3.531022e+003, 4.373937e-001
3.532951e+003, 4.340948e-001
3.534879e+003, 4.335929e-001
3.536808e+003, 4.368371e-001
3.538736e+003, 4.329151e-001
3.540665e+003, 4.300430e-001
3.542593e+003, 4.339300e-001
3.544522e+003, 4.352915e-001
3.546450e+003, 4.350033e-001
3.548379e+003, 4.368583e-001
3.550307e+003, 4.381535e-001
3.552236e+003, 4.367966e-001
3.554164e+003, 4.369157e-001
3.556093e+003, 4.384591e-001
3.558021e+003, 4.362623e-001
3.559949e+003, 4.349201e-001
3.561878e+003, 4.347421e-001
3.563806e+003, 4.345672e-001
3.565735e+003, 4.343215e-001
3.567663e+003, 4.356675e-001
3.569592e+003, 4.358682e-001
3.571520e+003, 4.358833e-001
3.573449e+003, 4.379880e-001
3.575377e+003, 4.392898e-001
3.577306e+003, 4.396328e-001
3.579234e+003, 4.371884e-001
3.581163e+003, 4.363307e-001
3.583091e+003, 4.358073e-001
3.585020e+003, 4.334547e-001
3.586948e+003, 4.326007e-001
3.588876e+003, 4.352169e-001
3.590805e+003, 4.382709e-001
3.592733e+003, 4.406868e-001
3.594662e+003, 4.419042e-001
3.596590e+003, 4.393507e-001
3.598519e+003, 4.391767e-001
3.600447e+003, 4.438102e-001
3.602376e+003, 4.461550e-001
3.604304e+003, 4.424559e-001
3.606233e+003, 4.399591e-001
3.608161e+003, 4.405453e-001
3.610090e+003, 4.402901e-001
3.612018e+003, 4.398416e-001
3.613947e+003, 4.414441e-001
3.615875e+003, 4.420238e-001
3.617803e+003, 4.416429e-001
3.619732e+003, 4.405742e-001
3.621660e+003, 4.418744e-001
3.623589e+003, 4.434823e-001
3.625517e+003, 4.417384e-001
3.627446e+003, 4.367503e-001
3.629374e+003, 4.350556e-001
3.631303e+003, 4.420248e-001
3.633231e+003, 4.461134e-001
3.635160e+003, 4.483716e-001
3.637088e+003, 4.492123e-001
3.639017e+003, 4.497224e-001
3.640945e+003, 4.532072e-001
3.642874e+003, 4.535829e-001
3.644802e+003, 4.490141e-001
3.646730e+003, 4.411551e-001
3.648659e+003, 4.363788e-001
3.650587e+003, 4.371638e-001
3.652516e+003, 4.440109e-001
3.654444e+003, 4.456033e-001
3.656373e+003, 4.434350e-001
3.658301e+003, 4.496479e-001
3.660230e+003, 4.548860e-001
3.662158e+003, 4.529432e-001
3.664087e+003, 4.522050e-001
3.666015e+003, 4.515184e-001
3.667944e+003, 4.484277e-001
3.669872e+003, 4.432712e-001
3.671801e+003, 4.483108e-001
3.673729e+003, 4.456852e-001
3.675657e+003, 4.431055e-001
3.677586e+003, 4.501421e-001
3.679514e+003, 4.508743e-001
3.681443e+003, 4.500489e-001
3.683371e+003, 4.513893e-001
3.685300e+003, 4.511860e-001
3.687228e+003, 4.455451e-001
3.689157e+003, 4.489670e-001
3.691085e+003, 4.539131e-001
3.693014e+003, 4.555241e-001
3.694942e+003, 4.557793e-001
3.696871e+003, 4.569933e-001
3.698799e+003, 4.599999e-001
3.700728e+003, 4.589626e-001
3.702656e+003, 4.583434e-001
3.704584e+003, 4.573526e-001
3.706513e+003, 4.574246e-001
3.708441e+003, 4.569129e-001
3.710370e+003, 4.545143e-001
3.712298e+003, 4.519326e-001
3.714227e+003, 4.560015e-001
3.716155e+003, 4.563804e-001
3.718084e+003, 4.563250e-001
3.720012e+003, 4.587575e-001
3.721941e+003, 4.585293e-001
3.723869e+003, 4.554108e-001
3.725798e+003, 4.551522e-001
3.727726e+003, 4.564154e-001
3.729655e+003, 4.581937e-001
3.731583e+003, 4.566662e-001
3.733511e+003, 4.584712e-001
3.735440e+003, 4.544717e-001
3.737368e+003, 4.549333e-001
3.739297e+003, 4.614544e-001
3.741225e+003, 4.600472e-001
3.743154e+003, 4.477589e-001
3.745082e+003, 4.464526e-001
3.747011e+003, 4.532657e-001
3.748939e+003, 4.505142e-001
3.750868e+003, 4.507580e-001
3.752796e+003, 4.547043e-001
3.754725e+003, 4.605626e-001
3.756653e+003, 4.602115e-001
3.758582e+003, 4.631779e-001
3.760510e+003, 4.638219e-001
3.762438e+003, 4.647802e-001
3.764367e+003, 4.627533e-001
3.766295e+003, 4.621013e-001
3.768224e+003, 4.604001e-001
3.770152e+003, 4.613061e-001
3.772081e+003, 4.647545e-001
3.774009e+003, 4.683897e-001
3.775938e+003, 4.718817e-001
3.777866e+003, 4.698195e-001
3.779795e+003, 4.681640e-001
3.781723e+003, 4.687414e-001
3.783652e+003, 4.665168e-001
3.785580e+003, 4.692650e-001
3.787509e+003, 4.715839e-001
3.789437e+003, 4.699020e-001
3.791365e+003, 4.718406e-001
3.793294e+003, 4.741868e-001
3.795222e+003, 4.715507e-001
3.797151e+003, 4.700971e-001
3.799079e+003, 4.679640e-001
3.801008e+003, 4.646210e-001
3.802936e+003, 4.706355e-001
3.804865e+003, 4.675570e-001
3.806793e+003, 4.624162e-001
3.808722e+003, 4.683348e-001
3.810650e+003, 4.718313e-001
3.812579e+003, 4.742735e-001
3.814507e+003, 4.670787e-001
3.816436e+003, 4.648475e-001
3.818364e+003, 4.715048e-001
3.820292e+003, 4.680232e-001
3.822221e+003, 4.693843e-001
3.824149e+003, 4.748583e-001
3.826078e+003, 4.739125e-001
3.828006e+003, 4.747818e-001
3.829935e+003, 4.751877e-001
3.831863e+003, 4.740147e-001
3.833792e+003, 4.727749e-001
3.835720e+003, 4.679781e-001
3.837649e+003, 4.665938e-001
3.839577e+003, 4.709986e-001
3.841506e+003, 4.723402e-001
3.843434e+003, 4.741849e-001
3.845363e+003, 4.751724e-001
3.847291e+003, 4.763893e-001
3.849219e+003, 4.735630e-001
3.851148e+003, 4.662521e-001
3.853076e+003, 4.584222e-001
3.855005e+003, 4.651456e-001
3.856933e+003, 4.743189e-001
3.858862e+003, 4.809352e-001
3.860790e+003, 4.797349e-001
3.862719e+003, 4.736143e-001
3.864647e+003, 4.763628e-001
3.866576e+003, 4.800788e-001
3.868504e+003, 4.752522e-001
3.870433e+003, 4.726481e-001
3.872361e+003, 4.754778e-001
3.874290e+003, 4.786768e-001
3.876218e+003, 4.853476e-001
3.878146e+003, 4.840184e-001
3.880075e+003, 4.798669e-001
3.882003e+003, 4.803544e-001
3.883932e+003, 4.805331e-001
3.885860e+003, 4.798876e-001
3.887789e+003, 4.802980e-001
3.889717e+003, 4.773366e-001
3.891646e+003, 4.785675e-001
3.893574e+003, 4.823701e-001
3.895503e+003, 4.820819e-001
3.897431e+003, 4.811552e-001
3.899360e+003, 4.817870e-001
3.901288e+003, 4.839224e-001
3.903217e+003, 4.821081e-001
3.905145e+003, 4.838001e-001
3.907073e+003, 4.851668e-001
3.909002e+003, 4.841345e-001
3.910930e+003, 4.845826e-001
3.912859e+003, 4.853713e-001
3.914787e+003, 4.856326e-001
3.916716e+003, 4.835149e-001
3.918644e+003, 4.854997e-001
3.920573e+003, 4.868419e-001
3.922501e+003, 4.852824e-001
3.924430e+003, 4.864933e-001
3.926358e+003, 4.911922e-001
3.928287e+003, 4.955516e-001
3.930215e+003, 4.919839e-001
3.932144e+003, 4.880511e-001
3.934072e+003, 4.930006e-001
3.936000e+003, 4.936139e-001
3.937929e+003, 4.934643e-001
3.939857e+003, 4.933494e-001
3.941786e+003, 4.924031e-001
3.943714e+003, 4.931512e-001
3.945643e+003, 4.918641e-001
3.947571e+003, 4.886029e-001
3.949500e+003, 4.885151e-001
3.951428e+003, 4.899818e-001
3.953357e+003, 4.932455e-001
3.955285e+003, 4.954007e-001
3.957214e+003, 4.954778e-001
3.959142e+003, 4.934060e-001
3.961071e+003, 4.953140e-001
3.962999e+003, 4.986501e-001
3.964927e+003, 4.967348e-001
3.966856e+003, 4.931397e-001
3.968784e+003, 4.948413e-001
3.970713e+003, 4.967778e-001
3.972641e+003, 5.006264e-001
3.974570e+003, 4.996928e-001
3.976498e+003, 4.963548e-001
3.978427e+003, 4.967665e-001
3.980355e+003, 4.973016e-001
3.982284e+003, 4.973313e-001
3.984212e+003, 5.008907e-001
3.986141e+003, 5.029402e-001
3.988069e+003, 5.014448e-001
3.989998e+003, 5.010881e-001
3.991926e+003, 4.995933e-001
3.993854e+003, 4.975608e-001
3.995783e+003, 4.994105e-001
3.997711e+003, 5.025540e-001
3.999640e+003, 5.027965e-001
##END=



