##NAMES=Wulfenite
##RRUFFID=R050501
##IDEAL CHEMISTRY=Pb^2+^Mo^6+^O_4_
##LOCALITY=Los Lamentos, Chihuahua, Mexico
##OWNER=RRUFF
##SOURCE=California Institute of Technology
##DESCRIPTION=Orange tabular crystal
##STATUS=The identification of this mineral has been confirmed by X-ray diffraction and chemical analysis
##URL=rruff.info/R050501
##MEASURED CHEMISTRY=Pb_1.00_Mo_1.00_O_4_
399.1926, 0.3905790
401.1211, 0.4040559
403.0496, 0.4040559
404.9780, 0.4070605
406.9065, 0.4220942
408.8350, 0.4304894
410.7634, 0.4323449
412.6919, 0.4310058
414.6204, 0.4409319
416.5488, 0.4561191
418.4773, 0.4683571
420.4058, 0.4810812
422.3342, 0.4911511
424.2627, 0.4961026
426.1912, 0.4965989
428.1196, 0.5017608
430.0481, 0.5133057
431.9766, 0.5155709
433.9050, 0.5154219
435.8335, 0.5210204
437.7620, 0.5299385
439.6904, 0.5357848
441.6189, 0.5446655
443.5474, 0.5508962
445.4758, 0.5553574
447.4043, 0.5624906
449.3328, 0.5611266
451.2612, 0.5615398
453.1897, 0.5702956
455.1182, 0.5772293
457.0466, 0.5779784
458.9751, 0.5831327
460.9036, 0.5902774
462.8320, 0.5889738
464.7605, 0.5883631
466.6890, 0.5958781
468.6174, 0.6030462
470.5459, 0.6028138
472.4744, 0.6049364
474.4028, 0.6069385
476.3313, 0.6059871
478.2598, 0.6118206
480.1882, 0.6186655
482.1167, 0.6198789
484.0452, 0.6209877
485.9736, 0.6206731
487.9021, 0.6233023
489.8306, 0.6318063
491.7590, 0.6360108
493.6875, 0.6356849
495.6160, 0.6359382
497.5444, 0.6377191
499.4729, 0.6426965
501.4014, 0.6498740
503.3298, 0.6525369
505.2583, 0.6519153
507.1868, 0.6575863
509.1152, 0.6610869
511.0437, 0.6631029
512.9722, 0.6643729
514.9006, 0.6675639
516.8291, 0.6670284
518.7576, 0.6638440
520.6860, 0.6691202
522.6145, 0.6742375
524.5430, 0.6766000
526.4714, 0.6787370
528.3999, 0.6776775
530.3284, 0.6815384
532.2568, 0.6845047
534.1853, 0.6838691
536.1138, 0.6857032
538.0422, 0.6864717
539.9707, 0.6864551
541.8992, 0.6893861
543.8276, 0.6916119
545.7561, 0.6911426
547.6846, 0.6936198
549.6130, 0.6965468
551.5415, 0.6988231
553.4700, 0.7020202
555.3984, 0.7028668
557.3269, 0.7025089
559.2554, 0.7040246
561.1838, 0.7037151
563.1123, 0.7049066
565.0408, 0.7088461
566.9692, 0.7116668
568.8977, 0.7116579
570.8262, 0.7139729
572.7546, 0.7139533
574.6831, 0.7144161
576.6116, 0.7203416
578.5400, 0.7207263
580.4685, 0.7201552
582.3970, 0.7201706
584.3254, 0.7213307
586.2539, 0.7207039
588.1824, 0.7226224
590.1108, 0.7273518
592.0393, 0.7272533
593.9678, 0.7292278
595.8962, 0.7312946
597.8247, 0.7335885
599.7532, 0.7363935
601.6816, 0.7395766
603.6101, 0.7415482
605.5386, 0.7409881
607.4670, 0.7432960
609.3955, 0.7470064
611.3240, 0.7481411
613.2524, 0.7491259
615.1809, 0.7520279
617.1094, 0.7563129
619.0378, 0.7586250
620.9663, 0.7566293
622.8948, 0.7574159
624.8232, 0.7588665
626.7517, 0.7641745
628.6802, 0.7677230
630.6086, 0.7678837
632.5371, 0.7697002
634.4656, 0.7757089
636.3940, 0.7811987
638.3225, 0.7813581
640.2510, 0.7832705
642.1794, 0.7860363
644.1079, 0.7862289
646.0364, 0.7885813
647.9648, 0.7904811
649.8933, 0.7899703
651.8218, 0.7907765
653.7502, 0.7932169
655.6787, 0.7944795
657.6072, 0.7958343
659.5356, 0.7974701
661.4641, 0.7996143
663.3926, 0.7998455
665.3210, 0.7991642
667.2495, 0.8013186
669.1780, 0.8022807
671.1064, 0.8025556
673.0349, 0.8057501
674.9634, 0.8095056
676.8918, 0.8083146
678.8203, 0.8050176
680.7488, 0.8044035
682.6772, 0.8061103
684.6057, 0.8087718
686.5342, 0.8102798
688.4626, 0.8108310
690.3911, 0.8095617
692.3196, 0.8093176
694.2480, 0.8082762
696.1765, 0.8083818
698.1050, 0.8094375
700.0334, 0.8114513
701.9619, 0.8127654
703.8904, 0.8111501
705.8188, 0.8096179
707.7473, 0.8110427
709.6758, 0.8134574
711.6042, 0.8145767
713.5327, 0.8150894
715.4612, 0.8146351
717.3896, 0.8127783
719.3181, 0.8107868
721.2466, 0.8080188
723.1750, 0.8050116
725.1035, 0.8016930
727.0320, 0.7977189
728.9604, 0.7938226
730.8889, 0.7889857
732.8174, 0.7841009
734.7458, 0.7787862
736.6743, 0.7690364
738.6028, 0.7576185
740.5313, 0.7449580
742.4597, 0.7292919
744.3882, 0.7118477
746.3167, 0.6933063
748.2451, 0.6697686
750.1736, 0.6440678
752.1021, 0.6191765
754.0305, 0.5949813
755.9590, 0.5725050
757.8875, 0.5532697
759.8159, 0.5372558
761.7444, 0.5207274
763.6729, 0.5053671
765.6013, 0.4931580
767.5298, 0.4808488
769.4583, 0.4674880
771.3867, 0.4537840
773.3152, 0.4418693
775.2437, 0.4304138
777.1721, 0.4184516
779.1006, 0.4069619
781.0291, 0.3963652
782.9575, 0.3858963
784.8860, 0.3756282
786.8145, 0.3666563
788.7429, 0.3573394
790.6714, 0.3470743
792.5999, 0.3368690
794.5283, 0.3275340
796.4568, 0.3191289
798.3853, 0.3108563
800.3137, 0.3032356
802.2422, 0.2967419
804.1707, 0.2910310
806.0991, 0.2850148
808.0276, 0.2786734
809.9561, 0.2726019
811.8845, 0.2673536
813.8130, 0.2615240
815.7415, 0.2555413
817.6699, 0.2494533
819.5984, 0.2433790
821.5269, 0.2371313
823.4553, 0.2311047
825.3838, 0.2249622
827.3123, 0.2182657
829.2407, 0.2115242
831.1692, 0.2044206
833.0977, 0.1963438
835.0261, 0.1879716
836.9546, 0.1793284
838.8831, 0.1709742
840.8115, 0.1626659
842.7400, 0.1543978
844.6685, 0.1458671
846.5969, 0.1380563
848.5254, 0.1307133
850.4539, 0.1237896
852.3823, 0.1171133
854.3108, 0.1103989
856.2393, 0.1035908
858.1677, 9.6832611E-02
860.0962, 9.0399019E-02
862.0247, 8.4328443E-02
863.9531, 7.8687362E-02
865.8816, 7.3857650E-02
867.8101, 6.9405042E-02
869.7385, 6.4889692E-02
871.6670, 5.9930809E-02
873.5955, 5.3841311E-02
875.5239, 4.7260731E-02
877.4524, 4.1156549E-02
879.3809, 3.5179261E-02
881.3093, 2.9644599E-02
883.2378, 2.4811380E-02
885.1663, 2.0893980E-02
887.0947, 1.8324589E-02
889.0232, 1.6479410E-02
890.9517, 1.5139890E-02
892.8801, 1.4091390E-02
894.8085, 1.3353130E-02
896.7370, 1.2918860E-02
898.6655, 1.2401800E-02
900.5939, 1.2248090E-02
902.5224, 1.1912520E-02
904.4509, 1.1696350E-02
906.3793, 1.1821940E-02
908.3078, 1.1638290E-02
910.2363, 1.1322090E-02
912.1647, 1.1315390E-02
914.0932, 1.1155850E-02
916.0217, 1.1187430E-02
917.9501, 1.1486520E-02
919.8786, 1.1206470E-02
921.8071, 1.0619040E-02
923.7355, 1.0707980E-02
925.6640, 1.0726690E-02
927.5925, 1.0605220E-02
929.5209, 1.0319090E-02
931.4494, 1.0030980E-02
933.3779, 9.9808676E-03
935.3063, 9.7987037E-03
937.2348, 9.4749369E-03
939.1633, 9.0868492E-03
941.0917, 8.9348909E-03
943.0202, 8.8351592E-03
944.9487, 8.7495474E-03
946.8771, 8.6466139E-03
948.8056, 8.4963292E-03
950.7341, 8.4789628E-03
952.6625, 8.0222636E-03
954.5910, 7.8515466E-03
956.5195, 7.8409528E-03
958.4479, 7.6276478E-03
960.3764, 7.1605919E-03
962.3049, 6.8190610E-03
964.2333, 6.5699252E-03
966.1618, 6.2657660E-03
968.0903, 6.2660351E-03
970.0187, 6.4767208E-03
971.9472, 6.5636691E-03
973.8757, 6.7932792E-03
975.8041, 7.0967302E-03
977.7326, 7.0313960E-03
979.6611, 6.7323991E-03
981.5895, 6.7148330E-03
983.5180, 7.1345209E-03
985.4465, 7.2327168E-03
987.3749, 7.2847391E-03
989.3034, 7.4625472E-03
991.2319, 7.6255240E-03
993.1603, 7.7516590E-03
995.0888, 7.8582270E-03
997.0173, 8.0947354E-03
998.9457, 8.5673248E-03
1000.874, 8.6898459E-03
1002.803, 8.7848110E-03
1004.731, 9.1335438E-03
1006.660, 9.5024360E-03
1008.588, 9.7351642E-03
1010.517, 1.0087270E-02
1012.445, 1.0625830E-02
1014.373, 1.0950360E-02
1016.302, 1.1387490E-02
1018.230, 1.1793340E-02
1020.159, 1.2039120E-02
1022.087, 1.2650960E-02
1024.016, 1.2999970E-02
1025.944, 1.3215830E-02
1027.873, 1.3703440E-02
1029.801, 1.4201380E-02
1031.730, 1.4844250E-02
1033.658, 1.5356750E-02
1035.587, 1.5760271E-02
1037.515, 1.6123461E-02
1039.444, 1.6635310E-02
1041.372, 1.7253930E-02
1043.301, 1.7646700E-02
1045.229, 1.7826069E-02
1047.157, 1.8229621E-02
1049.086, 1.8561469E-02
1051.014, 1.9001110E-02
1052.943, 1.9568911E-02
1054.871, 1.9783890E-02
1056.800, 1.9808659E-02
1058.728, 2.0095520E-02
1060.657, 2.0656930E-02
1062.585, 2.1074001E-02
1064.514, 2.1605270E-02
1066.442, 2.2032769E-02
1068.371, 2.2330839E-02
1070.299, 2.2607479E-02
1072.228, 2.2765551E-02
1074.156, 2.3295540E-02
1076.084, 2.3710920E-02
1078.013, 2.3884561E-02
1079.941, 2.4205800E-02
1081.870, 2.4624860E-02
1083.798, 2.4921911E-02
1085.727, 2.5318790E-02
1087.655, 2.5683280E-02
1089.584, 2.5999410E-02
1091.512, 2.6415840E-02
1093.441, 2.7018741E-02
1095.369, 2.7373221E-02
1097.298, 2.7621301E-02
1099.226, 2.8164821E-02
1101.155, 2.8463479E-02
1103.083, 2.9054919E-02
1105.011, 2.9772829E-02
1106.940, 3.0113900E-02
1108.868, 3.0402759E-02
1110.797, 3.0902650E-02
1112.725, 3.1440139E-02
1114.654, 3.1672060E-02
1116.582, 3.1810232E-02
1118.511, 3.1960700E-02
1120.439, 3.2493640E-02
1122.368, 3.3006500E-02
1124.296, 3.3450570E-02
1126.225, 3.3766359E-02
1128.153, 3.3868149E-02
1130.082, 3.4041420E-02
1132.010, 3.4469869E-02
1133.938, 3.4857411E-02
1135.867, 3.5137221E-02
1137.795, 3.5561860E-02
1139.724, 3.6007151E-02
1141.652, 3.6251031E-02
1143.581, 3.6295991E-02
1145.509, 3.6708031E-02
1147.438, 3.7316870E-02
1149.366, 3.7774950E-02
1151.295, 3.8116869E-02
1153.223, 3.8486969E-02
1155.152, 3.8980760E-02
1157.080, 3.9514221E-02
1159.009, 4.0069420E-02
1160.937, 4.0571000E-02
1162.865, 4.1017011E-02
1164.794, 4.1496549E-02
1166.722, 4.1989539E-02
1168.651, 4.2402189E-02
1170.579, 4.2710740E-02
1172.508, 4.3116178E-02
1174.436, 4.3431170E-02
1176.365, 4.3887749E-02
1178.293, 4.4580109E-02
1180.222, 4.5207370E-02
1182.150, 4.5466889E-02
1184.079, 4.5852929E-02
1186.007, 4.6346940E-02
1187.936, 4.6867829E-02
1189.864, 4.7545429E-02
1191.792, 4.8095230E-02
1193.721, 4.8515659E-02
1195.649, 4.8869111E-02
1197.578, 4.9079850E-02
1199.506, 4.9483001E-02
1201.435, 5.0137661E-02
1203.363, 5.0603699E-02
1205.292, 5.0992209E-02
1207.220, 5.1298089E-02
1209.149, 5.1776610E-02
1211.077, 5.2210480E-02
1213.006, 5.2721702E-02
1214.934, 5.3130489E-02
1216.863, 5.3612608E-02
1218.791, 5.4071032E-02
1220.719, 5.4470390E-02
1222.648, 5.4832630E-02
1224.576, 5.5363391E-02
1226.505, 5.5937849E-02
1228.433, 5.6292109E-02
1230.362, 5.6702919E-02
1232.290, 5.7223011E-02
1234.219, 5.7633068E-02
1236.147, 5.7956278E-02
1238.076, 5.8393110E-02
1240.004, 5.8851250E-02
1241.933, 5.9153300E-02
1243.861, 5.9771121E-02
1245.790, 6.0173661E-02
1247.718, 6.0461290E-02
1249.646, 6.0902521E-02
1251.575, 6.1253529E-02
1253.503, 6.1679840E-02
1255.432, 6.2187798E-02
1257.360, 6.2710978E-02
1259.289, 6.3272201E-02
1261.217, 6.3523181E-02
1263.146, 6.4007923E-02
1265.074, 6.4591780E-02
1267.003, 6.5059818E-02
1268.931, 6.5565012E-02
1270.860, 6.6139810E-02
1272.788, 6.6578351E-02
1274.717, 6.6934571E-02
1276.645, 6.7534059E-02
1278.573, 6.8160862E-02
1280.502, 6.8484820E-02
1282.430, 6.8945773E-02
1284.359, 6.9339663E-02
1286.287, 6.9726281E-02
1288.216, 7.0035562E-02
1290.144, 7.0221819E-02
1292.073, 7.0613272E-02
1294.001, 7.1182847E-02
1295.930, 7.1603432E-02
1297.858, 7.1955107E-02
1299.787, 7.2425760E-02
1301.715, 7.2850212E-02
1303.644, 7.3231682E-02
1305.572, 7.3548608E-02
1307.500, 7.3667049E-02
1309.429, 7.4123643E-02
1311.357, 7.4679583E-02
1313.286, 7.4991979E-02
1315.214, 7.5360343E-02
1317.143, 7.5760163E-02
1319.071, 7.6074958E-02
1321.000, 7.6341547E-02
1322.928, 7.6636299E-02
1324.857, 7.7175803E-02
1326.785, 7.7674530E-02
1328.714, 7.8107826E-02
1330.642, 7.8520469E-02
1332.571, 7.8845583E-02
1334.499, 7.9099409E-02
1336.427, 7.9493187E-02
1338.356, 7.9947621E-02
1340.284, 8.0377303E-02
1342.213, 8.0552280E-02
1344.141, 8.0921307E-02
1346.070, 8.1412926E-02
1347.998, 8.1889503E-02
1349.927, 8.2398638E-02
1351.855, 8.2598932E-02
1353.784, 8.2943872E-02
1355.712, 8.3506607E-02
1357.641, 8.3817191E-02
1359.569, 8.4071703E-02
1361.498, 8.4454067E-02
1363.426, 8.4828079E-02
1365.354, 8.5130014E-02
1367.283, 8.5521191E-02
1369.211, 8.6016193E-02
1371.140, 8.6581431E-02
1373.068, 8.6942099E-02
1374.997, 8.7313958E-02
1376.925, 8.7819003E-02
1378.854, 8.8297583E-02
1380.782, 8.8379532E-02
1382.711, 8.8703208E-02
1384.639, 8.9097090E-02
1386.568, 8.9408763E-02
1388.496, 8.9901567E-02
1390.424, 9.0267010E-02
1392.353, 9.0718567E-02
1394.281, 9.1325223E-02
1396.210, 9.1425039E-02
1398.138, 9.1607928E-02
1400.067, 9.1949657E-02
1401.995, 9.2401341E-02
1403.924, 9.2594437E-02
1405.852, 9.2914961E-02
1407.781, 9.3503729E-02
1409.709, 9.4055228E-02
1411.638, 9.4203576E-02
1413.566, 9.4371349E-02
1415.495, 9.4664253E-02
1417.423, 9.5041513E-02
1419.351, 9.5302798E-02
1421.280, 9.5451340E-02
1423.208, 9.5856220E-02
1425.137, 9.6376017E-02
1427.065, 9.6697383E-02
1428.994, 9.6889302E-02
1430.922, 9.7156443E-02
1432.851, 9.7485773E-02
1434.779, 9.7826719E-02
1436.708, 9.8116480E-02
1438.636, 9.8558366E-02
1440.565, 9.8854773E-02
1442.493, 9.9015847E-02
1444.422, 9.9319190E-02
1446.350, 9.9643543E-02
1448.278, 0.1000718
1450.207, 0.1006064
1452.135, 0.1009036
1454.064, 0.1012949
1455.992, 0.1018897
1457.921, 0.1021137
1459.849, 0.1022591
1461.778, 0.1024870
1463.706, 0.1028461
1465.635, 0.1033278
1467.563, 0.1036073
1469.492, 0.1038285
1471.420, 0.1043207
1473.349, 0.1048449
1475.277, 0.1053372
1477.205, 0.1058962
1479.134, 0.1064751
1481.062, 0.1072530
1482.991, 0.1078444
1484.919, 0.1083333
1486.848, 0.1088162
1488.776, 0.1090911
1490.705, 0.1094282
1492.633, 0.1096696
1494.562, 0.1098226
1496.490, 0.1098495
1498.419, 0.1096418
1500.347, 0.1092550
1502.276, 0.1093172
1504.204, 0.1094984
1506.132, 0.1094565
1508.061, 0.1093265
1509.989, 0.1092590
1511.918, 0.1092638
1513.846, 0.1094331
1515.775, 0.1096217
1517.703, 0.1099536
1519.632, 0.1101880
1521.560, 0.1104570
1523.489, 0.1103961
1525.417, 0.1104917
1527.346, 0.1108203
1529.274, 0.1113222
1531.203, 0.1115651
1533.131, 0.1115686
1535.059, 0.1117292
1536.988, 0.1118053
1538.916, 0.1119504
1540.845, 0.1122169
1542.773, 0.1122651
1544.702, 0.1122650
1546.630, 0.1124712
1548.559, 0.1127103
1550.487, 0.1126346
1552.416, 0.1126913
1554.344, 0.1128786
1556.273, 0.1131405
1558.201, 0.1136135
1560.130, 0.1138843
1562.058, 0.1138014
1563.986, 0.1137076
1565.915, 0.1140946
1567.843, 0.1146661
1569.772, 0.1149078
1571.700, 0.1149654
1573.629, 0.1151936
1575.557, 0.1158342
1577.486, 0.1162412
1579.414, 0.1166174
1581.343, 0.1170741
1583.271, 0.1172826
1585.200, 0.1176686
1587.128, 0.1181531
1589.057, 0.1185512
1590.985, 0.1189549
1592.913, 0.1193383
1594.842, 0.1199505
1596.770, 0.1205996
1598.699, 0.1212608
1600.627, 0.1218871
1602.556, 0.1223570
1604.484, 0.1230285
1606.413, 0.1234858
1608.341, 0.1235415
1610.270, 0.1236902
1612.198, 0.1235705
1614.127, 0.1229700
1616.055, 0.1221058
1617.984, 0.1215997
1619.912, 0.1212307
1621.840, 0.1206203
1623.769, 0.1200691
1625.697, 0.1197282
1627.626, 0.1195828
1629.554, 0.1193511
1631.483, 0.1189440
1633.411, 0.1187430
1635.340, 0.1185229
1637.268, 0.1181433
1639.197, 0.1179223
1641.125, 0.1180570
1643.054, 0.1181201
1644.982, 0.1181902
1646.911, 0.1182531
1648.839, 0.1182640
1650.767, 0.1185292
1652.696, 0.1188503
1654.624, 0.1187542
1656.553, 0.1187210
1658.481, 0.1186326
1660.410, 0.1188143
1662.338, 0.1190150
1664.267, 0.1190227
1666.195, 0.1188914
1668.124, 0.1192420
1670.052, 0.1193857
1671.981, 0.1193736
1673.909, 0.1195674
1675.838, 0.1198961
1677.766, 0.1197847
1679.694, 0.1196803
1681.623, 0.1198821
1683.551, 0.1201875
1685.480, 0.1204452
1687.408, 0.1205236
1689.337, 0.1207020
1691.265, 0.1208891
1693.194, 0.1210500
1695.122, 0.1214799
1697.051, 0.1214841
1698.979, 0.1216255
1700.908, 0.1218824
1702.836, 0.1218136
1704.765, 0.1220720
1706.693, 0.1221320
1708.621, 0.1219204
1710.550, 0.1221611
1712.478, 0.1223082
1714.407, 0.1225419
1716.335, 0.1230867
1718.264, 0.1229652
1720.192, 0.1227034
1722.121, 0.1230262
1724.049, 0.1233403
1725.978, 0.1233541
1727.906, 0.1230885
1729.835, 0.1229348
1731.763, 0.1229806
1733.692, 0.1229792
1735.620, 0.1224988
1737.548, 0.1216433
1739.477, 0.1209622
1741.405, 0.1205334
1743.334, 0.1204402
1745.262, 0.1204759
1747.191, 0.1202947
1749.119, 0.1201499
1751.048, 0.1203066
1752.976, 0.1207615
1754.905, 0.1210128
1756.833, 0.1212512
1758.762, 0.1214321
1760.690, 0.1219466
1762.619, 0.1219184
1764.547, 0.1218711
1766.475, 0.1220921
1768.404, 0.1222605
1770.332, 0.1224579
1772.261, 0.1227352
1774.189, 0.1228111
1776.118, 0.1230042
1778.046, 0.1230856
1779.975, 0.1230996
1781.903, 0.1232565
1783.832, 0.1234481
1785.760, 0.1234870
1787.689, 0.1236617
1789.617, 0.1242040
1791.546, 0.1243187
1793.474, 0.1239176
1795.402, 0.1236967
1797.331, 0.1238764
1799.259, 0.1241598
1801.188, 0.1243147
1803.116, 0.1246553
1805.045, 0.1250192
1806.973, 0.1250310
1808.902, 0.1248018
1810.830, 0.1248555
1812.759, 0.1251045
1814.687, 0.1251268
1816.616, 0.1250598
1818.544, 0.1252438
1820.473, 0.1252905
1822.401, 0.1252811
1824.329, 0.1253540
1826.258, 0.1256335
1828.186, 0.1256479
1830.115, 0.1255417
1832.043, 0.1256162
1833.972, 0.1257472
1835.900, 0.1258064
1837.829, 0.1261515
1839.757, 0.1262091
1841.686, 0.1267216
1843.614, 0.1270778
1845.543, 0.1267776
1847.471, 0.1269433
1849.400, 0.1270365
1851.328, 0.1271236
1853.256, 0.1264724
1855.185, 0.1263677
1857.113, 0.1270325
1859.042, 0.1272969
1860.970, 0.1273011
1862.899, 0.1273237
1864.827, 0.1273306
1866.756, 0.1274934
1868.684, 0.1275360
1870.613, 0.1275838
1872.541, 0.1277838
1874.470, 0.1280225
1876.398, 0.1286475
1878.327, 0.1286026
1880.255, 0.1283428
1882.183, 0.1281395
1884.112, 0.1281562
1886.040, 0.1281683
1887.969, 0.1280539
1889.897, 0.1283575
1891.826, 0.1288135
1893.754, 0.1285961
1895.683, 0.1284361
1897.611, 0.1285800
1899.540, 0.1288587
1901.468, 0.1288076
1903.397, 0.1285206
1905.325, 0.1283795
1907.254, 0.1283134
1909.182, 0.1286620
1911.110, 0.1283497
1913.039, 0.1278260
1914.967, 0.1279701
1916.896, 0.1289764
1918.824, 0.1297489
1920.753, 0.1292672
1922.681, 0.1287893
1924.610, 0.1290250
1926.538, 0.1296106
1928.467, 0.1298924
1930.395, 0.1300498
1932.324, 0.1294809
1934.252, 0.1293258
1936.181, 0.1300320
1938.109, 0.1300016
1940.037, 0.1296403
1941.966, 0.1296718
1943.894, 0.1290339
1945.823, 0.1286940
1947.751, 0.1287223
1949.680, 0.1294540
1951.608, 0.1302720
1953.537, 0.1295962
1955.465, 0.1281434
1957.394, 0.1285860
1959.322, 0.1292911
1961.251, 0.1301352
1963.179, 0.1305477
1965.108, 0.1292180
1967.036, 0.1282844
1968.964, 0.1280965
1970.893, 0.1290508
1972.821, 0.1295270
1974.750, 0.1309777
1976.678, 0.1315845
1978.607, 0.1311075
1980.535, 0.1306678
1982.464, 0.1299952
1984.392, 0.1295510
1986.321, 0.1298904
1988.249, 0.1317135
1990.178, 0.1320133
1992.106, 0.1309370
1994.035, 0.1310055
1995.963, 0.1322068
1997.891, 0.1320255
1999.820, 0.1308739
2001.748, 0.1313436
2003.677, 0.1312499
2005.605, 0.1299888
2007.534, 0.1297563
2009.462, 0.1303890
2011.391, 0.1301131
2013.319, 0.1299741
2015.248, 0.1309856
2017.176, 0.1303166
2019.105, 0.1300599
2021.033, 0.1318035
2022.962, 0.1313912
2024.890, 0.1303836
2026.818, 0.1305127
2028.747, 0.1318419
2030.675, 0.1330507
2032.604, 0.1315997
2034.532, 0.1314455
2036.461, 0.1327918
2038.389, 0.1333392
2040.318, 0.1334828
2042.246, 0.1335089
2044.175, 0.1331867
2046.103, 0.1327539
2048.032, 0.1326734
2049.960, 0.1328798
2051.889, 0.1321565
2053.817, 0.1315251
2055.746, 0.1319083
2057.674, 0.1328853
2059.603, 0.1331076
2061.531, 0.1322784
2063.459, 0.1318608
2065.388, 0.1325127
2067.316, 0.1332943
2069.245, 0.1333098
2071.173, 0.1325087
2073.102, 0.1319181
2075.030, 0.1322705
2076.959, 0.1333776
2078.887, 0.1332523
2080.816, 0.1328320
2082.744, 0.1326724
2084.673, 0.1328635
2086.601, 0.1328821
2088.530, 0.1331338
2090.458, 0.1340684
2092.386, 0.1341081
2094.315, 0.1337873
2096.243, 0.1334510
2098.172, 0.1336575
2100.100, 0.1333475
2102.029, 0.1326128
2103.957, 0.1331115
2105.886, 0.1337090
2107.814, 0.1339829
2109.743, 0.1346373
2111.671, 0.1348869
2113.600, 0.1349281
2115.528, 0.1347884
2117.457, 0.1335938
2119.385, 0.1331425
2121.313, 0.1335733
2123.242, 0.1338983
2125.170, 0.1338162
2127.099, 0.1338815
2129.027, 0.1337763
2130.956, 0.1324183
2132.884, 0.1312162
2134.813, 0.1317766
2136.741, 0.1324409
2138.670, 0.1328470
2140.598, 0.1331152
2142.527, 0.1334312
2144.455, 0.1343293
2146.384, 0.1333434
2148.312, 0.1320596
2150.240, 0.1315093
2152.169, 0.1294844
2154.097, 0.1303380
2156.026, 0.1315525
2157.954, 0.1297075
2159.883, 0.1308846
2161.811, 0.1336693
2163.740, 0.1331365
2165.668, 0.1335381
2167.597, 0.1345463
2169.525, 0.1324290
2171.454, 0.1313092
2173.382, 0.1330734
2175.311, 0.1348348
2177.239, 0.1351659
2179.167, 0.1343541
2181.096, 0.1328102
2183.024, 0.1321001
2184.953, 0.1329586
2186.881, 0.1338762
2188.810, 0.1345140
2190.738, 0.1344004
2192.667, 0.1339075
2194.595, 0.1338451
2196.524, 0.1337625
2198.452, 0.1344759
2200.381, 0.1351402
2202.309, 0.1355979
2204.238, 0.1353063
2206.166, 0.1355782
2208.094, 0.1358022
2210.023, 0.1342193
2211.951, 0.1338703
2213.880, 0.1341580
2215.808, 0.1339543
2217.737, 0.1342908
2219.665, 0.1347198
2221.594, 0.1351982
2223.522, 0.1351844
2225.451, 0.1348221
2227.379, 0.1348178
2229.308, 0.1362285
2231.236, 0.1357102
2233.165, 0.1346243
2235.093, 0.1353455
2237.021, 0.1365910
2238.950, 0.1361023
2240.878, 0.1346550
2242.807, 0.1339209
2244.735, 0.1341191
2246.664, 0.1349409
2248.592, 0.1351367
2250.521, 0.1347480
2252.449, 0.1353663
2254.378, 0.1360267
2256.306, 0.1364909
2258.235, 0.1368601
2260.163, 0.1363438
2262.092, 0.1357006
2264.020, 0.1363808
2265.948, 0.1375543
2267.877, 0.1375018
2269.805, 0.1367140
2271.734, 0.1364973
2273.662, 0.1363423
2275.591, 0.1364142
2277.519, 0.1365512
2279.448, 0.1362360
2281.376, 0.1364558
2283.305, 0.1372415
2285.233, 0.1375919
2287.162, 0.1369193
2289.090, 0.1360868
2291.019, 0.1361571
2292.947, 0.1366264
2294.875, 0.1368177
2296.804, 0.1366420
2298.732, 0.1365813
2300.661, 0.1364969
2302.589, 0.1370527
2304.518, 0.1376405
2306.446, 0.1372694
2308.375, 0.1367086
2310.303, 0.1364733
2312.232, 0.1364169
2314.160, 0.1368297
2316.089, 0.1373297
2318.017, 0.1371869
2319.946, 0.1371764
2321.874, 0.1372916
2323.802, 0.1372093
2325.731, 0.1366503
2327.659, 0.1364243
2329.588, 0.1367016
2331.516, 0.1368878
2333.445, 0.1371306
2335.373, 0.1373232
2337.302, 0.1371198
2339.230, 0.1371713
2341.159, 0.1369778
2343.087, 0.1366952
2345.016, 0.1364234
2346.944, 0.1360881
2348.873, 0.1361320
2350.801, 0.1361996
2352.729, 0.1365763
2354.658, 0.1370999
2356.586, 0.1372492
2358.515, 0.1370125
2360.443, 0.1368985
2362.372, 0.1370468
2364.300, 0.1370218
2366.229, 0.1369855
2368.157, 0.1368592
2370.086, 0.1363858
2372.014, 0.1363319
2373.942, 0.1363559
2375.871, 0.1361514
2377.799, 0.1364394
2379.728, 0.1361859
2381.656, 0.1361257
2383.585, 0.1362227
2385.513, 0.1363888
2387.442, 0.1367577
2389.370, 0.1368763
2391.299, 0.1363494
2393.227, 0.1360550
2395.156, 0.1360298
2397.084, 0.1358433
2399.012, 0.1355987
2400.941, 0.1358978
2402.869, 0.1360956
2404.798, 0.1364169
2406.726, 0.1366706
2408.655, 0.1366927
2410.583, 0.1366871
2412.512, 0.1363578
2414.440, 0.1360024
2416.369, 0.1361919
2418.297, 0.1362354
2420.226, 0.1364703
2422.154, 0.1368242
2424.083, 0.1368185
2426.011, 0.1360883
2427.939, 0.1359574
2429.868, 0.1366743
2431.796, 0.1369896
2433.725, 0.1368585
2435.653, 0.1366130
2437.582, 0.1366708
2439.510, 0.1370193
2441.439, 0.1371509
2443.367, 0.1372283
2445.296, 0.1370847
2447.224, 0.1364083
2449.153, 0.1368826
2451.081, 0.1374924
2453.010, 0.1372746
2454.938, 0.1371966
2456.866, 0.1368319
2458.795, 0.1368499
2460.723, 0.1371119
2462.652, 0.1366008
2464.580, 0.1363178
2466.509, 0.1364453
2468.437, 0.1369855
2470.366, 0.1375345
2472.294, 0.1372825
2474.223, 0.1366948
2476.151, 0.1361424
2478.080, 0.1362002
2480.008, 0.1369156
2481.937, 0.1374677
2483.865, 0.1370567
2485.793, 0.1362106
2487.722, 0.1364435
2489.650, 0.1369849
2491.579, 0.1368789
2493.507, 0.1369070
2495.436, 0.1367639
2497.364, 0.1366058
2499.293, 0.1367003
2501.221, 0.1367936
2503.150, 0.1364984
2505.078, 0.1364220
2507.007, 0.1367119
2508.935, 0.1369214
2510.864, 0.1369478
2512.792, 0.1372022
2514.720, 0.1376231
2516.649, 0.1373793
2518.577, 0.1370866
2520.506, 0.1369056
2522.434, 0.1366962
2524.363, 0.1366137
2526.291, 0.1367171
2528.220, 0.1369734
2530.148, 0.1367407
2532.077, 0.1363905
2534.005, 0.1363682
2535.934, 0.1362145
2537.862, 0.1366065
2539.791, 0.1368222
2541.719, 0.1364066
2543.647, 0.1363912
2545.576, 0.1366772
2547.504, 0.1365890
2549.433, 0.1366650
2551.361, 0.1367294
2553.290, 0.1365033
2555.218, 0.1369488
2557.147, 0.1365825
2559.075, 0.1365197
2561.004, 0.1367096
2562.932, 0.1366968
2564.861, 0.1363500
2566.789, 0.1362006
2568.718, 0.1361834
2570.646, 0.1362428
2572.574, 0.1367742
2574.503, 0.1373612
2576.431, 0.1366377
2578.360, 0.1364116
2580.288, 0.1370140
2582.217, 0.1369643
2584.145, 0.1366848
2586.074, 0.1367619
2588.002, 0.1372369
2589.931, 0.1371647
2591.859, 0.1369227
2593.788, 0.1368839
2595.716, 0.1368881
2597.645, 0.1368657
2599.573, 0.1372629
2601.501, 0.1373270
2603.430, 0.1367031
2605.358, 0.1365020
2607.287, 0.1367460
2609.215, 0.1366068
2611.144, 0.1365279
2613.072, 0.1368350
2615.001, 0.1373605
2616.929, 0.1376168
2618.858, 0.1374815
2620.786, 0.1373442
2622.715, 0.1369306
2624.643, 0.1366351
2626.572, 0.1368208
2628.500, 0.1369383
2630.428, 0.1369948
2632.357, 0.1371583
2634.285, 0.1371002
2636.214, 0.1370066
2638.142, 0.1372887
2640.071, 0.1374795
2641.999, 0.1369518
2643.928, 0.1370013
2645.856, 0.1367991
2647.785, 0.1363212
2649.713, 0.1364661
2651.642, 0.1366269
2653.570, 0.1367403
2655.499, 0.1365536
2657.427, 0.1363032
2659.355, 0.1362647
2661.284, 0.1364202
2663.212, 0.1361450
2665.141, 0.1358742
2667.069, 0.1359783
2668.998, 0.1359862
2670.926, 0.1359969
2672.855, 0.1363874
2674.783, 0.1362457
2676.712, 0.1362861
2678.640, 0.1365979
2680.569, 0.1364165
2682.497, 0.1362955
2684.426, 0.1360237
2686.354, 0.1360114
2688.282, 0.1363938
2690.211, 0.1362735
2692.139, 0.1360537
2694.068, 0.1359210
2695.996, 0.1361290
2697.925, 0.1364590
2699.853, 0.1366012
2701.782, 0.1365145
2703.710, 0.1365240
2705.639, 0.1364215
2707.567, 0.1362153
2709.496, 0.1363213
2711.424, 0.1362060
2713.353, 0.1364452
2715.281, 0.1366634
2717.209, 0.1364873
2719.138, 0.1365501
2721.066, 0.1365266
2722.995, 0.1366382
2724.923, 0.1368130
2726.852, 0.1368569
2728.780, 0.1368383
2730.709, 0.1365512
2732.637, 0.1364649
2734.566, 0.1366118
2736.494, 0.1361389
2738.423, 0.1360200
2740.351, 0.1365183
2742.280, 0.1367385
2744.208, 0.1365632
2746.136, 0.1362969
2748.065, 0.1360309
2749.993, 0.1360302
2751.922, 0.1361361
2753.850, 0.1364245
2755.779, 0.1363936
2757.707, 0.1362126
2759.636, 0.1362446
2761.564, 0.1361774
2763.493, 0.1359102
2765.421, 0.1362751
2767.350, 0.1368592
2769.278, 0.1368500
2771.207, 0.1361904
2773.135, 0.1357861
2775.063, 0.1361729
2776.992, 0.1367961
2778.920, 0.1368476
2780.849, 0.1364439
2782.777, 0.1363127
2784.706, 0.1362326
2786.634, 0.1361618
2788.563, 0.1363825
2790.491, 0.1368808
2792.420, 0.1367102
2794.348, 0.1363434
2796.277, 0.1364527
2798.205, 0.1366543
2800.134, 0.1366207
2802.062, 0.1364773
2803.990, 0.1362983
2805.919, 0.1363629
2807.847, 0.1365083
2809.776, 0.1362631
2811.704, 0.1359789
2813.633, 0.1360597
2815.561, 0.1363571
2817.490, 0.1363832
2819.418, 0.1360932
2821.347, 0.1362170
2823.275, 0.1363544
2825.204, 0.1359301
2827.132, 0.1359341
2829.061, 0.1363264
2830.989, 0.1364257
2832.917, 0.1369026
2834.846, 0.1373837
2836.774, 0.1371201
2838.703, 0.1367949
2840.631, 0.1371917
2842.560, 0.1368118
2844.488, 0.1357451
2846.417, 0.1354039
2848.345, 0.1352404
2850.274, 0.1349299
2852.202, 0.1345254
2854.131, 0.1346933
2856.059, 0.1348217
2857.988, 0.1354219
2859.916, 0.1355015
2861.844, 0.1351327
2863.773, 0.1355473
2865.701, 0.1358737
2867.630, 0.1356159
2869.558, 0.1356589
2871.487, 0.1356833
2873.415, 0.1359208
2875.344, 0.1359744
2877.272, 0.1359048
2879.201, 0.1361563
2881.129, 0.1359989
2883.058, 0.1360633
2884.986, 0.1365916
2886.915, 0.1364257
2888.843, 0.1360742
2890.771, 0.1362222
2892.700, 0.1360402
2894.628, 0.1360930
2896.557, 0.1362892
2898.485, 0.1363116
2900.414, 0.1358024
2902.342, 0.1356980
2904.271, 0.1362596
2906.199, 0.1361271
2908.128, 0.1348815
2910.056, 0.1346684
2911.985, 0.1350821
2913.913, 0.1348906
2915.842, 0.1345212
2917.770, 0.1341097
2919.698, 0.1338730
2921.627, 0.1338880
2923.555, 0.1338706
2925.484, 0.1338499
2927.412, 0.1338109
2929.341, 0.1334330
2931.269, 0.1330333
2933.198, 0.1334318
2935.126, 0.1341449
2937.055, 0.1343291
2938.983, 0.1338185
2940.912, 0.1340661
2942.840, 0.1346390
2944.769, 0.1348642
2946.697, 0.1346059
2948.625, 0.1342906
2950.554, 0.1345183
2952.482, 0.1345934
2954.411, 0.1346183
2956.339, 0.1348711
2958.268, 0.1349408
2960.196, 0.1347396
2962.125, 0.1345954
2964.053, 0.1346850
2965.982, 0.1345356
2967.910, 0.1343483
2969.839, 0.1341507
2971.767, 0.1344626
2973.696, 0.1342542
2975.624, 0.1337490
2977.552, 0.1336881
2979.481, 0.1340938
2981.409, 0.1347376
2983.338, 0.1351140
2985.266, 0.1351006
2987.195, 0.1348345
2989.123, 0.1345814
2991.052, 0.1348114
2992.980, 0.1349376
2994.909, 0.1348884
2996.837, 0.1351696
2998.766, 0.1348747
3000.694, 0.1350013
3002.623, 0.1348744
3004.551, 0.1344378
3006.479, 0.1347514
3008.408, 0.1348615
3010.336, 0.1345146
3012.265, 0.1344605
3014.193, 0.1348885
3016.122, 0.1352187
3018.050, 0.1354149
3019.979, 0.1353656
3021.907, 0.1345471
3023.836, 0.1339601
3025.764, 0.1339418
3027.693, 0.1335308
3029.621, 0.1337239
3031.550, 0.1343646
3033.478, 0.1342687
3035.406, 0.1340212
3037.335, 0.1344804
3039.263, 0.1346749
3041.192, 0.1340506
3043.120, 0.1343741
3045.049, 0.1350125
3046.977, 0.1348841
3048.906, 0.1345975
3050.834, 0.1349823
3052.763, 0.1354026
3054.691, 0.1352131
3056.620, 0.1350871
3058.548, 0.1346548
3060.477, 0.1346717
3062.405, 0.1351385
3064.333, 0.1351947
3066.262, 0.1344618
3068.190, 0.1343444
3070.119, 0.1345149
3072.047, 0.1345808
3073.976, 0.1347378
3075.904, 0.1344238
3077.833, 0.1346029
3079.761, 0.1345086
3081.690, 0.1341981
3083.618, 0.1344942
3085.547, 0.1348363
3087.475, 0.1346606
3089.404, 0.1343182
3091.332, 0.1345413
3093.260, 0.1352032
3095.189, 0.1355184
3097.117, 0.1350312
3099.046, 0.1346833
3100.974, 0.1346106
3102.903, 0.1350142
3104.831, 0.1353167
3106.760, 0.1350441
3108.688, 0.1350973
3110.617, 0.1356998
3112.545, 0.1357909
3114.474, 0.1358996
3116.402, 0.1359136
3118.331, 0.1354813
3120.259, 0.1345915
3122.188, 0.1341414
3124.116, 0.1344338
3126.044, 0.1344236
3127.973, 0.1340780
3129.901, 0.1345190
3131.830, 0.1351299
3133.758, 0.1344813
3135.687, 0.1335352
3137.615, 0.1339114
3139.544, 0.1347017
3141.472, 0.1347308
3143.401, 0.1346296
3145.329, 0.1346295
3147.258, 0.1347198
3149.186, 0.1346034
3151.115, 0.1345526
3153.043, 0.1347231
3154.971, 0.1351710
3156.900, 0.1352477
3158.828, 0.1346638
3160.757, 0.1342978
3162.685, 0.1347090
3164.614, 0.1349836
3166.542, 0.1350503
3168.471, 0.1344067
3170.399, 0.1343617
3172.328, 0.1344398
3174.256, 0.1337583
3176.185, 0.1341218
3178.113, 0.1352648
3180.042, 0.1354575
3181.970, 0.1355831
3183.898, 0.1353333
3185.827, 0.1345419
3187.755, 0.1340658
3189.684, 0.1345095
3191.612, 0.1348448
3193.541, 0.1349964
3195.469, 0.1348502
3197.398, 0.1349975
3199.326, 0.1348237
3201.255, 0.1346927
3203.183, 0.1351470
3205.112, 0.1350956
3207.040, 0.1346263
3208.969, 0.1345401
3210.897, 0.1344650
3212.825, 0.1348516
3214.754, 0.1343804
3216.682, 0.1338230
3218.611, 0.1342659
3220.539, 0.1341151
3222.468, 0.1340025
3224.396, 0.1343707
3226.325, 0.1343377
3228.253, 0.1338439
3230.182, 0.1338691
3232.110, 0.1339466
3234.039, 0.1337705
3235.967, 0.1344862
3237.896, 0.1346534
3239.824, 0.1349646
3241.752, 0.1345915
3243.681, 0.1344240
3245.609, 0.1338701
3247.538, 0.1342043
3249.466, 0.1346846
3251.395, 0.1343991
3253.323, 0.1344309
3255.252, 0.1345636
3257.180, 0.1343246
3259.109, 0.1337983
3261.037, 0.1337505
3262.966, 0.1344488
3264.894, 0.1349591
3266.823, 0.1347965
3268.751, 0.1345151
3270.679, 0.1340684
3272.608, 0.1341094
3274.536, 0.1344266
3276.465, 0.1339093
3278.393, 0.1341944
3280.322, 0.1346093
3282.250, 0.1344086
3284.179, 0.1347909
3286.107, 0.1349127
3288.036, 0.1343365
3289.964, 0.1343774
3291.893, 0.1340106
3293.821, 0.1335786
3295.750, 0.1333564
3297.678, 0.1336089
3299.606, 0.1340145
3301.535, 0.1343854
3303.463, 0.1347761
3305.392, 0.1346375
3307.320, 0.1343601
3309.249, 0.1341359
3311.177, 0.1338140
3313.106, 0.1342582
3315.034, 0.1344705
3316.963, 0.1341681
3318.891, 0.1340410
3320.820, 0.1340582
3322.748, 0.1343593
3324.677, 0.1339870
3326.605, 0.1335806
3328.533, 0.1341912
3330.462, 0.1345129
3332.390, 0.1341971
3334.319, 0.1340938
3336.247, 0.1336362
3338.176, 0.1335397
3340.104, 0.1337041
3342.033, 0.1339287
3343.961, 0.1344374
3345.890, 0.1342235
3347.818, 0.1344759
3349.747, 0.1346958
3351.675, 0.1348826
3353.604, 0.1343008
3355.532, 0.1338528
3357.460, 0.1339396
3359.389, 0.1339110
3361.317, 0.1336352
3363.246, 0.1339588
3365.174, 0.1343696
3367.103, 0.1338462
3369.031, 0.1337392
3370.960, 0.1344100
3372.888, 0.1347214
3374.817, 0.1346060
3376.745, 0.1336837
3378.674, 0.1334005
3380.602, 0.1339438
3382.531, 0.1339885
3384.459, 0.1342377
3386.387, 0.1345218
3388.316, 0.1343303
3390.244, 0.1340734
3392.173, 0.1345211
3394.101, 0.1345170
3396.030, 0.1336746
3397.958, 0.1332887
3399.887, 0.1334907
3401.815, 0.1340407
3403.744, 0.1339453
3405.672, 0.1339156
3407.601, 0.1339549
3409.529, 0.1338376
3411.458, 0.1334799
3413.386, 0.1338395
3415.314, 0.1340547
3417.243, 0.1339899
3419.171, 0.1338910
3421.100, 0.1337504
3423.028, 0.1336145
3424.957, 0.1336644
3426.885, 0.1337924
3428.814, 0.1331174
3430.742, 0.1328384
3432.671, 0.1334753
3434.599, 0.1339028
3436.528, 0.1337202
3438.456, 0.1335465
3440.385, 0.1331943
3442.313, 0.1326639
3444.241, 0.1327063
3446.170, 0.1332126
3448.098, 0.1334422
3450.027, 0.1337897
3451.955, 0.1329048
3453.884, 0.1324556
3455.812, 0.1333006
3457.741, 0.1332873
3459.669, 0.1327137
3461.598, 0.1325627
3463.526, 0.1329562
3465.455, 0.1333540
3467.383, 0.1334016
3469.312, 0.1324182
3471.240, 0.1316867
3473.168, 0.1322746
3475.097, 0.1327739
3477.025, 0.1324803
3478.954, 0.1328695
3480.882, 0.1338972
3482.811, 0.1334076
3484.739, 0.1325998
3486.668, 0.1324771
3488.596, 0.1329817
3490.525, 0.1332355
3492.453, 0.1333784
3494.382, 0.1330955
3496.310, 0.1321673
3498.239, 0.1316532
3500.167, 0.1312504
3502.095, 0.1312045
3504.024, 0.1319209
3505.952, 0.1320883
3507.881, 0.1315944
3509.809, 0.1324422
3511.738, 0.1333640
3513.666, 0.1330080
3515.595, 0.1322852
3517.523, 0.1326783
3519.452, 0.1329535
3521.380, 0.1328873
3523.309, 0.1325547
3525.237, 0.1326053
3527.166, 0.1329485
3529.094, 0.1330817
3531.022, 0.1330423
3532.951, 0.1331255
3534.879, 0.1332607
3536.808, 0.1330696
3538.736, 0.1326422
3540.665, 0.1324285
3542.593, 0.1323324
3544.522, 0.1311452
3546.450, 0.1304970
3548.379, 0.1312112
3550.307, 0.1314522
3552.236, 0.1314450
3554.164, 0.1313773
3556.093, 0.1319605
3558.021, 0.1319690
3559.949, 0.1307313
3561.878, 0.1304678
3563.806, 0.1309170
3565.735, 0.1309263
3567.663, 0.1313515
3569.592, 0.1320434
3571.520, 0.1319539
3573.449, 0.1312129
3575.377, 0.1312612
3577.306, 0.1316980
3579.234, 0.1310683
3581.163, 0.1309149
3583.091, 0.1314773
3585.020, 0.1315729
3586.948, 0.1316880
3588.876, 0.1320133
3590.805, 0.1309482
3592.733, 0.1309700
3594.662, 0.1315414
3596.590, 0.1315808
3598.519, 0.1310521
3600.447, 0.1307858
3602.376, 0.1315981
3604.304, 0.1322658
3606.233, 0.1325788
3608.161, 0.1326339
3610.090, 0.1324254
3612.018, 0.1318243
3613.947, 0.1313813
3615.875, 0.1325187
3617.803, 0.1325270
3619.732, 0.1324808
3621.660, 0.1317551
3623.589, 0.1316746
3625.517, 0.1320255
3627.446, 0.1323430
3629.374, 0.1321119
3631.303, 0.1316856
3633.231, 0.1311817
3635.160, 0.1312198
3637.088, 0.1315373
3639.017, 0.1311489
3640.945, 0.1306215
3642.874, 0.1303185
3644.802, 0.1309168
3646.730, 0.1313529
3648.659, 0.1309238
3650.587, 0.1309295
3652.516, 0.1313076
3654.444, 0.1315086
3656.373, 0.1314868
3658.301, 0.1305487
3660.230, 0.1305540
3662.158, 0.1315447
3664.087, 0.1318443
3666.015, 0.1322794
3667.944, 0.1320310
3669.872, 0.1316699
3671.801, 0.1318481
3673.729, 0.1322866
3675.657, 0.1318430
3677.586, 0.1313689
3679.514, 0.1315560
3681.443, 0.1320630
3683.371, 0.1323995
3685.300, 0.1321688
3687.228, 0.1323524
3689.157, 0.1325610
3691.085, 0.1326718
3693.014, 0.1319141
3694.942, 0.1319737
3696.871, 0.1320897
3698.799, 0.1308646
3700.728, 0.1309598
3702.656, 0.1312281
3704.584, 0.1308937
3706.513, 0.1303967
3708.441, 0.1316698
3710.370, 0.1318102
3712.298, 0.1313970
3714.227, 0.1314269
3716.155, 0.1311650
3718.084, 0.1312243
3720.012, 0.1311923
3721.941, 0.1311675
3723.869, 0.1320559
3725.798, 0.1326038
3727.726, 0.1313404
3729.655, 0.1311718
3731.583, 0.1313286
3733.511, 0.1310097
3735.440, 0.1305551
3737.368, 0.1317515
3739.297, 0.1326268
3741.225, 0.1321331
3743.154, 0.1317527
3745.082, 0.1312044
3747.011, 0.1311642
3748.939, 0.1312051
3750.868, 0.1305066
3752.796, 0.1313218
3754.725, 0.1317565
3756.653, 0.1316295
3758.582, 0.1307045
3760.510, 0.1300102
3762.438, 0.1313181
3764.367, 0.1320392
3766.295, 0.1307205
3768.224, 0.1305066
3770.152, 0.1309587
3772.081, 0.1311609
3774.009, 0.1317042
3775.938, 0.1318198
3777.866, 0.1315453
3779.795, 0.1310649
3781.723, 0.1302847
3783.652, 0.1303646
3785.580, 0.1316288
3787.509, 0.1315459
3789.437, 0.1307813
3791.365, 0.1310480
3793.294, 0.1306408
3795.222, 0.1297867
3797.151, 0.1308466
3799.079, 0.1319306
3801.008, 0.1322274
3802.936, 0.1313882
3804.865, 0.1311551
3806.793, 0.1306364
3808.722, 0.1304069
3810.650, 0.1308165
3812.579, 0.1305661
3814.507, 0.1305240
3816.436, 0.1315870
3818.364, 0.1320850
3820.292, 0.1322343
3822.221, 0.1311612
3824.149, 0.1306484
3826.078, 0.1314929
3828.006, 0.1313513
3829.935, 0.1311546
3831.863, 0.1316866
3833.792, 0.1308510
3835.720, 0.1303668
3837.649, 0.1311788
3839.577, 0.1315871
3841.506, 0.1325072
3843.434, 0.1324894
3845.363, 0.1310308
3847.291, 0.1308999
3849.219, 0.1314499
3851.148, 0.1306825
3853.076, 0.1298049
3855.005, 0.1310778
3856.933, 0.1328103
3858.862, 0.1323664
3860.790, 0.1310872
3862.719, 0.1309648
3864.647, 0.1315518
3866.576, 0.1323706
3868.504, 0.1320996
3870.433, 0.1308983
3872.361, 0.1302996
3874.290, 0.1303973
3876.218, 0.1304312
3878.146, 0.1306991
3880.075, 0.1304825
3882.003, 0.1301647
3883.932, 0.1306299
3885.860, 0.1304716
3887.789, 0.1307334
3889.717, 0.1316657
3891.646, 0.1318082
3893.574, 0.1318043
3895.503, 0.1314229
3897.431, 0.1312734
3899.360, 0.1300618
3901.288, 0.1295572
3903.217, 0.1312212
3905.145, 0.1308078
3907.073, 0.1304651
3909.002, 0.1307763
3910.930, 0.1307366
3912.859, 0.1306981
3914.787, 0.1304093
3916.716, 0.1300568
3918.644, 0.1306596
3920.573, 0.1312463
3922.501, 0.1322301
3924.430, 0.1320960
3926.358, 0.1318828
3928.287, 0.1319878
3930.215, 0.1314623
3932.144, 0.1304807
3934.072, 0.1301908
3936.000, 0.1306809
3937.929, 0.1314742
3939.857, 0.1310706
3941.786, 0.1306930
3943.714, 0.1314843
3945.643, 0.1318340
3947.571, 0.1313228
3949.500, 0.1310529
3951.428, 0.1311001
3953.357, 0.1304936
3955.285, 0.1307629
3957.214, 0.1308578
3959.142, 0.1311214
3961.071, 0.1315523
3962.999, 0.1322709
3964.927, 0.1317928
3966.856, 0.1308458
3968.784, 0.1303083
3970.713, 0.1299703
3972.641, 0.1299610
3974.570, 0.1302849
3976.498, 0.1316163
3978.427, 0.1318159
3980.355, 0.1312836
3982.284, 0.1311229
3984.212, 0.1318384
3986.141, 0.1320059
3988.069, 0.1319975
3989.998, 0.1303904
3991.926, 0.1302515
3993.854, 0.1313801
3995.783, 0.1316631
3997.711, 0.1309667
3999.640, 0.1309667
##END=



