##NAMES=Yttrotantalite-(Y)
##RRUFFID=R060022
##IDEAL CHEMISTRY=(Y^3+^,U^6+^,Fe^2+^)(Ta^5+^,Nb^5+^)_2_(O,OH)_4_
##LOCALITY=Swaziland
##OWNER=RRUFF
##SOURCE=American Museum of Natural History
##DESCRIPTION=Brown glassy amorphous, note that a fragment of this sample was heated and is posted at R080046
##STATUS=The identification of this mineral has been confirmed only by chemical analysis
##URL=rruff.info/R060022
##MEASURED CHEMISTRY=(Y_0.53_Ca_0.47_)_Σ=1_(Ta_0.89_Nb_0.62_Fe_0.32_Mn_0.06_U_0.05_Ti_0.03_Th_0.02_)_Σ=2_(O_5.28_(OH)_0.72_)_Σ=6_
3.991926e+002, 2.576645e-001
4.011211e+002, 2.495664e-001
4.030495e+002, 2.453569e-001
4.049780e+002, 2.506625e-001
4.069065e+002, 2.511007e-001
4.088349e+002, 2.464205e-001
4.107634e+002, 2.472112e-001
4.126919e+002, 2.430296e-001
4.146203e+002, 2.428453e-001
4.165488e+002, 2.437529e-001
4.184773e+002, 2.343411e-001
4.204057e+002, 2.351018e-001
4.223342e+002, 2.386002e-001
4.242627e+002, 2.395370e-001
4.261911e+002, 2.383696e-001
4.281196e+002, 2.363989e-001
4.300481e+002, 2.349902e-001
4.319765e+002, 2.383361e-001
4.339050e+002, 2.358855e-001
4.358335e+002, 2.352534e-001
4.377619e+002, 2.323675e-001
4.396904e+002, 2.310908e-001
4.416189e+002, 2.276615e-001
4.435473e+002, 2.273505e-001
4.454758e+002, 2.304437e-001
4.474043e+002, 2.333719e-001
4.493327e+002, 2.298744e-001
4.512612e+002, 2.307282e-001
4.531897e+002, 2.324550e-001
4.551181e+002, 2.293512e-001
4.570466e+002, 2.282645e-001
4.589751e+002, 2.282182e-001
4.609035e+002, 2.269844e-001
4.628320e+002, 2.274005e-001
4.647605e+002, 2.287090e-001
4.666889e+002, 2.283053e-001
4.686174e+002, 2.286057e-001
4.705459e+002, 2.272958e-001
4.724743e+002, 2.247463e-001
4.744028e+002, 2.244935e-001
4.763313e+002, 2.238645e-001
4.782597e+002, 2.250854e-001
4.801882e+002, 2.258937e-001
4.821167e+002, 2.259163e-001
4.840451e+002, 2.262719e-001
4.859736e+002, 2.273871e-001
4.879021e+002, 2.279965e-001
4.898305e+002, 2.274528e-001
4.917590e+002, 2.265223e-001
4.936875e+002, 2.271858e-001
4.956159e+002, 2.269833e-001
4.975444e+002, 2.267462e-001
4.994729e+002, 2.283461e-001
5.014013e+002, 2.289211e-001
5.033298e+002, 2.278538e-001
5.052583e+002, 2.272021e-001
5.071867e+002, 2.271876e-001
5.091152e+002, 2.288484e-001
5.110437e+002, 2.301190e-001
5.129721e+002, 2.304481e-001
5.149006e+002, 2.307516e-001
5.168290e+002, 2.302240e-001
5.187575e+002, 2.303967e-001
5.206860e+002, 2.304126e-001
5.226144e+002, 2.318898e-001
5.245429e+002, 2.332412e-001
5.264714e+002, 2.343783e-001
5.283998e+002, 2.339127e-001
5.303283e+002, 2.320771e-001
5.322568e+002, 2.308240e-001
5.341852e+002, 2.306966e-001
5.361137e+002, 2.325567e-001
5.380422e+002, 2.339469e-001
5.399706e+002, 2.339099e-001
5.418991e+002, 2.347547e-001
5.438276e+002, 2.353563e-001
5.457560e+002, 2.350123e-001
5.476845e+002, 2.365480e-001
5.496130e+002, 2.386377e-001
5.515414e+002, 2.383559e-001
5.534699e+002, 2.370063e-001
5.553984e+002, 2.369059e-001
5.573268e+002, 2.375667e-001
5.592553e+002, 2.378051e-001
5.611838e+002, 2.378775e-001
5.631122e+002, 2.371445e-001
5.650407e+002, 2.375938e-001
5.669692e+002, 2.381353e-001
5.688976e+002, 2.365319e-001
5.708261e+002, 2.374495e-001
5.727546e+002, 2.382409e-001
5.746830e+002, 2.374747e-001
5.766115e+002, 2.370518e-001
5.785400e+002, 2.374096e-001
5.804684e+002, 2.370929e-001
5.823969e+002, 2.361767e-001
5.843254e+002, 2.358232e-001
5.862538e+002, 2.358010e-001
5.881823e+002, 2.359158e-001
5.901108e+002, 2.348582e-001
5.920392e+002, 2.348359e-001
5.939677e+002, 2.349510e-001
5.958962e+002, 2.340179e-001
5.978246e+002, 2.330259e-001
5.997531e+002, 2.328869e-001
6.016816e+002, 2.325905e-001
6.036100e+002, 2.321620e-001
6.055385e+002, 2.316913e-001
6.074670e+002, 2.308687e-001
6.093954e+002, 2.300748e-001
6.113239e+002, 2.290756e-001
6.132524e+002, 2.273553e-001
6.151808e+002, 2.257646e-001
6.171093e+002, 2.254578e-001
6.190378e+002, 2.246253e-001
6.209662e+002, 2.228318e-001
6.228947e+002, 2.218531e-001
6.248232e+002, 2.211215e-001
6.267516e+002, 2.199808e-001
6.286801e+002, 2.191185e-001
6.306086e+002, 2.174082e-001
6.325370e+002, 2.163263e-001
6.344655e+002, 2.159584e-001
6.363940e+002, 2.145867e-001
6.383224e+002, 2.127804e-001
6.402509e+002, 2.121669e-001
6.421794e+002, 2.108790e-001
6.441078e+002, 2.085590e-001
6.460363e+002, 2.073687e-001
6.479648e+002, 2.066488e-001
6.498932e+002, 2.051578e-001
6.518217e+002, 2.036496e-001
6.537502e+002, 2.020160e-001
6.556786e+002, 2.000484e-001
6.576071e+002, 1.988471e-001
6.595356e+002, 1.983155e-001
6.614641e+002, 1.967991e-001
6.633925e+002, 1.949387e-001
6.653210e+002, 1.934331e-001
6.672495e+002, 1.921947e-001
6.691779e+002, 1.909702e-001
6.711064e+002, 1.892090e-001
6.730349e+002, 1.871067e-001
6.749633e+002, 1.853778e-001
6.768918e+002, 1.839006e-001
6.788203e+002, 1.817647e-001
6.807487e+002, 1.801835e-001
6.826772e+002, 1.789000e-001
6.846057e+002, 1.772448e-001
6.865341e+002, 1.751926e-001
6.884626e+002, 1.736999e-001
6.903911e+002, 1.717440e-001
6.923195e+002, 1.700355e-001
6.942480e+002, 1.687354e-001
6.961765e+002, 1.663460e-001
6.981049e+002, 1.635241e-001
7.000334e+002, 1.619424e-001
7.019619e+002, 1.607404e-001
7.038903e+002, 1.589531e-001
7.058188e+002, 1.570213e-001
7.077473e+002, 1.553988e-001
7.096757e+002, 1.533101e-001
7.116042e+002, 1.514297e-001
7.135327e+002, 1.495647e-001
7.154611e+002, 1.477301e-001
7.173896e+002, 1.456645e-001
7.193181e+002, 1.436166e-001
7.212465e+002, 1.418999e-001
7.231750e+002, 1.404422e-001
7.251035e+002, 1.387834e-001
7.270319e+002, 1.369520e-001
7.289604e+002, 1.347837e-001
7.308889e+002, 1.332307e-001
7.328173e+002, 1.319490e-001
7.347458e+002, 1.304713e-001
7.366743e+002, 1.285754e-001
7.386027e+002, 1.263392e-001
7.405312e+002, 1.241447e-001
7.424597e+002, 1.226458e-001
7.443881e+002, 1.213427e-001
7.463166e+002, 1.199502e-001
7.482451e+002, 1.183598e-001
7.501735e+002, 1.165198e-001
7.521020e+002, 1.147636e-001
7.540305e+002, 1.135234e-001
7.559589e+002, 1.119066e-001
7.578874e+002, 1.105450e-001
7.598159e+002, 1.092198e-001
7.617443e+002, 1.077311e-001
7.636728e+002, 1.065667e-001
7.656013e+002, 1.056144e-001
7.675297e+002, 1.046622e-001
7.694582e+002, 1.036579e-001
7.713867e+002, 1.023743e-001
7.733151e+002, 1.009556e-001
7.752436e+002, 9.977511e-002
7.771721e+002, 9.922607e-002
7.791005e+002, 9.851382e-002
7.810290e+002, 9.718578e-002
7.829575e+002, 9.579431e-002
7.848859e+002, 9.527228e-002
7.868144e+002, 9.518815e-002
7.887429e+002, 9.468635e-002
7.906713e+002, 9.386002e-002
7.925998e+002, 9.311467e-002
7.945283e+002, 9.268422e-002
7.964567e+002, 9.255081e-002
7.983852e+002, 9.191199e-002
8.003137e+002, 9.135570e-002
8.022421e+002, 9.100012e-002
8.041706e+002, 9.076706e-002
8.060991e+002, 9.052348e-002
8.080275e+002, 8.994215e-002
8.099560e+002, 8.939172e-002
8.118845e+002, 8.953716e-002
8.138129e+002, 8.946101e-002
8.157414e+002, 8.896559e-002
8.176699e+002, 8.862308e-002
8.195983e+002, 8.806089e-002
8.215268e+002, 8.730014e-002
8.234553e+002, 8.677356e-002
8.253837e+002, 8.620237e-002
8.273122e+002, 8.561151e-002
8.292407e+002, 8.507605e-002
8.311691e+002, 8.450689e-002
8.330976e+002, 8.388581e-002
8.350261e+002, 8.321261e-002
8.369545e+002, 8.269311e-002
8.388830e+002, 8.216577e-002
8.408115e+002, 8.190574e-002
8.427399e+002, 8.140238e-002
8.446684e+002, 8.020922e-002
8.465969e+002, 7.899568e-002
8.485253e+002, 7.790639e-002
8.504538e+002, 7.703120e-002
8.523823e+002, 7.622658e-002
8.543107e+002, 7.556441e-002
8.562392e+002, 7.488925e-002
8.581677e+002, 7.443771e-002
8.600961e+002, 7.359579e-002
8.620246e+002, 7.257132e-002
8.639531e+002, 7.174657e-002
8.658815e+002, 7.083549e-002
8.678100e+002, 6.980862e-002
8.697385e+002, 6.912226e-002
8.716669e+002, 6.813780e-002
8.735954e+002, 6.733407e-002
8.755239e+002, 6.672174e-002
8.774523e+002, 6.569234e-002
8.793808e+002, 6.442033e-002
8.813093e+002, 6.297530e-002
8.832377e+002, 6.188428e-002
8.851662e+002, 6.136977e-002
8.870947e+002, 6.063626e-002
8.890231e+002, 5.993756e-002
8.909516e+002, 5.912904e-002
8.928801e+002, 5.823669e-002
8.948085e+002, 5.713020e-002
8.967370e+002, 5.635395e-002
8.986655e+002, 5.575029e-002
9.005939e+002, 5.494437e-002
9.025224e+002, 5.411042e-002
9.044509e+002, 5.347640e-002
9.063793e+002, 5.278555e-002
9.083078e+002, 5.208348e-002
9.102363e+002, 5.155398e-002
9.121647e+002, 5.114927e-002
9.140932e+002, 5.053513e-002
9.160217e+002, 4.957293e-002
9.179501e+002, 4.879730e-002
9.198786e+002, 4.834900e-002
9.218071e+002, 4.782506e-002
9.237355e+002, 4.725355e-002
9.256640e+002, 4.630262e-002
9.275925e+002, 4.592521e-002
9.295209e+002, 4.551631e-002
9.314494e+002, 4.488964e-002
9.333779e+002, 4.431057e-002
9.353063e+002, 4.390480e-002
9.372348e+002, 4.317283e-002
9.391633e+002, 4.276687e-002
9.410917e+002, 4.268781e-002
9.430202e+002, 4.267075e-002
9.449487e+002, 4.217196e-002
9.468771e+002, 4.133978e-002
9.488056e+002, 4.076762e-002
9.507341e+002, 4.041741e-002
9.526625e+002, 3.996173e-002
9.545910e+002, 4.010541e-002
9.565195e+002, 4.006866e-002
9.584479e+002, 3.970680e-002
9.603764e+002, 3.935684e-002
9.623049e+002, 3.903082e-002
9.642333e+002, 3.882102e-002
9.661618e+002, 3.856215e-002
9.680903e+002, 3.834208e-002
9.700187e+002, 3.796996e-002
9.719472e+002, 3.743496e-002
9.738757e+002, 3.698921e-002
9.758041e+002, 3.672148e-002
9.777326e+002, 3.621488e-002
9.796611e+002, 3.572701e-002
9.815895e+002, 3.517117e-002
9.835180e+002, 3.481455e-002
9.854465e+002, 3.497387e-002
9.873749e+002, 3.492567e-002
9.893034e+002, 3.453017e-002
9.912319e+002, 3.397489e-002
9.931603e+002, 3.317362e-002
9.950888e+002, 3.283746e-002
9.970173e+002, 3.236721e-002
9.989457e+002, 3.175874e-002
1.000874e+003, 3.186215e-002
1.002803e+003, 3.164983e-002
1.004731e+003, 3.104214e-002
1.006660e+003, 3.053819e-002
1.008588e+003, 3.028317e-002
1.010517e+003, 2.993941e-002
1.012445e+003, 2.935102e-002
1.014373e+003, 2.887282e-002
1.016302e+003, 2.891797e-002
1.018230e+003, 2.883540e-002
1.020159e+003, 2.850571e-002
1.022087e+003, 2.813522e-002
1.024016e+003, 2.782204e-002
1.025944e+003, 2.727826e-002
1.027873e+003, 2.698649e-002
1.029801e+003, 2.690481e-002
1.031730e+003, 2.708213e-002
1.033658e+003, 2.688516e-002
1.035587e+003, 2.660337e-002
1.037515e+003, 2.657961e-002
1.039443e+003, 2.646114e-002
1.041372e+003, 2.617737e-002
1.043300e+003, 2.642976e-002
1.045229e+003, 2.663357e-002
1.047157e+003, 2.658684e-002
1.049086e+003, 2.664520e-002
1.051014e+003, 2.656859e-002
1.052943e+003, 2.644863e-002
1.054871e+003, 2.630958e-002
1.056800e+003, 2.599775e-002
1.058728e+003, 2.580884e-002
1.060657e+003, 2.573368e-002
1.062585e+003, 2.560184e-002
1.064514e+003, 2.546974e-002
1.066442e+003, 2.545626e-002
1.068370e+003, 2.570908e-002
1.070299e+003, 2.566873e-002
1.072227e+003, 2.515440e-002
1.074156e+003, 2.511851e-002
1.076084e+003, 2.466346e-002
1.078013e+003, 2.410787e-002
1.079941e+003, 2.414840e-002
1.081870e+003, 2.413914e-002
1.083798e+003, 2.363724e-002
1.085727e+003, 2.376196e-002
1.087655e+003, 2.416944e-002
1.089584e+003, 2.370306e-002
1.091512e+003, 2.305918e-002
1.093441e+003, 2.315443e-002
1.095369e+003, 2.301657e-002
1.097297e+003, 2.291203e-002
1.099226e+003, 2.333224e-002
1.101154e+003, 2.316299e-002
1.103083e+003, 2.261213e-002
1.105011e+003, 2.253177e-002
1.106940e+003, 2.226047e-002
1.108868e+003, 2.214970e-002
1.110797e+003, 2.217439e-002
1.112725e+003, 2.181713e-002
1.114654e+003, 2.123750e-002
1.116582e+003, 2.097572e-002
1.118511e+003, 2.070411e-002
1.120439e+003, 2.014221e-002
1.122368e+003, 1.979694e-002
1.124296e+003, 1.973227e-002
1.126224e+003, 1.943681e-002
1.128153e+003, 1.946962e-002
1.130081e+003, 1.935823e-002
1.132010e+003, 1.895185e-002
1.133938e+003, 1.871462e-002
1.135867e+003, 1.845208e-002
1.137795e+003, 1.803788e-002
1.139724e+003, 1.814225e-002
1.141652e+003, 1.813320e-002
1.143581e+003, 1.786035e-002
1.145509e+003, 1.764733e-002
1.147438e+003, 1.723620e-002
1.149366e+003, 1.696462e-002
1.151295e+003, 1.696700e-002
1.153223e+003, 1.690103e-002
1.155151e+003, 1.672945e-002
1.157080e+003, 1.674382e-002
1.159008e+003, 1.676963e-002
1.160937e+003, 1.651035e-002
1.162865e+003, 1.617048e-002
1.164794e+003, 1.573063e-002
1.166722e+003, 1.562907e-002
1.168651e+003, 1.581647e-002
1.170579e+003, 1.591056e-002
1.172508e+003, 1.576592e-002
1.174436e+003, 1.533368e-002
1.176365e+003, 1.512329e-002
1.178293e+003, 1.523471e-002
1.180222e+003, 1.524724e-002
1.182150e+003, 1.515531e-002
1.184078e+003, 1.504222e-002
1.186007e+003, 1.493373e-002
1.187935e+003, 1.475784e-002
1.189864e+003, 1.529741e-002
1.191792e+003, 1.559415e-002
1.193721e+003, 1.516939e-002
1.195649e+003, 1.484552e-002
1.197578e+003, 1.489380e-002
1.199506e+003, 1.507838e-002
1.201435e+003, 1.510824e-002
1.203363e+003, 1.521996e-002
1.205292e+003, 1.524710e-002
1.207220e+003, 1.507748e-002
1.209149e+003, 1.504005e-002
1.211077e+003, 1.506458e-002
1.213005e+003, 1.505850e-002
1.214934e+003, 1.505991e-002
1.216862e+003, 1.532636e-002
1.218791e+003, 1.528285e-002
1.220719e+003, 1.516029e-002
1.222648e+003, 1.506079e-002
1.224576e+003, 1.502861e-002
1.226505e+003, 1.508304e-002
1.228433e+003, 1.531834e-002
1.230362e+003, 1.533202e-002
1.232290e+003, 1.520178e-002
1.234219e+003, 1.531364e-002
1.236147e+003, 1.546524e-002
1.238076e+003, 1.550634e-002
1.240004e+003, 1.551755e-002
1.241932e+003, 1.525859e-002
1.243861e+003, 1.527779e-002
1.245789e+003, 1.569690e-002
1.247718e+003, 1.566472e-002
1.249646e+003, 1.559415e-002
1.251575e+003, 1.598389e-002
1.253503e+003, 1.620941e-002
1.255432e+003, 1.622051e-002
1.257360e+003, 1.602808e-002
1.259289e+003, 1.603939e-002
1.261217e+003, 1.618463e-002
1.263146e+003, 1.634505e-002
1.265074e+003, 1.680877e-002
1.267003e+003, 1.672156e-002
1.268931e+003, 1.679833e-002
1.270859e+003, 1.723703e-002
1.272788e+003, 1.734382e-002
1.274716e+003, 1.754415e-002
1.276645e+003, 1.769270e-002
1.278573e+003, 1.775905e-002
1.280502e+003, 1.780871e-002
1.282430e+003, 1.795699e-002
1.284359e+003, 1.797067e-002
1.286287e+003, 1.773350e-002
1.288216e+003, 1.765897e-002
1.290144e+003, 1.774717e-002
1.292073e+003, 1.811203e-002
1.294001e+003, 1.849348e-002
1.295930e+003, 1.855152e-002
1.297858e+003, 1.887592e-002
1.299786e+003, 1.913964e-002
1.301715e+003, 1.921043e-002
1.303643e+003, 1.932573e-002
1.305572e+003, 1.956357e-002
1.307500e+003, 1.972185e-002
1.309429e+003, 1.991245e-002
1.311357e+003, 2.003138e-002
1.313286e+003, 2.019318e-002
1.315214e+003, 2.033369e-002
1.317143e+003, 2.031335e-002
1.319071e+003, 2.032366e-002
1.321000e+003, 2.056171e-002
1.322928e+003, 2.079163e-002
1.324857e+003, 2.098923e-002
1.326785e+003, 2.122563e-002
1.328714e+003, 2.152806e-002
1.330642e+003, 2.173612e-002
1.332570e+003, 2.200662e-002
1.334499e+003, 2.258917e-002
1.336427e+003, 2.293461e-002
1.338356e+003, 2.295054e-002
1.340284e+003, 2.337646e-002
1.342213e+003, 2.353951e-002
1.344141e+003, 2.333007e-002
1.346070e+003, 2.343434e-002
1.347998e+003, 2.437207e-002
1.349927e+003, 2.507483e-002
1.351855e+003, 2.502758e-002
1.353784e+003, 2.490537e-002
1.355712e+003, 2.541352e-002
1.357641e+003, 2.568268e-002
1.359569e+003, 2.586071e-002
1.361497e+003, 2.618204e-002
1.363426e+003, 2.638466e-002
1.365354e+003, 2.667240e-002
1.367283e+003, 2.717300e-002
1.369211e+003, 2.743524e-002
1.371140e+003, 2.779973e-002
1.373068e+003, 2.821472e-002
1.374997e+003, 2.876123e-002
1.376925e+003, 2.898362e-002
1.378854e+003, 2.897918e-002
1.380782e+003, 2.949586e-002
1.382711e+003, 3.010876e-002
1.384639e+003, 3.025342e-002
1.386568e+003, 3.023159e-002
1.388496e+003, 3.029424e-002
1.390424e+003, 3.060878e-002
1.392353e+003, 3.117008e-002
1.394281e+003, 3.163717e-002
1.396210e+003, 3.207305e-002
1.398138e+003, 3.229926e-002
1.400067e+003, 3.243345e-002
1.401995e+003, 3.278989e-002
1.403924e+003, 3.313850e-002
1.405852e+003, 3.342202e-002
1.407781e+003, 3.345244e-002
1.409709e+003, 3.383695e-002
1.411638e+003, 3.435074e-002
1.413566e+003, 3.480465e-002
1.415495e+003, 3.539411e-002
1.417423e+003, 3.553810e-002
1.419351e+003, 3.557150e-002
1.421280e+003, 3.574173e-002
1.423208e+003, 3.586413e-002
1.425137e+003, 3.592384e-002
1.427065e+003, 3.623293e-002
1.428994e+003, 3.689829e-002
1.430922e+003, 3.685133e-002
1.432851e+003, 3.686628e-002
1.434779e+003, 3.742336e-002
1.436708e+003, 3.747982e-002
1.438636e+003, 3.706542e-002
1.440565e+003, 3.702500e-002
1.442493e+003, 3.761303e-002
1.444422e+003, 3.792002e-002
1.446350e+003, 3.787998e-002
1.448278e+003, 3.782942e-002
1.450207e+003, 3.790867e-002
1.452135e+003, 3.841726e-002
1.454064e+003, 3.845558e-002
1.455992e+003, 3.851135e-002
1.457921e+003, 3.854306e-002
1.459849e+003, 3.829040e-002
1.461778e+003, 3.819961e-002
1.463706e+003, 3.866374e-002
1.465635e+003, 3.888697e-002
1.467563e+003, 3.886594e-002
1.469492e+003, 3.880120e-002
1.471420e+003, 3.890818e-002
1.473349e+003, 3.885946e-002
1.475277e+003, 3.877908e-002
1.477205e+003, 3.843043e-002
1.479134e+003, 3.803065e-002
1.481062e+003, 3.807383e-002
1.482991e+003, 3.825949e-002
1.484919e+003, 3.832601e-002
1.486848e+003, 3.847256e-002
1.488776e+003, 3.854629e-002
1.490705e+003, 3.873537e-002
1.492633e+003, 3.851523e-002
1.494562e+003, 3.836159e-002
1.496490e+003, 3.837023e-002
1.498419e+003, 3.827648e-002
1.500347e+003, 3.834346e-002
1.502276e+003, 3.841914e-002
1.504204e+003, 3.828537e-002
1.506132e+003, 3.826434e-002
1.508061e+003, 3.829310e-002
1.509989e+003, 3.822119e-002
1.511918e+003, 3.825125e-002
1.513846e+003, 3.808236e-002
1.515775e+003, 3.807185e-002
1.517703e+003, 3.822473e-002
1.519632e+003, 3.768567e-002
1.521560e+003, 3.740546e-002
1.523489e+003, 3.752162e-002
1.525417e+003, 3.752434e-002
1.527346e+003, 3.755277e-002
1.529274e+003, 3.732200e-002
1.531203e+003, 3.713500e-002
1.533131e+003, 3.723790e-002
1.535059e+003, 3.758070e-002
1.536988e+003, 3.762873e-002
1.538916e+003, 3.755575e-002
1.540845e+003, 3.768637e-002
1.542773e+003, 3.747897e-002
1.544702e+003, 3.753567e-002
1.546630e+003, 3.767403e-002
1.548559e+003, 3.773022e-002
1.550487e+003, 3.777700e-002
1.552416e+003, 3.759350e-002
1.554344e+003, 3.796298e-002
1.556273e+003, 3.808940e-002
1.558201e+003, 3.780730e-002
1.560130e+003, 3.792997e-002
1.562058e+003, 3.757914e-002
1.563986e+003, 3.705302e-002
1.565915e+003, 3.716901e-002
1.567843e+003, 3.772991e-002
1.569772e+003, 3.786885e-002
1.571700e+003, 3.801177e-002
1.573629e+003, 3.798234e-002
1.575557e+003, 3.772018e-002
1.577486e+003, 3.787075e-002
1.579414e+003, 3.840674e-002
1.581343e+003, 3.861900e-002
1.583271e+003, 3.832151e-002
1.585200e+003, 3.837390e-002
1.587128e+003, 3.879507e-002
1.589057e+003, 3.873616e-002
1.590985e+003, 3.855275e-002
1.592913e+003, 3.839737e-002
1.594842e+003, 3.813469e-002
1.596770e+003, 3.796137e-002
1.598699e+003, 3.815170e-002
1.600627e+003, 3.821010e-002
1.602556e+003, 3.851076e-002
1.604484e+003, 3.858588e-002
1.606413e+003, 3.839236e-002
1.608341e+003, 3.833451e-002
1.610270e+003, 3.870391e-002
1.612198e+003, 3.903013e-002
1.614127e+003, 3.926221e-002
1.616055e+003, 3.918839e-002
1.617984e+003, 3.918793e-002
1.619912e+003, 3.929832e-002
1.621840e+003, 3.956142e-002
1.623769e+003, 3.942290e-002
1.625697e+003, 3.934088e-002
1.627626e+003, 3.931320e-002
1.629554e+003, 3.916801e-002
1.631483e+003, 3.954810e-002
1.633411e+003, 4.003765e-002
1.635340e+003, 3.991294e-002
1.637268e+003, 3.975919e-002
1.639197e+003, 3.973256e-002
1.641125e+003, 3.961592e-002
1.643054e+003, 4.001091e-002
1.644982e+003, 4.069264e-002
1.646911e+003, 4.058260e-002
1.648839e+003, 3.997414e-002
1.650767e+003, 3.992888e-002
1.652696e+003, 4.028377e-002
1.654624e+003, 4.042966e-002
1.656553e+003, 4.054025e-002
1.658481e+003, 4.047345e-002
1.660410e+003, 4.048413e-002
1.662338e+003, 4.068347e-002
1.664267e+003, 4.049040e-002
1.666195e+003, 4.046894e-002
1.668124e+003, 4.069303e-002
1.670052e+003, 4.081354e-002
1.671981e+003, 4.060038e-002
1.673909e+003, 4.062574e-002
1.675838e+003, 4.082541e-002
1.677766e+003, 4.072282e-002
1.679694e+003, 4.084709e-002
1.681623e+003, 4.104668e-002
1.683551e+003, 4.121732e-002
1.685480e+003, 4.112676e-002
1.687408e+003, 4.099866e-002
1.689337e+003, 4.090506e-002
1.691265e+003, 4.074239e-002
1.693194e+003, 4.131949e-002
1.695122e+003, 4.190776e-002
1.697051e+003, 4.155799e-002
1.698979e+003, 4.138125e-002
1.700908e+003, 4.162233e-002
1.702836e+003, 4.165143e-002
1.704765e+003, 4.179255e-002
1.706693e+003, 4.174111e-002
1.708621e+003, 4.170749e-002
1.710550e+003, 4.185439e-002
1.712478e+003, 4.218226e-002
1.714407e+003, 4.264983e-002
1.716335e+003, 4.272725e-002
1.718264e+003, 4.255794e-002
1.720192e+003, 4.227438e-002
1.722121e+003, 4.287200e-002
1.724049e+003, 4.318539e-002
1.725978e+003, 4.323848e-002
1.727906e+003, 4.338038e-002
1.729835e+003, 4.344167e-002
1.731763e+003, 4.374202e-002
1.733692e+003, 4.394143e-002
1.735620e+003, 4.402458e-002
1.737548e+003, 4.398756e-002
1.739477e+003, 4.388623e-002
1.741405e+003, 4.394992e-002
1.743334e+003, 4.385370e-002
1.745262e+003, 4.399866e-002
1.747191e+003, 4.345197e-002
1.749119e+003, 4.354671e-002
1.751048e+003, 4.363902e-002
1.752976e+003, 4.344586e-002
1.754905e+003, 4.330388e-002
1.756833e+003, 4.372586e-002
1.758762e+003, 4.410731e-002
1.760690e+003, 4.418163e-002
1.762619e+003, 4.439970e-002
1.764547e+003, 4.471301e-002
1.766475e+003, 4.452334e-002
1.768404e+003, 4.413778e-002
1.770332e+003, 4.380584e-002
1.772261e+003, 4.407129e-002
1.774189e+003, 4.415150e-002
1.776118e+003, 4.439738e-002
1.778046e+003, 4.443198e-002
1.779975e+003, 4.445437e-002
1.781903e+003, 4.449603e-002
1.783832e+003, 4.498404e-002
1.785760e+003, 4.525801e-002
1.787689e+003, 4.563291e-002
1.789617e+003, 4.591951e-002
1.791546e+003, 4.570411e-002
1.793474e+003, 4.565588e-002
1.795402e+003, 4.558065e-002
1.797331e+003, 4.578355e-002
1.799259e+003, 4.610457e-002
1.801188e+003, 4.604611e-002
1.803116e+003, 4.587043e-002
1.805045e+003, 4.593064e-002
1.806973e+003, 4.594004e-002
1.808902e+003, 4.582875e-002
1.810830e+003, 4.604745e-002
1.812759e+003, 4.625547e-002
1.814687e+003, 4.593931e-002
1.816616e+003, 4.547390e-002
1.818544e+003, 4.633248e-002
1.820473e+003, 4.674610e-002
1.822401e+003, 4.644086e-002
1.824329e+003, 4.604809e-002
1.826258e+003, 4.622498e-002
1.828186e+003, 4.659478e-002
1.830115e+003, 4.752398e-002
1.832043e+003, 4.748178e-002
1.833972e+003, 4.758110e-002
1.835900e+003, 4.798761e-002
1.837829e+003, 4.764302e-002
1.839757e+003, 4.727001e-002
1.841686e+003, 4.751543e-002
1.843614e+003, 4.790150e-002
1.845543e+003, 4.849160e-002
1.847471e+003, 4.786245e-002
1.849400e+003, 4.737655e-002
1.851328e+003, 4.782253e-002
1.853256e+003, 4.877244e-002
1.855185e+003, 4.826818e-002
1.857113e+003, 4.751784e-002
1.859042e+003, 4.765029e-002
1.860970e+003, 4.822547e-002
1.862899e+003, 4.837884e-002
1.864827e+003, 4.886788e-002
1.866756e+003, 4.906974e-002
1.868684e+003, 4.919332e-002
1.870613e+003, 4.908678e-002
1.872541e+003, 4.954717e-002
1.874470e+003, 4.970594e-002
1.876398e+003, 4.964725e-002
1.878327e+003, 4.905314e-002
1.880255e+003, 4.920943e-002
1.882183e+003, 5.024228e-002
1.884112e+003, 5.036632e-002
1.886040e+003, 5.033553e-002
1.887969e+003, 5.059537e-002
1.889897e+003, 5.056612e-002
1.891826e+003, 5.044021e-002
1.893754e+003, 5.027648e-002
1.895683e+003, 5.093472e-002
1.897611e+003, 5.112132e-002
1.899540e+003, 5.026007e-002
1.901468e+003, 4.999237e-002
1.903397e+003, 5.017240e-002
1.905325e+003, 5.049260e-002
1.907254e+003, 5.050313e-002
1.909182e+003, 5.005708e-002
1.911110e+003, 5.063408e-002
1.913039e+003, 5.084473e-002
1.914967e+003, 5.026936e-002
1.916896e+003, 4.969287e-002
1.918824e+003, 5.041991e-002
1.920753e+003, 5.013611e-002
1.922681e+003, 5.016406e-002
1.924610e+003, 5.106637e-002
1.926538e+003, 5.096569e-002
1.928467e+003, 4.996257e-002
1.930395e+003, 4.980860e-002
1.932324e+003, 4.944462e-002
1.934252e+003, 5.052155e-002
1.936181e+003, 5.197964e-002
1.938109e+003, 5.250420e-002
1.940037e+003, 5.117080e-002
1.941966e+003, 5.034721e-002
1.943894e+003, 5.144866e-002
1.945823e+003, 5.213502e-002
1.947751e+003, 5.171462e-002
1.949680e+003, 5.098276e-002
1.951608e+003, 5.035177e-002
1.953537e+003, 5.228387e-002
1.955465e+003, 5.413196e-002
1.957394e+003, 5.371480e-002
1.959322e+003, 5.329228e-002
1.961251e+003, 5.327687e-002
1.963179e+003, 5.400384e-002
1.965108e+003, 5.376871e-002
1.967036e+003, 5.348523e-002
1.968964e+003, 5.406583e-002
1.970893e+003, 5.409499e-002
1.972821e+003, 5.420244e-002
1.974750e+003, 5.347231e-002
1.976678e+003, 5.340916e-002
1.978607e+003, 5.531084e-002
1.980535e+003, 5.509017e-002
1.982464e+003, 5.629759e-002
1.984392e+003, 5.585384e-002
1.986321e+003, 5.763723e-002
1.988249e+003, 5.740870e-002
1.990178e+003, 5.363328e-002
1.992106e+003, 5.052939e-002
1.994035e+003, 4.977988e-002
1.995963e+003, 5.060036e-002
1.997891e+003, 5.133642e-002
1.999820e+003, 5.303898e-002
2.001748e+003, 5.392147e-002
2.003677e+003, 5.158425e-002
2.005605e+003, 5.037484e-002
2.007534e+003, 5.263252e-002
2.009462e+003, 5.096298e-002
2.011391e+003, 5.081437e-002
2.013319e+003, 5.161961e-002
2.015248e+003, 5.298529e-002
2.017176e+003, 5.366400e-002
2.019105e+003, 5.593394e-002
2.021033e+003, 5.567051e-002
2.022962e+003, 5.570885e-002
2.024890e+003, 5.416979e-002
2.026818e+003, 5.370628e-002
2.028747e+003, 5.483564e-002
2.030675e+003, 5.449846e-002
2.032604e+003, 5.266591e-002
2.034532e+003, 5.124848e-002
2.036461e+003, 5.179179e-002
2.038389e+003, 5.748379e-002
2.040318e+003, 5.928987e-002
2.042246e+003, 5.793149e-002
2.044175e+003, 5.661104e-002
2.046103e+003, 5.521718e-002
2.048031e+003, 5.624119e-002
2.049960e+003, 5.847767e-002
2.051888e+003, 5.834343e-002
2.053817e+003, 5.935012e-002
2.055745e+003, 5.851935e-002
2.057674e+003, 5.725576e-002
2.059602e+003, 5.730375e-002
2.061531e+003, 5.702363e-002
2.063459e+003, 5.686335e-002
2.065388e+003, 5.632299e-002
2.067316e+003, 5.639454e-002
2.069245e+003, 5.783793e-002
2.071173e+003, 6.048687e-002
2.073102e+003, 5.978040e-002
2.075030e+003, 5.798841e-002
2.076958e+003, 5.979653e-002
2.078887e+003, 6.154187e-002
2.080815e+003, 5.975244e-002
2.082744e+003, 5.761591e-002
2.084672e+003, 5.783521e-002
2.086601e+003, 5.803899e-002
2.088529e+003, 5.877150e-002
2.090458e+003, 5.792056e-002
2.092386e+003, 5.759557e-002
2.094315e+003, 5.920563e-002
2.096243e+003, 6.078476e-002
2.098172e+003, 5.997027e-002
2.100100e+003, 6.018966e-002
2.102029e+003, 5.977416e-002
2.103957e+003, 6.056638e-002
2.105885e+003, 6.140450e-002
2.107814e+003, 6.163940e-002
2.109742e+003, 5.964528e-002
2.111671e+003, 5.752576e-002
2.113599e+003, 5.792337e-002
2.115528e+003, 5.958360e-002
2.117456e+003, 5.918706e-002
2.119385e+003, 5.982307e-002
2.121313e+003, 6.006977e-002
2.123242e+003, 5.938959e-002
2.125170e+003, 5.931205e-002
2.127099e+003, 6.050257e-002
2.129027e+003, 6.124368e-002
2.130956e+003, 6.194517e-002
2.132884e+003, 5.994825e-002
2.134813e+003, 5.794058e-002
2.136741e+003, 5.633878e-002
2.138669e+003, 5.785617e-002
2.140598e+003, 5.851733e-002
2.142526e+003, 5.777965e-002
2.144455e+003, 5.861141e-002
2.146383e+003, 5.970018e-002
2.148312e+003, 5.808845e-002
2.150240e+003, 5.773178e-002
2.152169e+003, 5.851936e-002
2.154097e+003, 5.696571e-002
2.156026e+003, 5.628016e-002
2.157954e+003, 5.895257e-002
2.159883e+003, 6.049906e-002
2.161811e+003, 6.346176e-002
2.163740e+003, 6.218284e-002
2.165668e+003, 6.279518e-002
2.167596e+003, 6.628335e-002
2.169525e+003, 6.651959e-002
2.171453e+003, 6.410778e-002
2.173382e+003, 6.360327e-002
2.175310e+003, 6.491058e-002
2.177239e+003, 6.496426e-002
2.179167e+003, 6.413946e-002
2.181096e+003, 6.480660e-002
2.183024e+003, 6.282741e-002
2.184953e+003, 6.082198e-002
2.186881e+003, 6.111549e-002
2.188810e+003, 6.358963e-002
2.190738e+003, 6.807210e-002
2.192667e+003, 6.732363e-002
2.194595e+003, 6.049523e-002
2.196523e+003, 6.116641e-002
2.198452e+003, 6.499037e-002
2.200380e+003, 6.561688e-002
2.202309e+003, 6.550214e-002
2.204237e+003, 6.795862e-002
2.206166e+003, 6.882893e-002
2.208094e+003, 6.754577e-002
2.210023e+003, 6.514848e-002
2.211951e+003, 6.422693e-002
2.213880e+003, 6.525685e-002
2.215808e+003, 6.580451e-002
2.217737e+003, 6.514862e-002
2.219665e+003, 6.675939e-002
2.221594e+003, 6.615447e-002
2.223522e+003, 6.525741e-002
2.225450e+003, 6.460667e-002
2.227379e+003, 6.559504e-002
2.229307e+003, 6.727194e-002
2.231236e+003, 6.701817e-002
2.233164e+003, 6.642438e-002
2.235093e+003, 6.652592e-002
2.237021e+003, 6.683117e-002
2.238950e+003, 6.699003e-002
2.240878e+003, 6.691378e-002
2.242807e+003, 6.810661e-002
2.244735e+003, 6.690102e-002
2.246664e+003, 6.652908e-002
2.248592e+003, 6.797968e-002
2.250521e+003, 6.853200e-002
2.252449e+003, 6.835075e-002
2.254377e+003, 6.796000e-002
2.256306e+003, 6.748082e-002
2.258234e+003, 6.729709e-002
2.260163e+003, 6.798398e-002
2.262091e+003, 6.787710e-002
2.264020e+003, 6.731244e-002
2.265948e+003, 6.655116e-002
2.267877e+003, 6.544813e-002
2.269805e+003, 6.600505e-002
2.271734e+003, 6.673034e-002
2.273662e+003, 6.656832e-002
2.275591e+003, 6.742168e-002
2.277519e+003, 6.861912e-002
2.279448e+003, 6.916338e-002
2.281376e+003, 6.991181e-002
2.283304e+003, 7.047918e-002
2.285233e+003, 7.013255e-002
2.287161e+003, 6.967411e-002
2.289090e+003, 6.961758e-002
2.291018e+003, 6.895188e-002
2.292947e+003, 6.954683e-002
2.294875e+003, 6.934639e-002
2.296804e+003, 6.966177e-002
2.298732e+003, 6.919514e-002
2.300661e+003, 6.862102e-002
2.302589e+003, 6.941502e-002
2.304518e+003, 6.884985e-002
2.306446e+003, 6.803402e-002
2.308375e+003, 6.808721e-002
2.310303e+003, 6.933155e-002
2.312231e+003, 7.117254e-002
2.314160e+003, 7.061017e-002
2.316088e+003, 6.984246e-002
2.318017e+003, 7.103357e-002
2.319945e+003, 7.187919e-002
2.321874e+003, 7.216676e-002
2.323802e+003, 7.218914e-002
2.325731e+003, 7.155737e-002
2.327659e+003, 7.156944e-002
2.329588e+003, 7.109423e-002
2.331516e+003, 7.096381e-002
2.333445e+003, 7.031678e-002
2.335373e+003, 7.026027e-002
2.337302e+003, 7.044595e-002
2.339230e+003, 6.975316e-002
2.341158e+003, 6.962166e-002
2.343087e+003, 7.047021e-002
2.345015e+003, 7.060691e-002
2.346944e+003, 7.084193e-002
2.348872e+003, 7.121781e-002
2.350801e+003, 7.097864e-002
2.352729e+003, 7.105567e-002
2.354658e+003, 7.226207e-002
2.356586e+003, 7.228488e-002
2.358515e+003, 7.171372e-002
2.360443e+003, 7.136200e-002
2.362372e+003, 7.143391e-002
2.364300e+003, 7.159637e-002
2.366229e+003, 7.154708e-002
2.368157e+003, 7.143480e-002
2.370085e+003, 7.129543e-002
2.372014e+003, 7.168815e-002
2.373942e+003, 7.238237e-002
2.375871e+003, 7.216903e-002
2.377799e+003, 7.255718e-002
2.379728e+003, 7.322559e-002
2.381656e+003, 7.328841e-002
2.383585e+003, 7.219339e-002
2.385513e+003, 7.121023e-002
2.387442e+003, 7.260135e-002
2.389370e+003, 7.286788e-002
2.391299e+003, 7.187378e-002
2.393227e+003, 7.106301e-002
2.395156e+003, 7.113820e-002
2.397084e+003, 7.271374e-002
2.399012e+003, 7.379579e-002
2.400941e+003, 7.474911e-002
2.402869e+003, 7.415896e-002
2.404798e+003, 7.369333e-002
2.406726e+003, 7.346896e-002
2.408655e+003, 7.325783e-002
2.410583e+003, 7.409298e-002
2.412512e+003, 7.496131e-002
2.414440e+003, 7.450979e-002
2.416369e+003, 7.368077e-002
2.418297e+003, 7.496438e-002
2.420226e+003, 7.609654e-002
2.422154e+003, 7.433071e-002
2.424083e+003, 7.297663e-002
2.426011e+003, 7.343289e-002
2.427939e+003, 7.409123e-002
2.429868e+003, 7.436535e-002
2.431796e+003, 7.439930e-002
2.433725e+003, 7.392085e-002
2.435653e+003, 7.441191e-002
2.437582e+003, 7.433870e-002
2.439510e+003, 7.499451e-002
2.441439e+003, 7.596797e-002
2.443367e+003, 7.626344e-002
2.445296e+003, 7.743326e-002
2.447224e+003, 7.798636e-002
2.449153e+003, 7.729618e-002
2.451081e+003, 7.747076e-002
2.453010e+003, 7.771574e-002
2.454938e+003, 7.762495e-002
2.456866e+003, 7.710385e-002
2.458795e+003, 7.579007e-002
2.460723e+003, 7.583332e-002
2.462652e+003, 7.659727e-002
2.464580e+003, 7.650454e-002
2.466509e+003, 7.747578e-002
2.468437e+003, 7.746504e-002
2.470366e+003, 7.581409e-002
2.472294e+003, 7.594924e-002
2.474223e+003, 7.681917e-002
2.476151e+003, 7.736552e-002
2.478080e+003, 7.838573e-002
2.480008e+003, 7.767368e-002
2.481937e+003, 7.793801e-002
2.483865e+003, 7.813633e-002
2.485793e+003, 7.829244e-002
2.487722e+003, 7.777362e-002
2.489650e+003, 7.671486e-002
2.491579e+003, 7.602343e-002
2.493507e+003, 7.667796e-002
2.495436e+003, 7.694496e-002
2.497364e+003, 7.765900e-002
2.499293e+003, 7.817845e-002
2.501221e+003, 7.749159e-002
2.503150e+003, 7.718977e-002
2.505078e+003, 7.747069e-002
2.507007e+003, 7.833903e-002
2.508935e+003, 7.886188e-002
2.510864e+003, 7.743666e-002
2.512792e+003, 7.747325e-002
2.514720e+003, 7.732895e-002
2.516649e+003, 7.832980e-002
2.518577e+003, 8.062496e-002
2.520506e+003, 8.154272e-002
2.522434e+003, 7.862310e-002
2.524363e+003, 7.753990e-002
2.526291e+003, 7.977618e-002
2.528220e+003, 8.012556e-002
2.530148e+003, 7.931029e-002
2.532077e+003, 7.862874e-002
2.534005e+003, 7.993804e-002
2.535934e+003, 7.983065e-002
2.537862e+003, 7.900424e-002
2.539791e+003, 7.945146e-002
2.541719e+003, 7.933658e-002
2.543647e+003, 7.834975e-002
2.545576e+003, 7.865582e-002
2.547504e+003, 8.025362e-002
2.549433e+003, 8.192093e-002
2.551361e+003, 8.097365e-002
2.553290e+003, 8.024095e-002
2.555218e+003, 8.133591e-002
2.557147e+003, 8.067810e-002
2.559075e+003, 7.969868e-002
2.561004e+003, 8.034699e-002
2.562932e+003, 8.096045e-002
2.564861e+003, 8.096716e-002
2.566789e+003, 8.145615e-002
2.568718e+003, 8.081263e-002
2.570646e+003, 8.088383e-002
2.572574e+003, 8.130948e-002
2.574503e+003, 8.113827e-002
2.576431e+003, 8.158538e-002
2.578360e+003, 8.214967e-002
2.580288e+003, 8.181041e-002
2.582217e+003, 8.139250e-002
2.584145e+003, 8.189927e-002
2.586074e+003, 8.175072e-002
2.588002e+003, 8.114398e-002
2.589931e+003, 8.171353e-002
2.591859e+003, 8.202726e-002
2.593788e+003, 8.225036e-002
2.595716e+003, 8.249739e-002
2.597645e+003, 8.248525e-002
2.599573e+003, 8.252398e-002
2.601501e+003, 8.307948e-002
2.603430e+003, 8.319734e-002
2.605358e+003, 8.299352e-002
2.607287e+003, 8.253178e-002
2.609215e+003, 8.238037e-002
2.611144e+003, 8.256546e-002
2.613072e+003, 8.383402e-002
2.615001e+003, 8.371530e-002
2.616929e+003, 8.368669e-002
2.618858e+003, 8.358697e-002
2.620786e+003, 8.345320e-002
2.622715e+003, 8.400556e-002
2.624643e+003, 8.339224e-002
2.626572e+003, 8.351466e-002
2.628500e+003, 8.322106e-002
2.630428e+003, 8.287177e-002
2.632357e+003, 8.303747e-002
2.634285e+003, 8.363109e-002
2.636214e+003, 8.473467e-002
2.638142e+003, 8.540308e-002
2.640071e+003, 8.507022e-002
2.641999e+003, 8.471797e-002
2.643928e+003, 8.525281e-002
2.645856e+003, 8.479077e-002
2.647785e+003, 8.466086e-002
2.649713e+003, 8.510929e-002
2.651642e+003, 8.568552e-002
2.653570e+003, 8.591076e-002
2.655499e+003, 8.660888e-002
2.657427e+003, 8.669712e-002
2.659355e+003, 8.620373e-002
2.661284e+003, 8.549234e-002
2.663212e+003, 8.576401e-002
2.665141e+003, 8.595889e-002
2.667069e+003, 8.551815e-002
2.668998e+003, 8.547536e-002
2.670926e+003, 8.543727e-002
2.672855e+003, 8.524912e-002
2.674783e+003, 8.539066e-002
2.676712e+003, 8.566158e-002
2.678640e+003, 8.597478e-002
2.680569e+003, 8.560135e-002
2.682497e+003, 8.561989e-002
2.684426e+003, 8.607505e-002
2.686354e+003, 8.631735e-002
2.688282e+003, 8.676130e-002
2.690211e+003, 8.713621e-002
2.692139e+003, 8.677529e-002
2.694068e+003, 8.660357e-002
2.695996e+003, 8.710629e-002
2.697925e+003, 8.735813e-002
2.699853e+003, 8.644734e-002
2.701782e+003, 8.571833e-002
2.703710e+003, 8.589894e-002
2.705639e+003, 8.687271e-002
2.707567e+003, 8.653421e-002
2.709496e+003, 8.722856e-002
2.711424e+003, 8.723541e-002
2.713353e+003, 8.695854e-002
2.715281e+003, 8.764119e-002
2.717209e+003, 8.793019e-002
2.719138e+003, 8.706510e-002
2.721066e+003, 8.731379e-002
2.722995e+003, 8.788355e-002
2.724923e+003, 8.809723e-002
2.726852e+003, 8.827569e-002
2.728780e+003, 8.880551e-002
2.730709e+003, 8.888943e-002
2.732637e+003, 8.862513e-002
2.734566e+003, 8.798425e-002
2.736494e+003, 8.872423e-002
2.738423e+003, 8.977257e-002
2.740351e+003, 8.958789e-002
2.742280e+003, 8.835084e-002
2.744208e+003, 8.862794e-002
2.746136e+003, 8.983403e-002
2.748065e+003, 9.041737e-002
2.749993e+003, 9.000912e-002
2.751922e+003, 8.905064e-002
2.753850e+003, 8.888187e-002
2.755779e+003, 8.932204e-002
2.757707e+003, 9.024633e-002
2.759636e+003, 9.101794e-002
2.761564e+003, 9.025643e-002
2.763493e+003, 9.019250e-002
2.765421e+003, 9.114293e-002
2.767350e+003, 9.073640e-002
2.769278e+003, 8.967149e-002
2.771207e+003, 9.023671e-002
2.773135e+003, 9.136593e-002
2.775063e+003, 9.113798e-002
2.776992e+003, 9.013771e-002
2.778920e+003, 8.963755e-002
2.780849e+003, 9.099699e-002
2.782777e+003, 9.207699e-002
2.784706e+003, 9.213313e-002
2.786634e+003, 9.289463e-002
2.788563e+003, 9.273456e-002
2.790491e+003, 9.271584e-002
2.792420e+003, 9.211230e-002
2.794348e+003, 9.260455e-002
2.796277e+003, 9.272105e-002
2.798205e+003, 9.202378e-002
2.800134e+003, 9.175369e-002
2.802062e+003, 9.234553e-002
2.803990e+003, 9.300783e-002
2.805919e+003, 9.335602e-002
2.807847e+003, 9.284568e-002
2.809776e+003, 9.274349e-002
2.811704e+003, 9.282855e-002
2.813633e+003, 9.351977e-002
2.815561e+003, 9.322508e-002
2.817490e+003, 9.242077e-002
2.819418e+003, 9.252836e-002
2.821347e+003, 9.361652e-002
2.823275e+003, 9.383138e-002
2.825204e+003, 9.380643e-002
2.827132e+003, 9.371668e-002
2.829061e+003, 9.320951e-002
2.830989e+003, 9.346402e-002
2.832917e+003, 9.415203e-002
2.834846e+003, 9.446833e-002
2.836774e+003, 9.534022e-002
2.838703e+003, 9.500398e-002
2.840631e+003, 9.379911e-002
2.842560e+003, 9.508616e-002
2.844488e+003, 9.678894e-002
2.846417e+003, 9.614626e-002
2.848345e+003, 9.603443e-002
2.850274e+003, 9.704013e-002
2.852202e+003, 9.798594e-002
2.854131e+003, 9.871716e-002
2.856059e+003, 9.844143e-002
2.857988e+003, 9.697864e-002
2.859916e+003, 9.722802e-002
2.861844e+003, 9.880448e-002
2.863773e+003, 9.856463e-002
2.865701e+003, 9.723609e-002
2.867630e+003, 9.721564e-002
2.869558e+003, 9.845307e-002
2.871487e+003, 9.870438e-002
2.873415e+003, 9.809587e-002
2.875344e+003, 9.806813e-002
2.877272e+003, 9.846962e-002
2.879201e+003, 9.878347e-002
2.881129e+003, 9.923309e-002
2.883058e+003, 9.869851e-002
2.884986e+003, 9.880292e-002
2.886915e+003, 9.987728e-002
2.888843e+003, 9.973380e-002
2.890771e+003, 1.000864e-001
2.892700e+003, 1.000842e-001
2.894628e+003, 1.006448e-001
2.896557e+003, 1.016733e-001
2.898485e+003, 1.008573e-001
2.900414e+003, 1.001417e-001
2.902342e+003, 1.007093e-001
2.904271e+003, 1.020924e-001
2.906199e+003, 1.030426e-001
2.908128e+003, 1.030065e-001
2.910056e+003, 1.022781e-001
2.911985e+003, 1.014510e-001
2.913913e+003, 1.026649e-001
2.915842e+003, 1.033617e-001
2.917770e+003, 1.027212e-001
2.919698e+003, 1.015782e-001
2.921627e+003, 1.015145e-001
2.923555e+003, 1.029462e-001
2.925484e+003, 1.044568e-001
2.927412e+003, 1.044520e-001
2.929341e+003, 1.040708e-001
2.931269e+003, 1.036445e-001
2.933198e+003, 1.031371e-001
2.935126e+003, 1.012885e-001
2.937055e+003, 1.017168e-001
2.938983e+003, 1.037465e-001
2.940912e+003, 1.032905e-001
2.942840e+003, 1.019495e-001
2.944769e+003, 1.016388e-001
2.946697e+003, 1.011899e-001
2.948625e+003, 1.029479e-001
2.950554e+003, 1.043475e-001
2.952482e+003, 1.042995e-001
2.954411e+003, 1.047877e-001
2.956339e+003, 1.041977e-001
2.958268e+003, 1.030998e-001
2.960196e+003, 1.025051e-001
2.962125e+003, 1.026552e-001
2.964053e+003, 1.032812e-001
2.965982e+003, 1.031777e-001
2.967910e+003, 1.017940e-001
2.969839e+003, 1.011474e-001
2.971767e+003, 1.012835e-001
2.973696e+003, 1.013850e-001
2.975624e+003, 1.026503e-001
2.977552e+003, 1.027315e-001
2.979481e+003, 1.014457e-001
2.981409e+003, 1.004257e-001
2.983338e+003, 1.013134e-001
2.985266e+003, 1.030799e-001
2.987195e+003, 1.026224e-001
2.989123e+003, 1.019612e-001
2.991052e+003, 1.027891e-001
2.992980e+003, 1.021610e-001
2.994909e+003, 1.012735e-001
2.996837e+003, 1.016857e-001
2.998766e+003, 1.021821e-001
3.000694e+003, 1.015050e-001
3.002623e+003, 1.008534e-001
3.004551e+003, 1.015280e-001
3.006479e+003, 1.031370e-001
3.008408e+003, 1.031812e-001
3.010336e+003, 1.028830e-001
3.012265e+003, 1.020691e-001
3.014193e+003, 1.011943e-001
3.016122e+003, 1.018007e-001
3.018050e+003, 1.024664e-001
3.019979e+003, 1.016735e-001
3.021907e+003, 1.015264e-001
3.023836e+003, 1.030599e-001
3.025764e+003, 1.039614e-001
3.027693e+003, 1.044204e-001
3.029621e+003, 1.043210e-001
3.031550e+003, 1.033636e-001
3.033478e+003, 1.029826e-001
3.035406e+003, 1.028459e-001
3.037335e+003, 1.029262e-001
3.039263e+003, 1.029756e-001
3.041192e+003, 1.037606e-001
3.043120e+003, 1.034129e-001
3.045049e+003, 1.032373e-001
3.046977e+003, 1.045776e-001
3.048906e+003, 1.038560e-001
3.050834e+003, 1.024967e-001
3.052763e+003, 1.040938e-001
3.054691e+003, 1.046316e-001
3.056620e+003, 1.032386e-001
3.058548e+003, 1.023929e-001
3.060477e+003, 1.036410e-001
3.062405e+003, 1.054716e-001
3.064333e+003, 1.051171e-001
3.066262e+003, 1.028009e-001
3.068190e+003, 1.029671e-001
3.070119e+003, 1.044634e-001
3.072047e+003, 1.043630e-001
3.073976e+003, 1.036594e-001
3.075904e+003, 1.032873e-001
3.077833e+003, 1.038264e-001
3.079761e+003, 1.053819e-001
3.081690e+003, 1.053934e-001
3.083618e+003, 1.042911e-001
3.085547e+003, 1.035135e-001
3.087475e+003, 1.036336e-001
3.089404e+003, 1.052905e-001
3.091332e+003, 1.051598e-001
3.093260e+003, 1.033573e-001
3.095189e+003, 1.028336e-001
3.097117e+003, 1.044647e-001
3.099046e+003, 1.065497e-001
3.100974e+003, 1.067773e-001
3.102903e+003, 1.053708e-001
3.104831e+003, 1.042007e-001
3.106760e+003, 1.044652e-001
3.108688e+003, 1.038479e-001
3.110617e+003, 1.032614e-001
3.112545e+003, 1.035632e-001
3.114474e+003, 1.054975e-001
3.116402e+003, 1.046164e-001
3.118331e+003, 1.040186e-001
3.120259e+003, 1.043373e-001
3.122188e+003, 1.028063e-001
3.124116e+003, 1.031012e-001
3.126044e+003, 1.053862e-001
3.127973e+003, 1.066719e-001
3.129901e+003, 1.056362e-001
3.131830e+003, 1.047129e-001
3.133758e+003, 1.056115e-001
3.135687e+003, 1.055052e-001
3.137615e+003, 1.040880e-001
3.139544e+003, 1.045204e-001
3.141472e+003, 1.046550e-001
3.143401e+003, 1.053707e-001
3.145329e+003, 1.067872e-001
3.147258e+003, 1.043662e-001
3.149186e+003, 1.030506e-001
3.151115e+003, 1.047077e-001
3.153043e+003, 1.053585e-001
3.154971e+003, 1.053548e-001
3.156900e+003, 1.058792e-001
3.158828e+003, 1.063593e-001
3.160757e+003, 1.057065e-001
3.162685e+003, 1.045595e-001
3.164614e+003, 1.043171e-001
3.166542e+003, 1.046445e-001
3.168471e+003, 1.058949e-001
3.170399e+003, 1.069303e-001
3.172328e+003, 1.069980e-001
3.174256e+003, 1.051268e-001
3.176185e+003, 1.052446e-001
3.178113e+003, 1.052945e-001
3.180042e+003, 1.048548e-001
3.181970e+003, 1.052901e-001
3.183898e+003, 1.060018e-001
3.185827e+003, 1.064658e-001
3.187755e+003, 1.076551e-001
3.189684e+003, 1.087520e-001
3.191612e+003, 1.060869e-001
3.193541e+003, 1.047064e-001
3.195469e+003, 1.060906e-001
3.197398e+003, 1.060265e-001
3.199326e+003, 1.066929e-001
3.201255e+003, 1.066404e-001
3.203183e+003, 1.058908e-001
3.205112e+003, 1.056701e-001
3.207040e+003, 1.070810e-001
3.208969e+003, 1.072498e-001
3.210897e+003, 1.055782e-001
3.212825e+003, 1.039056e-001
3.214754e+003, 1.034800e-001
3.216682e+003, 1.049926e-001
3.218611e+003, 1.054460e-001
3.220539e+003, 1.060664e-001
3.222468e+003, 1.057560e-001
3.224396e+003, 1.053489e-001
3.226325e+003, 1.042427e-001
3.228253e+003, 1.023318e-001
3.230182e+003, 1.040670e-001
3.232110e+003, 1.067194e-001
3.234039e+003, 1.071767e-001
3.235967e+003, 1.059866e-001
3.237896e+003, 1.060156e-001
3.239824e+003, 1.064030e-001
3.241752e+003, 1.069470e-001
3.243681e+003, 1.064180e-001
3.245609e+003, 1.056603e-001
3.247538e+003, 1.042522e-001
3.249466e+003, 1.045847e-001
3.251395e+003, 1.050121e-001
3.253323e+003, 1.051945e-001
3.255252e+003, 1.056980e-001
3.257180e+003, 1.054266e-001
3.259109e+003, 1.057183e-001
3.261037e+003, 1.068099e-001
3.262966e+003, 1.054220e-001
3.264894e+003, 1.037910e-001
3.266823e+003, 1.030346e-001
3.268751e+003, 1.038114e-001
3.270679e+003, 1.055005e-001
3.272608e+003, 1.071441e-001
3.274536e+003, 1.073813e-001
3.276465e+003, 1.052485e-001
3.278393e+003, 1.054708e-001
3.280322e+003, 1.058144e-001
3.282250e+003, 1.049180e-001
3.284179e+003, 1.041958e-001
3.286107e+003, 1.043030e-001
3.288036e+003, 1.041570e-001
3.289964e+003, 1.045900e-001
3.291893e+003, 1.062520e-001
3.293821e+003, 1.053089e-001
3.295750e+003, 1.040056e-001
3.297678e+003, 1.033220e-001
3.299606e+003, 1.025059e-001
3.301535e+003, 1.029785e-001
3.303463e+003, 1.047677e-001
3.305392e+003, 1.057785e-001
3.307320e+003, 1.055091e-001
3.309249e+003, 1.039346e-001
3.311177e+003, 1.029126e-001
3.313106e+003, 1.037534e-001
3.315034e+003, 1.047733e-001
3.316963e+003, 1.050150e-001
3.318891e+003, 1.052574e-001
3.320820e+003, 1.050464e-001
3.322748e+003, 1.045323e-001
3.324677e+003, 1.049863e-001
3.326605e+003, 1.044849e-001
3.328533e+003, 1.033101e-001
3.330462e+003, 1.023049e-001
3.332390e+003, 1.017156e-001
3.334319e+003, 1.036467e-001
3.336247e+003, 1.044301e-001
3.338176e+003, 1.040017e-001
3.340104e+003, 1.047190e-001
3.342033e+003, 1.047850e-001
3.343961e+003, 1.036584e-001
3.345890e+003, 1.046196e-001
3.347818e+003, 1.051180e-001
3.349747e+003, 1.050779e-001
3.351675e+003, 1.052091e-001
3.353604e+003, 1.048870e-001
3.355532e+003, 1.024104e-001
3.357460e+003, 1.007097e-001
3.359389e+003, 9.991671e-002
3.361317e+003, 1.007819e-001
3.363246e+003, 1.003077e-001
3.365174e+003, 9.953627e-002
3.367103e+003, 1.005428e-001
3.369031e+003, 1.018776e-001
3.370960e+003, 1.021015e-001
3.372888e+003, 1.026436e-001
3.374817e+003, 1.017571e-001
3.376745e+003, 1.008555e-001
3.378674e+003, 1.021857e-001
3.380602e+003, 1.007882e-001
3.382531e+003, 1.012965e-001
3.384459e+003, 1.009740e-001
3.386387e+003, 1.003093e-001
3.388316e+003, 1.013234e-001
3.390244e+003, 1.006599e-001
3.392173e+003, 1.010731e-001
3.394101e+003, 1.024375e-001
3.396030e+003, 9.978056e-002
3.397958e+003, 9.965809e-002
3.399887e+003, 1.004329e-001
3.401815e+003, 9.901723e-002
3.403744e+003, 9.879481e-002
3.405672e+003, 9.982795e-002
3.407601e+003, 9.964196e-002
3.409529e+003, 1.002103e-001
3.411458e+003, 9.849033e-002
3.413386e+003, 9.555946e-002
3.415314e+003, 9.709539e-002
3.417243e+003, 9.960396e-002
3.419171e+003, 9.795843e-002
3.421100e+003, 9.535050e-002
3.423028e+003, 9.621777e-002
3.424957e+003, 9.840216e-002
3.426885e+003, 9.831806e-002
3.428814e+003, 9.537882e-002
3.430742e+003, 9.379702e-002
3.432671e+003, 9.469777e-002
3.434599e+003, 9.622871e-002
3.436528e+003, 9.612911e-002
3.438456e+003, 9.620808e-002
3.440385e+003, 9.671451e-002
3.442313e+003, 9.631637e-002
3.444241e+003, 9.324002e-002
3.446170e+003, 9.498646e-002
3.448098e+003, 9.796339e-002
3.450027e+003, 9.883559e-002
3.451955e+003, 9.767640e-002
3.453884e+003, 9.383252e-002
3.455812e+003, 9.256643e-002
3.457741e+003, 9.372179e-002
3.459669e+003, 9.601080e-002
3.461598e+003, 9.631132e-002
3.463526e+003, 9.536690e-002
3.465455e+003, 9.542599e-002
3.467383e+003, 9.542610e-002
3.469312e+003, 9.702214e-002
3.471240e+003, 9.637826e-002
3.473168e+003, 9.312853e-002
3.475097e+003, 9.201311e-002
3.477025e+003, 9.392460e-002
3.478954e+003, 9.530322e-002
3.480882e+003, 9.426618e-002
3.482811e+003, 9.367654e-002
3.484739e+003, 9.371649e-002
3.486668e+003, 9.279844e-002
3.488596e+003, 9.358818e-002
3.490525e+003, 9.231774e-002
3.492453e+003, 9.063699e-002
3.494382e+003, 9.043092e-002
3.496310e+003, 9.173787e-002
3.498239e+003, 9.215284e-002
3.500167e+003, 9.104982e-002
3.502095e+003, 8.851827e-002
3.504024e+003, 8.951463e-002
3.505952e+003, 9.159985e-002
3.507881e+003, 9.226928e-002
3.509809e+003, 9.160837e-002
3.511738e+003, 8.919211e-002
3.513666e+003, 8.912642e-002
3.515595e+003, 8.877490e-002
3.517523e+003, 8.801002e-002
3.519452e+003, 8.746286e-002
3.521380e+003, 8.809354e-002
3.523309e+003, 8.868082e-002
3.525237e+003, 8.781592e-002
3.527166e+003, 8.870471e-002
3.529094e+003, 8.867019e-002
3.531022e+003, 8.571159e-002
3.532951e+003, 8.526134e-002
3.534879e+003, 8.616666e-002
3.536808e+003, 8.582488e-002
3.538736e+003, 8.558429e-002
3.540665e+003, 8.533688e-002
3.542593e+003, 8.473828e-002
3.544522e+003, 8.654023e-002
3.546450e+003, 8.769874e-002
3.548379e+003, 8.658975e-002
3.550307e+003, 8.438158e-002
3.552236e+003, 8.373634e-002
3.554164e+003, 8.330593e-002
3.556093e+003, 8.265275e-002
3.558021e+003, 8.299659e-002
3.559949e+003, 8.386812e-002
3.561878e+003, 8.377039e-002
3.563806e+003, 8.519854e-002
3.565735e+003, 8.490113e-002
3.567663e+003, 8.404761e-002
3.569592e+003, 8.450404e-002
3.571520e+003, 8.302869e-002
3.573449e+003, 8.053723e-002
3.575377e+003, 8.027963e-002
3.577306e+003, 8.087961e-002
3.579234e+003, 8.034012e-002
3.581163e+003, 7.798269e-002
3.583091e+003, 7.670906e-002
3.585020e+003, 7.871438e-002
3.586948e+003, 7.883024e-002
3.588876e+003, 7.892741e-002
3.590805e+003, 8.034027e-002
3.592733e+003, 8.056115e-002
3.594662e+003, 7.922856e-002
3.596590e+003, 8.068316e-002
3.598519e+003, 8.147327e-002
3.600447e+003, 8.236689e-002
3.602376e+003, 8.202178e-002
3.604304e+003, 7.873965e-002
3.606233e+003, 7.738765e-002
3.608161e+003, 7.885370e-002
3.610090e+003, 7.889070e-002
3.612018e+003, 7.732081e-002
3.613947e+003, 7.645072e-002
3.615875e+003, 7.919427e-002
3.617803e+003, 8.085385e-002
3.619732e+003, 8.117274e-002
3.621660e+003, 8.008876e-002
3.623589e+003, 7.487515e-002
3.625517e+003, 7.448948e-002
3.627446e+003, 7.687397e-002
3.629374e+003, 7.912598e-002
3.631303e+003, 7.958443e-002
3.633231e+003, 7.934134e-002
3.635160e+003, 7.879890e-002
3.637088e+003, 7.678048e-002
3.639017e+003, 7.592562e-002
3.640945e+003, 7.613485e-002
3.642874e+003, 7.812397e-002
3.644802e+003, 7.931986e-002
3.646730e+003, 7.917775e-002
3.648659e+003, 7.661929e-002
3.650587e+003, 7.542757e-002
3.652516e+003, 7.521537e-002
3.654444e+003, 7.716784e-002
3.656373e+003, 7.688185e-002
3.658301e+003, 7.861275e-002
3.660230e+003, 8.186715e-002
3.662158e+003, 8.156934e-002
3.664087e+003, 8.288206e-002
3.666015e+003, 8.110975e-002
3.667944e+003, 7.686801e-002
3.669872e+003, 7.640623e-002
3.671801e+003, 7.798053e-002
3.673729e+003, 7.790326e-002
3.675657e+003, 7.543883e-002
3.677586e+003, 7.544545e-002
3.679514e+003, 7.558433e-002
3.681443e+003, 7.599666e-002
3.683371e+003, 7.711165e-002
3.685300e+003, 7.807400e-002
3.687228e+003, 8.012961e-002
3.689157e+003, 8.137635e-002
3.691085e+003, 7.862746e-002
3.693014e+003, 8.003460e-002
3.694942e+003, 8.040035e-002
3.696871e+003, 7.693248e-002
3.698799e+003, 7.636330e-002
3.700728e+003, 7.759520e-002
3.702656e+003, 8.093444e-002
3.704584e+003, 8.248370e-002
3.706513e+003, 8.063533e-002
3.708441e+003, 7.757938e-002
3.710370e+003, 7.865094e-002
3.712298e+003, 8.122036e-002
3.714227e+003, 7.890794e-002
3.716155e+003, 7.815646e-002
3.718084e+003, 7.751469e-002
3.720012e+003, 7.665972e-002
3.721941e+003, 7.691389e-002
3.723869e+003, 7.804663e-002
3.725798e+003, 7.790101e-002
3.727726e+003, 7.932989e-002
3.729655e+003, 8.317575e-002
3.731583e+003, 8.281753e-002
3.733511e+003, 7.917707e-002
3.735440e+003, 7.981891e-002
3.737368e+003, 7.777096e-002
3.739297e+003, 7.583089e-002
3.741225e+003, 7.647774e-002
3.743154e+003, 7.846889e-002
3.745082e+003, 7.894147e-002
3.747011e+003, 7.732714e-002
3.748939e+003, 7.933979e-002
3.750868e+003, 8.208498e-002
3.752796e+003, 8.089473e-002
3.754725e+003, 8.120187e-002
3.756653e+003, 8.177651e-002
3.758582e+003, 8.134300e-002
3.760510e+003, 7.943448e-002
3.762438e+003, 7.765441e-002
3.764367e+003, 7.600608e-002
3.766295e+003, 7.632270e-002
3.768224e+003, 7.707033e-002
3.770152e+003, 7.958780e-002
3.772081e+003, 8.175825e-002
3.774009e+003, 7.856713e-002
3.775938e+003, 7.789118e-002
3.777866e+003, 7.896473e-002
3.779795e+003, 8.085825e-002
3.781723e+003, 7.908835e-002
3.783652e+003, 7.598586e-002
3.785580e+003, 7.680432e-002
3.787509e+003, 7.910321e-002
3.789437e+003, 7.939316e-002
3.791365e+003, 8.053485e-002
3.793294e+003, 8.260175e-002
3.795222e+003, 8.259708e-002
3.797151e+003, 8.436409e-002
3.799079e+003, 8.547154e-002
3.801008e+003, 8.063335e-002
3.802936e+003, 7.874069e-002
3.804865e+003, 8.007576e-002
3.806793e+003, 8.235404e-002
3.808722e+003, 8.153673e-002
3.810650e+003, 8.055459e-002
3.812579e+003, 8.169997e-002
3.814507e+003, 8.036704e-002
3.816436e+003, 8.026578e-002
3.818364e+003, 8.057354e-002
3.820292e+003, 7.899198e-002
3.822221e+003, 8.144618e-002
3.824149e+003, 8.225852e-002
3.826078e+003, 7.980964e-002
3.828006e+003, 8.165552e-002
3.829935e+003, 8.238017e-002
3.831863e+003, 8.011550e-002
3.833792e+003, 7.729032e-002
3.835720e+003, 8.024174e-002
3.837649e+003, 8.322178e-002
3.839577e+003, 8.388504e-002
3.841506e+003, 8.292720e-002
3.843434e+003, 8.185004e-002
3.845363e+003, 8.190865e-002
3.847291e+003, 8.255205e-002
3.849219e+003, 8.389949e-002
3.851148e+003, 8.609611e-002
3.853076e+003, 8.765432e-002
3.855005e+003, 8.321687e-002
3.856933e+003, 8.044039e-002
3.858862e+003, 8.005327e-002
3.860790e+003, 7.972714e-002
3.862719e+003, 7.885249e-002
3.864647e+003, 7.903534e-002
3.866576e+003, 7.888275e-002
3.868504e+003, 8.183828e-002
3.870433e+003, 8.421139e-002
3.872361e+003, 8.188134e-002
3.874290e+003, 8.170394e-002
3.876218e+003, 8.207657e-002
3.878146e+003, 8.217948e-002
3.880075e+003, 8.161636e-002
3.882003e+003, 8.079457e-002
3.883932e+003, 8.356812e-002
3.885860e+003, 8.525424e-002
3.887789e+003, 8.335280e-002
3.889717e+003, 8.331466e-002
3.891646e+003, 8.490017e-002
3.893574e+003, 8.443049e-002
3.895503e+003, 8.321663e-002
3.897431e+003, 8.386075e-002
3.899360e+003, 8.381604e-002
3.901288e+003, 8.125480e-002
3.903217e+003, 8.084007e-002
3.905145e+003, 8.080415e-002
3.907073e+003, 7.933491e-002
3.909002e+003, 8.014039e-002
3.910930e+003, 8.131097e-002
3.912859e+003, 7.908142e-002
3.914787e+003, 7.718110e-002
3.916716e+003, 7.674550e-002
3.918644e+003, 7.788701e-002
3.920573e+003, 8.075066e-002
3.922501e+003, 8.295261e-002
3.924430e+003, 8.221186e-002
3.926358e+003, 8.173477e-002
3.928287e+003, 8.081714e-002
3.930215e+003, 8.279243e-002
3.932144e+003, 8.390000e-002
3.934072e+003, 8.319005e-002
3.936000e+003, 8.307010e-002
3.937929e+003, 8.315052e-002
3.939857e+003, 7.994206e-002
3.941786e+003, 8.205593e-002
3.943714e+003, 8.621102e-002
3.945643e+003, 8.499085e-002
3.947571e+003, 8.499019e-002
3.949500e+003, 8.380402e-002
3.951428e+003, 7.942741e-002
3.953357e+003, 8.031878e-002
3.955285e+003, 8.306180e-002
3.957214e+003, 8.300596e-002
3.959142e+003, 8.132967e-002
3.961071e+003, 8.275605e-002
3.962999e+003, 8.244007e-002
3.964927e+003, 8.183518e-002
3.966856e+003, 8.234410e-002
3.968784e+003, 8.332431e-002
3.970713e+003, 8.522383e-002
3.972641e+003, 8.377681e-002
3.974570e+003, 8.212410e-002
3.976498e+003, 8.132776e-002
3.978427e+003, 8.033560e-002
3.980355e+003, 7.982074e-002
3.982284e+003, 8.062181e-002
3.984212e+003, 8.063678e-002
3.986141e+003, 8.033945e-002
3.988069e+003, 8.228274e-002
3.989998e+003, 8.142453e-002
3.991926e+003, 8.068385e-002
3.993854e+003, 8.213805e-002
3.995783e+003, 8.377428e-002
3.997711e+003, 8.226292e-002
3.999640e+003, 7.935926e-002
##END=



