##NAMES=Zincite
##RRUFFID=R050419
##IDEAL CHEMISTRY=Zn^2+^O
##LOCALITY=Sterling Hill, Sussex County, New Jersey, USA
##OWNER=RRUFF
##SOURCE=Marcus Origlieri
##DESCRIPTION=Deep red crystal associated with calcite
##STATUS=The identification of this mineral has been confirmed by X-ray diffraction and chemical analysis
##URL=rruff.info/R050419
##MEASURED CHEMISTRY=(Zn_0.99_Mn_0.01_)O
399.1926, 0.1741731
401.1211, 0.1726842
403.0496, 0.1735144
404.9780, 0.1734024
406.9065, 0.1727726
408.8350, 0.1717135
410.7634, 0.1751181
412.6919, 0.1744843
414.6204, 0.1735085
416.5488, 0.1727345
418.4773, 0.1745251
420.4058, 0.1749287
422.3342, 0.1730622
424.2627, 0.1699984
426.1912, 0.1669686
428.1196, 0.1695979
430.0481, 0.1700195
431.9766, 0.1678282
433.9050, 0.1666760
435.8335, 0.1631158
437.7620, 0.1606151
439.6904, 0.1596531
441.6189, 0.1574479
443.5474, 0.1537538
445.4758, 0.1518092
447.4043, 0.1490289
449.3328, 0.1470713
451.2612, 0.1460368
453.1897, 0.1434487
455.1182, 0.1383381
457.0466, 0.1346882
458.9751, 0.1337156
460.9036, 0.1311474
462.8320, 0.1283717
464.7605, 0.1266945
466.6890, 0.1247065
468.6174, 0.1223765
470.5459, 0.1195563
472.4744, 0.1174739
474.4028, 0.1151067
476.3313, 0.1121471
478.2598, 0.1098015
480.1882, 0.1084597
482.1167, 0.1070893
484.0452, 0.1057223
485.9736, 0.1040676
487.9021, 0.1023990
489.8306, 0.1009647
491.7590, 9.9275798E-02
493.6875, 9.7456053E-02
495.6160, 9.5784917E-02
497.5444, 9.5059574E-02
499.4729, 9.2978187E-02
501.4014, 9.1366000E-02
503.3298, 9.0301752E-02
505.2583, 8.8962287E-02
507.1868, 8.8152647E-02
509.1152, 8.7369204E-02
511.0437, 8.5888557E-02
512.9722, 8.4559932E-02
514.9006, 8.3447173E-02
516.8291, 8.2165688E-02
518.7576, 8.0494367E-02
520.6860, 7.8613490E-02
522.6145, 7.7106290E-02
524.5430, 7.5667910E-02
526.4714, 7.3987342E-02
528.3999, 7.2274707E-02
530.3284, 7.0785537E-02
532.2568, 6.9806792E-02
534.1853, 6.8127938E-02
536.1138, 6.6684857E-02
538.0422, 6.5755203E-02
539.9707, 6.4383119E-02
541.8992, 6.3382603E-02
543.8276, 6.1895989E-02
545.7561, 6.0222819E-02
547.6846, 5.8724780E-02
549.6130, 5.7268940E-02
551.5415, 5.5411872E-02
553.4700, 5.4135080E-02
555.3984, 5.3088222E-02
557.3269, 5.1779099E-02
559.2554, 4.9422421E-02
561.1838, 4.6898890E-02
563.1123, 4.4860199E-02
565.0408, 4.3257851E-02
566.9692, 4.1563042E-02
568.8977, 3.9824829E-02
570.8262, 3.8154650E-02
572.7546, 3.6426019E-02
574.6831, 3.5468020E-02
576.6116, 3.4140691E-02
578.5400, 3.2403171E-02
580.4685, 3.1070041E-02
582.3970, 3.0468971E-02
584.3254, 2.9722201E-02
586.2539, 2.8822210E-02
588.1824, 2.7976921E-02
590.1108, 2.7373200E-02
592.0393, 2.6886670E-02
593.9678, 2.6146000E-02
595.8962, 2.5514981E-02
597.8247, 2.4621019E-02
599.7532, 2.3903430E-02
601.6816, 2.4217039E-02
603.6101, 2.4179390E-02
605.5386, 2.3226280E-02
607.4670, 2.2481279E-02
609.3955, 2.2151040E-02
611.3240, 2.2175601E-02
613.2524, 2.2290830E-02
615.1809, 2.2062721E-02
617.1094, 2.1660451E-02
619.0378, 2.1014789E-02
620.9663, 2.0579500E-02
622.8948, 2.0528561E-02
624.8232, 2.0503029E-02
626.7517, 2.0398570E-02
628.6802, 2.0356201E-02
630.6086, 2.0178091E-02
632.5371, 2.0260939E-02
634.4656, 1.9975120E-02
636.3940, 1.9580530E-02
638.3225, 1.9703610E-02
640.2510, 1.9720569E-02
642.1794, 1.9979561E-02
644.1079, 1.9841520E-02
646.0364, 1.9512380E-02
647.9648, 1.9551830E-02
649.8933, 1.9748021E-02
651.8218, 1.9735949E-02
653.7502, 1.9707499E-02
655.6787, 1.9828090E-02
657.6072, 1.9779321E-02
659.5356, 1.9370129E-02
661.4641, 1.8979819E-02
663.3926, 1.8758010E-02
665.3210, 1.9029159E-02
667.2495, 1.8595880E-02
669.1780, 1.8422520E-02
671.1064, 1.8805660E-02
673.0349, 1.8766230E-02
674.9634, 1.8573400E-02
676.8918, 1.8230811E-02
678.8203, 1.8208250E-02
680.7488, 1.8203139E-02
682.6772, 1.8352389E-02
684.6057, 1.8496649E-02
686.5342, 1.8262630E-02
688.4626, 1.8288201E-02
690.3911, 1.8476499E-02
692.3196, 1.8227220E-02
694.2480, 1.7922951E-02
696.1765, 1.7635589E-02
698.1050, 1.7575979E-02
700.0334, 1.7903419E-02
701.9619, 1.8246450E-02
703.8904, 1.7992610E-02
705.8188, 1.7617989E-02
707.7473, 1.7398490E-02
709.6758, 1.7465239E-02
711.6042, 1.7624879E-02
713.5327, 1.7695701E-02
715.4612, 1.7880240E-02
717.3896, 1.7591590E-02
719.3181, 1.7205579E-02
721.2466, 1.7372500E-02
723.1750, 1.7870650E-02
725.1035, 1.7625490E-02
727.0320, 1.7381409E-02
728.9604, 1.7398801E-02
730.8889, 1.7241159E-02
732.8174, 1.7022699E-02
734.7458, 1.6554410E-02
736.6743, 1.6440300E-02
738.6028, 1.6677860E-02
740.5313, 1.6819950E-02
742.4597, 1.6828161E-02
744.3882, 1.6683711E-02
746.3167, 1.6547790E-02
748.2451, 1.6613090E-02
750.1736, 1.6469570E-02
752.1021, 1.6450970E-02
754.0305, 1.6551800E-02
755.9590, 1.6449951E-02
757.8875, 1.6483590E-02
759.8159, 1.6463259E-02
761.7444, 1.6406549E-02
763.6729, 1.6253211E-02
765.6013, 1.6603280E-02
767.5298, 1.6658280E-02
769.4583, 1.6610229E-02
771.3867, 1.6687190E-02
773.3152, 1.6654899E-02
775.2437, 1.6698411E-02
777.1721, 1.6913369E-02
779.1006, 1.6967651E-02
781.0291, 1.6645489E-02
782.9575, 1.6509689E-02
784.8860, 1.6530540E-02
786.8145, 1.6314659E-02
788.7429, 1.6345991E-02
790.6714, 1.6603161E-02
792.5999, 1.6793471E-02
794.5283, 1.6830239E-02
796.4568, 1.6669311E-02
798.3853, 1.6690301E-02
800.3137, 1.6771970E-02
802.2422, 1.7009800E-02
804.1707, 1.6755611E-02
806.0991, 1.6631650E-02
808.0276, 1.7097151E-02
809.9561, 1.7016150E-02
811.8845, 1.6904591E-02
813.8130, 1.6960140E-02
815.7415, 1.7008040E-02
817.6699, 1.7161621E-02
819.5984, 1.7308909E-02
821.5269, 1.7493010E-02
823.4553, 1.7668460E-02
825.3838, 1.7727571E-02
827.3123, 1.7788080E-02
829.2407, 1.7822960E-02
831.1692, 1.7745970E-02
833.0977, 1.8001970E-02
835.0261, 1.8124430E-02
836.9546, 1.7930750E-02
838.8831, 1.8351881E-02
840.8115, 1.8772950E-02
842.7400, 1.8651780E-02
844.6685, 1.8531190E-02
846.5969, 1.8750720E-02
848.5254, 1.9144610E-02
850.4539, 1.9157490E-02
852.3823, 1.9372430E-02
854.3108, 1.9505000E-02
856.2393, 1.9610129E-02
858.1677, 1.9784911E-02
860.0962, 1.9804370E-02
862.0247, 1.9838629E-02
863.9531, 2.0135161E-02
865.8816, 2.0431271E-02
867.8101, 2.0666409E-02
869.7385, 2.0911209E-02
871.6670, 2.0800831E-02
873.5955, 2.0768911E-02
875.5239, 2.0602370E-02
877.4524, 2.0540530E-02
879.3809, 2.0434011E-02
881.3093, 2.0211609E-02
883.2378, 2.0163720E-02
885.1663, 2.0308930E-02
887.0947, 2.0198051E-02
889.0232, 2.0023201E-02
890.9517, 2.0030200E-02
892.8801, 1.9891931E-02
894.8085, 1.9816630E-02
896.7370, 2.0010659E-02
898.6655, 2.0154741E-02
900.5939, 2.0067770E-02
902.5224, 2.0109661E-02
904.4509, 2.0037580E-02
906.3793, 1.9897290E-02
908.3078, 1.9966351E-02
910.2363, 2.0070290E-02
912.1647, 2.0121969E-02
914.0932, 2.0038540E-02
916.0217, 2.0082850E-02
917.9501, 2.0200411E-02
919.8786, 2.0136600E-02
921.8071, 2.0007029E-02
923.7355, 1.9943209E-02
925.6640, 1.9775281E-02
927.5925, 1.9641340E-02
929.5209, 1.9739220E-02
931.4494, 1.9945269E-02
933.3779, 1.9931750E-02
935.3063, 1.9899899E-02
937.2348, 1.9924879E-02
939.1633, 1.9929931E-02
941.0917, 2.0033110E-02
943.0202, 2.0313291E-02
944.9487, 2.0501081E-02
946.8771, 2.0480780E-02
948.8056, 2.0340800E-02
950.7341, 2.0257389E-02
952.6625, 2.0290850E-02
954.5910, 2.0410269E-02
956.5195, 2.0531880E-02
958.4479, 2.0646751E-02
960.3764, 2.0800430E-02
962.3049, 2.0928470E-02
964.2333, 2.1122070E-02
966.1618, 2.1222800E-02
968.0903, 2.1284660E-02
970.0187, 2.1720929E-02
971.9472, 2.1925651E-02
973.8757, 2.1909639E-02
975.8041, 2.2182250E-02
977.7326, 2.2424201E-02
979.6611, 2.2428291E-02
981.5895, 2.2909960E-02
983.5180, 2.3311781E-02
985.4465, 2.3288300E-02
987.3749, 2.2933191E-02
989.3034, 2.2747120E-02
991.2319, 2.3017369E-02
993.1603, 2.3228191E-02
995.0888, 2.3396030E-02
997.0173, 2.3425199E-02
998.9457, 2.3437729E-02
1000.874, 2.3680860E-02
1002.803, 2.3803409E-02
1004.731, 2.3879280E-02
1006.660, 2.3936611E-02
1008.588, 2.3775831E-02
1010.517, 2.3744620E-02
1012.445, 2.3919420E-02
1014.373, 2.4083210E-02
1016.302, 2.4389319E-02
1018.230, 2.4379089E-02
1020.159, 2.4262020E-02
1022.087, 2.4171179E-02
1024.016, 2.4297919E-02
1025.944, 2.4439760E-02
1027.873, 2.4280420E-02
1029.801, 2.4040140E-02
1031.730, 2.4105901E-02
1033.658, 2.4139220E-02
1035.587, 2.4269240E-02
1037.515, 2.4487140E-02
1039.444, 2.4488799E-02
1041.372, 2.4608770E-02
1043.301, 2.4769749E-02
1045.229, 2.4694800E-02
1047.157, 2.4560260E-02
1049.086, 2.4491951E-02
1051.014, 2.4595330E-02
1052.943, 2.4623999E-02
1054.871, 2.4331979E-02
1056.800, 2.3974471E-02
1058.728, 2.4050491E-02
1060.657, 2.4356140E-02
1062.585, 2.4414981E-02
1064.514, 2.4397820E-02
1066.442, 2.4501629E-02
1068.371, 2.4430130E-02
1070.299, 2.4379591E-02
1072.228, 2.4591470E-02
1074.156, 2.4691990E-02
1076.084, 2.4458660E-02
1078.013, 2.4465339E-02
1079.941, 2.4417689E-02
1081.870, 2.4172761E-02
1083.798, 2.4448579E-02
1085.727, 2.4598829E-02
1087.655, 2.4356900E-02
1089.584, 2.4481250E-02
1091.512, 2.4648869E-02
1093.441, 2.4470700E-02
1095.369, 2.4425250E-02
1097.298, 2.4692170E-02
1099.226, 2.4834121E-02
1101.155, 2.4804009E-02
1103.083, 2.4785820E-02
1105.011, 2.4813700E-02
1106.940, 2.4870399E-02
1108.868, 2.4733070E-02
1110.797, 2.4510140E-02
1112.725, 2.4405031E-02
1114.654, 2.4469480E-02
1116.582, 2.4703041E-02
1118.511, 2.4877220E-02
1120.439, 2.4932539E-02
1122.368, 2.4965901E-02
1124.296, 2.4848649E-02
1126.225, 2.5132651E-02
1128.153, 2.5278451E-02
1130.082, 2.5098510E-02
1132.010, 2.5110429E-02
1133.938, 2.5270781E-02
1135.867, 2.5393751E-02
1137.795, 2.5449250E-02
1139.724, 2.5434300E-02
1141.652, 2.5482990E-02
1143.581, 2.5667500E-02
1145.509, 2.6037879E-02
1147.438, 2.6232651E-02
1149.366, 2.5981581E-02
1151.295, 2.5716489E-02
1153.223, 2.5938570E-02
1155.152, 2.6238181E-02
1157.080, 2.6150670E-02
1159.009, 2.6229121E-02
1160.937, 2.6289620E-02
1162.865, 2.6406281E-02
1164.794, 2.6439831E-02
1166.722, 2.6360000E-02
1168.651, 2.6141999E-02
1170.579, 2.6122339E-02
1172.508, 2.6205380E-02
1174.436, 2.6223360E-02
1176.365, 2.6278410E-02
1178.293, 2.6163099E-02
1180.222, 2.6105300E-02
1182.150, 2.6286960E-02
1184.079, 2.6308700E-02
1186.007, 2.6165880E-02
1187.936, 2.5855919E-02
1189.864, 2.5877951E-02
1191.792, 2.6027810E-02
1193.721, 2.6155399E-02
1195.649, 2.6080260E-02
1197.578, 2.5970761E-02
1199.506, 2.5927350E-02
1201.435, 2.5862820E-02
1203.363, 2.5676791E-02
1205.292, 2.5837921E-02
1207.220, 2.6003581E-02
1209.149, 2.6025539E-02
1211.077, 2.5875440E-02
1213.006, 2.5821781E-02
1214.934, 2.6020810E-02
1216.863, 2.6254460E-02
1218.791, 2.6270520E-02
1220.719, 2.6217559E-02
1222.648, 2.6611870E-02
1224.576, 2.6643390E-02
1226.505, 2.6548350E-02
1228.433, 2.6543161E-02
1230.362, 2.6401861E-02
1232.290, 2.6396779E-02
1234.219, 2.6617531E-02
1236.147, 2.6823839E-02
1238.076, 2.7002409E-02
1240.004, 2.7123490E-02
1241.933, 2.7070640E-02
1243.861, 2.7173700E-02
1245.790, 2.7291151E-02
1247.718, 2.7230350E-02
1249.646, 2.7226809E-02
1251.575, 2.7220471E-02
1253.503, 2.7218580E-02
1255.432, 2.7296750E-02
1257.360, 2.7407059E-02
1259.289, 2.7396049E-02
1261.217, 2.7542450E-02
1263.146, 2.7826989E-02
1265.074, 2.7748520E-02
1267.003, 2.7754219E-02
1268.931, 2.7917819E-02
1270.860, 2.7999669E-02
1272.788, 2.8262969E-02
1274.717, 2.8322820E-02
1276.645, 2.8519699E-02
1278.573, 2.8642520E-02
1280.502, 2.8543551E-02
1282.430, 2.8734339E-02
1284.359, 2.9126231E-02
1286.287, 2.8994460E-02
1288.216, 2.8704440E-02
1290.144, 2.8805060E-02
1292.073, 2.8878180E-02
1294.001, 2.8915459E-02
1295.930, 2.8816439E-02
1297.858, 2.8959090E-02
1299.787, 2.9236970E-02
1301.715, 2.9432360E-02
1303.644, 2.9519601E-02
1305.572, 2.9491359E-02
1307.500, 2.9710321E-02
1309.429, 2.9944090E-02
1311.357, 2.9924709E-02
1313.286, 3.0028380E-02
1315.214, 3.0034540E-02
1317.143, 2.9938670E-02
1319.071, 2.9884880E-02
1321.000, 3.0173950E-02
1322.928, 3.0682780E-02
1324.857, 3.0957559E-02
1326.785, 3.1021411E-02
1328.714, 3.0828441E-02
1330.642, 3.0524191E-02
1332.571, 3.0773370E-02
1334.499, 3.0895781E-02
1336.427, 3.0805280E-02
1338.356, 3.0988030E-02
1340.284, 3.1319741E-02
1342.213, 3.1349320E-02
1344.141, 3.1511631E-02
1346.070, 3.1814720E-02
1347.998, 3.1785611E-02
1349.927, 3.1821299E-02
1351.855, 3.1915762E-02
1353.784, 3.1886179E-02
1355.712, 3.2165579E-02
1357.641, 3.2473229E-02
1359.569, 3.2544099E-02
1361.498, 3.2411110E-02
1363.426, 3.2556761E-02
1365.354, 3.2872830E-02
1367.283, 3.2874860E-02
1369.211, 3.2846339E-02
1371.140, 3.2978021E-02
1373.068, 3.3141021E-02
1374.997, 3.3333380E-02
1376.925, 3.3392958E-02
1378.854, 3.3167232E-02
1380.782, 3.3135571E-02
1382.711, 3.3489332E-02
1384.639, 3.4059592E-02
1386.568, 3.4391131E-02
1388.496, 3.4393620E-02
1390.424, 3.4588601E-02
1392.353, 3.4700871E-02
1394.281, 3.4806181E-02
1396.210, 3.5235260E-02
1398.138, 3.5432220E-02
1400.067, 3.5462901E-02
1401.995, 3.5557639E-02
1403.924, 3.5578199E-02
1405.852, 3.5543580E-02
1407.781, 3.5663780E-02
1409.709, 3.5939001E-02
1411.638, 3.6238309E-02
1413.566, 3.6482818E-02
1415.495, 3.6609400E-02
1417.423, 3.6482699E-02
1419.351, 3.6365990E-02
1421.280, 3.6324888E-02
1423.208, 3.6636509E-02
1425.137, 3.7041090E-02
1427.065, 3.7194341E-02
1428.994, 3.7131339E-02
1430.922, 3.7074991E-02
1432.851, 3.7115131E-02
1434.779, 3.7098229E-02
1436.708, 3.7058119E-02
1438.636, 3.7360881E-02
1440.565, 3.7815109E-02
1442.493, 3.8085621E-02
1444.422, 3.8229819E-02
1446.350, 3.8179111E-02
1448.278, 3.8340729E-02
1450.207, 3.8621329E-02
1452.135, 3.8739819E-02
1454.064, 3.8481750E-02
1455.992, 3.7653230E-02
1457.921, 3.7612919E-02
1459.849, 3.8074020E-02
1461.778, 3.8247660E-02
1463.706, 3.8234401E-02
1465.635, 3.8134981E-02
1467.563, 3.8451981E-02
1469.492, 3.8667198E-02
1471.420, 3.8255490E-02
1473.349, 3.7946910E-02
1475.277, 3.7897520E-02
1477.205, 3.8124360E-02
1479.134, 3.8527541E-02
1481.062, 3.8333278E-02
1482.991, 3.8227219E-02
1484.919, 3.8233861E-02
1486.848, 3.8023759E-02
1488.776, 3.8003229E-02
1490.705, 3.8039729E-02
1492.633, 3.8165629E-02
1494.562, 3.8036268E-02
1496.490, 3.7570201E-02
1498.419, 3.7910990E-02
1500.347, 3.8588841E-02
1502.276, 3.8486611E-02
1504.204, 3.8038660E-02
1506.132, 3.7692580E-02
1508.061, 3.7934382E-02
1509.989, 3.8221400E-02
1511.918, 3.8151279E-02
1513.846, 3.7897360E-02
1515.775, 3.7783440E-02
1517.703, 3.7781879E-02
1519.632, 3.7557099E-02
1521.560, 3.7515368E-02
1523.489, 3.8103830E-02
1525.417, 3.8435191E-02
1527.346, 3.8454011E-02
1529.274, 3.8701650E-02
1531.203, 3.8613971E-02
1533.131, 3.8258258E-02
1535.059, 3.8574930E-02
1536.988, 3.8734779E-02
1538.916, 3.8238421E-02
1540.845, 3.8367432E-02
1542.773, 3.8772941E-02
1544.702, 3.8910680E-02
1546.630, 3.9175820E-02
1548.559, 3.9357439E-02
1550.487, 3.9253689E-02
1552.416, 3.9087441E-02
1554.344, 3.9074101E-02
1556.273, 3.8789101E-02
1558.201, 3.8314689E-02
1560.130, 3.8545720E-02
1562.058, 3.9103631E-02
1563.986, 3.9333910E-02
1565.915, 3.9385051E-02
1567.843, 3.9515361E-02
1569.772, 3.9565720E-02
1571.700, 3.9807189E-02
1573.629, 3.9847910E-02
1575.557, 3.9594430E-02
1577.486, 3.9566029E-02
1579.414, 3.9946869E-02
1581.343, 3.9899621E-02
1583.271, 3.9820358E-02
1585.200, 3.9922349E-02
1587.128, 4.0159252E-02
1589.057, 4.0194869E-02
1590.985, 4.0341221E-02
1592.913, 4.0543281E-02
1594.842, 4.0357731E-02
1596.770, 4.0367119E-02
1598.699, 4.0802538E-02
1600.627, 4.1050222E-02
1602.556, 4.1003760E-02
1604.484, 4.0807121E-02
1606.413, 4.0698841E-02
1608.341, 4.0842049E-02
1610.270, 4.1142158E-02
1612.198, 4.1396439E-02
1614.127, 4.1663080E-02
1616.055, 4.1734848E-02
1617.984, 4.1974481E-02
1619.912, 4.1803531E-02
1621.840, 4.1478660E-02
1623.769, 4.1455969E-02
1625.697, 4.1619349E-02
1627.626, 4.1668780E-02
1629.554, 4.1697480E-02
1631.483, 4.1753650E-02
1633.411, 4.1596539E-02
1635.340, 4.1404419E-02
1637.268, 4.1760921E-02
1639.197, 4.1870989E-02
1641.125, 4.1856181E-02
1643.054, 4.2189870E-02
1644.982, 4.2333011E-02
1646.911, 4.2019881E-02
1648.839, 4.2107210E-02
1650.767, 4.1811969E-02
1652.696, 4.1413449E-02
1654.624, 4.1976430E-02
1656.553, 4.2616051E-02
1658.481, 4.2760830E-02
1660.410, 4.2797878E-02
1662.338, 4.2831391E-02
1664.267, 4.3272011E-02
1666.195, 4.3286391E-02
1668.124, 4.3199029E-02
1670.052, 4.3355871E-02
1671.981, 4.3663289E-02
1673.909, 4.3188680E-02
1675.838, 4.2891029E-02
1677.766, 4.3462239E-02
1679.694, 4.3908641E-02
1681.623, 4.3741971E-02
1683.551, 4.3208461E-02
1685.480, 4.3157481E-02
1687.408, 4.3819390E-02
1689.337, 4.3996170E-02
1691.265, 4.3975599E-02
1693.194, 4.4175670E-02
1695.122, 4.4098299E-02
1697.051, 4.3761760E-02
1698.979, 4.3382470E-02
1700.908, 4.3542299E-02
1702.836, 4.4365350E-02
1704.765, 4.4429328E-02
1706.693, 4.4432759E-02
1708.621, 4.4825621E-02
1710.550, 4.4964060E-02
1712.478, 4.4670802E-02
1714.407, 4.4545110E-02
1716.335, 4.4442240E-02
1718.264, 4.4383839E-02
1720.192, 4.4730280E-02
1722.121, 4.4838831E-02
1724.049, 4.4914521E-02
1725.978, 4.5378279E-02
1727.906, 4.5395169E-02
1729.835, 4.5435600E-02
1731.763, 4.5064852E-02
1733.692, 4.4906661E-02
1735.620, 4.5043111E-02
1737.548, 4.5147669E-02
1739.477, 4.5132559E-02
1741.405, 4.5729961E-02
1743.334, 4.6176441E-02
1745.262, 4.6105031E-02
1747.191, 4.5720831E-02
1749.119, 4.5485619E-02
1751.048, 4.5619119E-02
1752.976, 4.6105139E-02
1754.905, 4.6084139E-02
1756.833, 4.5850929E-02
1758.762, 4.6337180E-02
1760.690, 4.6829719E-02
1762.619, 4.6821769E-02
1764.547, 4.6558250E-02
1766.475, 4.6359450E-02
1768.404, 4.6431169E-02
1770.332, 4.6210531E-02
1772.261, 4.6183050E-02
1774.189, 4.6722781E-02
1776.118, 4.6862300E-02
1778.046, 4.6867359E-02
1779.975, 4.7496770E-02
1781.903, 4.8265100E-02
1783.832, 4.8077378E-02
1785.760, 4.7769010E-02
1787.689, 4.7849879E-02
1789.617, 4.7916010E-02
1791.546, 4.7907289E-02
1793.474, 4.7791649E-02
1795.402, 4.7728181E-02
1797.331, 4.7813501E-02
1799.259, 4.8013769E-02
1801.188, 4.8093669E-02
1803.116, 4.7456641E-02
1805.045, 4.7542151E-02
1806.973, 4.8373830E-02
1808.902, 4.8268780E-02
1810.830, 4.7892511E-02
1812.759, 4.8265371E-02
1814.687, 4.8494838E-02
1816.616, 4.8527241E-02
1818.544, 4.8253171E-02
1820.473, 4.8056878E-02
1822.401, 4.8166629E-02
1824.329, 4.8131011E-02
1826.258, 4.8387941E-02
1828.186, 4.8499811E-02
1830.115, 4.9156219E-02
1832.043, 4.9483482E-02
1833.972, 4.9361691E-02
1835.900, 4.9565189E-02
1837.829, 4.9062431E-02
1839.757, 4.8522491E-02
1841.686, 4.9122442E-02
1843.614, 4.9108788E-02
1845.543, 4.9120441E-02
1847.471, 4.9583320E-02
1849.400, 4.9651500E-02
1851.328, 4.9158212E-02
1853.256, 4.9475528E-02
1855.185, 5.0074250E-02
1857.113, 4.9799111E-02
1859.042, 4.9227949E-02
1860.970, 4.9452592E-02
1862.899, 4.9928449E-02
1864.827, 4.9945489E-02
1866.756, 4.9507961E-02
1868.684, 4.9709640E-02
1870.613, 5.0699249E-02
1872.541, 5.0431222E-02
1874.470, 5.0321601E-02
1876.398, 5.0433751E-02
1878.327, 5.0036348E-02
1880.255, 5.0036781E-02
1882.183, 4.9610320E-02
1884.112, 4.9711488E-02
1886.040, 5.0839201E-02
1887.969, 5.1090490E-02
1889.897, 5.1237982E-02
1891.826, 5.1780090E-02
1893.754, 5.2047819E-02
1895.683, 5.1670611E-02
1897.611, 5.0283570E-02
1899.540, 4.9779460E-02
1901.468, 5.1081121E-02
1903.397, 5.1967829E-02
1905.325, 5.1557351E-02
1907.254, 5.1377181E-02
1909.182, 5.0974131E-02
1911.110, 5.0841201E-02
1913.039, 5.1091939E-02
1914.967, 5.1325310E-02
1916.896, 5.1607601E-02
1918.824, 5.2260280E-02
1920.753, 5.1836520E-02
1922.681, 5.1190741E-02
1924.610, 5.1094431E-02
1926.538, 5.1169980E-02
1928.467, 5.1164359E-02
1930.395, 5.1112238E-02
1932.324, 5.1722940E-02
1934.252, 5.2246518E-02
1936.181, 5.2312609E-02
1938.109, 5.2569550E-02
1940.037, 5.2471198E-02
1941.966, 5.0929770E-02
1943.894, 5.0900780E-02
1945.823, 5.1565550E-02
1947.751, 5.0776482E-02
1949.680, 5.0702460E-02
1951.608, 5.0956689E-02
1953.537, 5.0153520E-02
1955.465, 4.9710728E-02
1957.394, 4.9656540E-02
1959.322, 5.1132310E-02
1961.251, 5.1805671E-02
1963.179, 5.1807601E-02
1965.108, 5.1735550E-02
1967.036, 5.1079020E-02
1968.964, 4.9391620E-02
1970.893, 4.8525080E-02
1972.821, 5.2403610E-02
1974.750, 5.3071130E-02
1976.678, 5.3306568E-02
1978.607, 5.3604029E-02
1980.535, 5.2195750E-02
1982.464, 5.2586690E-02
1984.392, 5.3809199E-02
1986.321, 5.4363299E-02
1988.249, 5.4581750E-02
1990.178, 5.5297010E-02
1992.106, 5.5480920E-02
1994.035, 5.5918440E-02
1995.963, 5.5590238E-02
1997.891, 5.5523340E-02
1999.820, 5.4391108E-02
2001.748, 5.4557469E-02
2003.677, 5.4468449E-02
2005.605, 5.4938879E-02
2007.534, 5.4778609E-02
2009.462, 5.5334620E-02
2011.391, 5.7643149E-02
2013.319, 5.7514299E-02
2015.248, 5.5042569E-02
2017.176, 5.5124000E-02
2019.105, 5.6053180E-02
2021.033, 5.4685932E-02
2022.962, 5.4388199E-02
2024.890, 5.5103399E-02
2026.818, 5.4343089E-02
2028.747, 5.3398199E-02
2030.675, 5.3982709E-02
2032.604, 5.4898251E-02
2034.532, 5.7192549E-02
2036.461, 5.9550211E-02
2038.389, 5.8392420E-02
2040.318, 5.5921420E-02
2042.246, 5.4643020E-02
2044.175, 5.3983480E-02
2046.103, 5.6046192E-02
2048.032, 5.7629731E-02
2049.960, 5.7187568E-02
2051.889, 5.6199819E-02
2053.817, 5.6774870E-02
2055.746, 5.6964811E-02
2057.674, 5.6471780E-02
2059.603, 5.5693619E-02
2061.531, 5.6034330E-02
2063.459, 5.6748040E-02
2065.388, 5.7469241E-02
2067.316, 5.6643460E-02
2069.245, 5.6101680E-02
2071.173, 5.7171650E-02
2073.102, 5.7204090E-02
2075.030, 5.7594679E-02
2076.959, 5.8451779E-02
2078.887, 5.8559190E-02
2080.816, 5.8404241E-02
2082.744, 5.6494411E-02
2084.673, 5.6223419E-02
2086.601, 5.6943879E-02
2088.530, 5.7420030E-02
2090.458, 5.7603899E-02
2092.386, 5.6760240E-02
2094.315, 5.7752911E-02
2096.243, 5.8214720E-02
2098.172, 5.7255588E-02
2100.100, 5.8126390E-02
2102.029, 5.9628058E-02
2103.957, 6.0390461E-02
2105.886, 6.0559951E-02
2107.814, 6.0920741E-02
2109.743, 6.1053589E-02
2111.671, 5.9777912E-02
2113.600, 5.8481060E-02
2115.528, 5.9241422E-02
2117.457, 5.8924921E-02
2119.385, 5.9405841E-02
2121.313, 6.0489699E-02
2123.242, 6.0704570E-02
2125.170, 5.9781030E-02
2127.099, 5.7580881E-02
2129.027, 5.6515891E-02
2130.956, 5.8315180E-02
2132.884, 5.8470242E-02
2134.813, 5.7763360E-02
2136.741, 5.8909431E-02
2138.670, 5.8362961E-02
2140.598, 5.6456242E-02
2142.527, 5.5158392E-02
2144.455, 5.6488581E-02
2146.384, 5.7926349E-02
2148.312, 5.7322361E-02
2150.240, 5.7918020E-02
2152.169, 5.8068302E-02
2154.097, 5.7522051E-02
2156.026, 5.6593839E-02
2157.954, 5.6223221E-02
2159.883, 5.8058511E-02
2161.811, 6.1407641E-02
2163.740, 6.3080013E-02
2165.668, 6.1173521E-02
2167.597, 5.9465669E-02
2169.525, 5.9760969E-02
2171.454, 5.9823669E-02
2173.382, 5.9545230E-02
2175.311, 6.0265969E-02
2177.239, 6.1150741E-02
2179.167, 6.2358271E-02
2181.096, 6.3859180E-02
2183.024, 6.3976921E-02
2184.953, 6.2618554E-02
2186.881, 6.1728962E-02
2188.810, 6.0636099E-02
2190.738, 6.2585950E-02
2192.667, 6.2804617E-02
2194.595, 6.0084600E-02
2196.524, 5.9704870E-02
2198.452, 6.1250798E-02
2200.381, 6.3300043E-02
2202.309, 6.4406268E-02
2204.238, 6.3067861E-02
2206.166, 6.1095171E-02
2208.094, 5.9873521E-02
2210.023, 6.1261531E-02
2211.951, 6.3376963E-02
2213.880, 6.5104552E-02
2215.808, 6.4465933E-02
2217.737, 6.5581173E-02
2219.665, 6.5685742E-02
2221.594, 6.5414511E-02
2223.522, 6.6535458E-02
2225.451, 6.6016421E-02
2227.379, 6.4644434E-02
2229.308, 6.2883884E-02
2231.236, 6.2352210E-02
2233.165, 6.2814482E-02
2235.093, 6.3682899E-02
2237.021, 6.3895613E-02
2238.950, 6.3178517E-02
2240.878, 6.4109012E-02
2242.807, 6.6022582E-02
2244.735, 6.6939577E-02
2246.664, 6.6833012E-02
2248.592, 6.5865971E-02
2250.521, 6.4216033E-02
2252.449, 6.5478563E-02
2254.378, 6.5659463E-02
2256.306, 6.6864327E-02
2258.235, 6.5684266E-02
2260.163, 6.4700320E-02
2262.092, 6.5433793E-02
2264.020, 6.4918026E-02
2265.948, 6.5772489E-02
2267.877, 6.6660069E-02
2269.805, 6.6288888E-02
2271.734, 6.6590384E-02
2273.662, 6.7769520E-02
2275.591, 6.7811579E-02
2277.519, 6.7340687E-02
2279.448, 6.6749431E-02
2281.376, 6.8106003E-02
2283.305, 6.8392523E-02
2285.233, 6.7324750E-02
2287.162, 6.7419268E-02
2289.090, 6.8065129E-02
2291.019, 6.8379700E-02
2292.947, 6.8454593E-02
2294.875, 6.7994371E-02
2296.804, 6.7832187E-02
2298.732, 6.8028897E-02
2300.661, 6.7493111E-02
2302.589, 6.7142211E-02
2304.518, 6.7373224E-02
2306.446, 6.7759648E-02
2308.375, 6.8118498E-02
2310.303, 6.8008929E-02
2312.232, 6.7985862E-02
2314.160, 6.7681119E-02
2316.089, 6.7907527E-02
2318.017, 6.8799667E-02
2319.946, 6.8713211E-02
2321.874, 6.7701250E-02
2323.802, 6.7290947E-02
2325.731, 6.6249751E-02
2327.659, 6.5712653E-02
2329.588, 6.5717019E-02
2331.516, 6.5801747E-02
2333.445, 6.6037960E-02
2335.373, 6.6357777E-02
2337.302, 6.6232592E-02
2339.230, 6.5472297E-02
2341.159, 6.5114327E-02
2343.087, 6.5352239E-02
2345.016, 6.6465281E-02
2346.944, 6.8375863E-02
2348.873, 6.8492472E-02
2350.801, 6.7838483E-02
2352.729, 6.6991523E-02
2354.658, 6.6367880E-02
2356.586, 6.5264501E-02
2358.515, 6.4106800E-02
2360.443, 6.4587533E-02
2362.372, 6.4894259E-02
2364.300, 6.4826243E-02
2366.229, 6.5030597E-02
2368.157, 6.4965159E-02
2370.086, 6.6240601E-02
2372.014, 6.7244269E-02
2373.942, 6.8164371E-02
2375.871, 6.8439029E-02
2377.799, 6.8174452E-02
2379.728, 6.8863779E-02
2381.656, 6.9843046E-02
2383.585, 7.0001677E-02
2385.513, 6.9956332E-02
2387.442, 6.9843881E-02
2389.370, 6.9889039E-02
2391.299, 6.9911800E-02
2393.227, 6.9996260E-02
2395.156, 7.1211033E-02
2397.084, 7.0120610E-02
2399.012, 6.9285989E-02
2400.941, 7.0245348E-02
2402.869, 6.9758222E-02
2404.798, 6.8668701E-02
2406.726, 7.0112437E-02
2408.655, 7.0755109E-02
2410.583, 7.1018763E-02
2412.512, 7.1423478E-02
2414.440, 7.0532396E-02
2416.369, 6.9644183E-02
2418.297, 6.9929518E-02
2420.226, 7.1813338E-02
2422.154, 7.2841771E-02
2424.083, 7.1970522E-02
2426.011, 7.1083918E-02
2427.939, 7.1392789E-02
2429.868, 7.2023161E-02
2431.796, 7.1456373E-02
2433.725, 7.0953287E-02
2435.653, 7.2626397E-02
2437.582, 7.2826043E-02
2439.510, 7.2596148E-02
2441.439, 7.2694518E-02
2443.367, 7.2090417E-02
2445.296, 7.1600348E-02
2447.224, 7.2333097E-02
2449.153, 7.2295249E-02
2451.081, 7.3101483E-02
2453.010, 7.2763219E-02
2454.938, 7.1713798E-02
2456.866, 7.2587423E-02
2458.795, 7.3223613E-02
2460.723, 7.3870257E-02
2462.652, 7.4327379E-02
2464.580, 7.4280187E-02
2466.509, 7.3751740E-02
2468.437, 7.2984092E-02
2470.366, 7.2986342E-02
2472.294, 7.3511571E-02
2474.223, 7.3620088E-02
2476.151, 7.3263280E-02
2478.080, 7.4028142E-02
2480.008, 7.3961467E-02
2481.937, 7.3425308E-02
2483.865, 7.3883913E-02
2485.793, 7.4392788E-02
2487.722, 7.4329443E-02
2489.650, 7.3557347E-02
2491.579, 7.3062070E-02
2493.507, 7.3503643E-02
2495.436, 7.3395453E-02
2497.364, 7.3619977E-02
2499.293, 7.3810853E-02
2501.221, 7.4120469E-02
2503.150, 7.4371926E-02
2505.078, 7.3603563E-02
2507.007, 7.2810143E-02
2508.935, 7.4158259E-02
2510.864, 7.5827710E-02
2512.792, 7.6124288E-02
2514.720, 7.5542577E-02
2516.649, 7.5038671E-02
2518.577, 7.4646950E-02
2520.506, 7.3730387E-02
2522.434, 7.3656641E-02
2524.363, 7.4684367E-02
2526.291, 7.6072901E-02
2528.220, 7.6192483E-02
2530.148, 7.6178260E-02
2532.077, 7.7059217E-02
2534.005, 7.7210858E-02
2535.934, 7.5972483E-02
2537.862, 7.4895270E-02
2539.791, 7.4662097E-02
2541.719, 7.5024597E-02
2543.647, 7.4910142E-02
2545.576, 7.5061798E-02
2547.504, 7.4852377E-02
2549.433, 7.4685723E-02
2551.361, 7.5808883E-02
2553.290, 7.6624878E-02
2555.218, 7.8082830E-02
2557.147, 7.7673703E-02
2559.075, 7.5705089E-02
2561.004, 7.5519539E-02
2562.932, 7.5890101E-02
2564.861, 7.6547563E-02
2566.789, 7.6641560E-02
2568.718, 7.6712817E-02
2570.646, 7.7886730E-02
2572.574, 7.6624207E-02
2574.503, 7.5595647E-02
2576.431, 7.6741762E-02
2578.360, 7.7616647E-02
2580.288, 7.7480271E-02
2582.217, 7.7908188E-02
2584.145, 7.7810071E-02
2586.074, 7.8547589E-02
2588.002, 7.8270093E-02
2589.931, 7.7768072E-02
2591.859, 7.7700257E-02
2593.788, 7.7956267E-02
2595.716, 7.7053033E-02
2597.645, 7.7255711E-02
2599.573, 7.8572102E-02
2601.501, 7.9053253E-02
2603.430, 7.9457067E-02
2605.358, 7.9572514E-02
2607.287, 7.9179212E-02
2609.215, 7.9585880E-02
2611.144, 7.9955854E-02
2613.072, 8.1126884E-02
2615.001, 8.0852613E-02
2616.929, 7.9534613E-02
2618.858, 7.9830661E-02
2620.786, 8.0541313E-02
2622.715, 8.0087587E-02
2624.643, 8.0528423E-02
2626.572, 8.0563217E-02
2628.500, 8.0049276E-02
2630.428, 7.9782173E-02
2632.357, 7.9853460E-02
2634.285, 8.1883930E-02
2636.214, 8.2293347E-02
2638.142, 8.1580043E-02
2640.071, 8.1611693E-02
2641.999, 8.1806757E-02
2643.928, 8.2275413E-02
2645.856, 8.1729621E-02
2647.785, 8.1266306E-02
2649.713, 8.0671594E-02
2651.642, 8.0279350E-02
2653.570, 8.0948956E-02
2655.499, 8.1925914E-02
2657.427, 8.1971698E-02
2659.355, 8.0702811E-02
2661.284, 8.0929659E-02
2663.212, 8.1115887E-02
2665.141, 8.0286764E-02
2667.069, 7.9946160E-02
2668.998, 8.0123924E-02
2670.926, 8.1174277E-02
2672.855, 8.1142277E-02
2674.783, 8.0541886E-02
2676.712, 8.0908284E-02
2678.640, 8.2394332E-02
2680.569, 8.2451373E-02
2682.497, 8.1290513E-02
2684.426, 8.1480488E-02
2686.354, 8.2061172E-02
2688.282, 8.2981907E-02
2690.211, 8.2559668E-02
2692.139, 8.1682757E-02
2694.068, 8.1716113E-02
2695.996, 8.1623927E-02
2697.925, 8.2284011E-02
2699.853, 8.3302103E-02
2701.782, 8.3619982E-02
2703.710, 8.2773030E-02
2705.639, 8.2578227E-02
2707.567, 8.2853653E-02
2709.496, 8.3144844E-02
2711.424, 8.2930997E-02
2713.353, 8.2138419E-02
2715.281, 8.1973888E-02
2717.209, 8.2436092E-02
2719.138, 8.2732387E-02
2721.066, 8.3390087E-02
2722.995, 8.3772428E-02
2724.923, 8.3406962E-02
2726.852, 8.3487898E-02
2728.780, 8.4041163E-02
2730.709, 8.4135823E-02
2732.637, 8.3702527E-02
2734.566, 8.3024450E-02
2736.494, 8.3294317E-02
2738.423, 8.3888113E-02
2740.351, 8.4507279E-02
2742.280, 8.4815428E-02
2744.208, 8.4702067E-02
2746.136, 8.4180661E-02
2748.065, 8.3041720E-02
2749.993, 8.2828172E-02
2751.922, 8.2797520E-02
2753.850, 8.3731882E-02
2755.779, 8.3971523E-02
2757.707, 8.4029488E-02
2759.636, 8.4530391E-02
2761.564, 8.4978163E-02
2763.493, 8.5145533E-02
2765.421, 8.4756181E-02
2767.350, 8.5076958E-02
2769.278, 8.4893592E-02
2771.207, 8.4059224E-02
2773.135, 8.3856933E-02
2775.063, 8.4568404E-02
2776.992, 8.5159197E-02
2778.920, 8.5148573E-02
2780.849, 8.5096627E-02
2782.777, 8.5920058E-02
2784.706, 8.5656591E-02
2786.634, 8.4951229E-02
2788.563, 8.5241869E-02
2790.491, 8.5852116E-02
2792.420, 8.6474203E-02
2794.348, 8.6581752E-02
2796.277, 8.7577209E-02
2798.205, 8.7730274E-02
2800.134, 8.7830722E-02
2802.062, 8.8206314E-02
2803.990, 8.7518968E-02
2805.919, 8.6636983E-02
2807.847, 8.6532503E-02
2809.776, 8.7082170E-02
2811.704, 8.6929440E-02
2813.633, 8.6111158E-02
2815.561, 8.6046264E-02
2817.490, 8.7014787E-02
2819.418, 8.7570854E-02
2821.347, 8.6612381E-02
2823.275, 8.6519890E-02
2825.204, 8.7267794E-02
2827.132, 8.7719686E-02
2829.061, 8.7790892E-02
2830.989, 8.7264419E-02
2832.917, 8.6127996E-02
2834.846, 8.5813344E-02
2836.774, 8.7182343E-02
2838.703, 8.7672152E-02
2840.631, 8.7315723E-02
2842.560, 8.7632708E-02
2844.488, 8.8098377E-02
2846.417, 8.7815814E-02
2848.345, 8.8045754E-02
2850.274, 8.8396937E-02
2852.202, 8.8750727E-02
2854.131, 8.8367470E-02
2856.059, 8.7632917E-02
2857.988, 8.7671563E-02
2859.916, 8.7974608E-02
2861.844, 8.8877298E-02
2863.773, 8.9600883E-02
2865.701, 8.9482747E-02
2867.630, 8.9230180E-02
2869.558, 8.7727673E-02
2871.487, 8.7237030E-02
2873.415, 8.9033969E-02
2875.344, 8.9173727E-02
2877.272, 8.8579632E-02
2879.201, 8.8761389E-02
2881.129, 8.9550547E-02
2883.058, 8.9783713E-02
2884.986, 8.8957801E-02
2886.915, 8.9450702E-02
2888.843, 9.0096749E-02
2890.771, 8.9936256E-02
2892.700, 8.9600831E-02
2894.628, 8.9796543E-02
2896.557, 8.9763589E-02
2898.485, 9.0147987E-02
2900.414, 8.9924403E-02
2902.342, 8.9327797E-02
2904.271, 8.9532912E-02
2906.199, 8.9860760E-02
2908.128, 9.0510607E-02
2910.056, 9.0780199E-02
2911.985, 9.0609193E-02
2913.913, 9.2212893E-02
2915.842, 9.3555860E-02
2917.770, 9.1596968E-02
2919.698, 8.9978397E-02
2921.627, 9.0042301E-02
2923.555, 9.1046967E-02
2925.484, 9.1532201E-02
2927.412, 9.0245590E-02
2929.341, 8.9358211E-02
2931.269, 9.0843923E-02
2933.198, 9.0200998E-02
2935.126, 8.9061648E-02
2937.055, 8.9782909E-02
2938.983, 9.0720959E-02
2940.912, 9.0500973E-02
2942.840, 9.0185240E-02
2944.769, 9.0551257E-02
2946.697, 9.1681637E-02
2948.625, 9.1506884E-02
2950.554, 9.0856783E-02
2952.482, 9.1654323E-02
2954.411, 9.2355102E-02
2956.339, 9.2441604E-02
2958.268, 9.1702223E-02
2960.196, 9.0157717E-02
2962.125, 9.0189077E-02
2964.053, 9.2510141E-02
2965.982, 9.3752399E-02
2967.910, 9.3503296E-02
2969.839, 9.2828169E-02
2971.767, 9.1930553E-02
2973.696, 9.1798067E-02
2975.624, 9.2035986E-02
2977.552, 9.1483012E-02
2979.481, 9.1273271E-02
2981.409, 9.1321424E-02
2983.338, 9.2475958E-02
2985.266, 9.3829013E-02
2987.195, 9.2763357E-02
2989.123, 9.1483518E-02
2991.052, 9.1768652E-02
2992.980, 9.2759289E-02
2994.909, 9.3141168E-02
2996.837, 9.2520773E-02
2998.766, 9.0959541E-02
3000.694, 9.1245160E-02
3002.623, 9.2926070E-02
3004.551, 9.3367040E-02
3006.479, 9.1789313E-02
3008.408, 9.1156892E-02
3010.336, 9.2089310E-02
3012.265, 9.2207097E-02
3014.193, 9.2748463E-02
3016.122, 9.3370683E-02
3018.050, 9.3492351E-02
3019.979, 9.3209431E-02
3021.907, 9.3269058E-02
3023.836, 9.2973113E-02
3025.764, 9.3185857E-02
3027.693, 9.4126038E-02
3029.621, 9.4749317E-02
3031.550, 9.5349923E-02
3033.478, 9.4546586E-02
3035.406, 9.4667427E-02
3037.335, 9.6058801E-02
3039.263, 9.6433930E-02
3041.192, 9.5236503E-02
3043.120, 9.3204513E-02
3045.049, 9.3063287E-02
3046.977, 9.4941728E-02
3048.906, 9.5049463E-02
3050.834, 9.5443606E-02
3052.763, 9.6273251E-02
3054.691, 9.5967337E-02
3056.620, 9.5291249E-02
3058.548, 9.4874993E-02
3060.477, 9.4045267E-02
3062.405, 9.4239257E-02
3064.333, 9.6067041E-02
3066.262, 9.6819259E-02
3068.190, 9.6228607E-02
3070.119, 9.6137427E-02
3072.047, 9.6354283E-02
3073.976, 9.6193403E-02
3075.904, 9.5599897E-02
3077.833, 9.4334647E-02
3079.761, 9.4760872E-02
3081.690, 9.6030474E-02
3083.618, 9.5851392E-02
3085.547, 9.4983988E-02
3087.475, 9.2673123E-02
3089.404, 9.3443073E-02
3091.332, 9.5500782E-02
3093.260, 9.5555954E-02
3095.189, 9.6193440E-02
3097.117, 9.5784739E-02
3099.046, 9.6117862E-02
3100.974, 9.7455509E-02
3102.903, 9.7270668E-02
3104.831, 9.6780777E-02
3106.760, 9.6381553E-02
3108.688, 9.5677130E-02
3110.617, 9.5842578E-02
3112.545, 9.6201189E-02
3114.474, 9.6827127E-02
3116.402, 9.6956640E-02
3118.331, 9.6941501E-02
3120.259, 9.6283972E-02
3122.188, 9.5298730E-02
3124.116, 9.6126288E-02
3126.044, 9.7877547E-02
3127.973, 9.8077297E-02
3129.901, 9.8488927E-02
3131.830, 9.8172463E-02
3133.758, 9.7461261E-02
3135.687, 9.7191691E-02
3137.615, 9.7541340E-02
3139.544, 9.8789670E-02
3141.472, 9.8887831E-02
3143.401, 9.8462068E-02
3145.329, 9.8014258E-02
3147.258, 9.7244173E-02
3149.186, 9.7483248E-02
3151.115, 9.8769002E-02
3153.043, 9.9093243E-02
3154.971, 9.9175774E-02
3156.900, 9.9171840E-02
3158.828, 9.9853434E-02
3160.757, 9.9779002E-02
3162.685, 9.8637983E-02
3164.614, 9.7499229E-02
3166.542, 9.6938163E-02
3168.471, 9.7497582E-02
3170.399, 9.8761506E-02
3172.328, 9.9765651E-02
3174.256, 0.1003115
3176.185, 0.1007156
3178.113, 0.1003652
3180.042, 0.1011144
3181.970, 0.1007666
3183.898, 9.9487737E-02
3185.827, 9.9511251E-02
3187.755, 9.9953353E-02
3189.684, 0.1011674
3191.612, 0.1012040
3193.541, 0.1005463
3195.469, 0.1004076
3197.398, 0.1002407
3199.326, 9.8566413E-02
3201.255, 9.8368607E-02
3203.183, 0.1001113
3205.112, 0.1002526
3207.040, 0.1004537
3208.969, 0.1003358
3210.897, 0.1003736
3212.825, 9.9152356E-02
3214.754, 0.1002028
3216.682, 0.1024695
3218.611, 0.1029532
3220.539, 0.1044503
3222.468, 0.1035788
3224.396, 0.1017587
3226.325, 0.1023736
3228.253, 0.1022090
3230.182, 0.1020134
3232.110, 0.1016928
3234.039, 0.1025683
3235.967, 0.1023721
3237.896, 0.1010671
3239.824, 0.1021992
3241.752, 0.1030963
3243.681, 0.1028235
3245.609, 0.1014215
3247.538, 0.1004921
3249.466, 0.1008187
3251.395, 0.1013336
3253.323, 0.1006352
3255.252, 9.9373907E-02
3257.180, 9.9543244E-02
3259.109, 0.1008925
3261.037, 0.1031806
3262.966, 0.1038925
3264.894, 0.1045020
3266.823, 0.1052890
3268.751, 0.1063799
3270.679, 0.1069888
3272.608, 0.1083630
3274.536, 0.1071891
3276.465, 0.1029114
3278.393, 0.1007377
3280.322, 0.1024007
3282.250, 0.1043952
3284.179, 0.1055061
3286.107, 0.1040252
3288.036, 0.1026086
3289.964, 0.1032881
3291.893, 0.1046334
3293.821, 0.1070533
3295.750, 0.1078336
3297.678, 0.1052497
3299.606, 0.1035358
3301.535, 0.1041105
3303.463, 0.1039798
3305.392, 0.1026848
3307.320, 0.1029878
3309.249, 0.1027620
3311.177, 0.1048119
3313.106, 0.1061837
3315.034, 0.1037152
3316.963, 0.1032889
3318.891, 0.1035042
3320.820, 0.1037446
3322.748, 0.1062526
3324.677, 0.1062342
3326.605, 0.1048468
3328.533, 0.1061608
3330.462, 0.1076199
3332.390, 0.1072137
3334.319, 0.1073647
3336.247, 0.1081853
3338.176, 0.1078622
3340.104, 0.1053353
3342.033, 0.1040436
3343.961, 0.1036005
3345.890, 0.1034203
3347.818, 0.1049572
3349.747, 0.1052329
3351.675, 0.1045951
3353.604, 0.1055299
3355.532, 0.1073706
3357.460, 0.1087231
3359.389, 0.1088208
3361.317, 0.1072720
3363.246, 0.1077667
3365.174, 0.1089919
3367.103, 0.1080476
3369.031, 0.1069840
3370.960, 0.1063315
3372.888, 0.1063453
3374.817, 0.1075138
3376.745, 0.1079007
3378.674, 0.1075708
3380.602, 0.1087344
3382.531, 0.1086078
3384.459, 0.1079416
3386.387, 0.1082147
3388.316, 0.1078470
3390.244, 0.1095683
3392.173, 0.1101938
3394.101, 0.1075739
3396.030, 0.1080144
3397.958, 0.1109647
3399.887, 0.1107445
3401.815, 0.1085347
3403.744, 0.1074519
3405.672, 0.1089651
3407.601, 0.1110498
3409.529, 0.1104481
3411.458, 0.1096239
3413.386, 0.1106092
3415.314, 0.1118596
3417.243, 0.1126718
3419.171, 0.1111786
3421.100, 0.1095033
3423.028, 0.1081381
3424.957, 0.1085477
3426.885, 0.1078249
3428.814, 0.1071317
3430.742, 0.1085501
3432.671, 0.1097851
3434.599, 0.1091606
3436.528, 0.1094933
3438.456, 0.1101496
3440.385, 0.1086813
3442.313, 0.1098583
3444.241, 0.1117285
3446.170, 0.1111203
3448.098, 0.1110789
3450.027, 0.1111419
3451.955, 0.1106629
3453.884, 0.1094812
3455.812, 0.1108379
3457.741, 0.1118048
3459.669, 0.1114019
3461.598, 0.1111031
3463.526, 0.1092076
3465.455, 0.1092947
3467.383, 0.1094671
3469.312, 0.1091369
3471.240, 0.1105246
3473.168, 0.1101148
3475.097, 0.1089514
3477.025, 0.1102428
3478.954, 0.1101132
3480.882, 0.1097705
3482.811, 0.1125469
3484.739, 0.1137459
3486.668, 0.1129370
3488.596, 0.1121932
3490.525, 0.1117302
3492.453, 0.1104941
3494.382, 0.1113686
3496.310, 0.1123616
3498.239, 0.1137412
3500.167, 0.1148344
3502.095, 0.1151446
3504.024, 0.1140294
3505.952, 0.1117324
3507.881, 0.1128868
3509.809, 0.1140890
3511.738, 0.1112410
3513.666, 0.1095566
3515.595, 0.1125624
3517.523, 0.1124142
3519.452, 0.1112714
3521.380, 0.1107460
3523.309, 0.1126558
3525.237, 0.1116656
3527.166, 0.1119747
3529.094, 0.1149527
3531.022, 0.1143126
3532.951, 0.1141763
3534.879, 0.1129978
3536.808, 0.1127050
3538.736, 0.1164710
3540.665, 0.1177861
3542.593, 0.1164538
3544.522, 0.1149537
3546.450, 0.1146987
3548.379, 0.1150826
3550.307, 0.1154399
3552.236, 0.1159525
3554.164, 0.1159702
3556.093, 0.1146020
3558.021, 0.1137547
3559.949, 0.1149311
3561.878, 0.1134017
3563.806, 0.1141116
3565.735, 0.1151833
3567.663, 0.1151184
3569.592, 0.1127350
3571.520, 0.1099192
3573.449, 0.1099436
3575.377, 0.1107055
3577.306, 0.1116396
3579.234, 0.1130895
3581.163, 0.1161257
3583.091, 0.1156683
3585.020, 0.1129643
3586.948, 0.1119481
3588.876, 0.1106717
3590.805, 0.1150946
3592.733, 0.1180663
3594.662, 0.1158392
3596.590, 0.1151942
3598.519, 0.1156060
3600.447, 0.1151088
3602.376, 0.1137224
3604.304, 0.1114839
3606.233, 0.1118877
3608.161, 0.1146693
3610.090, 0.1145085
3612.018, 0.1161264
3613.947, 0.1169270
3615.875, 0.1146287
3617.803, 0.1115829
3619.732, 0.1111762
3621.660, 0.1114292
3623.589, 0.1119570
3625.517, 0.1145518
3627.446, 0.1152934
3629.374, 0.1173211
3631.303, 0.1180461
3633.231, 0.1141903
3635.160, 0.1138602
3637.088, 0.1148905
3639.017, 0.1151373
3640.945, 0.1153161
3642.874, 0.1183738
3644.802, 0.1184388
3646.730, 0.1134209
3648.659, 0.1148541
3650.587, 0.1181001
3652.516, 0.1176651
3654.444, 0.1158191
3656.373, 0.1147530
3658.301, 0.1140160
3660.230, 0.1169963
3662.158, 0.1189264
3664.087, 0.1180911
3666.015, 0.1199138
3667.944, 0.1180807
3669.872, 0.1178871
3671.801, 0.1198426
3673.729, 0.1205871
3675.657, 0.1179647
3677.586, 0.1173603
3679.514, 0.1186427
3681.443, 0.1197440
3683.371, 0.1215869
3685.300, 0.1211686
3687.228, 0.1181677
3689.157, 0.1170082
3691.085, 0.1171204
3693.014, 0.1178739
3694.942, 0.1197760
3696.871, 0.1207481
3698.799, 0.1203564
3700.728, 0.1219641
3702.656, 0.1203462
3704.584, 0.1210370
3706.513, 0.1220551
3708.441, 0.1192479
3710.370, 0.1208556
3712.298, 0.1239861
3714.227, 0.1214189
3716.155, 0.1180444
3718.084, 0.1193181
3720.012, 0.1182830
3721.941, 0.1186548
3723.869, 0.1197764
3725.798, 0.1180631
3727.726, 0.1175690
3729.655, 0.1168890
3731.583, 0.1155858
3733.511, 0.1191602
3735.440, 0.1216491
3737.368, 0.1212462
3739.297, 0.1194720
3741.225, 0.1192141
3743.154, 0.1211529
3745.082, 0.1207256
3747.011, 0.1199896
3748.939, 0.1228741
3750.868, 0.1263887
3752.796, 0.1263788
3754.725, 0.1225843
3756.653, 0.1228788
3758.582, 0.1241228
3760.510, 0.1225300
3762.438, 0.1213497
3764.367, 0.1215782
3766.295, 0.1245748
3768.224, 0.1245276
3770.152, 0.1234488
3772.081, 0.1215232
3774.009, 0.1213390
3775.938, 0.1230535
3777.866, 0.1221407
3779.795, 0.1235202
3781.723, 0.1272120
3783.652, 0.1293574
3785.580, 0.1287614
3787.509, 0.1278034
3789.437, 0.1246846
3791.365, 0.1215286
3793.294, 0.1226887
3795.222, 0.1238335
3797.151, 0.1239976
3799.079, 0.1249402
3801.008, 0.1229528
3802.936, 0.1258048
3804.865, 0.1293243
3806.793, 0.1275757
3808.722, 0.1268059
3810.650, 0.1277715
3812.579, 0.1254624
3814.507, 0.1229699
3816.436, 0.1262469
3818.364, 0.1294529
3820.292, 0.1317560
3822.221, 0.1285687
3824.149, 0.1228811
3826.078, 0.1230086
3828.006, 0.1271645
3829.935, 0.1272093
3831.863, 0.1248845
3833.792, 0.1256186
3835.720, 0.1267897
3837.649, 0.1300634
3839.577, 0.1322258
3841.506, 0.1264913
3843.434, 0.1225142
3845.363, 0.1234530
3847.291, 0.1234788
3849.219, 0.1264483
3851.148, 0.1290418
3853.076, 0.1263497
3855.005, 0.1264903
3856.933, 0.1288466
3858.862, 0.1278489
3860.790, 0.1273188
3862.719, 0.1284431
3864.647, 0.1285495
3866.576, 0.1281133
3868.504, 0.1289177
3870.433, 0.1269796
3872.361, 0.1254208
3874.290, 0.1255069
3876.218, 0.1284186
3878.146, 0.1298634
3880.075, 0.1288255
3882.003, 0.1297423
3883.932, 0.1298416
3885.860, 0.1283929
3887.789, 0.1311103
3889.717, 0.1323191
3891.646, 0.1312232
3893.574, 0.1303774
3895.503, 0.1302797
3897.431, 0.1316118
3899.360, 0.1301517
3901.288, 0.1290548
3903.217, 0.1294046
3905.145, 0.1309579
3907.073, 0.1298636
3909.002, 0.1289490
3910.930, 0.1301405
3912.859, 0.1316146
3914.787, 0.1332019
3916.716, 0.1333701
3918.644, 0.1282846
3920.573, 0.1282208
3922.501, 0.1299326
3924.430, 0.1324082
3926.358, 0.1320620
3928.287, 0.1329387
3930.215, 0.1320512
3932.144, 0.1290085
3934.072, 0.1294052
3936.000, 0.1281982
3937.929, 0.1286361
3939.857, 0.1337067
3941.786, 0.1325240
3943.714, 0.1299700
3945.643, 0.1336483
3947.571, 0.1353117
3949.500, 0.1340870
3951.428, 0.1342027
3953.357, 0.1332047
3955.285, 0.1324712
3957.214, 0.1348473
3959.142, 0.1351521
3961.071, 0.1325084
3962.999, 0.1298233
3964.927, 0.1316185
3966.856, 0.1344608
3968.784, 0.1352278
3970.713, 0.1339008
3972.641, 0.1335263
3974.570, 0.1336530
3976.498, 0.1361031
3978.427, 0.1335792
3980.355, 0.1330060
3982.284, 0.1351579
3984.212, 0.1325811
3986.141, 0.1337590
3988.069, 0.1349982
3989.998, 0.1345740
3991.926, 0.1339826
3993.854, 0.1320608
3995.783, 0.1335814
3997.711, 0.1358051
3999.640, 0.1358707
##END=



