##NAMES=Zircon
##RRUFFID=R050034
##IDEAL CHEMISTRY=Zr^4+^SiO_4_
##LOCALITY=Oaxaca, Mexico
##OWNER=RRUFF
##SOURCE=University of Arizona Mineral Museum
##DESCRIPTION=Reddish brown single crystal fragments
##STATUS=The identification of this mineral has been confirmed by X-ray diffraction and chemical analysis
##URL=rruff.info/R050034
##MEASURED CHEMISTRY=Zr_1.00_Si_1.00_O_4_
3.991926e+002, 1.558582e-001
4.011211e+002, 1.370865e-001
4.030496e+002, 1.377455e-001
4.049780e+002, 1.325345e-001
4.069065e+002, 1.286993e-001
4.088350e+002, 1.217613e-001
4.107634e+002, 1.157698e-001
4.126919e+002, 1.154025e-001
4.146204e+002, 1.133837e-001
4.165488e+002, 1.124575e-001
4.184773e+002, 1.157125e-001
4.204058e+002, 1.197867e-001
4.223342e+002, 1.256056e-001
4.242627e+002, 1.341238e-001
4.261912e+002, 1.471230e-001
4.281196e+002, 1.608432e-001
4.300481e+002, 1.671941e-001
4.319766e+002, 1.645241e-001
4.339050e+002, 1.535659e-001
4.358335e+002, 1.396442e-001
4.377620e+002, 1.271099e-001
4.396904e+002, 1.187172e-001
4.416189e+002, 1.113249e-001
4.435474e+002, 1.036159e-001
4.454758e+002, 9.730167e-002
4.474043e+002, 9.106372e-002
4.493328e+002, 8.537734e-002
4.512612e+002, 8.148823e-002
4.531897e+002, 7.666870e-002
4.551182e+002, 7.047950e-002
4.570466e+002, 6.542701e-002
4.589751e+002, 6.112472e-002
4.609036e+002, 5.616707e-002
4.628320e+002, 5.203852e-002
4.647605e+002, 4.870507e-002
4.666890e+002, 4.526718e-002
4.686174e+002, 4.161217e-002
4.705459e+002, 3.819417e-002
4.724744e+002, 3.552914e-002
4.744028e+002, 3.391472e-002
4.763313e+002, 3.278365e-002
4.782598e+002, 3.157345e-002
4.801882e+002, 3.069425e-002
4.821167e+002, 2.997096e-002
4.840452e+002, 2.978762e-002
4.859736e+002, 2.964985e-002
4.879021e+002, 3.043483e-002
4.898306e+002, 3.124619e-002
4.917590e+002, 3.134111e-002
4.936875e+002, 3.210625e-002
4.956160e+002, 3.286403e-002
4.975444e+002, 3.327231e-002
4.994729e+002, 3.391810e-002
5.014014e+002, 3.473565e-002
5.033298e+002, 3.557341e-002
5.052583e+002, 3.592724e-002
5.071868e+002, 3.639000e-002
5.091152e+002, 3.748529e-002
5.110437e+002, 3.823275e-002
5.129722e+002, 3.866626e-002
5.149006e+002, 3.903186e-002
5.168291e+002, 3.936495e-002
5.187576e+002, 4.043679e-002
5.206860e+002, 4.154043e-002
5.226145e+002, 4.211900e-002
5.245430e+002, 4.278642e-002
5.264714e+002, 4.343607e-002
5.283999e+002, 4.399519e-002
5.303284e+002, 4.484964e-002
5.322568e+002, 4.524812e-002
5.341853e+002, 4.565584e-002
5.361138e+002, 4.598689e-002
5.380422e+002, 4.634606e-002
5.399707e+002, 4.726719e-002
5.418992e+002, 4.862829e-002
5.438276e+002, 4.952640e-002
5.457561e+002, 5.021187e-002
5.476846e+002, 5.091425e-002
5.496130e+002, 5.188830e-002
5.515415e+002, 5.252899e-002
5.534700e+002, 5.349797e-002
5.553984e+002, 5.463421e-002
5.573269e+002, 5.621790e-002
5.592554e+002, 5.824129e-002
5.611838e+002, 5.983477e-002
5.631123e+002, 6.162123e-002
5.650408e+002, 6.385421e-002
5.669692e+002, 6.612840e-002
5.688977e+002, 6.908540e-002
5.708262e+002, 7.209932e-002
5.727546e+002, 7.470446e-002
5.746831e+002, 7.730228e-002
5.766116e+002, 7.945988e-002
5.785400e+002, 8.192123e-002
5.804685e+002, 8.529366e-002
5.823970e+002, 8.907727e-002
5.843254e+002, 9.312011e-002
5.862539e+002, 9.749419e-002
5.881824e+002, 1.026758e-001
5.901108e+002, 1.086732e-001
5.920393e+002, 1.144892e-001
5.939678e+002, 1.204287e-001
5.958962e+002, 1.269982e-001
5.978247e+002, 1.343712e-001
5.997532e+002, 1.424245e-001
6.016816e+002, 1.500885e-001
6.036101e+002, 1.572680e-001
6.055386e+002, 1.635696e-001
6.074670e+002, 1.675942e-001
6.093955e+002, 1.683507e-001
6.113240e+002, 1.659323e-001
6.132524e+002, 1.613693e-001
6.151809e+002, 1.556074e-001
6.171094e+002, 1.486236e-001
6.190378e+002, 1.407142e-001
6.209663e+002, 1.325963e-001
6.228948e+002, 1.244018e-001
6.248232e+002, 1.164577e-001
6.267517e+002, 1.092927e-001
6.286802e+002, 1.027001e-001
6.306086e+002, 9.637780e-002
6.325371e+002, 9.077398e-002
6.344656e+002, 8.596606e-002
6.363940e+002, 8.187291e-002
6.383225e+002, 7.852162e-002
6.402510e+002, 7.598680e-002
6.421794e+002, 7.412320e-002
6.441079e+002, 7.267799e-002
6.460364e+002, 7.190572e-002
6.479648e+002, 7.145976e-002
6.498933e+002, 7.092255e-002
6.518218e+002, 7.040031e-002
6.537502e+002, 7.024574e-002
6.556787e+002, 7.019540e-002
6.576072e+002, 7.013167e-002
6.595356e+002, 7.038961e-002
6.614641e+002, 7.101071e-002
6.633926e+002, 7.154006e-002
6.653210e+002, 7.227300e-002
6.672495e+002, 7.314549e-002
6.691780e+002, 7.377946e-002
6.711064e+002, 7.453987e-002
6.730349e+002, 7.537084e-002
6.749634e+002, 7.658444e-002
6.768918e+002, 7.817984e-002
6.788203e+002, 7.928365e-002
6.807488e+002, 8.007935e-002
6.826772e+002, 8.122915e-002
6.846057e+002, 8.298664e-002
6.865342e+002, 8.423091e-002
6.884626e+002, 8.494438e-002
6.903911e+002, 8.615002e-002
6.923196e+002, 8.747388e-002
6.942480e+002, 8.843487e-002
6.961765e+002, 8.926678e-002
6.981050e+002, 8.987569e-002
7.000334e+002, 9.055311e-002
7.019619e+002, 9.134249e-002
7.038904e+002, 9.229318e-002
7.058188e+002, 9.387270e-002
7.077473e+002, 9.538796e-002
7.096758e+002, 9.712262e-002
7.116042e+002, 9.888409e-002
7.135327e+002, 1.005291e-001
7.154612e+002, 1.022436e-001
7.173896e+002, 1.038048e-001
7.193181e+002, 1.052569e-001
7.212466e+002, 1.070984e-001
7.231750e+002, 1.089892e-001
7.251035e+002, 1.107796e-001
7.270320e+002, 1.125146e-001
7.289604e+002, 1.141901e-001
7.308889e+002, 1.159771e-001
7.328174e+002, 1.178013e-001
7.347458e+002, 1.196208e-001
7.366743e+002, 1.215253e-001
7.386028e+002, 1.236592e-001
7.405313e+002, 1.258873e-001
7.424597e+002, 1.282076e-001
7.443882e+002, 1.301053e-001
7.463167e+002, 1.320360e-001
7.482451e+002, 1.341270e-001
7.501736e+002, 1.364438e-001
7.521021e+002, 1.388211e-001
7.540305e+002, 1.414240e-001
7.559590e+002, 1.442465e-001
7.578875e+002, 1.472537e-001
7.598159e+002, 1.502332e-001
7.617444e+002, 1.534303e-001
7.636729e+002, 1.568307e-001
7.656013e+002, 1.600241e-001
7.675298e+002, 1.631090e-001
7.694583e+002, 1.661440e-001
7.713867e+002, 1.694137e-001
7.733152e+002, 1.725607e-001
7.752437e+002, 1.753842e-001
7.771721e+002, 1.782672e-001
7.791006e+002, 1.814007e-001
7.810291e+002, 1.844747e-001
7.829575e+002, 1.870927e-001
7.848860e+002, 1.892927e-001
7.868145e+002, 1.913106e-001
7.887429e+002, 1.926801e-001
7.906714e+002, 1.931690e-001
7.925999e+002, 1.931267e-001
7.945283e+002, 1.928540e-001
7.964568e+002, 1.923955e-001
7.983853e+002, 1.920202e-001
8.003137e+002, 1.924054e-001
8.022422e+002, 1.939319e-001
8.041707e+002, 1.967372e-001
8.060991e+002, 2.002856e-001
8.080276e+002, 2.039695e-001
8.099561e+002, 2.076416e-001
8.118845e+002, 2.115597e-001
8.138130e+002, 2.156628e-001
8.157415e+002, 2.192471e-001
8.176699e+002, 2.227172e-001
8.195984e+002, 2.264112e-001
8.215269e+002, 2.299813e-001
8.234553e+002, 2.335267e-001
8.253838e+002, 2.373711e-001
8.273123e+002, 2.411690e-001
8.292407e+002, 2.449020e-001
8.311692e+002, 2.486884e-001
8.330977e+002, 2.522267e-001
8.350261e+002, 2.560921e-001
8.369546e+002, 2.599952e-001
8.388831e+002, 2.638037e-001
8.408115e+002, 2.673109e-001
8.427400e+002, 2.703997e-001
8.446685e+002, 2.734779e-001
8.465969e+002, 2.766197e-001
8.485254e+002, 2.793408e-001
8.504539e+002, 2.816633e-001
8.523823e+002, 2.836407e-001
8.543108e+002, 2.855311e-001
8.562393e+002, 2.873044e-001
8.581677e+002, 2.885236e-001
8.600962e+002, 2.897191e-001
8.620247e+002, 2.910467e-001
8.639531e+002, 2.923961e-001
8.658816e+002, 2.935394e-001
8.678101e+002, 2.944041e-001
8.697385e+002, 2.950245e-001
8.716670e+002, 2.950172e-001
8.735955e+002, 2.944377e-001
8.755239e+002, 2.931900e-001
8.774524e+002, 2.913142e-001
8.793809e+002, 2.893219e-001
8.813093e+002, 2.873880e-001
8.832378e+002, 2.854116e-001
8.851663e+002, 2.829359e-001
8.870947e+002, 2.801468e-001
8.890232e+002, 2.774113e-001
8.909517e+002, 2.749240e-001
8.928801e+002, 2.721753e-001
8.948085e+002, 2.693085e-001
8.967370e+002, 2.667321e-001
8.986655e+002, 2.638795e-001
9.005939e+002, 2.609318e-001
9.025224e+002, 2.582230e-001
9.044509e+002, 2.552633e-001
9.063793e+002, 2.520407e-001
9.083078e+002, 2.490685e-001
9.102363e+002, 2.462139e-001
9.121647e+002, 2.430400e-001
9.140932e+002, 2.400960e-001
9.160217e+002, 2.377762e-001
9.179501e+002, 2.353764e-001
9.198786e+002, 2.325852e-001
9.218071e+002, 2.298538e-001
9.237355e+002, 2.271904e-001
9.256640e+002, 2.244941e-001
9.275925e+002, 2.216894e-001
9.295209e+002, 2.187347e-001
9.314494e+002, 2.158440e-001
9.333779e+002, 2.128688e-001
9.353063e+002, 2.099955e-001
9.372348e+002, 2.072248e-001
9.391633e+002, 2.046510e-001
9.410917e+002, 2.025250e-001
9.430202e+002, 2.006336e-001
9.449487e+002, 1.988422e-001
9.468771e+002, 1.971578e-001
9.488056e+002, 1.955083e-001
9.507341e+002, 1.936230e-001
9.526625e+002, 1.915706e-001
9.545910e+002, 1.896735e-001
9.565195e+002, 1.877676e-001
9.584479e+002, 1.860721e-001
9.603764e+002, 1.840803e-001
9.623049e+002, 1.822731e-001
9.642333e+002, 1.807877e-001
9.661618e+002, 1.791558e-001
9.680903e+002, 1.776799e-001
9.700187e+002, 1.759855e-001
9.719472e+002, 1.737132e-001
9.738757e+002, 1.715471e-001
9.758041e+002, 1.693630e-001
9.777326e+002, 1.667501e-001
9.796611e+002, 1.639802e-001
9.815895e+002, 1.610985e-001
9.835180e+002, 1.582128e-001
9.854465e+002, 1.553901e-001
9.873749e+002, 1.525439e-001
9.893034e+002, 1.495012e-001
9.912319e+002, 1.464848e-001
9.931603e+002, 1.433583e-001
9.950888e+002, 1.400900e-001
9.970173e+002, 1.368892e-001
9.989457e+002, 1.337099e-001
1.000874e+003, 1.306853e-001
1.002803e+003, 1.276425e-001
1.004731e+003, 1.245439e-001
1.006660e+003, 1.213323e-001
1.008588e+003, 1.180886e-001
1.010517e+003, 1.147857e-001
1.012445e+003, 1.111886e-001
1.014373e+003, 1.074942e-001
1.016302e+003, 1.039549e-001
1.018230e+003, 1.000902e-001
1.020159e+003, 9.646466e-002
1.022087e+003, 9.314018e-002
1.024016e+003, 8.992201e-002
1.025944e+003, 8.690716e-002
1.027873e+003, 8.429241e-002
1.029801e+003, 8.207798e-002
1.031730e+003, 8.022500e-002
1.033658e+003, 7.867350e-002
1.035587e+003, 7.739538e-002
1.037515e+003, 7.602606e-002
1.039444e+003, 7.456561e-002
1.041372e+003, 7.312626e-002
1.043301e+003, 7.175263e-002
1.045229e+003, 7.026560e-002
1.047157e+003, 6.847463e-002
1.049086e+003, 6.654219e-002
1.051014e+003, 6.463283e-002
1.052943e+003, 6.299566e-002
1.054871e+003, 6.116352e-002
1.056800e+003, 5.901773e-002
1.058728e+003, 5.700509e-002
1.060657e+003, 5.497981e-002
1.062585e+003, 5.296060e-002
1.064514e+003, 5.109047e-002
1.066442e+003, 4.921648e-002
1.068371e+003, 4.725549e-002
1.070299e+003, 4.534600e-002
1.072228e+003, 4.351522e-002
1.074156e+003, 4.161496e-002
1.076084e+003, 3.976284e-002
1.078013e+003, 3.785501e-002
1.079941e+003, 3.603937e-002
1.081870e+003, 3.442654e-002
1.083798e+003, 3.290797e-002
1.085727e+003, 3.153086e-002
1.087655e+003, 3.019637e-002
1.089584e+003, 2.897975e-002
1.091512e+003, 2.789269e-002
1.093441e+003, 2.679709e-002
1.095369e+003, 2.562027e-002
1.097298e+003, 2.468181e-002
1.099226e+003, 2.387936e-002
1.101155e+003, 2.297968e-002
1.103083e+003, 2.219822e-002
1.105011e+003, 2.151233e-002
1.106940e+003, 2.101771e-002
1.108868e+003, 2.061122e-002
1.110797e+003, 2.018753e-002
1.112725e+003, 1.963671e-002
1.114654e+003, 1.915713e-002
1.116582e+003, 1.875034e-002
1.118511e+003, 1.835205e-002
1.120439e+003, 1.788433e-002
1.122368e+003, 1.746529e-002
1.124296e+003, 1.715836e-002
1.126225e+003, 1.688903e-002
1.128153e+003, 1.643868e-002
1.130082e+003, 1.593357e-002
1.132010e+003, 1.554682e-002
1.133938e+003, 1.512014e-002
1.135867e+003, 1.476866e-002
1.137795e+003, 1.426607e-002
1.139724e+003, 1.370946e-002
1.141652e+003, 1.344222e-002
1.143581e+003, 1.339675e-002
1.145509e+003, 1.324529e-002
1.147438e+003, 1.304366e-002
1.149366e+003, 1.318846e-002
1.151295e+003, 1.328417e-002
1.153223e+003, 1.307015e-002
1.155152e+003, 1.287585e-002
1.157080e+003, 1.259764e-002
1.159009e+003, 1.218474e-002
1.160937e+003, 1.176191e-002
1.162865e+003, 1.136317e-002
1.164794e+003, 1.094478e-002
1.166722e+003, 1.047645e-002
1.168651e+003, 1.013699e-002
1.170579e+003, 9.762998e-003
1.172508e+003, 9.320029e-003
1.174436e+003, 9.020363e-003
1.176365e+003, 8.787873e-003
1.178293e+003, 8.501326e-003
1.180222e+003, 8.210830e-003
1.182150e+003, 8.204003e-003
1.184079e+003, 7.942297e-003
1.186007e+003, 7.670246e-003
1.187936e+003, 7.628391e-003
1.189864e+003, 7.559671e-003
1.191792e+003, 7.435639e-003
1.193721e+003, 7.267392e-003
1.195649e+003, 7.192211e-003
1.197578e+003, 7.280134e-003
1.199506e+003, 7.287363e-003
1.201435e+003, 7.209782e-003
1.203363e+003, 6.961387e-003
1.205292e+003, 6.670398e-003
1.207220e+003, 6.537246e-003
1.209149e+003, 6.589551e-003
1.211077e+003, 6.664693e-003
1.213006e+003, 6.557512e-003
1.214934e+003, 6.511399e-003
1.216863e+003, 6.447160e-003
1.218791e+003, 6.466982e-003
1.220719e+003, 6.577869e-003
1.222648e+003, 6.502479e-003
1.224576e+003, 6.166286e-003
1.226505e+003, 5.923057e-003
1.228433e+003, 6.001493e-003
1.230362e+003, 6.204934e-003
1.232290e+003, 6.299978e-003
1.234219e+003, 6.004879e-003
1.236147e+003, 5.787207e-003
1.238076e+003, 5.855371e-003
1.240004e+003, 5.901967e-003
1.241933e+003, 5.909353e-003
1.243861e+003, 5.887732e-003
1.245790e+003, 5.911927e-003
1.247718e+003, 6.025164e-003
1.249646e+003, 6.148799e-003
1.251575e+003, 6.210686e-003
1.253503e+003, 6.135156e-003
1.255432e+003, 6.130279e-003
1.257360e+003, 6.265383e-003
1.259289e+003, 6.342327e-003
1.261217e+003, 6.296828e-003
1.263146e+003, 6.329748e-003
1.265074e+003, 6.334854e-003
1.267003e+003, 6.327659e-003
1.268931e+003, 6.585158e-003
1.270860e+003, 6.958233e-003
1.272788e+003, 6.957554e-003
1.274717e+003, 6.787674e-003
1.276645e+003, 6.841934e-003
1.278573e+003, 6.882461e-003
1.280502e+003, 6.830823e-003
1.282430e+003, 6.918687e-003
1.284359e+003, 6.993102e-003
1.286287e+003, 7.002754e-003
1.288216e+003, 7.009684e-003
1.290144e+003, 7.118970e-003
1.292073e+003, 7.103314e-003
1.294001e+003, 7.038780e-003
1.295930e+003, 7.194266e-003
1.297858e+003, 7.238569e-003
1.299787e+003, 7.195632e-003
1.301715e+003, 7.222328e-003
1.303644e+003, 7.346601e-003
1.305572e+003, 7.417460e-003
1.307500e+003, 7.518900e-003
1.309429e+003, 7.660339e-003
1.311357e+003, 7.729374e-003
1.313286e+003, 7.753586e-003
1.315214e+003, 7.852403e-003
1.317143e+003, 7.876804e-003
1.319071e+003, 7.744265e-003
1.321000e+003, 7.684659e-003
1.322928e+003, 7.898479e-003
1.324857e+003, 8.035569e-003
1.326785e+003, 8.016394e-003
1.328714e+003, 7.960318e-003
1.330642e+003, 8.002035e-003
1.332571e+003, 8.206526e-003
1.334499e+003, 8.341867e-003
1.336427e+003, 8.296135e-003
1.338356e+003, 8.330735e-003
1.340284e+003, 8.357122e-003
1.342213e+003, 8.550199e-003
1.344141e+003, 8.848805e-003
1.346070e+003, 8.760862e-003
1.347998e+003, 8.674252e-003
1.349927e+003, 8.805888e-003
1.351855e+003, 9.091035e-003
1.353784e+003, 9.327756e-003
1.355712e+003, 9.248146e-003
1.357641e+003, 9.307725e-003
1.359569e+003, 9.307444e-003
1.361498e+003, 9.348255e-003
1.363426e+003, 9.544572e-003
1.365354e+003, 9.708080e-003
1.367283e+003, 9.768633e-003
1.369211e+003, 9.674706e-003
1.371140e+003, 9.684588e-003
1.373068e+003, 9.819617e-003
1.374997e+003, 9.985405e-003
1.376925e+003, 1.029827e-002
1.378854e+003, 1.040087e-002
1.380782e+003, 1.048600e-002
1.382711e+003, 1.058929e-002
1.384639e+003, 1.079388e-002
1.386568e+003, 1.105279e-002
1.388496e+003, 1.121301e-002
1.390424e+003, 1.138248e-002
1.392353e+003, 1.157805e-002
1.394281e+003, 1.169874e-002
1.396210e+003, 1.200573e-002
1.398138e+003, 1.250974e-002
1.400067e+003, 1.266173e-002
1.401995e+003, 1.273703e-002
1.403924e+003, 1.296618e-002
1.405852e+003, 1.315853e-002
1.407781e+003, 1.341054e-002
1.409709e+003, 1.368820e-002
1.411638e+003, 1.394872e-002
1.413566e+003, 1.420832e-002
1.415495e+003, 1.440621e-002
1.417423e+003, 1.474771e-002
1.419351e+003, 1.501529e-002
1.421280e+003, 1.514712e-002
1.423208e+003, 1.540566e-002
1.425137e+003, 1.561115e-002
1.427065e+003, 1.560921e-002
1.428994e+003, 1.573224e-002
1.430922e+003, 1.582187e-002
1.432851e+003, 1.584945e-002
1.434779e+003, 1.600290e-002
1.436708e+003, 1.626226e-002
1.438636e+003, 1.628297e-002
1.440565e+003, 1.623548e-002
1.442493e+003, 1.637344e-002
1.444422e+003, 1.643786e-002
1.446350e+003, 1.648712e-002
1.448278e+003, 1.662268e-002
1.450207e+003, 1.672136e-002
1.452135e+003, 1.664179e-002
1.454064e+003, 1.641049e-002
1.455992e+003, 1.638432e-002
1.457921e+003, 1.644196e-002
1.459849e+003, 1.654503e-002
1.461778e+003, 1.658599e-002
1.463706e+003, 1.632069e-002
1.465635e+003, 1.606657e-002
1.467563e+003, 1.595652e-002
1.469492e+003, 1.592066e-002
1.471420e+003, 1.591661e-002
1.473349e+003, 1.570802e-002
1.475277e+003, 1.548895e-002
1.477205e+003, 1.527475e-002
1.479134e+003, 1.520894e-002
1.481062e+003, 1.516498e-002
1.482991e+003, 1.514911e-002
1.484919e+003, 1.524313e-002
1.486848e+003, 1.531544e-002
1.488776e+003, 1.509307e-002
1.490705e+003, 1.482043e-002
1.492633e+003, 1.488839e-002
1.494562e+003, 1.479163e-002
1.496490e+003, 1.462757e-002
1.498419e+003, 1.450003e-002
1.500347e+003, 1.449986e-002
1.502276e+003, 1.462138e-002
1.504204e+003, 1.469124e-002
1.506132e+003, 1.468400e-002
1.508061e+003, 1.448136e-002
1.509989e+003, 1.433627e-002
1.511918e+003, 1.441098e-002
1.513846e+003, 1.451570e-002
1.515775e+003, 1.455068e-002
1.517703e+003, 1.463569e-002
1.519632e+003, 1.467551e-002
1.521560e+003, 1.466399e-002
1.523489e+003, 1.465561e-002
1.525417e+003, 1.462273e-002
1.527346e+003, 1.482441e-002
1.529274e+003, 1.481684e-002
1.531203e+003, 1.464105e-002
1.533131e+003, 1.486967e-002
1.535059e+003, 1.499783e-002
1.536988e+003, 1.503547e-002
1.538916e+003, 1.506573e-002
1.540845e+003, 1.509550e-002
1.542773e+003, 1.531905e-002
1.544702e+003, 1.552682e-002
1.546630e+003, 1.550684e-002
1.548559e+003, 1.544614e-002
1.550487e+003, 1.559646e-002
1.552416e+003, 1.564013e-002
1.554344e+003, 1.558870e-002
1.556273e+003, 1.565367e-002
1.558201e+003, 1.589635e-002
1.560130e+003, 1.615679e-002
1.562058e+003, 1.615625e-002
1.563986e+003, 1.603260e-002
1.565915e+003, 1.605524e-002
1.567843e+003, 1.621657e-002
1.569772e+003, 1.636604e-002
1.571700e+003, 1.632776e-002
1.573629e+003, 1.626239e-002
1.575557e+003, 1.639392e-002
1.577486e+003, 1.657367e-002
1.579414e+003, 1.662835e-002
1.581343e+003, 1.687592e-002
1.583271e+003, 1.722778e-002
1.585200e+003, 1.720850e-002
1.587128e+003, 1.706648e-002
1.589057e+003, 1.708861e-002
1.590985e+003, 1.717623e-002
1.592913e+003, 1.721137e-002
1.594842e+003, 1.720961e-002
1.596770e+003, 1.704122e-002
1.598699e+003, 1.703606e-002
1.600627e+003, 1.708665e-002
1.602556e+003, 1.719262e-002
1.604484e+003, 1.720211e-002
1.606413e+003, 1.718919e-002
1.608341e+003, 1.712091e-002
1.610270e+003, 1.721921e-002
1.612198e+003, 1.736641e-002
1.614127e+003, 1.736184e-002
1.616055e+003, 1.732926e-002
1.617984e+003, 1.722841e-002
1.619912e+003, 1.720335e-002
1.621840e+003, 1.741227e-002
1.623769e+003, 1.746285e-002
1.625697e+003, 1.734109e-002
1.627626e+003, 1.744366e-002
1.629554e+003, 1.755888e-002
1.631483e+003, 1.742279e-002
1.633411e+003, 1.730059e-002
1.635340e+003, 1.726648e-002
1.637268e+003, 1.715965e-002
1.639197e+003, 1.733391e-002
1.641125e+003, 1.755969e-002
1.643054e+003, 1.753017e-002
1.644982e+003, 1.749260e-002
1.646911e+003, 1.755237e-002
1.648839e+003, 1.759101e-002
1.650767e+003, 1.780610e-002
1.652696e+003, 1.780852e-002
1.654624e+003, 1.743892e-002
1.656553e+003, 1.733898e-002
1.658481e+003, 1.737243e-002
1.660410e+003, 1.739937e-002
1.662338e+003, 1.760658e-002
1.664267e+003, 1.767080e-002
1.666195e+003, 1.748387e-002
1.668124e+003, 1.738832e-002
1.670052e+003, 1.743660e-002
1.671981e+003, 1.740021e-002
1.673909e+003, 1.738891e-002
1.675838e+003, 1.743191e-002
1.677766e+003, 1.757483e-002
1.679694e+003, 1.782898e-002
1.681623e+003, 1.772982e-002
1.683551e+003, 1.766749e-002
1.685480e+003, 1.786367e-002
1.687408e+003, 1.779800e-002
1.689337e+003, 1.775440e-002
1.691265e+003, 1.783254e-002
1.693194e+003, 1.778892e-002
1.695122e+003, 1.765376e-002
1.697051e+003, 1.761111e-002
1.698979e+003, 1.774661e-002
1.700908e+003, 1.756787e-002
1.702836e+003, 1.743370e-002
1.704765e+003, 1.731608e-002
1.706693e+003, 1.727681e-002
1.708621e+003, 1.728102e-002
1.710550e+003, 1.715451e-002
1.712478e+003, 1.724980e-002
1.714407e+003, 1.750566e-002
1.716335e+003, 1.767351e-002
1.718264e+003, 1.782290e-002
1.720192e+003, 1.781536e-002
1.722121e+003, 1.775125e-002
1.724049e+003, 1.793121e-002
1.725978e+003, 1.828330e-002
1.727906e+003, 1.835863e-002
1.729835e+003, 1.810355e-002
1.731763e+003, 1.822013e-002
1.733692e+003, 1.857253e-002
1.735620e+003, 1.832780e-002
1.737548e+003, 1.811681e-002
1.739477e+003, 1.828664e-002
1.741405e+003, 1.834342e-002
1.743334e+003, 1.836855e-002
1.745262e+003, 1.855430e-002
1.747191e+003, 1.876174e-002
1.749119e+003, 1.885246e-002
1.751048e+003, 1.875871e-002
1.752976e+003, 1.862503e-002
1.754905e+003, 1.873516e-002
1.756833e+003, 1.887293e-002
1.758762e+003, 1.892191e-002
1.760690e+003, 1.889288e-002
1.762619e+003, 1.879614e-002
1.764547e+003, 1.889719e-002
1.766475e+003, 1.912532e-002
1.768404e+003, 1.942514e-002
1.770332e+003, 1.961874e-002
1.772261e+003, 1.964388e-002
1.774189e+003, 1.967562e-002
1.776118e+003, 1.973726e-002
1.778046e+003, 2.003026e-002
1.779975e+003, 2.047228e-002
1.781903e+003, 2.047021e-002
1.783832e+003, 2.072043e-002
1.785760e+003, 2.097467e-002
1.787689e+003, 2.083831e-002
1.789617e+003, 2.068962e-002
1.791546e+003, 2.059477e-002
1.793474e+003, 2.082859e-002
1.795402e+003, 2.094614e-002
1.797331e+003, 2.078395e-002
1.799259e+003, 2.084282e-002
1.801188e+003, 2.075815e-002
1.803116e+003, 2.051632e-002
1.805045e+003, 2.064388e-002
1.806973e+003, 2.063325e-002
1.808902e+003, 2.043878e-002
1.810830e+003, 2.060295e-002
1.812759e+003, 2.066561e-002
1.814687e+003, 2.035321e-002
1.816616e+003, 2.050410e-002
1.818544e+003, 2.102030e-002
1.820473e+003, 2.142442e-002
1.822401e+003, 2.128155e-002
1.824329e+003, 2.114816e-002
1.826258e+003, 2.133515e-002
1.828186e+003, 2.137644e-002
1.830115e+003, 2.116056e-002
1.832043e+003, 2.092017e-002
1.833972e+003, 2.085106e-002
1.835900e+003, 2.071823e-002
1.837829e+003, 2.065057e-002
1.839757e+003, 2.099114e-002
1.841686e+003, 2.124770e-002
1.843614e+003, 2.132562e-002
1.845543e+003, 2.155404e-002
1.847471e+003, 2.148064e-002
1.849400e+003, 2.139772e-002
1.851328e+003, 2.152227e-002
1.853256e+003, 2.168253e-002
1.855185e+003, 2.181431e-002
1.857113e+003, 2.137991e-002
1.859042e+003, 2.104933e-002
1.860970e+003, 2.117307e-002
1.862899e+003, 2.145294e-002
1.864827e+003, 2.121399e-002
1.866756e+003, 2.187669e-002
1.868684e+003, 2.251632e-002
1.870613e+003, 2.191555e-002
1.872541e+003, 2.190832e-002
1.874470e+003, 2.240704e-002
1.876398e+003, 2.232144e-002
1.878327e+003, 2.241086e-002
1.880255e+003, 2.239068e-002
1.882183e+003, 2.171715e-002
1.884112e+003, 2.181872e-002
1.886040e+003, 2.198650e-002
1.887969e+003, 2.216018e-002
1.889897e+003, 2.239583e-002
1.891826e+003, 2.224914e-002
1.893754e+003, 2.151747e-002
1.895683e+003, 2.146135e-002
1.897611e+003, 2.245715e-002
1.899540e+003, 2.276508e-002
1.901468e+003, 2.236992e-002
1.903397e+003, 2.236629e-002
1.905325e+003, 2.247902e-002
1.907254e+003, 2.275335e-002
1.909182e+003, 2.263107e-002
1.911110e+003, 2.241365e-002
1.913039e+003, 2.252123e-002
1.914967e+003, 2.248633e-002
1.916896e+003, 2.203379e-002
1.918824e+003, 2.160743e-002
1.920753e+003, 2.200358e-002
1.922681e+003, 2.229761e-002
1.924610e+003, 2.184691e-002
1.926538e+003, 2.258301e-002
1.928467e+003, 2.297610e-002
1.930395e+003, 2.322015e-002
1.932324e+003, 2.274762e-002
1.934252e+003, 2.180261e-002
1.936181e+003, 2.191607e-002
1.938109e+003, 2.236170e-002
1.940037e+003, 2.224039e-002
1.941966e+003, 2.197769e-002
1.943894e+003, 2.146965e-002
1.945823e+003, 1.982341e-002
1.947751e+003, 1.955327e-002
1.949680e+003, 2.117440e-002
1.951608e+003, 2.182981e-002
1.953537e+003, 2.127486e-002
1.955465e+003, 2.057628e-002
1.957394e+003, 2.091689e-002
1.959322e+003, 2.124756e-002
1.961251e+003, 2.177944e-002
1.963179e+003, 2.182187e-002
1.965108e+003, 2.243488e-002
1.967036e+003, 2.231009e-002
1.968964e+003, 2.162524e-002
1.970893e+003, 2.068591e-002
1.972821e+003, 2.018354e-002
1.974750e+003, 2.084488e-002
1.976678e+003, 2.230499e-002
1.978607e+003, 2.537476e-002
1.980535e+003, 2.597763e-002
1.982464e+003, 2.557560e-002
1.984392e+003, 2.558437e-002
1.986321e+003, 2.375086e-002
1.988249e+003, 2.301027e-002
1.990178e+003, 2.281043e-002
1.992106e+003, 2.219110e-002
1.994035e+003, 2.241436e-002
1.995963e+003, 2.290074e-002
1.997891e+003, 2.351656e-002
1.999820e+003, 2.409114e-002
2.001748e+003, 2.411864e-002
2.003677e+003, 2.350601e-002
2.005605e+003, 2.276510e-002
2.007534e+003, 2.298653e-002
2.009462e+003, 2.300543e-002
2.011391e+003, 2.375457e-002
2.013319e+003, 2.371836e-002
2.015248e+003, 2.326250e-002
2.017176e+003, 2.198607e-002
2.019105e+003, 2.134545e-002
2.021033e+003, 2.213730e-002
2.022962e+003, 2.415038e-002
2.024890e+003, 2.482256e-002
2.026818e+003, 2.612793e-002
2.028747e+003, 2.615932e-002
2.030675e+003, 2.485074e-002
2.032604e+003, 2.552065e-002
2.034532e+003, 2.584998e-002
2.036461e+003, 2.511738e-002
2.038389e+003, 2.523031e-002
2.040318e+003, 2.458849e-002
2.042246e+003, 2.499908e-002
2.044175e+003, 2.637589e-002
2.046103e+003, 2.677065e-002
2.048032e+003, 2.708019e-002
2.049960e+003, 2.699859e-002
2.051889e+003, 2.719261e-002
2.053817e+003, 2.791245e-002
2.055746e+003, 2.708576e-002
2.057674e+003, 2.670144e-002
2.059603e+003, 2.687043e-002
2.061531e+003, 2.655203e-002
2.063459e+003, 2.659243e-002
2.065388e+003, 2.621588e-002
2.067316e+003, 2.573304e-002
2.069245e+003, 2.660631e-002
2.071173e+003, 2.761885e-002
2.073102e+003, 2.751281e-002
2.075030e+003, 2.850582e-002
2.076959e+003, 2.940806e-002
2.078887e+003, 2.915374e-002
2.080816e+003, 2.833110e-002
2.082744e+003, 2.813782e-002
2.084673e+003, 2.822421e-002
2.086601e+003, 2.789998e-002
2.088530e+003, 2.781207e-002
2.090458e+003, 2.738821e-002
2.092386e+003, 2.673750e-002
2.094315e+003, 2.774839e-002
2.096243e+003, 2.881142e-002
2.098172e+003, 2.927859e-002
2.100100e+003, 2.898256e-002
2.102029e+003, 2.843964e-002
2.103957e+003, 2.853069e-002
2.105886e+003, 2.886248e-002
2.107814e+003, 2.964091e-002
2.109743e+003, 2.984890e-002
2.111671e+003, 2.973865e-002
2.113600e+003, 2.888527e-002
2.115528e+003, 2.846335e-002
2.117457e+003, 2.888110e-002
2.119385e+003, 2.911650e-002
2.121313e+003, 2.887250e-002
2.123242e+003, 2.883647e-002
2.125170e+003, 2.877922e-002
2.127099e+003, 2.883036e-002
2.129027e+003, 2.832065e-002
2.130956e+003, 2.763212e-002
2.132884e+003, 2.786321e-002
2.134813e+003, 2.813033e-002
2.136741e+003, 2.751953e-002
2.138670e+003, 2.789850e-002
2.140598e+003, 2.798440e-002
2.142527e+003, 2.826464e-002
2.144455e+003, 2.887125e-002
2.146384e+003, 2.832895e-002
2.148312e+003, 2.818928e-002
2.150240e+003, 2.757372e-002
2.152169e+003, 2.640511e-002
2.154097e+003, 2.530533e-002
2.156026e+003, 2.529669e-002
2.157954e+003, 2.837217e-002
2.159883e+003, 3.391851e-002
2.161811e+003, 3.452464e-002
2.163740e+003, 3.340214e-002
2.165668e+003, 3.234681e-002
2.167597e+003, 3.123712e-002
2.169525e+003, 3.002751e-002
2.171454e+003, 3.143536e-002
2.173382e+003, 3.328874e-002
2.175311e+003, 3.260301e-002
2.177239e+003, 3.190750e-002
2.179167e+003, 3.045281e-002
2.181096e+003, 3.155014e-002
2.183024e+003, 3.208681e-002
2.184953e+003, 3.217470e-002
2.186881e+003, 3.287304e-002
2.188810e+003, 3.236405e-002
2.190738e+003, 3.250706e-002
2.192667e+003, 3.462644e-002
2.194595e+003, 3.483339e-002
2.196524e+003, 3.371451e-002
2.198452e+003, 3.332165e-002
2.200381e+003, 3.299457e-002
2.202309e+003, 3.303868e-002
2.204238e+003, 3.310929e-002
2.206166e+003, 3.292654e-002
2.208094e+003, 3.320621e-002
2.210023e+003, 3.287538e-002
2.211951e+003, 3.266929e-002
2.213880e+003, 3.342012e-002
2.215808e+003, 3.435024e-002
2.217737e+003, 3.434620e-002
2.219665e+003, 3.509385e-002
2.221594e+003, 3.598693e-002
2.223522e+003, 3.579773e-002
2.225451e+003, 3.578672e-002
2.227379e+003, 3.550419e-002
2.229308e+003, 3.401680e-002
2.231236e+003, 3.361196e-002
2.233165e+003, 3.556002e-002
2.235093e+003, 3.572894e-002
2.237021e+003, 3.529178e-002
2.238950e+003, 3.502644e-002
2.240878e+003, 3.399569e-002
2.242807e+003, 3.407983e-002
2.244735e+003, 3.479016e-002
2.246664e+003, 3.467252e-002
2.248592e+003, 3.433609e-002
2.250521e+003, 3.396540e-002
2.252449e+003, 3.378129e-002
2.254378e+003, 3.520800e-002
2.256306e+003, 3.550501e-002
2.258235e+003, 3.527179e-002
2.260163e+003, 3.554101e-002
2.262092e+003, 3.564506e-002
2.264020e+003, 3.524666e-002
2.265948e+003, 3.554113e-002
2.267877e+003, 3.597738e-002
2.269805e+003, 3.555965e-002
2.271734e+003, 3.480660e-002
2.273662e+003, 3.563698e-002
2.275591e+003, 3.690150e-002
2.277519e+003, 3.707432e-002
2.279448e+003, 3.702036e-002
2.281376e+003, 3.714252e-002
2.283305e+003, 3.704373e-002
2.285233e+003, 3.688523e-002
2.287162e+003, 3.637675e-002
2.289090e+003, 3.655297e-002
2.291019e+003, 3.674603e-002
2.292947e+003, 3.661734e-002
2.294875e+003, 3.669759e-002
2.296804e+003, 3.716502e-002
2.298732e+003, 3.675853e-002
2.300661e+003, 3.658861e-002
2.302589e+003, 3.654635e-002
2.304518e+003, 3.593790e-002
2.306446e+003, 3.590062e-002
2.308375e+003, 3.680309e-002
2.310303e+003, 3.743992e-002
2.312232e+003, 3.730400e-002
2.314160e+003, 3.746613e-002
2.316089e+003, 3.777413e-002
2.318017e+003, 3.777270e-002
2.319946e+003, 3.789463e-002
2.321874e+003, 3.828903e-002
2.323802e+003, 3.832710e-002
2.325731e+003, 3.707478e-002
2.327659e+003, 3.640480e-002
2.329588e+003, 3.670022e-002
2.331516e+003, 3.657283e-002
2.333445e+003, 3.650183e-002
2.335373e+003, 3.657915e-002
2.337302e+003, 3.651180e-002
2.339230e+003, 3.631147e-002
2.341159e+003, 3.592337e-002
2.343087e+003, 3.600864e-002
2.345016e+003, 3.665331e-002
2.346944e+003, 3.709453e-002
2.348873e+003, 3.688861e-002
2.350801e+003, 3.626183e-002
2.352729e+003, 3.598307e-002
2.354658e+003, 3.620638e-002
2.356586e+003, 3.674999e-002
2.358515e+003, 3.676726e-002
2.360443e+003, 3.670345e-002
2.362372e+003, 3.674167e-002
2.364300e+003, 3.629352e-002
2.366229e+003, 3.621349e-002
2.368157e+003, 3.626946e-002
2.370086e+003, 3.623259e-002
2.372014e+003, 3.687668e-002
2.373942e+003, 3.742073e-002
2.375871e+003, 3.724388e-002
2.377799e+003, 3.710595e-002
2.379728e+003, 3.664970e-002
2.381656e+003, 3.696400e-002
2.383585e+003, 3.762496e-002
2.385513e+003, 3.756549e-002
2.387442e+003, 3.730736e-002
2.389370e+003, 3.725046e-002
2.391299e+003, 3.705693e-002
2.393227e+003, 3.732770e-002
2.395156e+003, 3.738905e-002
2.397084e+003, 3.709739e-002
2.399012e+003, 3.730495e-002
2.400941e+003, 3.786233e-002
2.402869e+003, 3.781407e-002
2.404798e+003, 3.774958e-002
2.406726e+003, 3.784184e-002
2.408655e+003, 3.791799e-002
2.410583e+003, 3.848295e-002
2.412512e+003, 3.834190e-002
2.414440e+003, 3.822872e-002
2.416369e+003, 3.817868e-002
2.418297e+003, 3.763683e-002
2.420226e+003, 3.730778e-002
2.422154e+003, 3.777905e-002
2.424083e+003, 3.801172e-002
2.426011e+003, 3.793106e-002
2.427939e+003, 3.838711e-002
2.429868e+003, 3.939511e-002
2.431796e+003, 3.978218e-002
2.433725e+003, 3.934031e-002
2.435653e+003, 3.943788e-002
2.437582e+003, 3.922429e-002
2.439510e+003, 3.880414e-002
2.441439e+003, 3.851482e-002
2.443367e+003, 3.828320e-002
2.445296e+003, 3.949026e-002
2.447224e+003, 4.038173e-002
2.449153e+003, 3.969613e-002
2.451081e+003, 3.940308e-002
2.453010e+003, 3.927347e-002
2.454938e+003, 3.940741e-002
2.456866e+003, 3.957158e-002
2.458795e+003, 3.954268e-002
2.460723e+003, 3.973793e-002
2.462652e+003, 3.965975e-002
2.464580e+003, 3.955411e-002
2.466509e+003, 3.961531e-002
2.468437e+003, 3.961101e-002
2.470366e+003, 3.950298e-002
2.472294e+003, 3.942813e-002
2.474223e+003, 4.002921e-002
2.476151e+003, 3.994709e-002
2.478080e+003, 3.899790e-002
2.480008e+003, 3.914940e-002
2.481937e+003, 3.963602e-002
2.483865e+003, 3.944733e-002
2.485793e+003, 3.926369e-002
2.487722e+003, 3.969973e-002
2.489650e+003, 3.981915e-002
2.491579e+003, 3.952330e-002
2.493507e+003, 3.938289e-002
2.495436e+003, 3.931396e-002
2.497364e+003, 3.957443e-002
2.499293e+003, 3.975414e-002
2.501221e+003, 3.992015e-002
2.503150e+003, 4.025356e-002
2.505078e+003, 4.018510e-002
2.507007e+003, 4.011401e-002
2.508935e+003, 4.040971e-002
2.510864e+003, 3.993783e-002
2.512792e+003, 3.890464e-002
2.514720e+003, 3.895429e-002
2.516649e+003, 3.972683e-002
2.518577e+003, 4.016052e-002
2.520506e+003, 3.999363e-002
2.522434e+003, 3.960481e-002
2.524363e+003, 3.973741e-002
2.526291e+003, 3.990838e-002
2.528220e+003, 4.005975e-002
2.530148e+003, 3.989175e-002
2.532077e+003, 3.966131e-002
2.534005e+003, 4.025451e-002
2.535934e+003, 4.111475e-002
2.537862e+003, 4.131539e-002
2.539791e+003, 4.118159e-002
2.541719e+003, 4.078745e-002
2.543647e+003, 4.091132e-002
2.545576e+003, 4.092559e-002
2.547504e+003, 4.075253e-002
2.549433e+003, 4.130162e-002
2.551361e+003, 4.170148e-002
2.553290e+003, 4.108689e-002
2.555218e+003, 4.164578e-002
2.557147e+003, 4.142258e-002
2.559075e+003, 4.080048e-002
2.561004e+003, 4.130038e-002
2.562932e+003, 4.116656e-002
2.564861e+003, 4.088922e-002
2.566789e+003, 4.183512e-002
2.568718e+003, 4.194148e-002
2.570646e+003, 4.131211e-002
2.572574e+003, 4.136900e-002
2.574503e+003, 4.181879e-002
2.576431e+003, 4.172315e-002
2.578360e+003, 4.175642e-002
2.580288e+003, 4.174325e-002
2.582217e+003, 4.173739e-002
2.584145e+003, 4.127292e-002
2.586074e+003, 4.179487e-002
2.588002e+003, 4.228892e-002
2.589931e+003, 4.221731e-002
2.591859e+003, 4.233392e-002
2.593788e+003, 4.242638e-002
2.595716e+003, 4.234692e-002
2.597645e+003, 4.250647e-002
2.599573e+003, 4.249625e-002
2.601501e+003, 4.294562e-002
2.603430e+003, 4.287564e-002
2.605358e+003, 4.271127e-002
2.607287e+003, 4.294774e-002
2.609215e+003, 4.285124e-002
2.611144e+003, 4.267590e-002
2.613072e+003, 4.281062e-002
2.615001e+003, 4.312421e-002
2.616929e+003, 4.328036e-002
2.618858e+003, 4.351067e-002
2.620786e+003, 4.325549e-002
2.622715e+003, 4.277273e-002
2.624643e+003, 4.310296e-002
2.626572e+003, 4.353163e-002
2.628500e+003, 4.329558e-002
2.630428e+003, 4.287398e-002
2.632357e+003, 4.249384e-002
2.634285e+003, 4.253283e-002
2.636214e+003, 4.299691e-002
2.638142e+003, 4.339742e-002
2.640071e+003, 4.367961e-002
2.641999e+003, 4.381915e-002
2.643928e+003, 4.343135e-002
2.645856e+003, 4.291463e-002
2.647785e+003, 4.311481e-002
2.649713e+003, 4.352371e-002
2.651642e+003, 4.403901e-002
2.653570e+003, 4.390606e-002
2.655499e+003, 4.332772e-002
2.657427e+003, 4.316265e-002
2.659355e+003, 4.353275e-002
2.661284e+003, 4.322289e-002
2.663212e+003, 4.303870e-002
2.665141e+003, 4.285925e-002
2.667069e+003, 4.255814e-002
2.668998e+003, 4.261551e-002
2.670926e+003, 4.231002e-002
2.672855e+003, 4.217395e-002
2.674783e+003, 4.252541e-002
2.676712e+003, 4.291350e-002
2.678640e+003, 4.303102e-002
2.680569e+003, 4.309418e-002
2.682497e+003, 4.313419e-002
2.684426e+003, 4.340404e-002
2.686354e+003, 4.298482e-002
2.688282e+003, 4.261260e-002
2.690211e+003, 4.330342e-002
2.692139e+003, 4.377723e-002
2.694068e+003, 4.370851e-002
2.695996e+003, 4.363181e-002
2.697925e+003, 4.347463e-002
2.699853e+003, 4.333406e-002
2.701782e+003, 4.312245e-002
2.703710e+003, 4.316278e-002
2.705639e+003, 4.358634e-002
2.707567e+003, 4.357671e-002
2.709496e+003, 4.307793e-002
2.711424e+003, 4.304348e-002
2.713353e+003, 4.298576e-002
2.715281e+003, 4.337193e-002
2.717209e+003, 4.374724e-002
2.719138e+003, 4.374395e-002
2.721066e+003, 4.345676e-002
2.722995e+003, 4.352060e-002
2.724923e+003, 4.430173e-002
2.726852e+003, 4.488386e-002
2.728780e+003, 4.435750e-002
2.730709e+003, 4.399760e-002
2.732637e+003, 4.411698e-002
2.734566e+003, 4.438135e-002
2.736494e+003, 4.403888e-002
2.738423e+003, 4.373220e-002
2.740351e+003, 4.414992e-002
2.742280e+003, 4.442276e-002
2.744208e+003, 4.436116e-002
2.746136e+003, 4.446553e-002
2.748065e+003, 4.470431e-002
2.749993e+003, 4.498260e-002
2.751922e+003, 4.473979e-002
2.753850e+003, 4.428833e-002
2.755779e+003, 4.442407e-002
2.757707e+003, 4.453577e-002
2.759636e+003, 4.456342e-002
2.761564e+003, 4.505599e-002
2.763493e+003, 4.537667e-002
2.765421e+003, 4.544181e-002
2.767350e+003, 4.554065e-002
2.769278e+003, 4.521589e-002
2.771207e+003, 4.516297e-002
2.773135e+003, 4.496949e-002
2.775063e+003, 4.478380e-002
2.776992e+003, 4.515871e-002
2.778920e+003, 4.555940e-002
2.780849e+003, 4.586420e-002
2.782777e+003, 4.556910e-002
2.784706e+003, 4.595262e-002
2.786634e+003, 4.608976e-002
2.788563e+003, 4.549843e-002
2.790491e+003, 4.522609e-002
2.792420e+003, 4.546730e-002
2.794348e+003, 4.579565e-002
2.796277e+003, 4.566652e-002
2.798205e+003, 4.584392e-002
2.800134e+003, 4.571670e-002
2.802062e+003, 4.566882e-002
2.803990e+003, 4.615669e-002
2.805919e+003, 4.607409e-002
2.807847e+003, 4.582817e-002
2.809776e+003, 4.623995e-002
2.811704e+003, 4.628734e-002
2.813633e+003, 4.639250e-002
2.815561e+003, 4.639113e-002
2.817490e+003, 4.636392e-002
2.819418e+003, 4.660469e-002
2.821347e+003, 4.633366e-002
2.823275e+003, 4.637811e-002
2.825204e+003, 4.678805e-002
2.827132e+003, 4.697026e-002
2.829061e+003, 4.673970e-002
2.830989e+003, 4.699304e-002
2.832917e+003, 4.791168e-002
2.834846e+003, 4.832636e-002
2.836774e+003, 4.811510e-002
2.838703e+003, 4.792980e-002
2.840631e+003, 4.812492e-002
2.842560e+003, 4.769210e-002
2.844488e+003, 4.719116e-002
2.846417e+003, 4.701154e-002
2.848345e+003, 4.683791e-002
2.850274e+003, 4.656984e-002
2.852202e+003, 4.616851e-002
2.854131e+003, 4.614653e-002
2.856059e+003, 4.698424e-002
2.857988e+003, 4.703718e-002
2.859916e+003, 4.678915e-002
2.861844e+003, 4.684092e-002
2.863773e+003, 4.688121e-002
2.865701e+003, 4.684280e-002
2.867630e+003, 4.653859e-002
2.869558e+003, 4.684273e-002
2.871487e+003, 4.733295e-002
2.873415e+003, 4.688827e-002
2.875344e+003, 4.712627e-002
2.877272e+003, 4.782715e-002
2.879201e+003, 4.745022e-002
2.881129e+003, 4.712471e-002
2.883058e+003, 4.755786e-002
2.884986e+003, 4.835627e-002
2.886915e+003, 4.822318e-002
2.888843e+003, 4.768863e-002
2.890771e+003, 4.827121e-002
2.892700e+003, 4.821726e-002
2.894628e+003, 4.810121e-002
2.896557e+003, 4.844731e-002
2.898485e+003, 4.867825e-002
2.900414e+003, 4.842340e-002
2.902342e+003, 4.867699e-002
2.904271e+003, 4.851640e-002
2.906199e+003, 4.812104e-002
2.908128e+003, 4.841871e-002
2.910056e+003, 4.840744e-002
2.911985e+003, 4.870576e-002
2.913913e+003, 4.910971e-002
2.915842e+003, 4.864352e-002
2.917770e+003, 4.881582e-002
2.919698e+003, 4.891976e-002
2.921627e+003, 4.860683e-002
2.923555e+003, 4.830629e-002
2.925484e+003, 4.804820e-002
2.927412e+003, 4.747927e-002
2.929341e+003, 4.664987e-002
2.931269e+003, 4.641646e-002
2.933198e+003, 4.628536e-002
2.935126e+003, 4.641247e-002
2.937055e+003, 4.703483e-002
2.938983e+003, 4.720334e-002
2.940912e+003, 4.717037e-002
2.942840e+003, 4.791466e-002
2.944769e+003, 4.832609e-002
2.946697e+003, 4.769195e-002
2.948625e+003, 4.719180e-002
2.950554e+003, 4.735054e-002
2.952482e+003, 4.771212e-002
2.954411e+003, 4.740629e-002
2.956339e+003, 4.732267e-002
2.958268e+003, 4.770718e-002
2.960196e+003, 4.753705e-002
2.962125e+003, 4.752726e-002
2.964053e+003, 4.808787e-002
2.965982e+003, 4.850734e-002
2.967910e+003, 4.847091e-002
2.969839e+003, 4.838020e-002
2.971767e+003, 4.863683e-002
2.973696e+003, 4.876757e-002
2.975624e+003, 4.880532e-002
2.977552e+003, 4.878875e-002
2.979481e+003, 4.921199e-002
2.981409e+003, 4.980736e-002
2.983338e+003, 4.939093e-002
2.985266e+003, 4.890528e-002
2.987195e+003, 4.901870e-002
2.989123e+003, 4.917555e-002
2.991052e+003, 4.889065e-002
2.992980e+003, 4.946532e-002
2.994909e+003, 5.051830e-002
2.996837e+003, 4.997110e-002
2.998766e+003, 4.965040e-002
3.000694e+003, 4.997883e-002
3.002623e+003, 5.006624e-002
3.004551e+003, 4.966865e-002
3.006479e+003, 4.964399e-002
3.008408e+003, 5.029929e-002
3.010336e+003, 5.068519e-002
3.012265e+003, 5.099131e-002
3.014193e+003, 5.054400e-002
3.016122e+003, 4.997666e-002
3.018050e+003, 5.018983e-002
3.019979e+003, 5.040415e-002
3.021907e+003, 5.052144e-002
3.023836e+003, 5.044474e-002
3.025764e+003, 5.040894e-002
3.027693e+003, 5.060443e-002
3.029621e+003, 5.065328e-002
3.031550e+003, 5.080317e-002
3.033478e+003, 5.082200e-002
3.035406e+003, 5.037888e-002
3.037335e+003, 5.044509e-002
3.039263e+003, 5.039716e-002
3.041192e+003, 5.027568e-002
3.043120e+003, 5.012495e-002
3.045049e+003, 5.031003e-002
3.046977e+003, 5.061517e-002
3.048906e+003, 5.116566e-002
3.050834e+003, 5.149586e-002
3.052763e+003, 5.145828e-002
3.054691e+003, 5.085495e-002
3.056620e+003, 5.081309e-002
3.058548e+003, 5.092146e-002
3.060477e+003, 5.157542e-002
3.062405e+003, 5.215733e-002
3.064333e+003, 5.153698e-002
3.066262e+003, 5.141844e-002
3.068190e+003, 5.177565e-002
3.070119e+003, 5.108064e-002
3.072047e+003, 5.090275e-002
3.073976e+003, 5.135704e-002
3.075904e+003, 5.110152e-002
3.077833e+003, 5.137622e-002
3.079761e+003, 5.219004e-002
3.081690e+003, 5.236185e-002
3.083618e+003, 5.206691e-002
3.085547e+003, 5.160091e-002
3.087475e+003, 5.168158e-002
3.089404e+003, 5.203647e-002
3.091332e+003, 5.202238e-002
3.093260e+003, 5.175752e-002
3.095189e+003, 5.175434e-002
3.097117e+003, 5.150253e-002
3.099046e+003, 5.167040e-002
3.100974e+003, 5.179308e-002
3.102903e+003, 5.174812e-002
3.104831e+003, 5.207001e-002
3.106760e+003, 5.237821e-002
3.108688e+003, 5.184994e-002
3.110617e+003, 5.152882e-002
3.112545e+003, 5.201177e-002
3.114474e+003, 5.277762e-002
3.116402e+003, 5.283793e-002
3.118331e+003, 5.244584e-002
3.120259e+003, 5.291355e-002
3.122188e+003, 5.306012e-002
3.124116e+003, 5.296902e-002
3.126044e+003, 5.249779e-002
3.127973e+003, 5.244783e-002
3.129901e+003, 5.267608e-002
3.131830e+003, 5.297513e-002
3.133758e+003, 5.292996e-002
3.135687e+003, 5.293052e-002
3.137615e+003, 5.272466e-002
3.139544e+003, 5.266653e-002
3.141472e+003, 5.298169e-002
3.143401e+003, 5.275643e-002
3.145329e+003, 5.345581e-002
3.147258e+003, 5.354556e-002
3.149186e+003, 5.291983e-002
3.151115e+003, 5.270866e-002
3.153043e+003, 5.305445e-002
3.154971e+003, 5.337166e-002
3.156900e+003, 5.267825e-002
3.158828e+003, 5.228271e-002
3.160757e+003, 5.270104e-002
3.162685e+003, 5.297679e-002
3.164614e+003, 5.327808e-002
3.166542e+003, 5.303351e-002
3.168471e+003, 5.317451e-002
3.170399e+003, 5.266486e-002
3.172328e+003, 5.266526e-002
3.174256e+003, 5.394661e-002
3.176185e+003, 5.410093e-002
3.178113e+003, 5.375149e-002
3.180042e+003, 5.326055e-002
3.181970e+003, 5.319206e-002
3.183898e+003, 5.352081e-002
3.185827e+003, 5.375779e-002
3.187755e+003, 5.305848e-002
3.189684e+003, 5.276998e-002
3.191612e+003, 5.312568e-002
3.193541e+003, 5.342991e-002
3.195469e+003, 5.418169e-002
3.197398e+003, 5.401441e-002
3.199326e+003, 5.308183e-002
3.201255e+003, 5.325702e-002
3.203183e+003, 5.271159e-002
3.205112e+003, 5.249529e-002
3.207040e+003, 5.309859e-002
3.208969e+003, 5.314639e-002
3.210897e+003, 5.367008e-002
3.212825e+003, 5.450957e-002
3.214754e+003, 5.384346e-002
3.216682e+003, 5.310903e-002
3.218611e+003, 5.320207e-002
3.220539e+003, 5.316878e-002
3.222468e+003, 5.376306e-002
3.224396e+003, 5.359482e-002
3.226325e+003, 5.413821e-002
3.228253e+003, 5.508012e-002
3.230182e+003, 5.517598e-002
3.232110e+003, 5.472452e-002
3.234039e+003, 5.425077e-002
3.235967e+003, 5.410644e-002
3.237896e+003, 5.397103e-002
3.239824e+003, 5.381577e-002
3.241752e+003, 5.414530e-002
3.243681e+003, 5.376400e-002
3.245609e+003, 5.354911e-002
3.247538e+003, 5.349218e-002
3.249466e+003, 5.413607e-002
3.251395e+003, 5.428266e-002
3.253323e+003, 5.402534e-002
3.255252e+003, 5.454341e-002
3.257180e+003, 5.500009e-002
3.259109e+003, 5.444066e-002
3.261037e+003, 5.368052e-002
3.262966e+003, 5.448292e-002
3.264894e+003, 5.472819e-002
3.266823e+003, 5.445642e-002
3.268751e+003, 5.446860e-002
3.270679e+003, 5.399862e-002
3.272608e+003, 5.467493e-002
3.274536e+003, 5.590072e-002
3.276465e+003, 5.551558e-002
3.278393e+003, 5.493378e-002
3.280322e+003, 5.547794e-002
3.282250e+003, 5.591679e-002
3.284179e+003, 5.469276e-002
3.286107e+003, 5.431920e-002
3.288036e+003, 5.415514e-002
3.289964e+003, 5.414680e-002
3.291893e+003, 5.377452e-002
3.293821e+003, 5.467938e-002
3.295750e+003, 5.638911e-002
3.297678e+003, 5.628861e-002
3.299606e+003, 5.530586e-002
3.301535e+003, 5.481530e-002
3.303463e+003, 5.468865e-002
3.305392e+003, 5.429801e-002
3.307320e+003, 5.436338e-002
3.309249e+003, 5.462500e-002
3.311177e+003, 5.489696e-002
3.313106e+003, 5.520534e-002
3.315034e+003, 5.521943e-002
3.316963e+003, 5.479582e-002
3.318891e+003, 5.371954e-002
3.320820e+003, 5.381124e-002
3.322748e+003, 5.553890e-002
3.324677e+003, 5.550317e-002
3.326605e+003, 5.405642e-002
3.328533e+003, 5.386125e-002
3.330462e+003, 5.449143e-002
3.332390e+003, 5.449025e-002
3.334319e+003, 5.453388e-002
3.336247e+003, 5.485308e-002
3.338176e+003, 5.512835e-002
3.340104e+003, 5.482096e-002
3.342033e+003, 5.481281e-002
3.343961e+003, 5.471282e-002
3.345890e+003, 5.435561e-002
3.347818e+003, 5.462338e-002
3.349747e+003, 5.525716e-002
3.351675e+003, 5.554069e-002
3.353604e+003, 5.540303e-002
3.355532e+003, 5.451099e-002
3.357460e+003, 5.560281e-002
3.359389e+003, 5.619498e-002
3.361317e+003, 5.620409e-002
3.363246e+003, 5.571836e-002
3.365174e+003, 5.591159e-002
3.367103e+003, 5.616338e-002
3.369031e+003, 5.599144e-002
3.370960e+003, 5.511026e-002
3.372888e+003, 5.431070e-002
3.374817e+003, 5.584782e-002
3.376745e+003, 5.701758e-002
3.378674e+003, 5.627011e-002
3.380602e+003, 5.544754e-002
3.382531e+003, 5.549461e-002
3.384459e+003, 5.643125e-002
3.386387e+003, 5.684535e-002
3.388316e+003, 5.653412e-002
3.390244e+003, 5.650143e-002
3.392173e+003, 5.671280e-002
3.394101e+003, 5.542570e-002
3.396030e+003, 5.476306e-002
3.397958e+003, 5.627536e-002
3.399887e+003, 5.645391e-002
3.401815e+003, 5.586132e-002
3.403744e+003, 5.509222e-002
3.405672e+003, 5.494229e-002
3.407601e+003, 5.546460e-002
3.409529e+003, 5.578107e-002
3.411458e+003, 5.633667e-002
3.413386e+003, 5.717406e-002
3.415314e+003, 5.704255e-002
3.417243e+003, 5.636742e-002
3.419171e+003, 5.668225e-002
3.421100e+003, 5.675610e-002
3.423028e+003, 5.697038e-002
3.424957e+003, 5.715743e-002
3.426885e+003, 5.724067e-002
3.428814e+003, 5.666153e-002
3.430742e+003, 5.600641e-002
3.432671e+003, 5.680274e-002
3.434599e+003, 5.668418e-002
3.436528e+003, 5.591791e-002
3.438456e+003, 5.671072e-002
3.440385e+003, 5.631100e-002
3.442313e+003, 5.574917e-002
3.444241e+003, 5.589876e-002
3.446170e+003, 5.611311e-002
3.448098e+003, 5.624719e-002
3.450027e+003, 5.613682e-002
3.451955e+003, 5.611510e-002
3.453884e+003, 5.649836e-002
3.455812e+003, 5.670792e-002
3.457741e+003, 5.594154e-002
3.459669e+003, 5.651036e-002
3.461598e+003, 5.776514e-002
3.463526e+003, 5.823588e-002
3.465455e+003, 5.756145e-002
3.467383e+003, 5.769992e-002
3.469312e+003, 5.854336e-002
3.471240e+003, 5.824553e-002
3.473168e+003, 5.801839e-002
3.475097e+003, 5.958299e-002
3.477025e+003, 5.993189e-002
3.478954e+003, 5.949966e-002
3.480882e+003, 5.955674e-002
3.482811e+003, 5.945872e-002
3.484739e+003, 6.060019e-002
3.486668e+003, 6.095509e-002
3.488596e+003, 6.092807e-002
3.490525e+003, 6.187398e-002
3.492453e+003, 6.153970e-002
3.494382e+003, 6.065238e-002
3.496310e+003, 6.017019e-002
3.498239e+003, 6.091266e-002
3.500167e+003, 6.093639e-002
3.502095e+003, 5.943605e-002
3.504024e+003, 5.810804e-002
3.505952e+003, 5.847947e-002
3.507881e+003, 5.978779e-002
3.509809e+003, 5.941467e-002
3.511738e+003, 5.843668e-002
3.513666e+003, 5.810377e-002
3.515595e+003, 5.890768e-002
3.517523e+003, 5.844805e-002
3.519452e+003, 5.757493e-002
3.521380e+003, 5.865604e-002
3.523309e+003, 5.933032e-002
3.525237e+003, 5.914451e-002
3.527166e+003, 5.819319e-002
3.529094e+003, 5.766642e-002
3.531022e+003, 5.803453e-002
3.532951e+003, 5.832621e-002
3.534879e+003, 5.825149e-002
3.536808e+003, 5.755613e-002
3.538736e+003, 5.666344e-002
3.540665e+003, 5.745855e-002
3.542593e+003, 5.688169e-002
3.544522e+003, 5.783340e-002
3.546450e+003, 5.985235e-002
3.548379e+003, 5.872240e-002
3.550307e+003, 5.797940e-002
3.552236e+003, 5.806563e-002
3.554164e+003, 5.843839e-002
3.556093e+003, 5.941643e-002
3.558021e+003, 5.968000e-002
3.559949e+003, 5.882599e-002
3.561878e+003, 5.907604e-002
3.563806e+003, 5.943798e-002
3.565735e+003, 5.830956e-002
3.567663e+003, 5.822464e-002
3.569592e+003, 5.964625e-002
3.571520e+003, 6.159295e-002
3.573449e+003, 6.251562e-002
3.575377e+003, 6.326039e-002
3.577306e+003, 6.344826e-002
3.579234e+003, 6.159897e-002
3.581163e+003, 5.909811e-002
3.583091e+003, 5.851910e-002
3.585020e+003, 5.991280e-002
3.586948e+003, 5.959595e-002
3.588876e+003, 5.963299e-002
3.590805e+003, 5.995479e-002
3.592733e+003, 5.942115e-002
3.594662e+003, 5.896304e-002
3.596590e+003, 5.763547e-002
3.598519e+003, 5.723672e-002
3.600447e+003, 5.774396e-002
3.602376e+003, 5.855360e-002
3.604304e+003, 5.860531e-002
3.606233e+003, 5.808546e-002
3.608161e+003, 5.880623e-002
3.610090e+003, 5.929371e-002
3.612018e+003, 5.766768e-002
3.613947e+003, 5.715576e-002
3.615875e+003, 5.713006e-002
3.617803e+003, 5.684489e-002
3.619732e+003, 5.605107e-002
3.621660e+003, 5.583292e-002
3.623589e+003, 5.650172e-002
3.625517e+003, 5.722046e-002
3.627446e+003, 5.749163e-002
3.629374e+003, 5.892560e-002
3.631303e+003, 5.896340e-002
3.633231e+003, 5.740285e-002
3.635160e+003, 5.800273e-002
3.637088e+003, 5.830315e-002
3.639017e+003, 5.741683e-002
3.640945e+003, 5.687568e-002
3.642874e+003, 5.650372e-002
3.644802e+003, 5.658045e-002
3.646730e+003, 5.718916e-002
3.648659e+003, 5.795664e-002
3.650587e+003, 5.695862e-002
3.652516e+003, 5.548136e-002
3.654444e+003, 5.629542e-002
3.656373e+003, 5.716700e-002
3.658301e+003, 5.806952e-002
3.660230e+003, 5.843173e-002
3.662158e+003, 5.776072e-002
3.664087e+003, 5.745450e-002
3.666015e+003, 5.717663e-002
3.667944e+003, 5.692704e-002
3.669872e+003, 5.767477e-002
3.671801e+003, 5.780486e-002
3.673729e+003, 5.860940e-002
3.675657e+003, 5.920550e-002
3.677586e+003, 5.787167e-002
3.679514e+003, 5.590071e-002
3.681443e+003, 5.662012e-002
3.683371e+003, 5.823685e-002
3.685300e+003, 5.911195e-002
3.687228e+003, 5.945071e-002
3.689157e+003, 5.798389e-002
3.691085e+003, 5.709917e-002
3.693014e+003, 5.874338e-002
3.694942e+003, 5.945669e-002
3.696871e+003, 5.991159e-002
3.698799e+003, 5.963008e-002
3.700728e+003, 5.842124e-002
3.702656e+003, 5.735546e-002
3.704584e+003, 5.757293e-002
3.706513e+003, 5.796324e-002
3.708441e+003, 5.749144e-002
3.710370e+003, 5.856791e-002
3.712298e+003, 5.920178e-002
3.714227e+003, 5.886522e-002
3.716155e+003, 5.816326e-002
3.718084e+003, 5.785187e-002
3.720012e+003, 5.839429e-002
3.721941e+003, 5.882137e-002
3.723869e+003, 5.914561e-002
3.725798e+003, 5.924015e-002
3.727726e+003, 5.823655e-002
3.729655e+003, 5.816381e-002
3.731583e+003, 5.844369e-002
3.733511e+003, 5.788122e-002
3.735440e+003, 5.802302e-002
3.737368e+003, 5.870921e-002
3.739297e+003, 5.832515e-002
3.741225e+003, 5.795597e-002
3.743154e+003, 5.893953e-002
3.745082e+003, 5.983615e-002
3.747011e+003, 5.976262e-002
3.748939e+003, 5.932701e-002
3.750868e+003, 5.883326e-002
3.752796e+003, 5.856860e-002
3.754725e+003, 5.858187e-002
3.756653e+003, 5.952866e-002
3.758582e+003, 5.993081e-002
3.760510e+003, 5.967729e-002
3.762438e+003, 5.914238e-002
3.764367e+003, 5.769838e-002
3.766295e+003, 5.832734e-002
3.768224e+003, 5.960922e-002
3.770152e+003, 5.951722e-002
3.772081e+003, 5.975613e-002
3.774009e+003, 6.005061e-002
3.775938e+003, 5.923077e-002
3.777866e+003, 5.907900e-002
3.779795e+003, 5.964069e-002
3.781723e+003, 6.122795e-002
3.783652e+003, 6.076619e-002
3.785580e+003, 5.961849e-002
3.787509e+003, 5.965574e-002
3.789437e+003, 5.886174e-002
3.791365e+003, 5.995093e-002
3.793294e+003, 6.057092e-002
3.795222e+003, 5.960276e-002
3.797151e+003, 5.936991e-002
3.799079e+003, 5.989208e-002
3.801008e+003, 6.119134e-002
3.802936e+003, 6.168521e-002
3.804865e+003, 6.074465e-002
3.806793e+003, 5.990641e-002
3.808722e+003, 6.009456e-002
3.810650e+003, 6.100672e-002
3.812579e+003, 6.032229e-002
3.814507e+003, 6.025704e-002
3.816436e+003, 6.100567e-002
3.818364e+003, 6.094071e-002
3.820292e+003, 6.072021e-002
3.822221e+003, 6.149056e-002
3.824149e+003, 6.057847e-002
3.826078e+003, 5.950394e-002
3.828006e+003, 6.007501e-002
3.829935e+003, 6.093527e-002
3.831863e+003, 6.060726e-002
3.833792e+003, 5.954399e-002
3.835720e+003, 6.018815e-002
3.837649e+003, 6.125195e-002
3.839577e+003, 6.051359e-002
3.841506e+003, 6.084810e-002
3.843434e+003, 6.210552e-002
3.845363e+003, 6.163434e-002
3.847291e+003, 6.121730e-002
3.849219e+003, 6.120074e-002
3.851148e+003, 6.070064e-002
3.853076e+003, 6.082847e-002
3.855005e+003, 6.053844e-002
3.856933e+003, 6.071370e-002
3.858862e+003, 5.936717e-002
3.860790e+003, 5.782208e-002
3.862719e+003, 5.882253e-002
3.864647e+003, 5.872809e-002
3.866576e+003, 5.894898e-002
3.868504e+003, 5.975318e-002
3.870433e+003, 6.041046e-002
3.872361e+003, 6.130001e-002
3.874290e+003, 6.033381e-002
3.876218e+003, 5.986652e-002
3.878146e+003, 6.087836e-002
3.880075e+003, 6.170301e-002
3.882003e+003, 6.208581e-002
3.883932e+003, 6.161356e-002
3.885860e+003, 6.139261e-002
3.887789e+003, 6.178614e-002
3.889717e+003, 6.269360e-002
3.891646e+003, 6.261165e-002
3.893574e+003, 6.062435e-002
3.895503e+003, 6.050006e-002
3.897431e+003, 6.032339e-002
3.899360e+003, 6.040666e-002
3.901288e+003, 6.129227e-002
3.903217e+003, 6.174324e-002
3.905145e+003, 6.154556e-002
3.907073e+003, 6.227247e-002
3.909002e+003, 6.140962e-002
3.910930e+003, 5.952953e-002
3.912859e+003, 6.019231e-002
3.914787e+003, 6.106084e-002
3.916716e+003, 6.183887e-002
3.918644e+003, 6.110813e-002
3.920573e+003, 6.112277e-002
3.922501e+003, 6.207211e-002
3.924430e+003, 6.220039e-002
3.926358e+003, 6.150911e-002
3.928287e+003, 5.995944e-002
3.930215e+003, 5.991827e-002
3.932144e+003, 6.114903e-002
3.934072e+003, 6.168414e-002
3.936000e+003, 6.247007e-002
3.937929e+003, 6.057288e-002
3.939857e+003, 5.997867e-002
3.941786e+003, 6.072707e-002
3.943714e+003, 6.108912e-002
3.945643e+003, 6.213180e-002
3.947571e+003, 6.279256e-002
3.949500e+003, 6.207045e-002
3.951428e+003, 6.215936e-002
3.953357e+003, 6.290747e-002
3.955285e+003, 6.200962e-002
3.957214e+003, 6.082933e-002
3.959142e+003, 6.056314e-002
3.961071e+003, 6.068929e-002
3.962999e+003, 6.069730e-002
3.964927e+003, 6.158188e-002
3.966856e+003, 6.314312e-002
3.968784e+003, 6.429972e-002
3.970713e+003, 6.406828e-002
3.972641e+003, 6.312703e-002
3.974570e+003, 6.323838e-002
3.976498e+003, 6.307141e-002
3.978427e+003, 6.198371e-002
3.980355e+003, 6.067805e-002
3.982284e+003, 5.903023e-002
3.984212e+003, 6.103491e-002
3.986141e+003, 6.220587e-002
3.988069e+003, 6.205190e-002
3.989998e+003, 6.264567e-002
3.991926e+003, 6.197552e-002
3.993854e+003, 6.253355e-002
3.995783e+003, 6.293852e-002
3.997711e+003, 6.218195e-002
3.999640e+003, 6.221195e-002
##END=



