##NAMES=Zircon
##RRUFFID=R050203
##IDEAL CHEMISTRY=Zr^4+^SiO_4_
##LOCALITY=Eastern Thailand
##OWNER=RRUFF
##SOURCE=Eric Van Valkenburg
##DESCRIPTION=Dark red water-worn single crystal
##STATUS=The identification of this mineral has been confirmed by X-ray diffraction and chemical analysis
##URL=rruff.info/R050203
##MEASURED CHEMISTRY=(Zr_0.99_Hf_0.01_)_Î£=1_Si_1.00_O_4_
5.014013e+001, 2.239407e-002
5.206860e+001, 2.249631e-002
5.399707e+001, 1.668945e-002
5.592553e+001, 1.779209e-002
5.785400e+001, 1.652023e-002
5.978246e+001, 2.130687e-002
6.171093e+001, 2.689254e-002
6.363940e+001, 2.536459e-002
6.556786e+001, 2.177689e-002
6.749633e+001, 1.783943e-002
6.942480e+001, 2.167276e-002
7.135326e+001, 2.685003e-002
7.328172e+001, 3.242835e-002
7.521019e+001, 3.360217e-002
7.713866e+001, 3.209198e-002
7.906712e+001, 3.258723e-002
8.099559e+001, 3.324590e-002
8.292406e+001, 3.447623e-002
8.485252e+001, 3.422383e-002
8.678099e+001, 3.371965e-002
8.870946e+001, 3.385803e-002
9.063792e+001, 3.511031e-002
9.256638e+001, 3.553860e-002
9.449485e+001, 3.587973e-002
9.642332e+001, 3.758093e-002
9.835178e+001, 3.924427e-002
1.002803e+002, 3.932106e-002
1.022087e+002, 3.856673e-002
1.041372e+002, 3.879784e-002
1.060657e+002, 3.993262e-002
1.079941e+002, 4.102464e-002
1.099226e+002, 4.113685e-002
1.118510e+002, 4.129157e-002
1.137795e+002, 4.197620e-002
1.157080e+002, 4.331490e-002
1.176364e+002, 4.494872e-002
1.195649e+002, 4.559163e-002
1.214934e+002, 4.607901e-002
1.234218e+002, 4.761636e-002
1.253503e+002, 4.861980e-002
1.272788e+002, 4.899009e-002
1.292072e+002, 4.931826e-002
1.311357e+002, 5.047865e-002
1.330642e+002, 5.190792e-002
1.349926e+002, 5.393771e-002
1.369211e+002, 5.579481e-002
1.388496e+002, 5.670511e-002
1.407780e+002, 5.844384e-002
1.427065e+002, 5.931253e-002
1.446350e+002, 5.961529e-002
1.465634e+002, 6.156297e-002
1.484919e+002, 6.308838e-002
1.504204e+002, 6.360955e-002
1.523488e+002, 6.497753e-002
1.542773e+002, 6.613937e-002
1.562058e+002, 6.697506e-002
1.581342e+002, 6.860211e-002
1.600627e+002, 7.011944e-002
1.619912e+002, 7.063118e-002
1.639196e+002, 7.139485e-002
1.658481e+002, 7.269504e-002
1.677766e+002, 7.365476e-002
1.697050e+002, 7.387454e-002
1.716335e+002, 7.458822e-002
1.735620e+002, 7.561498e-002
1.754904e+002, 7.635823e-002
1.774189e+002, 7.682724e-002
1.793474e+002, 7.862215e-002
1.812758e+002, 7.963771e-002
1.832043e+002, 7.993378e-002
1.851328e+002, 8.101117e-002
1.870612e+002, 8.188327e-002
1.889897e+002, 8.230397e-002
1.909182e+002, 8.329515e-002
1.928466e+002, 8.496089e-002
1.947751e+002, 8.596448e-002
1.967036e+002, 8.642820e-002
1.986320e+002, 8.712206e-002
2.005605e+002, 8.837983e-002
2.024890e+002, 8.986244e-002
2.044174e+002, 9.034632e-002
2.063459e+002, 9.074489e-002
2.082744e+002, 9.140143e-002
2.102028e+002, 9.258738e-002
2.121313e+002, 9.357045e-002
2.140598e+002, 9.469882e-002
2.159882e+002, 9.580284e-002
2.179167e+002, 9.606937e-002
2.198452e+002, 9.626368e-002
2.217736e+002, 9.693516e-002
2.237021e+002, 9.787077e-002
2.256305e+002, 9.901010e-002
2.275590e+002, 9.994943e-002
2.294875e+002, 1.003182e-001
2.314159e+002, 1.005960e-001
2.333444e+002, 1.009177e-001
2.352729e+002, 1.016286e-001
2.372013e+002, 1.023371e-001
2.391298e+002, 1.025542e-001
2.410583e+002, 1.031317e-001
2.429867e+002, 1.045437e-001
2.449152e+002, 1.055770e-001
2.468437e+002, 1.061519e-001
2.487721e+002, 1.074368e-001
2.507006e+002, 1.089968e-001
2.526291e+002, 1.094950e-001
2.545575e+002, 1.100481e-001
2.564860e+002, 1.109083e-001
2.584145e+002, 1.116005e-001
2.603429e+002, 1.123527e-001
2.622714e+002, 1.129779e-001
2.641999e+002, 1.131771e-001
2.661283e+002, 1.134156e-001
2.680568e+002, 1.144458e-001
2.699853e+002, 1.152050e-001
2.719137e+002, 1.152240e-001
2.738422e+002, 1.146310e-001
2.757707e+002, 1.144430e-001
2.776991e+002, 1.143135e-001
2.796276e+002, 1.141740e-001
2.815561e+002, 1.145054e-001
2.834845e+002, 1.148713e-001
2.854130e+002, 1.153231e-001
2.873415e+002, 1.162074e-001
2.892699e+002, 1.163621e-001
2.911984e+002, 1.160649e-001
2.931269e+002, 1.163164e-001
2.950553e+002, 1.171135e-001
2.969838e+002, 1.173482e-001
2.989123e+002, 1.171337e-001
3.008407e+002, 1.171398e-001
3.027692e+002, 1.175757e-001
3.046977e+002, 1.173265e-001
3.066261e+002, 1.170201e-001
3.085546e+002, 1.172077e-001
3.104831e+002, 1.172441e-001
3.124115e+002, 1.167575e-001
3.143400e+002, 1.162191e-001
3.162685e+002, 1.154815e-001
3.181969e+002, 1.148028e-001
3.201254e+002, 1.140082e-001
3.220539e+002, 1.128131e-001
3.239823e+002, 1.116716e-001
3.259108e+002, 1.106868e-001
3.278392e+002, 1.095048e-001
3.297677e+002, 1.081098e-001
3.316962e+002, 1.064546e-001
3.336246e+002, 1.045080e-001
3.355531e+002, 1.024962e-001
3.374816e+002, 1.000253e-001
3.394100e+002, 9.740727e-002
3.413385e+002, 9.441150e-002
3.432670e+002, 9.070288e-002
3.451954e+002, 8.694624e-002
3.471239e+002, 8.300494e-002
3.490524e+002, 7.973897e-002
3.509808e+002, 7.965816e-002
3.529093e+002, 8.445853e-002
3.548378e+002, 9.161097e-002
3.567662e+002, 9.890531e-002
3.586947e+002, 1.053422e-001
3.606232e+002, 1.105774e-001
3.625516e+002, 1.150706e-001
3.644801e+002, 1.192008e-001
3.664086e+002, 1.229334e-001
3.683370e+002, 1.255633e-001
3.702655e+002, 1.277852e-001
3.721940e+002, 1.294373e-001
3.741224e+002, 1.302089e-001
3.760509e+002, 1.306510e-001
3.779794e+002, 1.304435e-001
3.799078e+002, 1.290897e-001
3.818363e+002, 1.273751e-001
3.837648e+002, 1.253281e-001
3.856932e+002, 1.227573e-001
3.876217e+002, 1.202315e-001
3.895502e+002, 1.174790e-001
3.914786e+002, 1.146015e-001
3.934071e+002, 1.118505e-001
3.953356e+002, 1.087561e-001
3.972640e+002, 1.056400e-001
3.991925e+002, 1.027423e-001
4.011210e+002, 9.972598e-002
4.030494e+002, 9.672778e-002
4.049779e+002, 9.349613e-002
4.069064e+002, 8.993021e-002
4.088348e+002, 8.716237e-002
4.107633e+002, 8.455302e-002
4.126917e+002, 8.138375e-002
4.146202e+002, 7.923092e-002
4.165487e+002, 7.987525e-002
4.184771e+002, 8.332738e-002
4.204056e+002, 8.809940e-002
4.223341e+002, 9.367027e-002
4.242625e+002, 9.980149e-002
4.261910e+002, 1.056710e-001
4.281195e+002, 1.109213e-001
4.300479e+002, 1.137411e-001
4.319764e+002, 1.119918e-001
4.339049e+002, 1.067633e-001
4.358333e+002, 1.010740e-001
4.377618e+002, 9.553298e-002
4.396903e+002, 9.036549e-002
4.416187e+002, 8.563129e-002
4.435472e+002, 8.126573e-002
4.454757e+002, 7.727478e-002
4.474041e+002, 7.376802e-002
4.493326e+002, 7.033264e-002
4.512611e+002, 6.741606e-002
4.531895e+002, 6.451492e-002
4.551180e+002, 6.177964e-002
4.570465e+002, 5.880669e-002
4.589749e+002, 5.568991e-002
4.609034e+002, 5.212099e-002
4.628319e+002, 4.803315e-002
4.647603e+002, 4.445212e-002
4.666888e+002, 4.160978e-002
4.686173e+002, 3.942560e-002
4.705457e+002, 3.790248e-002
4.724742e+002, 3.633635e-002
4.744027e+002, 3.499681e-002
4.763311e+002, 3.393891e-002
4.782596e+002, 3.325274e-002
4.801881e+002, 3.282504e-002
4.821165e+002, 3.283610e-002
4.840450e+002, 3.303349e-002
4.859735e+002, 3.305285e-002
4.879019e+002, 3.281033e-002
4.898304e+002, 3.291790e-002
4.917589e+002, 3.321916e-002
4.936873e+002, 3.347252e-002
4.956158e+002, 3.385525e-002
4.975443e+002, 3.412040e-002
4.994727e+002, 3.422370e-002
5.014012e+002, 3.454802e-002
5.033297e+002, 3.482637e-002
5.052581e+002, 3.496908e-002
5.071866e+002, 3.531886e-002
5.091151e+002, 3.619090e-002
5.110435e+002, 3.664926e-002
5.129720e+002, 3.658058e-002
5.149005e+002, 3.672037e-002
5.168289e+002, 3.756163e-002
5.187574e+002, 3.832852e-002
5.206859e+002, 3.896938e-002
5.226143e+002, 3.942355e-002
5.245428e+002, 3.999145e-002
5.264713e+002, 4.042809e-002
5.283997e+002, 4.101531e-002
5.303282e+002, 4.194026e-002
5.322567e+002, 4.256641e-002
5.341851e+002, 4.287589e-002
5.361136e+002, 4.315639e-002
5.380421e+002, 4.371928e-002
5.399705e+002, 4.474027e-002
5.418990e+002, 4.564238e-002
5.438275e+002, 4.659513e-002
5.457559e+002, 4.775200e-002
5.476844e+002, 4.878149e-002
5.496129e+002, 4.998874e-002
5.515413e+002, 5.134275e-002
5.534698e+002, 5.242075e-002
5.553983e+002, 5.414948e-002
5.573267e+002, 5.601565e-002
5.592552e+002, 5.725887e-002
5.611837e+002, 5.863815e-002
5.631121e+002, 6.060027e-002
5.650406e+002, 6.289485e-002
5.669691e+002, 6.512105e-002
5.688975e+002, 6.697029e-002
5.708260e+002, 6.941801e-002
5.727545e+002, 7.229180e-002
5.746829e+002, 7.512266e-002
5.766114e+002, 7.795136e-002
5.785399e+002, 8.087770e-002
5.804683e+002, 8.410694e-002
5.823968e+002, 8.784095e-002
5.843253e+002, 9.155450e-002
5.862537e+002, 9.558691e-002
5.881822e+002, 9.968682e-002
5.901107e+002, 1.036847e-001
5.920391e+002, 1.081207e-001
5.939676e+002, 1.134065e-001
5.958961e+002, 1.190958e-001
5.978245e+002, 1.246571e-001
5.997530e+002, 1.298615e-001
6.016815e+002, 1.346568e-001
6.036099e+002, 1.405115e-001
6.055384e+002, 1.443067e-001
6.074669e+002, 1.458101e-001
6.093953e+002, 1.469587e-001
6.113238e+002, 1.460123e-001
6.132523e+002, 1.432844e-001
6.151807e+002, 1.391511e-001
6.171091e+002, 1.346953e-001
6.190376e+002, 1.297134e-001
6.209661e+002, 1.243133e-001
6.228945e+002, 1.181388e-001
6.248230e+002, 1.121552e-001
6.267515e+002, 1.063476e-001
6.286799e+002, 1.009789e-001
6.306084e+002, 9.649724e-002
6.325369e+002, 9.224589e-002
6.344653e+002, 8.790814e-002
6.363938e+002, 8.427408e-002
6.383223e+002, 8.191261e-002
6.402507e+002, 8.031784e-002
6.421792e+002, 7.899671e-002
6.441077e+002, 7.841202e-002
6.460361e+002, 7.833873e-002
6.479646e+002, 7.853390e-002
6.498931e+002, 7.862372e-002
6.518215e+002, 7.855069e-002
6.537500e+002, 7.821954e-002
6.556785e+002, 7.765850e-002
6.576069e+002, 7.746512e-002
6.595354e+002, 7.773108e-002
6.614639e+002, 7.792260e-002
6.633923e+002, 7.844315e-002
6.653208e+002, 7.919627e-002
6.672493e+002, 8.027554e-002
6.691777e+002, 8.143317e-002
6.711062e+002, 8.264747e-002
6.730347e+002, 8.324947e-002
6.749631e+002, 8.402564e-002
6.768916e+002, 8.508127e-002
6.788201e+002, 8.650789e-002
6.807485e+002, 8.796676e-002
6.826770e+002, 8.885743e-002
6.846055e+002, 8.937648e-002
6.865339e+002, 9.088803e-002
6.884624e+002, 9.248819e-002
6.903909e+002, 9.379731e-002
6.923193e+002, 9.452874e-002
6.942478e+002, 9.534118e-002
6.961763e+002, 9.604125e-002
6.981047e+002, 9.595770e-002
7.000332e+002, 9.550339e-002
##END=



