##NAMES=Zunyite
##RRUFFID=R050553
##IDEAL CHEMISTRY=Al_13_Si_5_O_20_(OH,F)_18_Cl
##LOCALITY=near Quartzsite, Yuma/La Paz Counties, Arizona, USA
##OWNER=RRUFF
##SOURCE=Dave Bunk Minerals
##DESCRIPTION=Light gray crystals showing combined octahedral and tetrahedral forms
##STATUS=The identification of this mineral has been confirmed by X-ray diffraction and chemical analysis
##URL=rruff.info/R050553
##MEASURED CHEMISTRY=(Al_12.99_Fe^3+^_0.01_)_Σ=13_Si_5.00_O_20_((OH)_14.89_F_3.11_)_Σ=18_Cl_1.00_
399.1926, 0.3212939
401.1211, 0.3097347
403.0496, 0.3112238
404.9780, 0.3185543
406.9065, 0.3244652
408.8350, 0.3127336
410.7634, 0.3116769
412.6919, 0.3139347
414.6204, 0.3144057
416.5488, 0.3225602
418.4773, 0.3319299
420.4058, 0.3355435
422.3342, 0.3350419
424.2627, 0.3392226
426.1912, 0.3442599
428.1196, 0.3524396
430.0481, 0.3627225
431.9766, 0.3727133
433.9050, 0.3707452
435.8335, 0.3670955
437.7620, 0.3688292
439.6904, 0.3736290
441.6189, 0.3759196
443.5474, 0.3755055
445.4758, 0.3732392
447.4043, 0.3674593
449.3328, 0.3570595
451.2612, 0.3440982
453.1897, 0.3316442
455.1182, 0.3132780
457.0466, 0.2922464
458.9751, 0.2763581
460.9036, 0.2649880
462.8320, 0.2560326
464.7605, 0.2536712
466.6890, 0.2610140
468.6174, 0.2713190
470.5459, 0.2780412
472.4744, 0.2812999
474.4028, 0.2825243
476.3313, 0.2822542
478.2598, 0.2783180
480.1882, 0.2709520
482.1167, 0.2603833
484.0452, 0.2484335
485.9736, 0.2356544
487.9021, 0.2223798
489.8306, 0.2080502
491.7590, 0.1950661
493.6875, 0.1833962
495.6160, 0.1734320
497.5444, 0.1628086
499.4729, 0.1521478
501.4014, 0.1437889
503.3298, 0.1358001
505.2583, 0.1289860
507.1868, 0.1240027
509.1152, 0.1209343
511.0437, 0.1198471
512.9722, 0.1199758
514.9006, 0.1205068
516.8291, 0.1216558
518.7576, 0.1231253
520.6860, 0.1254459
522.6145, 0.1285124
524.5430, 0.1319457
526.4714, 0.1349444
528.3999, 0.1382688
530.3284, 0.1424527
532.2568, 0.1460694
534.1853, 0.1488607
536.1138, 0.1504729
538.0422, 0.1519765
539.9707, 0.1532914
541.8992, 0.1527086
543.8276, 0.1528989
545.7561, 0.1529611
547.6846, 0.1514955
549.6130, 0.1491617
551.5415, 0.1471342
553.4700, 0.1459284
555.3984, 0.1449083
557.3269, 0.1444194
559.2554, 0.1462425
561.1838, 0.1483521
563.1123, 0.1488985
565.0408, 0.1501244
566.9692, 0.1537237
568.8977, 0.1589091
570.8262, 0.1659051
572.7546, 0.1730921
574.6831, 0.1807109
576.6116, 0.1900145
578.5400, 0.1995586
580.4685, 0.2088629
582.3970, 0.2183513
584.3254, 0.2279227
586.2539, 0.2378307
588.1824, 0.2471445
590.1108, 0.2563100
592.0393, 0.2652823
593.9678, 0.2724017
595.8962, 0.2789555
597.8247, 0.2850240
599.7532, 0.2906084
601.6816, 0.2959046
603.6101, 0.3003447
605.5386, 0.3053785
607.4670, 0.3093770
609.3955, 0.3137627
611.3240, 0.3179544
613.2524, 0.3215657
615.1809, 0.3245875
617.1094, 0.3275329
619.0378, 0.3302002
620.9663, 0.3328786
622.8948, 0.3342239
624.8232, 0.3350675
626.7517, 0.3349223
628.6802, 0.3334159
630.6086, 0.3309356
632.5371, 0.3276032
634.4656, 0.3230872
636.3940, 0.3175194
638.3225, 0.3113343
640.2510, 0.3049594
642.1794, 0.2980637
644.1079, 0.2903720
646.0364, 0.2816674
647.9648, 0.2736939
649.8933, 0.2658776
651.8218, 0.2583852
653.7502, 0.2518391
655.6787, 0.2449954
657.6072, 0.2374815
659.5356, 0.2319745
661.4641, 0.2270288
663.3926, 0.2208620
665.3210, 0.2143768
667.2495, 0.2084454
669.1780, 0.2034129
671.1064, 0.1981811
673.0349, 0.1922523
674.9634, 0.1872186
676.8918, 0.1834781
678.8203, 0.1800999
680.7488, 0.1773361
682.6772, 0.1746305
684.6057, 0.1711014
686.5342, 0.1670392
688.4626, 0.1646366
690.3911, 0.1650691
692.3196, 0.1689497
694.2480, 0.1769180
696.1765, 0.1887794
698.1050, 0.2045393
700.0334, 0.2233213
701.9619, 0.2441124
703.8904, 0.2641495
705.8188, 0.2824280
707.7473, 0.2969217
709.6758, 0.3054807
711.6042, 0.3079222
713.5327, 0.3045097
715.4612, 0.2956674
717.3896, 0.2824350
719.3181, 0.2660985
721.2466, 0.2480473
723.1750, 0.2304658
725.1035, 0.2144460
727.0320, 0.1994870
728.9604, 0.1857235
730.8889, 0.1734373
732.8174, 0.1621070
734.7458, 0.1517878
736.6743, 0.1426588
738.6028, 0.1345336
740.5313, 0.1271545
742.4597, 0.1203925
744.3882, 0.1137890
746.3167, 0.1077203
748.2451, 0.1019385
750.1736, 9.6148983E-02
752.1021, 9.0828739E-02
754.0305, 8.5759982E-02
755.9590, 8.0939591E-02
757.8875, 7.6012321E-02
759.8159, 7.1193948E-02
761.7444, 6.6509157E-02
763.6729, 6.1648149E-02
765.6013, 5.7061560E-02
767.5298, 5.2815471E-02
769.4583, 4.8636071E-02
771.3867, 4.4794992E-02
773.3152, 4.1406550E-02
775.2437, 3.8725618E-02
777.1721, 3.6898009E-02
779.1006, 3.5002720E-02
781.0291, 3.3341691E-02
782.9575, 3.1976409E-02
784.8860, 3.1022280E-02
786.8145, 3.0383641E-02
788.7429, 2.9736711E-02
790.6714, 2.9129339E-02
792.5999, 2.8959630E-02
794.5283, 2.8637961E-02
796.4568, 2.7750639E-02
798.3853, 2.7197680E-02
800.3137, 2.6848150E-02
802.2422, 2.6263800E-02
804.1707, 2.5583381E-02
806.0991, 2.5074109E-02
808.0276, 2.4926640E-02
809.9561, 2.4757100E-02
811.8845, 2.4403460E-02
813.8130, 2.4212880E-02
815.7415, 2.4316920E-02
817.6699, 2.4414981E-02
819.5984, 2.4407370E-02
821.5269, 2.4737719E-02
823.4553, 2.5033761E-02
825.3838, 2.5280541E-02
827.3123, 2.5752271E-02
829.2407, 2.6281729E-02
831.1692, 2.6499789E-02
833.0977, 2.6964040E-02
835.0261, 2.7855489E-02
836.9546, 2.8671451E-02
838.8831, 2.9816439E-02
840.8115, 3.0994950E-02
842.7400, 3.2031111E-02
844.6685, 3.3553209E-02
846.5969, 3.5681311E-02
848.5254, 3.7376851E-02
850.4539, 3.9262719E-02
852.3823, 4.2114891E-02
854.3108, 4.5210980E-02
856.2393, 4.8450612E-02
858.1677, 5.2887991E-02
860.0962, 5.8318641E-02
862.0247, 6.4418323E-02
863.9531, 7.1459673E-02
865.8816, 7.9746246E-02
867.8101, 8.9579031E-02
869.7385, 0.1011198
871.6670, 0.1145842
873.5955, 0.1298458
875.5239, 0.1466058
877.4524, 0.1644526
879.3809, 0.1828130
881.3093, 0.2009385
883.2378, 0.2177657
885.1663, 0.2320955
887.0947, 0.2429924
889.0232, 0.2503065
890.9517, 0.2527972
892.8801, 0.2498742
894.8085, 0.2431592
896.7370, 0.2330826
898.6655, 0.2195765
900.5939, 0.2041597
902.5224, 0.1883710
904.4509, 0.1726988
906.3793, 0.1578564
908.3078, 0.1438935
910.2363, 0.1308782
912.1647, 0.1186053
914.0932, 0.1075779
916.0217, 9.7633071E-02
917.9501, 8.8442966E-02
919.8786, 8.0177851E-02
921.8071, 7.3053487E-02
923.7355, 6.6985093E-02
925.6640, 6.1387390E-02
927.5925, 5.6834210E-02
929.5209, 5.2939970E-02
931.4494, 4.9737960E-02
933.3779, 4.7418069E-02
935.3063, 4.5300469E-02
937.2348, 4.3489039E-02
939.1633, 4.1941490E-02
941.0917, 4.1043960E-02
943.0202, 4.0749948E-02
944.9487, 4.0527910E-02
946.8771, 4.0585581E-02
948.8056, 4.0918071E-02
950.7341, 4.1137051E-02
952.6625, 4.1476421E-02
954.5910, 4.1904621E-02
956.5195, 4.2613819E-02
958.4479, 4.4165149E-02
960.3764, 4.6249110E-02
962.3049, 4.8980560E-02
964.2333, 5.2247100E-02
966.1618, 5.6586999E-02
968.0903, 6.2278211E-02
970.0187, 6.9115162E-02
971.9472, 7.7485882E-02
973.8757, 8.8505194E-02
975.8041, 0.1024021
977.7326, 0.1197433
979.6611, 0.1411909
981.5895, 0.1661091
983.5180, 0.1923790
985.4465, 0.2185206
987.3749, 0.2429839
989.3034, 0.2632025
991.2319, 0.2767074
993.1603, 0.2818542
995.0888, 0.2775774
997.0173, 0.2633949
998.9457, 0.2418265
1000.874, 0.2167858
1002.803, 0.1916159
1004.731, 0.1677757
1006.660, 0.1457160
1008.588, 0.1258838
1010.517, 0.1090462
1012.445, 9.4663553E-02
1014.373, 8.2371742E-02
1016.302, 7.2598800E-02
1018.230, 6.5124393E-02
1020.159, 5.9396900E-02
1022.087, 5.5144008E-02
1024.016, 5.2390411E-02
1025.944, 5.0975550E-02
1027.873, 5.0132789E-02
1029.801, 4.9436562E-02
1031.730, 4.8890982E-02
1033.658, 4.9433790E-02
1035.587, 5.1646739E-02
1037.515, 5.5515900E-02
1039.444, 6.1156109E-02
1041.372, 6.9012709E-02
1043.301, 7.9373777E-02
1045.229, 9.2382252E-02
1047.157, 0.1078374
1049.086, 0.1246539
1051.014, 0.1417570
1052.943, 0.1569361
1054.871, 0.1691190
1056.800, 0.1774430
1058.728, 0.1809824
1060.657, 0.1791687
1062.585, 0.1723666
1064.514, 0.1610835
1066.442, 0.1465129
1068.371, 0.1307463
1070.299, 0.1156145
1072.228, 0.1019650
1074.156, 9.0982378E-02
1076.084, 8.2473166E-02
1078.013, 7.6240093E-02
1079.941, 7.1661606E-02
1081.870, 6.7315713E-02
1083.798, 6.3813277E-02
1085.727, 6.0875811E-02
1087.655, 5.8668580E-02
1089.584, 5.7383768E-02
1091.512, 5.6571610E-02
1093.441, 5.6200858E-02
1095.369, 5.6365881E-02
1097.298, 5.7111010E-02
1099.226, 5.8192998E-02
1101.155, 5.9370589E-02
1103.083, 6.0931180E-02
1105.011, 6.2835597E-02
1106.940, 6.5409727E-02
1108.868, 6.9139458E-02
1110.797, 7.4216373E-02
1112.725, 8.0264948E-02
1114.654, 8.7513067E-02
1116.582, 9.6743077E-02
1118.511, 0.1076160
1120.439, 0.1196518
1122.368, 0.1315670
1124.296, 0.1417514
1126.225, 0.1498773
1128.153, 0.1556256
1130.082, 0.1585452
1132.010, 0.1593644
1133.938, 0.1581245
1135.867, 0.1548332
1137.795, 0.1493724
1139.724, 0.1413432
1141.652, 0.1310569
1143.581, 0.1199152
1145.509, 0.1091868
1147.438, 0.1001075
1149.366, 9.2721671E-02
1151.295, 8.6703204E-02
1153.223, 8.2902960E-02
1155.152, 8.1280962E-02
1157.080, 8.1980407E-02
1159.009, 8.6135373E-02
1160.937, 9.4585717E-02
1162.865, 0.1079528
1164.794, 0.1266437
1166.722, 0.1486328
1168.651, 0.1701333
1170.579, 0.1874610
1172.508, 0.1970851
1174.436, 0.1966908
1176.365, 0.1859193
1178.293, 0.1666619
1180.222, 0.1434225
1182.150, 0.1210579
1184.079, 0.1015471
1186.007, 8.5389689E-02
1187.936, 7.1695060E-02
1189.864, 6.0412500E-02
1191.792, 5.1585011E-02
1193.721, 4.4537868E-02
1195.649, 3.8830768E-02
1197.578, 3.4366481E-02
1199.506, 3.0977210E-02
1201.435, 2.7991010E-02
1203.363, 2.5426280E-02
1205.292, 2.3357609E-02
1207.220, 2.1923199E-02
1209.149, 2.0642839E-02
1211.077, 1.9616630E-02
1213.006, 1.8861171E-02
1214.934, 1.7980710E-02
1216.863, 1.7217981E-02
1218.791, 1.6588690E-02
1220.719, 1.6112929E-02
1222.648, 1.5911300E-02
1224.576, 1.5711630E-02
1226.505, 1.5426260E-02
1228.433, 1.5120490E-02
1230.362, 1.4760630E-02
1232.290, 1.4443670E-02
1234.219, 1.4228780E-02
1236.147, 1.3878070E-02
1238.076, 1.3481530E-02
1240.004, 1.2911350E-02
1241.933, 1.2514240E-02
1243.861, 1.2100380E-02
1245.790, 1.1566940E-02
1247.718, 1.1139780E-02
1249.646, 1.0717450E-02
1251.575, 1.0268880E-02
1253.503, 9.8079396E-03
1255.432, 9.1539947E-03
1257.360, 8.6891837E-03
1259.289, 8.4562963E-03
1261.217, 8.2147047E-03
1263.146, 7.8923693E-03
1265.074, 7.6099732E-03
1267.003, 7.2962078E-03
1268.931, 7.0701768E-03
1270.860, 7.1196500E-03
1272.788, 7.1322909E-03
1274.717, 6.8603610E-03
1276.645, 6.3627348E-03
1278.573, 6.0453429E-03
1280.502, 5.9926142E-03
1282.430, 6.0626338E-03
1284.359, 5.9352159E-03
1286.287, 5.5877469E-03
1288.216, 5.1606810E-03
1290.144, 5.0979569E-03
1292.073, 5.1614852E-03
1294.001, 5.1136301E-03
1295.930, 4.9368609E-03
1297.858, 4.6274331E-03
1299.787, 4.2988849E-03
1301.715, 4.2277779E-03
1303.644, 4.2044930E-03
1305.572, 4.0254779E-03
1307.500, 3.8855399E-03
1309.429, 3.9523449E-03
1311.357, 4.1516768E-03
1313.286, 4.1033882E-03
1315.214, 3.8810840E-03
1317.143, 3.8520640E-03
1319.071, 3.7230309E-03
1321.000, 3.5597661E-03
1322.928, 3.5978230E-03
1324.857, 3.6035101E-03
1326.785, 3.4886610E-03
1328.714, 3.1739371E-03
1330.642, 3.2753299E-03
1332.571, 3.5582040E-03
1334.499, 3.3996969E-03
1336.427, 3.1219730E-03
1338.356, 3.1698600E-03
1340.284, 3.3564130E-03
1342.213, 3.4113410E-03
1344.141, 3.5038751E-03
1346.070, 3.1698779E-03
1347.998, 3.2790189E-03
1349.927, 3.4965931E-03
1351.855, 3.6568861E-03
1353.784, 3.5710691E-03
1355.712, 3.3515401E-03
1357.641, 3.5073869E-03
1359.569, 3.5264180E-03
1361.498, 3.4474230E-03
1363.426, 3.5891871E-03
1365.354, 3.6751940E-03
1367.283, 3.3520800E-03
1369.211, 3.3763810E-03
1371.140, 3.4524170E-03
1373.068, 3.5165800E-03
1374.997, 3.8153070E-03
1376.925, 3.8135869E-03
1378.854, 3.5224359E-03
1380.782, 3.3503920E-03
1382.711, 3.3751130E-03
1384.639, 3.3933390E-03
1386.568, 3.4927879E-03
1388.496, 3.6019101E-03
1390.424, 3.3915790E-03
1392.353, 3.3358810E-03
1394.281, 3.6086920E-03
1396.210, 3.4722220E-03
1398.138, 3.3267310E-03
1400.067, 3.2079101E-03
1401.995, 3.1061431E-03
1403.924, 3.1453441E-03
1405.852, 3.3054620E-03
1407.781, 3.4403410E-03
1409.709, 3.4464640E-03
1411.638, 3.3662820E-03
1413.566, 3.1804109E-03
1415.495, 3.0414469E-03
1417.423, 3.0937809E-03
1419.351, 3.3179100E-03
1421.280, 3.2427390E-03
1423.208, 3.0082159E-03
1425.137, 2.9367551E-03
1427.065, 2.9026270E-03
1428.994, 2.9587850E-03
1430.922, 3.0246160E-03
1432.851, 2.9384829E-03
1434.779, 2.9667511E-03
1436.708, 3.0827690E-03
1438.636, 3.0678899E-03
1440.565, 2.8541270E-03
1442.493, 2.8603489E-03
1444.422, 3.0878750E-03
1446.350, 3.2916521E-03
1448.278, 3.2672901E-03
1450.207, 3.0190740E-03
1452.135, 3.3022540E-03
1454.064, 3.3571080E-03
1455.992, 3.5439469E-03
1457.921, 3.6128650E-03
1459.849, 3.3632680E-03
1461.778, 3.3332380E-03
1463.706, 3.4241790E-03
1465.635, 3.3224570E-03
1467.563, 3.0035640E-03
1469.492, 3.0073151E-03
1471.420, 3.1136470E-03
1473.349, 3.3835720E-03
1475.277, 3.1812480E-03
1477.205, 2.7040720E-03
1479.134, 2.5889510E-03
1481.062, 2.6100650E-03
1482.991, 2.5987120E-03
1484.919, 2.5532360E-03
1486.848, 2.7313200E-03
1488.776, 2.8162100E-03
1490.705, 2.8486319E-03
1492.633, 2.6781789E-03
1494.562, 2.5927350E-03
1496.490, 2.8476850E-03
1498.419, 3.0346401E-03
1500.347, 3.1438379E-03
1502.276, 3.1080660E-03
1504.204, 3.1168640E-03
1506.132, 3.4410011E-03
1508.061, 3.4453559E-03
1509.989, 2.9984610E-03
1511.918, 2.8014220E-03
1513.846, 2.8441870E-03
1515.775, 2.8910909E-03
1517.703, 2.7172030E-03
1519.632, 2.6247010E-03
1521.560, 2.9819850E-03
1523.489, 2.9618819E-03
1525.417, 2.8752161E-03
1527.346, 2.8717860E-03
1529.274, 2.9017229E-03
1531.203, 2.9315751E-03
1533.131, 2.9257759E-03
1535.059, 2.9641450E-03
1536.988, 3.2909820E-03
1538.916, 3.3606030E-03
1540.845, 3.2403939E-03
1542.773, 3.2340221E-03
1544.702, 3.3598100E-03
1546.630, 3.1717711E-03
1548.559, 3.3198830E-03
1550.487, 3.6386610E-03
1552.416, 3.7491100E-03
1554.344, 3.8405191E-03
1556.273, 3.4187690E-03
1558.201, 3.5765171E-03
1560.130, 3.8321470E-03
1562.058, 3.5654409E-03
1563.986, 3.2170999E-03
1565.915, 3.1050330E-03
1567.843, 3.4856971E-03
1569.772, 3.7657639E-03
1571.700, 3.8800519E-03
1573.629, 3.8856510E-03
1575.557, 4.1532898E-03
1577.486, 3.9226678E-03
1579.414, 4.0133661E-03
1581.343, 4.3899282E-03
1583.271, 4.1954219E-03
1585.200, 3.9635082E-03
1587.128, 4.2099822E-03
1589.057, 4.4093290E-03
1590.985, 4.0993472E-03
1592.913, 3.6919010E-03
1594.842, 3.8016220E-03
1596.770, 4.3173269E-03
1598.699, 4.4356580E-03
1600.627, 4.4816281E-03
1602.556, 4.5313318E-03
1604.484, 4.3714051E-03
1606.413, 4.1759922E-03
1608.341, 4.3424461E-03
1610.270, 4.2962749E-03
1612.198, 4.3629110E-03
1614.127, 4.7989581E-03
1616.055, 4.8777489E-03
1617.984, 4.7819251E-03
1619.912, 4.8589609E-03
1621.840, 5.1066079E-03
1623.769, 4.9179890E-03
1625.697, 4.8807082E-03
1627.626, 5.1309080E-03
1629.554, 4.9999449E-03
1631.483, 4.9038469E-03
1633.411, 4.9568950E-03
1635.340, 5.2781501E-03
1637.268, 5.2884738E-03
1639.197, 5.0235139E-03
1641.125, 5.2203499E-03
1643.054, 5.2259360E-03
1644.982, 5.1944600E-03
1646.911, 5.2651949E-03
1648.839, 5.4053310E-03
1650.767, 5.3672902E-03
1652.696, 5.5627702E-03
1654.624, 5.2501471E-03
1656.553, 4.5527578E-03
1658.481, 4.5122150E-03
1660.410, 5.0432589E-03
1662.338, 4.8575052E-03
1664.267, 4.1949232E-03
1666.195, 4.1650790E-03
1668.124, 4.7047688E-03
1670.052, 5.0349329E-03
1671.981, 4.8178630E-03
1673.909, 4.7419649E-03
1675.838, 4.4928910E-03
1677.766, 3.9881649E-03
1679.694, 3.7047211E-03
1681.623, 4.0608109E-03
1683.551, 4.4933101E-03
1685.480, 4.2119380E-03
1687.408, 3.8064250E-03
1689.337, 4.1749082E-03
1691.265, 4.3599862E-03
1693.194, 4.2694160E-03
1695.122, 4.4160909E-03
1697.051, 4.2594601E-03
1698.979, 4.4106790E-03
1700.908, 4.4577550E-03
1702.836, 3.9751451E-03
1704.765, 4.2630271E-03
1706.693, 4.6977298E-03
1708.621, 4.4509182E-03
1710.550, 4.1559138E-03
1712.478, 4.4065672E-03
1714.407, 4.4576451E-03
1716.335, 4.5401831E-03
1718.264, 4.3440838E-03
1720.192, 3.7114390E-03
1722.121, 3.4371270E-03
1724.049, 3.7732101E-03
1725.978, 4.2801262E-03
1727.906, 4.2080418E-03
1729.835, 3.7187641E-03
1731.763, 4.1168081E-03
1733.692, 4.6882262E-03
1735.620, 4.2493832E-03
1737.548, 3.7205929E-03
1739.477, 4.2141960E-03
1741.405, 4.3803630E-03
1743.334, 3.9894860E-03
1745.262, 3.2749600E-03
1747.191, 2.9030731E-03
1749.119, 3.2801020E-03
1751.048, 3.7910731E-03
1752.976, 3.3634070E-03
1754.905, 3.3325320E-03
1756.833, 3.5150631E-03
1758.762, 3.3588801E-03
1760.690, 3.3651411E-03
1762.619, 3.5705860E-03
1764.547, 3.0655621E-03
1766.475, 2.5479021E-03
1768.404, 2.7257779E-03
1770.332, 2.9825079E-03
1772.261, 2.6782739E-03
1774.189, 2.6629609E-03
1776.118, 2.8381341E-03
1778.046, 3.0994839E-03
1779.975, 3.1845081E-03
1781.903, 2.4887661E-03
1783.832, 2.4659620E-03
1785.760, 2.7930280E-03
1787.689, 2.7627549E-03
1789.617, 2.9726750E-03
1791.546, 3.2386479E-03
1793.474, 3.0639721E-03
1795.402, 3.4226419E-03
1797.331, 3.8325060E-03
1799.259, 4.1099172E-03
1801.188, 4.0312931E-03
1803.116, 3.3485410E-03
1805.045, 3.0786351E-03
1806.973, 3.3066401E-03
1808.902, 3.4094879E-03
1810.830, 3.7646440E-03
1812.759, 3.4062611E-03
1814.687, 2.6676350E-03
1816.616, 2.9392780E-03
1818.544, 3.5921659E-03
1820.473, 3.5851900E-03
1822.401, 2.8125220E-03
1824.329, 2.8091900E-03
1826.258, 3.6903219E-03
1828.186, 3.9855372E-03
1830.115, 3.9201458E-03
1832.043, 3.9063422E-03
1833.972, 3.7927281E-03
1835.900, 3.7271010E-03
1837.829, 3.7000601E-03
1839.757, 4.1622240E-03
1841.686, 3.9055010E-03
1843.614, 3.8119319E-03
1845.543, 4.0294589E-03
1847.471, 4.0529869E-03
1849.400, 4.1741212E-03
1851.328, 3.5659759E-03
1853.256, 3.2527859E-03
1855.185, 3.3437540E-03
1857.113, 3.5210010E-03
1859.042, 3.9363010E-03
1860.970, 3.9054391E-03
1862.899, 3.6456159E-03
1864.827, 3.9809630E-03
1866.756, 3.8620171E-03
1868.684, 3.4045819E-03
1870.613, 3.0784069E-03
1872.541, 3.7686990E-03
1874.470, 3.4595940E-03
1876.398, 3.3902919E-03
1878.327, 3.9221011E-03
1880.255, 4.0505249E-03
1882.183, 3.9232620E-03
1884.112, 4.1163042E-03
1886.040, 3.9390242E-03
1887.969, 3.9694519E-03
1889.897, 4.0728701E-03
1891.826, 4.2561418E-03
1893.754, 3.7310850E-03
1895.683, 3.2901061E-03
1897.611, 3.1105301E-03
1899.540, 2.4439041E-03
1901.468, 2.2893720E-03
1903.397, 2.8794869E-03
1905.325, 3.3517820E-03
1907.254, 3.2423651E-03
1909.182, 3.5476100E-03
1911.110, 3.2358270E-03
1913.039, 2.7015561E-03
1914.967, 1.7247880E-03
1916.896, 2.1139041E-03
1918.824, 3.2813121E-03
1920.753, 1.9314240E-03
1922.681, 1.2578060E-03
1924.610, 2.3789459E-03
1926.538, 3.0610710E-03
1928.467, 3.7222600E-03
1930.395, 3.6752289E-03
1932.324, 2.3251739E-03
1934.252, 1.4684860E-03
1936.181, 6.2701327E-04
1938.109, 1.0073381E-03
1940.037, 7.4341951E-04
1941.966, 3.9549379E-04
1943.894, 3.2461979E-04
1945.823, -4.3656270E-04
1947.751, -6.7336782E-04
1949.680, -9.7794284E-04
1951.608, -9.4306201E-04
1953.537, -1.6581840E-04
1955.465, -7.7301101E-04
1957.394, -2.1187440E-03
1959.322, -2.8908520E-03
1961.251, -3.2676910E-03
1963.179, -2.2375770E-03
1965.108, -1.7955250E-03
1967.036, -1.0954899E-03
1968.964, -3.3559930E-03
1970.893, -7.3386850E-03
1972.821, -8.0259657E-03
1974.750, -7.5833788E-03
1976.678, -6.2749768E-03
1978.607, -6.8910238E-03
1980.535, -6.1289682E-03
1982.464, -5.4841801E-03
1984.392, -5.8214748E-03
1986.321, -5.1494180E-03
1988.249, -2.7914420E-03
1990.178, -2.6936431E-03
1992.106, -3.2825400E-03
1994.035, -4.2101298E-03
1995.963, -4.1466090E-03
1997.891, -3.2845549E-03
1999.820, -2.5717311E-03
2001.748, -4.0063960E-03
2003.677, -7.4845180E-03
2005.605, -6.5714200E-03
2007.534, -3.5998800E-03
2009.462, -3.2893829E-03
2011.391, -2.6357151E-03
2013.319, -4.6496680E-03
2015.248, -6.5651061E-03
2017.176, -6.8368311E-03
2019.105, -7.0371791E-03
2021.033, -5.6958692E-03
2022.962, -2.6123170E-03
2024.890, -5.4298621E-03
2026.818, -4.4243601E-03
2028.747, -1.8554170E-03
2030.675, -2.1659839E-03
2032.604, -3.3857690E-03
2034.532, -2.5520460E-03
2036.461, -8.6907088E-04
2038.389, 2.6986370E-04
2040.318, 2.1485561E-03
2042.246, 2.6254030E-03
2044.175, 1.8001701E-03
2046.103, -2.0736270E-04
2048.032, 8.0123928E-04
2049.960, 3.9937431E-03
2051.889, 3.5612821E-03
2053.817, 2.3632140E-03
2055.746, 3.5943061E-03
2057.674, 4.4733612E-03
2059.603, 3.1107301E-03
2061.531, 1.8328400E-03
2063.459, 2.5608579E-03
2065.388, 2.2900060E-03
2067.316, 2.4841770E-03
2069.245, 2.8524690E-03
2071.173, 2.8533370E-03
2073.102, 2.0627249E-03
2075.030, 2.4614560E-03
2076.959, 3.0924031E-03
2078.887, 2.6318850E-03
2080.816, 1.9250170E-03
2082.744, 1.1585180E-03
2084.673, 1.9472060E-03
2086.601, 2.3017430E-03
2088.530, 2.5869750E-03
2090.458, 1.3531360E-03
2092.386, 8.9811842E-04
2094.315, 9.3117700E-04
2096.243, 2.1413760E-03
2098.172, 1.6731650E-03
2100.100, 2.3209490E-04
2102.029, 2.7557189E-04
2103.957, 1.2360730E-03
2105.886, 1.7004280E-03
2107.814, 1.0889000E-03
2109.743, -2.6189399E-04
2111.671, -1.2680660E-03
2113.600, 3.6907652E-05
2115.528, -9.4484538E-05
2117.457, -5.9476349E-04
2119.385, -1.0989780E-03
2121.313, -1.6952540E-03
2123.242, -1.0658430E-03
2125.170, -8.3794048E-06
2127.099, -2.2924101E-04
2129.027, -6.6167217E-05
2130.956, -2.2079339E-03
2132.884, -4.0755970E-03
2134.813, -1.4641890E-03
2136.741, -2.6276821E-04
2138.670, -1.0365690E-03
2140.598, -1.1835090E-03
2142.527, -6.6118408E-04
2144.455, 7.1643339E-04
2146.384, 1.4725300E-03
2148.312, -1.3752240E-03
2150.240, -2.3061670E-03
2152.169, -2.2591511E-03
2154.097, -3.7395060E-03
2156.026, -5.7009938E-03
2157.954, -3.4119219E-03
2159.883, -6.0868298E-04
2161.811, 1.3531260E-03
2163.740, 3.7713200E-03
2165.668, 3.1466510E-03
2167.597, 1.5450650E-03
2169.525, 3.3053909E-03
2171.454, 4.4161952E-03
2173.382, 4.5472458E-03
2175.311, 3.3981840E-03
2177.239, -6.8675472E-05
2179.167, -8.8322791E-04
2181.096, 1.0879770E-03
2183.024, 2.1876120E-03
2184.953, 2.9466120E-03
2186.881, 2.0132661E-03
2188.810, 2.7884310E-03
2190.738, 3.8925719E-03
2192.667, 4.3762019E-03
2194.595, 4.0088790E-03
2196.524, 1.0405889E-03
2198.452, 1.0226890E-03
2200.381, 2.3239800E-03
2202.309, 2.1299969E-03
2204.238, 3.4133210E-03
2206.166, 2.7859090E-03
2208.094, 1.7513670E-03
2210.023, 6.5692433E-04
2211.951, 3.9247959E-04
2213.880, 2.5801919E-03
2215.808, 3.9466270E-03
2217.737, 1.4524490E-03
2219.665, 1.6805300E-03
2221.594, 4.1886759E-03
2223.522, 4.7786771E-03
2225.451, 5.1741698E-03
2227.379, 4.8351772E-03
2229.308, 5.3679198E-03
2231.236, 4.5304978E-03
2233.165, 3.1291330E-03
2235.093, 3.3402611E-03
2237.021, 2.6241089E-03
2238.950, 1.6155430E-03
2240.878, 2.2720071E-03
2242.807, 3.5215979E-03
2244.735, 3.9817942E-03
2246.664, 5.8914470E-03
2248.592, 7.3060980E-03
2250.521, 6.6571590E-03
2252.449, 7.1182600E-03
2254.378, 7.7779000E-03
2256.306, 7.1481462E-03
2258.235, 7.5175422E-03
2260.163, 6.8078381E-03
2262.092, 6.3851988E-03
2264.020, 6.1513949E-03
2265.948, 5.4578842E-03
2267.877, 5.9833629E-03
2269.805, 7.1952310E-03
2271.734, 6.6428380E-03
2273.662, 6.2356652E-03
2275.591, 6.5452680E-03
2277.519, 8.5147088E-03
2279.448, 8.5602365E-03
2281.376, 8.8047143E-03
2283.305, 9.0944674E-03
2285.233, 9.3837837E-03
2287.162, 1.0031470E-02
2289.090, 1.0089810E-02
2291.019, 1.0182050E-02
2292.947, 1.0306150E-02
2294.875, 1.0674210E-02
2296.804, 1.0897510E-02
2298.732, 1.1910200E-02
2300.661, 1.2516860E-02
2302.589, 1.1313320E-02
2304.518, 1.0662030E-02
2306.446, 1.0409680E-02
2308.375, 1.0910420E-02
2310.303, 1.1056290E-02
2312.232, 1.1324820E-02
2314.160, 1.0924900E-02
2316.089, 1.0170280E-02
2318.017, 9.7446758E-03
2319.946, 1.0303310E-02
2321.874, 1.0289260E-02
2323.802, 1.0104450E-02
2325.731, 1.0181720E-02
2327.659, 9.7107654E-03
2329.588, 8.6508254E-03
2331.516, 7.8290664E-03
2333.445, 7.4011730E-03
2335.373, 7.2902180E-03
2337.302, 7.6598749E-03
2339.230, 7.6130140E-03
2341.159, 7.0968759E-03
2343.087, 6.5166992E-03
2345.016, 6.4839032E-03
2346.944, 6.7232600E-03
2348.873, 6.9130631E-03
2350.801, 6.8401638E-03
2352.729, 6.8088118E-03
2354.658, 6.3831368E-03
2356.586, 6.4572748E-03
2358.515, 6.2967958E-03
2360.443, 6.4408472E-03
2362.372, 6.6339099E-03
2364.300, 6.2463488E-03
2366.229, 5.8281762E-03
2368.157, 6.0776640E-03
2370.086, 5.9157079E-03
2372.014, 6.0772048E-03
2373.942, 6.9362442E-03
2375.871, 6.4089559E-03
2377.799, 6.0246652E-03
2379.728, 5.9680068E-03
2381.656, 5.4511912E-03
2383.585, 5.0977529E-03
2385.513, 4.9735238E-03
2387.442, 5.2879052E-03
2389.370, 6.1288401E-03
2391.299, 6.0158330E-03
2393.227, 6.3644182E-03
2395.156, 6.7089582E-03
2397.084, 5.8421120E-03
2399.012, 4.8345109E-03
2400.941, 5.6947218E-03
2402.869, 5.8036912E-03
2404.798, 5.1350342E-03
2406.726, 5.2065500E-03
2408.655, 5.6400779E-03
2410.583, 6.7703398E-03
2412.512, 7.6513109E-03
2414.440, 7.9326658E-03
2416.369, 7.4611292E-03
2418.297, 6.4240741E-03
2420.226, 6.7117088E-03
2422.154, 7.2134249E-03
2424.083, 6.2459949E-03
2426.011, 5.7673599E-03
2427.939, 7.1612382E-03
2429.868, 6.5201041E-03
2431.796, 5.4227528E-03
2433.725, 6.1289729E-03
2435.653, 7.1439329E-03
2437.582, 7.1295868E-03
2439.510, 6.3891811E-03
2441.439, 6.6063399E-03
2443.367, 8.0236271E-03
2445.296, 8.8422364E-03
2447.224, 8.4274719E-03
2449.153, 8.0106556E-03
2451.081, 7.2201728E-03
2453.010, 6.2919138E-03
2454.938, 5.8819298E-03
2456.866, 6.1687469E-03
2458.795, 6.5678861E-03
2460.723, 7.4737701E-03
2462.652, 7.8296484E-03
2464.580, 6.8246862E-03
2466.509, 6.4490382E-03
2468.437, 7.0761582E-03
2470.366, 7.4948128E-03
2472.294, 7.3426221E-03
2474.223, 6.4715170E-03
2476.151, 6.3164439E-03
2478.080, 7.4316482E-03
2480.008, 7.4192290E-03
2481.937, 6.0085561E-03
2483.865, 5.9551280E-03
2485.793, 7.3113139E-03
2487.722, 7.0668869E-03
2489.650, 6.4241518E-03
2491.579, 6.4658350E-03
2493.507, 6.0283430E-03
2495.436, 5.5281799E-03
2497.364, 5.4313210E-03
2499.293, 6.1181108E-03
2501.221, 7.3386682E-03
2503.150, 8.0927592E-03
2505.078, 7.4926410E-03
2507.007, 6.6053192E-03
2508.935, 6.1902888E-03
2510.864, 5.7877381E-03
2512.792, 6.4436640E-03
2514.720, 7.7354428E-03
2516.649, 7.2947810E-03
2518.577, 6.0393591E-03
2520.506, 6.3984231E-03
2522.434, 6.3532991E-03
2524.363, 6.0325419E-03
2526.291, 6.9354242E-03
2528.220, 8.4157167E-03
2530.148, 8.1227832E-03
2532.077, 7.2906818E-03
2534.005, 8.7192934E-03
2535.934, 8.8650910E-03
2537.862, 7.4929059E-03
2539.791, 7.3386459E-03
2541.719, 7.9198526E-03
2543.647, 8.6612375E-03
2545.576, 8.8199805E-03
2547.504, 7.6987529E-03
2549.433, 8.0516068E-03
2551.361, 9.1915904E-03
2553.290, 8.8759596E-03
2555.218, 7.9281470E-03
2557.147, 7.6917168E-03
2559.075, 7.4664140E-03
2561.004, 7.4652908E-03
2562.932, 7.5046830E-03
2564.861, 7.3950021E-03
2566.789, 8.2224226E-03
2568.718, 8.3721420E-03
2570.646, 7.4587571E-03
2572.574, 8.0792718E-03
2574.503, 8.2838284E-03
2576.431, 7.8080068E-03
2578.360, 7.9387743E-03
2580.288, 8.5900724E-03
2582.217, 9.4834184E-03
2584.145, 1.0023840E-02
2586.074, 9.5812371E-03
2588.002, 9.5000844E-03
2589.931, 8.7687578E-03
2591.859, 7.9108886E-03
2593.788, 7.5119720E-03
2595.716, 7.1415948E-03
2597.645, 7.9629589E-03
2599.573, 8.5948193E-03
2601.501, 8.2122292E-03
2603.430, 8.2207499E-03
2605.358, 8.7681822E-03
2607.287, 8.8449344E-03
2609.215, 9.2484318E-03
2611.144, 1.0052630E-02
2613.072, 1.0102240E-02
2615.001, 9.7099068E-03
2616.929, 9.3996534E-03
2618.858, 8.9468928E-03
2620.786, 9.0193003E-03
2622.715, 8.3769737E-03
2624.643, 8.1076426E-03
2626.572, 8.4435632E-03
2628.500, 8.7953350E-03
2630.428, 9.8384861E-03
2632.357, 9.6053760E-03
2634.285, 8.6461743E-03
2636.214, 8.0642141E-03
2638.142, 8.0927368E-03
2640.071, 8.7630916E-03
2641.999, 8.7490268E-03
2643.928, 8.8742375E-03
2645.856, 8.9810779E-03
2647.785, 8.7917894E-03
2649.713, 9.2559373E-03
2651.642, 9.8601384E-03
2653.570, 9.5507670E-03
2655.499, 9.7228270E-03
2657.427, 9.8148696E-03
2659.355, 9.5612844E-03
2661.284, 9.2990231E-03
2663.212, 8.4474795E-03
2665.141, 8.2811257E-03
2667.069, 9.4455667E-03
2668.998, 9.8495772E-03
2670.926, 9.3092518E-03
2672.855, 8.7786550E-03
2674.783, 8.6278338E-03
2676.712, 8.8807801E-03
2678.640, 8.4867571E-03
2680.569, 7.4109822E-03
2682.497, 7.1297521E-03
2684.426, 7.7997241E-03
2686.354, 8.3653266E-03
2688.282, 9.2422478E-03
2690.211, 9.6158674E-03
2692.139, 9.3038809E-03
2694.068, 7.9137431E-03
2695.996, 7.4244179E-03
2697.925, 8.4611448E-03
2699.853, 9.1289338E-03
2701.782, 9.6545173E-03
2703.710, 9.2532113E-03
2705.639, 8.0914302E-03
2707.567, 7.9577323E-03
2709.496, 8.0481851E-03
2711.424, 8.4073823E-03
2713.353, 8.7972600E-03
2715.281, 9.3196528E-03
2717.209, 9.6296761E-03
2719.138, 9.3879234E-03
2721.066, 9.6813412E-03
2722.995, 9.4432561E-03
2724.923, 8.7340819E-03
2726.852, 8.6445129E-03
2728.780, 8.3290730E-03
2730.709, 8.1349742E-03
2732.637, 8.5783983E-03
2734.566, 9.4671259E-03
2736.494, 9.7695077E-03
2738.423, 9.9646812E-03
2740.351, 9.8372921E-03
2742.280, 9.0267230E-03
2744.208, 8.6193020E-03
2746.136, 9.2841452E-03
2748.065, 9.6071167E-03
2749.993, 8.9415777E-03
2751.922, 9.3135368E-03
2753.850, 9.2422683E-03
2755.779, 9.4360132E-03
2757.707, 1.0378870E-02
2759.636, 1.1355530E-02
2761.564, 1.0948140E-02
2763.493, 9.4419373E-03
2765.421, 8.6040674E-03
2767.350, 9.2318552E-03
2769.278, 1.0432230E-02
2771.207, 1.0571580E-02
2773.135, 9.9047665E-03
2775.063, 9.3634082E-03
2776.992, 9.9153873E-03
2778.920, 9.8311100E-03
2780.849, 8.8989502E-03
2782.777, 8.9849131E-03
2784.706, 9.6284356E-03
2786.634, 1.0040030E-02
2788.563, 9.8853437E-03
2790.491, 9.6314773E-03
2792.420, 9.5487908E-03
2794.348, 9.3880743E-03
2796.277, 9.9874213E-03
2798.205, 1.1333050E-02
2800.134, 1.1148050E-02
2802.062, 1.0210950E-02
2803.990, 9.5910737E-03
2805.919, 1.0533780E-02
2807.847, 1.1380460E-02
2809.776, 1.1397760E-02
2811.704, 1.0397080E-02
2813.633, 1.0367260E-02
2815.561, 1.0358650E-02
2817.490, 1.0721770E-02
2819.418, 1.1055420E-02
2821.347, 1.1755750E-02
2823.275, 1.2202770E-02
2825.204, 1.1437200E-02
2827.132, 1.1161850E-02
2829.061, 1.2046860E-02
2830.989, 1.2422760E-02
2832.917, 1.1704460E-02
2834.846, 1.0560140E-02
2836.774, 1.0514810E-02
2838.703, 1.0728960E-02
2840.631, 1.0722390E-02
2842.560, 1.1328360E-02
2844.488, 1.1162190E-02
2846.417, 1.1387810E-02
2848.345, 1.2164340E-02
2850.274, 1.2690660E-02
2852.202, 1.3341130E-02
2854.131, 1.3358270E-02
2856.059, 1.3053960E-02
2857.988, 1.2904020E-02
2859.916, 1.2098350E-02
2861.844, 1.1751790E-02
2863.773, 1.1411760E-02
2865.701, 1.1411870E-02
2867.630, 1.1161820E-02
2869.558, 1.1876770E-02
2871.487, 1.0703060E-02
2873.415, 9.1264993E-03
2875.344, 1.1323740E-02
2877.272, 1.3409440E-02
2879.201, 1.2675080E-02
2881.129, 1.2617230E-02
2883.058, 1.2478330E-02
2884.986, 1.2322750E-02
2886.915, 1.1988100E-02
2888.843, 1.1028940E-02
2890.771, 1.2016500E-02
2892.700, 1.3691390E-02
2894.628, 1.3256800E-02
2896.557, 1.2335440E-02
2898.485, 1.2345200E-02
2900.414, 1.3117330E-02
2902.342, 1.3456000E-02
2904.271, 1.2577050E-02
2906.199, 1.2920690E-02
2908.128, 1.3628820E-02
2910.056, 1.4332310E-02
2911.985, 1.4629040E-02
2913.913, 1.5221480E-02
2915.842, 1.4843420E-02
2917.770, 1.3955000E-02
2919.698, 1.4460820E-02
2921.627, 1.6131621E-02
2923.555, 1.5840720E-02
2925.484, 1.4279770E-02
2927.412, 1.4748540E-02
2929.341, 1.4578870E-02
2931.269, 1.3692310E-02
2933.198, 1.4405600E-02
2935.126, 1.4471230E-02
2937.055, 1.2321390E-02
2938.983, 1.2997880E-02
2940.912, 1.3959090E-02
2942.840, 1.3451590E-02
2944.769, 1.2629730E-02
2946.697, 1.2904460E-02
2948.625, 1.3338830E-02
2950.554, 1.2342390E-02
2952.482, 1.1836730E-02
2954.411, 1.2158090E-02
2956.339, 1.3389960E-02
2958.268, 1.3748570E-02
2960.196, 1.3129940E-02
2962.125, 1.2893810E-02
2964.053, 1.3097540E-02
2965.982, 1.2009290E-02
2967.910, 1.1476740E-02
2969.839, 1.3631080E-02
2971.767, 1.3913430E-02
2973.696, 1.2844850E-02
2975.624, 1.2423470E-02
2977.552, 1.2980490E-02
2979.481, 1.3486890E-02
2981.409, 1.2866800E-02
2983.338, 1.3278830E-02
2985.266, 1.4401040E-02
2987.195, 1.3773770E-02
2989.123, 1.2483430E-02
2991.052, 1.3169390E-02
2992.980, 1.4606730E-02
2994.909, 1.5223430E-02
2996.837, 1.6057720E-02
2998.766, 1.5327280E-02
3000.694, 1.4137410E-02
3002.623, 1.4386680E-02
3004.551, 1.5292080E-02
3006.479, 1.5526780E-02
3008.408, 1.4911680E-02
3010.336, 1.4489000E-02
3012.265, 1.4139660E-02
3014.193, 1.3960030E-02
3016.122, 1.4470460E-02
3018.050, 1.5217830E-02
3019.979, 1.5160640E-02
3021.907, 1.5116840E-02
3023.836, 1.5778139E-02
3025.764, 1.5650829E-02
3027.693, 1.5707500E-02
3029.621, 1.6246080E-02
3031.550, 1.5901560E-02
3033.478, 1.5211430E-02
3035.406, 1.4771570E-02
3037.335, 1.4446270E-02
3039.263, 1.3717920E-02
3041.192, 1.4345220E-02
3043.120, 1.5314760E-02
3045.049, 1.4820640E-02
3046.977, 1.4271270E-02
3048.906, 1.5332940E-02
3050.834, 1.4224750E-02
3052.763, 1.3442320E-02
3054.691, 1.3927470E-02
3056.620, 1.3026710E-02
3058.548, 1.3075960E-02
3060.477, 1.5426220E-02
3062.405, 1.5994489E-02
3064.333, 1.5066570E-02
3066.262, 1.3883920E-02
3068.190, 1.4786060E-02
3070.119, 1.6058670E-02
3072.047, 1.5565280E-02
3073.976, 1.5537740E-02
3075.904, 1.5716190E-02
3077.833, 1.6267991E-02
3079.761, 1.7506510E-02
3081.690, 1.8019211E-02
3083.618, 1.8379830E-02
3085.547, 1.8471761E-02
3087.475, 1.7697440E-02
3089.404, 1.7330579E-02
3091.332, 1.7270431E-02
3093.260, 1.7667361E-02
3095.189, 1.6995519E-02
3097.117, 1.6919330E-02
3099.046, 1.9033751E-02
3100.974, 1.8909920E-02
3102.903, 1.7924439E-02
3104.831, 1.8813049E-02
3106.760, 1.9333599E-02
3108.688, 1.8695630E-02
3110.617, 1.6930560E-02
3112.545, 1.6431740E-02
3114.474, 1.8920030E-02
3116.402, 2.0668590E-02
3118.331, 1.8844660E-02
3120.259, 1.7474860E-02
3122.188, 1.8276559E-02
3124.116, 1.9424390E-02
3126.044, 1.9675860E-02
3127.973, 2.0026751E-02
3129.901, 2.0505730E-02
3131.830, 1.9725859E-02
3133.758, 1.9937759E-02
3135.687, 2.1275530E-02
3137.615, 2.2639999E-02
3139.544, 2.3163920E-02
3141.472, 2.2571409E-02
3143.401, 2.2535400E-02
3145.329, 2.3058100E-02
3147.258, 2.3251170E-02
3149.186, 2.2960840E-02
3151.115, 2.3496959E-02
3153.043, 2.3809500E-02
3154.971, 2.5569441E-02
3156.900, 2.5786610E-02
3158.828, 2.4043730E-02
3160.757, 2.5092730E-02
3162.685, 2.8247980E-02
3164.614, 2.9311771E-02
3166.542, 3.0399930E-02
3168.471, 2.9080041E-02
3170.399, 2.7305851E-02
3172.328, 2.8057730E-02
3174.256, 2.8393840E-02
3176.185, 2.8628010E-02
3178.113, 2.8961411E-02
3180.042, 2.9521720E-02
3181.970, 3.0806869E-02
3183.898, 2.9966921E-02
3185.827, 2.9022859E-02
3187.755, 3.0883079E-02
3189.684, 3.1358760E-02
3191.612, 3.0462461E-02
3193.541, 3.0353120E-02
3195.469, 3.1829741E-02
3197.398, 3.1075081E-02
3199.326, 2.9648880E-02
3201.255, 2.9252561E-02
3203.183, 2.9358851E-02
3205.112, 2.9282920E-02
3207.040, 3.0364130E-02
3208.969, 3.1926349E-02
3210.897, 2.9236151E-02
3212.825, 3.0444041E-02
3214.754, 3.3149019E-02
3216.682, 3.1426441E-02
3218.611, 3.0081900E-02
3220.539, 3.1385109E-02
3222.468, 3.1822301E-02
3224.396, 3.2605849E-02
3226.325, 3.4459651E-02
3228.253, 3.4785379E-02
3230.182, 3.2647811E-02
3232.110, 3.3567078E-02
3234.039, 3.5776138E-02
3235.967, 3.5745341E-02
3237.896, 3.6291771E-02
3239.824, 3.6595859E-02
3241.752, 3.6691729E-02
3243.681, 3.6755361E-02
3245.609, 3.8630221E-02
3247.538, 4.1917361E-02
3249.466, 4.2896010E-02
3251.395, 4.1765619E-02
3253.323, 4.2923141E-02
3255.252, 4.3851599E-02
3257.180, 4.5033149E-02
3259.109, 4.7191251E-02
3261.037, 5.1330190E-02
3262.966, 5.6950271E-02
3264.894, 5.8440000E-02
3266.823, 5.8455911E-02
3268.751, 6.0648419E-02
3270.679, 6.4828709E-02
3272.608, 6.8843231E-02
3274.536, 6.9188133E-02
3276.465, 6.8578109E-02
3278.393, 7.1094997E-02
3280.322, 7.5220108E-02
3282.250, 7.9354167E-02
3284.179, 8.2703143E-02
3286.107, 8.6854354E-02
3288.036, 8.9108624E-02
3289.964, 9.1146253E-02
3291.893, 9.7184733E-02
3293.821, 0.1038472
3295.750, 0.1103825
3297.678, 0.1175951
3299.606, 0.1245455
3301.535, 0.1305696
3303.463, 0.1410103
3305.392, 0.1532023
3307.320, 0.1618337
3309.249, 0.1692540
3311.177, 0.1776919
3313.106, 0.1899150
3315.034, 0.2016944
3316.963, 0.2110379
3318.891, 0.2192597
3320.820, 0.2252334
3322.748, 0.2310977
3324.677, 0.2353559
3326.605, 0.2379711
3328.533, 0.2387419
3330.462, 0.2393902
3332.390, 0.2398734
3334.319, 0.2358909
3336.247, 0.2294114
3338.176, 0.2200464
3340.104, 0.2115196
3342.033, 0.2017007
3343.961, 0.1899104
3345.890, 0.1817039
3347.818, 0.1720201
3349.747, 0.1601057
3351.675, 0.1505961
3353.604, 0.1423987
3355.532, 0.1354020
3357.460, 0.1274428
3359.389, 0.1178790
3361.317, 0.1070761
3363.246, 9.7595870E-02
3365.174, 8.9313798E-02
3367.103, 8.1600837E-02
3369.031, 7.2794937E-02
3370.960, 6.4539827E-02
3372.888, 5.7606950E-02
3374.817, 5.2083191E-02
3376.745, 4.5930211E-02
3378.674, 4.2061280E-02
3380.602, 4.0085901E-02
3382.531, 3.9685551E-02
3384.459, 3.7698530E-02
3386.387, 3.3013169E-02
3388.316, 2.8650410E-02
3390.244, 2.6783610E-02
3392.173, 2.6413171E-02
3394.101, 2.4297720E-02
3396.030, 2.1317771E-02
3397.958, 1.7784869E-02
3399.887, 1.6081130E-02
3401.815, 1.5585770E-02
3403.744, 1.6406450E-02
3405.672, 1.7884869E-02
3407.601, 2.0477479E-02
3409.529, 1.9555360E-02
3411.458, 1.6212311E-02
3413.386, 1.5773891E-02
3415.314, 1.4954730E-02
3417.243, 1.3875990E-02
3419.171, 1.4271190E-02
3421.100, 1.7354250E-02
3423.028, 1.7796591E-02
3424.957, 1.5640071E-02
3426.885, 1.7569480E-02
3428.814, 1.8787280E-02
3430.742, 1.8034579E-02
3432.671, 2.0046100E-02
3434.599, 2.3610691E-02
3436.528, 2.3618050E-02
3438.456, 2.1017350E-02
3440.385, 1.8474281E-02
3442.313, 2.0058939E-02
3444.241, 2.3464579E-02
3446.170, 2.2846861E-02
3448.098, 2.1568580E-02
3450.027, 2.2876030E-02
3451.955, 2.3667950E-02
3453.884, 2.1277640E-02
3455.812, 2.0097921E-02
3457.741, 2.1364730E-02
3459.669, 2.3063591E-02
3461.598, 2.4629680E-02
3463.526, 2.5426840E-02
3465.455, 2.7346211E-02
3467.383, 2.7919600E-02
3469.312, 2.6557921E-02
3471.240, 2.7762961E-02
3473.168, 2.6205080E-02
3475.097, 2.4362581E-02
3477.025, 2.3641940E-02
3478.954, 2.3957999E-02
3480.882, 2.5708400E-02
3482.811, 2.6335601E-02
3484.739, 2.6453810E-02
3486.668, 2.4912819E-02
3488.596, 2.3987049E-02
3490.525, 2.1518139E-02
3492.453, 2.2103740E-02
3494.382, 2.5850140E-02
3496.310, 2.5394080E-02
3498.239, 2.4084320E-02
3500.167, 2.6576120E-02
3502.095, 2.4969609E-02
3504.024, 2.1556970E-02
3505.952, 2.1043779E-02
3507.881, 2.0320630E-02
3509.809, 2.0979211E-02
3511.738, 1.9103780E-02
3513.666, 1.8819340E-02
3515.595, 1.9714881E-02
3517.523, 2.1401361E-02
3519.452, 2.0884100E-02
3521.380, 1.8147940E-02
3523.309, 1.4908360E-02
3525.237, 1.4642430E-02
3527.166, 1.6516101E-02
3529.094, 1.6158860E-02
3531.022, 1.4000400E-02
3532.951, 1.4437060E-02
3534.879, 1.4389720E-02
3536.808, 1.3436750E-02
3538.736, 1.5438320E-02
3540.665, 1.6105499E-02
3542.593, 1.4293280E-02
3544.522, 1.3580630E-02
3546.450, 1.3412930E-02
3548.379, 1.1752410E-02
3550.307, 1.1109360E-02
3552.236, 1.0939710E-02
3554.164, 1.2036220E-02
3556.093, 1.4898360E-02
3558.021, 1.4415500E-02
3559.949, 1.2487760E-02
3561.878, 1.2616840E-02
3563.806, 1.2445700E-02
3565.735, 1.2675530E-02
3567.663, 1.4417220E-02
3569.592, 1.3650430E-02
3571.520, 1.3877490E-02
3573.449, 1.4796180E-02
3575.377, 1.6737649E-02
3577.306, 1.8020120E-02
3579.234, 1.8113580E-02
3581.163, 1.6543940E-02
3583.091, 1.6556930E-02
3585.020, 1.7874410E-02
3586.948, 1.8881829E-02
3588.876, 2.2391271E-02
3590.805, 2.3457130E-02
3592.733, 2.3086689E-02
3594.662, 2.4032930E-02
3596.590, 2.4393421E-02
3598.519, 2.1778811E-02
3600.447, 1.8797850E-02
3602.376, 2.1782421E-02
3604.304, 2.5406411E-02
3606.233, 2.5961131E-02
3608.161, 2.7778041E-02
3610.090, 3.1829920E-02
3612.018, 2.9629661E-02
3613.947, 2.6500070E-02
3615.875, 2.8214430E-02
3617.803, 3.2744441E-02
3619.732, 3.7231009E-02
3621.660, 3.7931360E-02
3623.589, 4.2207889E-02
3625.517, 5.9872288E-02
3627.446, 8.0741636E-02
3629.374, 9.3836308E-02
3631.303, 8.9855358E-02
3633.231, 7.4521393E-02
3635.160, 5.4863211E-02
3637.088, 3.7093289E-02
3639.017, 2.4399020E-02
3640.945, 1.6688799E-02
3642.874, 1.2846180E-02
3644.802, 1.0949080E-02
3646.730, 1.1489580E-02
3648.659, 1.1732160E-02
3650.587, 9.1079334E-03
3652.516, 8.8996273E-03
3654.444, 7.6743402E-03
3656.373, 8.3732978E-03
3658.301, 8.2829138E-03
3660.230, 7.4318098E-03
3662.158, 6.3576680E-03
3664.087, 7.1468060E-03
3666.015, 7.4442890E-03
3667.944, 6.9127488E-03
3669.872, 6.0264519E-03
3671.801, 6.4635789E-03
3673.729, 1.0656910E-02
3675.657, 1.2088920E-02
3677.586, 1.0051680E-02
3679.514, 9.0639871E-03
3681.443, 8.7695615E-03
3683.371, 7.2113918E-03
3685.300, 5.0804568E-03
3687.228, 5.0606881E-03
3689.157, 4.1576470E-03
3691.085, 2.2814281E-03
3693.014, 2.0091359E-03
3694.942, 4.7438811E-03
3696.871, 5.9411968E-03
3698.799, 5.8291620E-03
3700.728, 4.0398859E-03
3702.656, 1.5471750E-03
3704.584, 1.1173930E-03
3706.513, 2.9709770E-03
3708.441, 6.6646612E-03
3710.370, 7.1475520E-03
3712.298, 5.9187058E-03
3714.227, 6.3719512E-03
3716.155, 7.2262259E-03
3718.084, 6.4271749E-03
3720.012, 4.7916449E-03
3721.941, 5.1518781E-03
3723.869, 7.5337528E-03
3725.798, 6.3235108E-03
3727.726, 4.3285461E-03
3729.655, 5.0068521E-03
3731.583, 5.8566309E-03
3733.511, 7.2948942E-03
3735.440, 4.5854780E-03
3737.368, 2.5842451E-03
3739.297, 6.4106062E-03
3741.225, 7.5049768E-03
3743.154, 7.2490750E-03
3745.082, 6.2134848E-03
3747.011, 5.7684560E-03
3748.939, 5.6645959E-03
3750.868, 6.3492181E-03
3752.796, 5.0563789E-03
3754.725, 3.9940691E-03
3756.653, 6.6288202E-03
3758.582, 7.8201974E-03
3760.510, 7.4426481E-03
3762.438, 7.7276388E-03
3764.367, 7.8089251E-03
3766.295, 9.7582554E-03
3768.224, 1.1214490E-02
3770.152, 1.1094960E-02
3772.081, 8.3224336E-03
3774.009, 7.8541823E-03
3775.938, 7.7155172E-03
3777.866, 6.0887020E-03
3779.795, 6.6169659E-03
3781.723, 6.4913919E-03
3783.652, 4.4014049E-03
3785.580, 5.8449521E-03
3787.509, 8.7683545E-03
3789.437, 7.8626974E-03
3791.365, 5.2299532E-03
3793.294, 4.1900780E-03
3795.222, 5.1095062E-03
3797.151, 6.9420878E-03
3799.079, 5.1880628E-03
3801.008, 6.5674861E-03
3802.936, 9.3939994E-03
3804.865, 6.0662902E-03
3806.793, 5.7126479E-03
3808.722, 3.7412129E-03
3810.650, 1.6748320E-03
3812.579, 3.1568650E-03
3814.507, 7.5957328E-03
3816.436, 6.7071379E-03
3818.364, 7.0694280E-03
3820.292, 8.7700617E-03
3822.221, 8.7410044E-03
3824.149, 5.4839090E-03
3826.078, 4.7053858E-03
3828.006, 6.1365389E-03
3829.935, 8.3511062E-03
3831.863, 7.9795588E-03
3833.792, 1.0079330E-02
3835.720, 1.4619020E-02
3837.649, 9.9259857E-03
3839.577, 5.2312431E-03
3841.506, 5.0284392E-03
3843.434, 5.2297269E-03
3845.363, 5.6452360E-03
3847.291, 7.0589748E-03
3849.219, 5.6676618E-03
3851.148, 6.5498380E-03
3853.076, 9.4905067E-03
3855.005, 9.1645094E-03
3856.933, 4.6082591E-03
3858.862, 5.5082869E-03
3860.790, 8.5494015E-03
3862.719, 8.9489054E-03
3864.647, 1.0127600E-02
3866.576, 9.6553117E-03
3868.504, 9.5626675E-03
3870.433, 1.3283570E-02
3872.361, 1.1686420E-02
3874.290, 1.0316120E-02
3876.218, 1.0377860E-02
3878.146, 7.2709629E-03
3880.075, 4.7140340E-03
3882.003, 7.5447201E-03
3883.932, 8.2270000E-03
3885.860, 8.7136263E-03
3887.789, 1.0486870E-02
3889.717, 8.5011497E-03
3891.646, 5.4473230E-03
3893.574, 8.8785039E-03
3895.503, 1.0306110E-02
3897.431, 8.6968662E-03
3899.360, 6.4580338E-03
3901.288, 5.0627398E-03
3903.217, 5.1826402E-03
3905.145, 4.3090880E-03
3907.073, 3.6986051E-03
3909.002, 5.9915832E-03
3910.930, 6.7237159E-03
3912.859, 7.2146929E-03
3914.787, 9.5437588E-03
3916.716, 7.4930401E-03
3918.644, 6.1788880E-03
3920.573, 6.4231418E-03
3922.501, 5.5113742E-03
3924.430, 3.3935760E-03
3926.358, 2.4522529E-03
3928.287, 5.0186650E-03
3930.215, 9.6776262E-03
3932.144, 9.7383251E-03
3934.072, 5.9336028E-03
3936.000, 6.2395008E-03
3937.929, 6.1313799E-03
3939.857, 4.9339449E-03
3941.786, 7.6788822E-03
3943.714, 7.3219780E-03
3945.643, 5.6593129E-03
3947.571, 4.9262899E-03
3949.500, 6.8444191E-03
3951.428, 9.6480949E-03
3953.357, 1.0566190E-02
3955.285, 8.8876151E-03
3957.214, 7.3879929E-03
3959.142, 8.2154768E-03
3961.071, 4.7014910E-03
3962.999, 3.7752341E-03
3964.927, 6.3292650E-03
3966.856, 1.0988220E-02
3968.784, 1.0352740E-02
3970.713, 9.7159538E-03
3972.641, 1.5542730E-02
3974.570, 1.4426700E-02
3976.498, 1.0131900E-02
3978.427, 7.3649790E-03
3980.355, 6.5841009E-03
3982.284, 7.6709609E-03
3984.212, 8.6081652E-03
3986.141, 6.1200238E-03
3988.069, 2.1987651E-03
3989.998, 3.5232659E-03
3991.926, 5.7706870E-03
3993.854, 7.9724053E-03
3995.783, 6.0737110E-03
3997.711, 6.1073480E-03
3999.640, 6.1102952E-03
##END=



