##NAMES=Arfvedsonite
##RRUFFID=R040127
##IDEAL CHEMISTRY=NaNa_2_(Fe^2+^_4_Fe^3+^)Si_8_O_22_(OH)_2_
##LOCALITY=Mont Saint-Hilaire, Rouville County, Quebec, Canada
##OWNER=RRUFF
##SOURCE=Bob Downs
##DESCRIPTION=Black prismatic crystal associated with white analcime, R040128
##STATUS=The identification of this mineral has been confirmed by X-ray diffraction and chemical analysis
##URL=rruff.info/R040127
##MEASURED CHEMISTRY=(Na_0.61_K_0.39_)Na_2.00_(Fe^2+^_2.40_Mg_0.80_Mn_0.75_Ca_0.05_)_&#931;=4_(Fe^3+^_0.60_Al_0.25_Mn_0.15_)(Si_0.99_Ti_0.01_)_8_O_22_((OH)_0.67_F_0.33_)_2_
399.1926, 0.156927
401.1211, 0.155108
403.0496, 0.155853
404.9780, 0.157605
406.9065, 0.156086
408.8350, 0.155052
410.7634, 0.156534
412.6919, 0.161441
414.6204, 0.163928
416.5488, 0.162311
418.4773, 0.161167
420.4058, 0.163147
422.3342, 0.165711
424.2627, 0.166651
426.1912, 0.168191
428.1196, 0.170613
430.0481, 0.172999
431.9766, 0.176104
433.9050, 0.179310
435.8335, 0.182469
437.7620, 0.185728
439.6904, 0.189957
441.6189, 0.192386
443.5474, 0.193708
445.4758, 0.194151
447.4043, 0.195095
449.3328, 0.195659
451.2612, 0.194516
453.1897, 0.191745
455.1182, 0.187614
457.0466, 0.183127
458.9751, 0.179508
460.9036, 0.176126
462.8320, 0.173303
464.7605, 0.171265
466.6890, 0.169744
468.6174, 0.169229
470.5459, 0.169414
472.4744, 0.169244
474.4028, 0.168571
476.3313, 0.168455
478.2598, 0.168866
480.1882, 0.168167
482.1167, 0.166461
484.0452, 0.164111
485.9736, 0.160729
487.9021, 0.157343
489.8306, 0.154465
491.7590, 0.151396
493.6875, 0.147310
495.6160, 0.143004
497.5444, 0.139455
499.4729, 0.136274
501.4014, 0.132298
503.3298, 0.128376
505.2583, 0.125058
507.1868, 0.121089
509.1152, 0.117227
511.0437, 0.113047
512.9722, 0.108928
514.9006, 0.105451
516.8291, 0.101907
518.7576, 0.098546
520.6860, 0.096131
522.6145, 0.094659
524.5430, 0.093025
526.4714, 0.091118
528.3999, 0.089687
530.3284, 0.088570
532.2568, 0.087598
534.1853, 0.086300
536.1138, 0.084932
538.0422, 0.083641
539.9707, 0.081468
541.8992, 0.078394
543.8276, 0.074886
545.7561, 0.071171
547.6846, 0.067248
549.6130, 0.063268
551.5415, 0.058886
553.4700, 0.054722
555.3984, 0.051102
557.3269, 0.047541
559.2554, 0.043989
561.1838, 0.040891
563.1123, 0.038074
565.0408, 0.035886
566.9692, 0.034089
568.8977, 0.032530
570.8262, 0.031237
572.7546, 0.029628
574.6831, 0.028522
576.6116, 0.027848
578.5400, 0.027064
580.4685, 0.026443
582.3970, 0.025858
584.3254, 0.025179
586.2539, 0.025142
588.1824, 0.025226
590.1108, 0.024801
592.0393, 0.024947
593.9678, 0.025822
595.8962, 0.026422
597.8247, 0.027032
599.7532, 0.027839
601.6816, 0.028579
603.6101, 0.029333
605.5386, 0.030230
607.4670, 0.031287
609.3955, 0.032187
611.3240, 0.033116
613.2524, 0.033687
615.1809, 0.034292
617.1094, 0.035352
619.0378, 0.036180
620.9663, 0.037027
622.8948, 0.038014
624.8232, 0.038963
626.7517, 0.039708
628.6802, 0.040697
630.6086, 0.042385
632.5371, 0.044143
634.4656, 0.045480
636.3940, 0.046857
638.3225, 0.048814
640.2510, 0.050224
642.1794, 0.051468
644.1079, 0.052532
646.0364, 0.052633
647.9648, 0.052097
649.8933, 0.050739
651.8218, 0.048899
653.7502, 0.047165
655.6787, 0.045493
657.6072, 0.044017
659.5356, 0.043194
661.4641, 0.043118
663.3926, 0.042564
665.3210, 0.041708
667.2495, 0.040578
669.1780, 0.038719
671.1064, 0.036304
673.0349, 0.034182
674.9634, 0.032248
676.8918, 0.030514
678.8203, 0.029256
680.7488, 0.028440
682.6772, 0.027855
684.6057, 0.027692
686.5342, 0.027726
688.4626, 0.027887
690.3911, 0.028322
692.3196, 0.028879
694.2480, 0.029647
696.1765, 0.030323
698.1050, 0.030575
700.0334, 0.030740
701.9619, 0.030695
703.8904, 0.030238
705.8188, 0.029777
707.7473, 0.029311
709.6758, 0.028728
711.6042, 0.028595
713.5327, 0.028536
715.4612, 0.028682
717.3896, 0.029251
719.3181, 0.029891
721.2466, 0.030886
723.1750, 0.032482
725.1035, 0.034049
727.0320, 0.035712
728.9604, 0.037520
730.8889, 0.039353
732.8174, 0.041711
734.7458, 0.044686
736.6743, 0.048034
738.6028, 0.051339
740.5313, 0.054700
742.4597, 0.058255
744.3882, 0.061360
746.3167, 0.063629
748.2451, 0.064649
750.1736, 0.064121
752.1021, 0.062092
754.0305, 0.058798
755.9590, 0.054371
757.8875, 0.049727
759.8159, 0.045349
761.7444, 0.041639
763.6729, 0.038634
765.6013, 0.036296
767.5298, 0.034598
769.4583, 0.033405
771.3867, 0.032850
773.3152, 0.032605
775.2437, 0.032410
777.1721, 0.032345
779.1006, 0.032610
781.0291, 0.032955
782.9575, 0.033024
784.8860, 0.033451
786.8145, 0.034037
788.7429, 0.034294
790.6714, 0.034437
792.5999, 0.034957
794.5283, 0.035733
796.4568, 0.036450
798.3853, 0.037101
800.3137, 0.037615
802.2422, 0.038451
804.1707, 0.039423
806.0991, 0.040354
808.0276, 0.041398
809.9561, 0.042729
811.8845, 0.044296
813.8130, 0.045621
815.7415, 0.046940
817.6699, 0.048808
819.5984, 0.051008
821.5269, 0.052984
823.4553, 0.054858
825.3838, 0.056810
827.3123, 0.058963
829.2407, 0.061524
831.1692, 0.064265
833.0977, 0.067014
835.0261, 0.069900
836.9546, 0.072902
838.8831, 0.076179
840.8115, 0.079380
842.7400, 0.082755
844.6685, 0.086236
846.5969, 0.089505
848.5254, 0.092613
850.4539, 0.095753
852.3823, 0.099059
854.3108, 0.103104
856.2393, 0.107587
858.1677, 0.112385
860.0962, 0.117173
862.0247, 0.121928
863.9531, 0.126558
865.8816, 0.130767
867.8101, 0.134721
869.7385, 0.138714
871.6670, 0.142454
873.5955, 0.145706
875.5239, 0.148861
877.4524, 0.152129
879.3809, 0.155024
881.3093, 0.157596
883.2378, 0.160185
885.1663, 0.163002
887.0947, 0.165648
889.0232, 0.168417
890.9517, 0.171278
892.8801, 0.173748
894.8085, 0.175865
896.7370, 0.178078
898.6655, 0.180252
900.5939, 0.182577
902.5224, 0.184377
904.4509, 0.186427
906.3793, 0.189002
908.3078, 0.191889
910.2363, 0.195016
912.1647, 0.198308
914.0932, 0.201720
916.0217, 0.205168
917.9501, 0.208337
919.8786, 0.211706
921.8071, 0.215068
923.7355, 0.218752
925.6640, 0.222649
927.5925, 0.226784
929.5209, 0.231038
931.4494, 0.235916
933.3779, 0.241299
935.3063, 0.247105
937.2348, 0.253081
939.1633, 0.259665
941.0917, 0.266300
943.0202, 0.272316
944.9487, 0.277302
946.8771, 0.281625
948.8056, 0.285290
950.7341, 0.287932
952.6625, 0.289163
954.5910, 0.289189
956.5195, 0.288497
958.4479, 0.287047
960.3764, 0.284617
962.3049, 0.281696
964.2333, 0.278502
966.1618, 0.275003
968.0903, 0.270725
970.0187, 0.266078
971.9472, 0.260943
973.8757, 0.255286
975.8041, 0.249475
977.7326, 0.243340
979.6611, 0.237266
981.5895, 0.231305
983.5180, 0.225331
985.4465, 0.219147
987.3749, 0.212818
989.3034, 0.206628
991.2319, 0.200602
993.1603, 0.194358
995.0888, 0.188047
997.0173, 0.182093
998.9457, 0.176407
1000.8740, 0.171081
1002.8030, 0.165929
1004.7310, 0.160836
1006.6600, 0.156103
1008.5880, 0.151953
1010.5170, 0.147992
1012.4450, 0.144117
1014.3730, 0.140392
1016.3020, 0.136855
1018.2300, 0.133479
1020.1590, 0.130052
1022.0870, 0.126643
1024.0160, 0.123155
1025.9440, 0.119800
1027.8730, 0.116855
1029.8010, 0.114046
1031.7300, 0.111303
1033.6580, 0.108596
1035.5870, 0.106333
1037.5150, 0.104498
1039.4440, 0.103221
1041.3720, 0.102328
1043.3010, 0.101718
1045.2290, 0.101429
1047.1570, 0.101125
1049.0860, 0.100799
1051.0140, 0.100905
1052.9430, 0.100988
1054.8710, 0.101075
1056.8000, 0.101453
1058.7280, 0.102084
1060.6570, 0.102756
1062.5850, 0.103695
1064.5140, 0.104560
1066.4420, 0.105178
1068.3710, 0.105266
1070.2990, 0.104543
1072.2280, 0.103015
1074.1560, 0.100890
1076.0840, 0.097991
1078.0130, 0.094247
1079.9410, 0.090059
1081.8700, 0.085693
1083.7980, 0.081257
1085.7270, 0.076859
1087.6550, 0.072538
1089.5840, 0.068484
1091.5120, 0.064702
1093.4410, 0.060853
1095.3690, 0.056916
1097.2980, 0.053339
1099.2260, 0.050063
1101.1550, 0.047027
1103.0830, 0.044288
1105.0110, 0.041737
1106.9400, 0.039348
1108.8680, 0.037392
1110.7970, 0.035546
1112.7250, 0.034122
1114.6540, 0.033320
1116.5820, 0.033163
1118.5110, 0.033659
1120.4390, 0.035065
1122.3680, 0.037400
1124.2960, 0.040775
1126.2250, 0.044948
1128.1530, 0.049481
1130.0820, 0.053816
1132.0100, 0.057223
1133.9380, 0.058656
1135.8670, 0.057683
1137.7950, 0.055044
1139.7240, 0.050917
1141.6520, 0.045610
1143.5810, 0.040182
1145.5090, 0.034815
1147.4380, 0.029804
1149.3660, 0.025236
1151.2950, 0.021338
1153.2230, 0.018181
1155.1520, 0.015551
1157.0800, 0.013356
1159.0090, 0.011533
1160.9370, 0.010104
1162.8650, 0.009260
1164.7940, 0.008493
1166.7220, 0.007780
1168.6510, 0.007060
1170.5790, 0.006537
1172.5080, 0.006268
1174.4360, 0.006022
1176.3650, 0.005621
1178.2930, 0.005395
1180.2220, 0.005251
1182.1500, 0.005208
1184.0790, 0.004976
1186.0070, 0.004665
1187.9360, 0.004549
1189.8640, 0.004603
1191.7920, 0.004599
1193.7210, 0.004423
1195.6490, 0.004245
1197.5780, 0.004167
1199.5060, 0.003983
1201.4350, 0.003783
1203.3630, 0.003655
1205.2920, 0.003679
1207.2200, 0.003637
1209.1490, 0.003460
1211.0770, 0.003101
1213.0060, 0.003125
1214.9340, 0.003251
1216.8630, 0.003153
1218.7910, 0.002994
1220.7190, 0.002992
1222.6480, 0.003031
1224.5760, 0.003051
1226.5050, 0.002979
1228.4330, 0.002812
1230.3620, 0.002813
1232.2900, 0.002896
1234.2190, 0.002916
1236.1470, 0.002801
1238.0760, 0.002781
1240.0040, 0.002882
1241.9330, 0.002879
1243.8610, 0.002742
1245.7900, 0.002514
1247.7180, 0.002551
1249.6460, 0.002550
1251.5750, 0.002426
1253.5030, 0.002483
1255.4320, 0.002499
1257.3600, 0.002464
1259.2890, 0.002461
1261.2170, 0.002490
1263.1460, 0.002494
1265.0740, 0.002407
1267.0030, 0.002454
1268.9310, 0.002617
1270.8600, 0.002828
1272.7880, 0.002713
1274.7170, 0.002660
1276.6450, 0.002732
1278.5730, 0.002867
1280.5020, 0.002837
1282.4300, 0.002877
1284.3590, 0.002884
1286.2870, 0.002814
1288.2160, 0.002853
1290.1440, 0.002913
1292.0730, 0.002725
1294.0010, 0.002745
1295.9300, 0.002963
1297.8580, 0.003099
1299.7870, 0.002972
1301.7150, 0.002824
1303.6440, 0.002774
1305.5720, 0.002835
1307.5000, 0.002861
1309.4290, 0.002953
1311.3570, 0.003166
1313.2860, 0.003193
1315.2140, 0.003179
1317.1430, 0.003153
1319.0710, 0.003067
1321.0000, 0.003286
1322.9280, 0.003450
1324.8570, 0.003430
1326.7850, 0.003511
1328.7140, 0.003660
1330.6420, 0.003717
1332.5710, 0.003685
1334.4990, 0.003675
1336.4270, 0.003728
1338.3560, 0.003707
1340.2840, 0.003751
1342.2130, 0.003786
1344.1410, 0.003748
1346.0700, 0.003697
1347.9980, 0.003623
1349.9270, 0.003534
1351.8550, 0.003690
1353.7840, 0.004096
1355.7120, 0.004289
1357.6410, 0.004133
1359.5690, 0.004256
1361.4980, 0.004429
1363.4260, 0.004441
1365.3540, 0.004467
1367.2830, 0.004388
1369.2110, 0.004347
1371.1400, 0.004440
1373.0680, 0.004469
1374.9970, 0.004469
1376.9250, 0.004459
1378.8540, 0.004451
1380.7820, 0.004303
1382.7110, 0.004309
1384.6390, 0.004476
1386.5680, 0.004445
1388.4960, 0.004318
1390.4240, 0.004248
1392.3530, 0.004255
1394.2810, 0.004332
1396.2100, 0.004246
1398.1380, 0.004117
1400.0670, 0.004005
1401.9950, 0.004127
1403.9240, 0.004072
1405.8520, 0.003905
1407.7810, 0.004046
1409.7090, 0.004146
1411.6380, 0.004098
1413.5660, 0.004336
1415.4950, 0.004353
1417.4230, 0.004298
1419.3510, 0.004296
1421.2800, 0.004354
1423.2080, 0.004383
1425.1370, 0.004552
1427.0650, 0.004669
1428.9940, 0.004640
1430.9220, 0.004538
1432.8510, 0.004588
1434.7790, 0.004757
1436.7080, 0.004864
1438.6360, 0.005107
1440.5650, 0.005381
1442.4930, 0.005584
1444.4220, 0.005776
1446.3500, 0.005840
1448.2780, 0.005704
1450.2070, 0.005526
1452.1350, 0.005378
1454.0640, 0.005183
1455.9920, 0.005245
1457.9210, 0.005210
1459.8490, 0.005231
1461.7780, 0.005273
1463.7060, 0.005198
1465.6350, 0.005136
1467.5630, 0.004999
1469.4920, 0.005026
1471.4200, 0.005076
1473.3490, 0.005031
1475.2770, 0.004975
1477.2050, 0.004765
1479.1340, 0.004574
1481.0620, 0.004505
1482.9910, 0.004339
1484.9190, 0.004196
1486.8480, 0.004224
1488.7760, 0.004379
1490.7050, 0.004410
1492.6330, 0.004257
1494.5620, 0.004096
1496.4900, 0.004119
1498.4190, 0.004272
1500.3470, 0.004322
1502.2760, 0.004458
1504.2040, 0.004716
1506.1320, 0.004996
1508.0610, 0.004983
1509.9890, 0.004946
1511.9180, 0.004928
1513.8460, 0.004977
1515.7750, 0.004933
1517.7030, 0.004869
1519.6320, 0.005110
1521.5600, 0.005124
1523.4890, 0.004932
1525.4170, 0.004942
1527.3460, 0.004970
1529.2740, 0.005176
1531.2030, 0.005481
1533.1310, 0.005632
1535.0590, 0.005603
1536.9880, 0.005882
1538.9160, 0.006355
1540.8450, 0.006592
1542.7730, 0.006580
1544.7020, 0.006669
1546.6300, 0.006553
1548.5590, 0.006242
1550.4870, 0.006026
1552.4160, 0.006067
1554.3440, 0.006255
1556.2730, 0.006418
1558.2010, 0.006429
1560.1300, 0.006349
1562.0580, 0.006254
1563.9860, 0.006178
1565.9150, 0.006228
1567.8430, 0.006416
1569.7720, 0.006602
1571.7000, 0.006490
1573.6290, 0.006323
1575.5570, 0.006335
1577.4860, 0.006133
1579.4140, 0.006077
1581.3430, 0.006054
1583.2710, 0.006182
1585.2000, 0.006429
1587.1280, 0.006512
1589.0570, 0.006425
1590.9850, 0.006312
1592.9130, 0.006299
1594.8420, 0.006354
1596.7700, 0.006572
1598.6990, 0.006688
1600.6270, 0.006573
1602.5560, 0.006593
1604.4840, 0.006748
1606.4130, 0.006785
1608.3410, 0.006761
1610.2700, 0.006641
1612.1980, 0.006557
1614.1270, 0.006633
1616.0550, 0.006790
1617.9840, 0.006681
1619.9120, 0.006324
1621.8400, 0.006305
1623.7690, 0.006384
1625.6970, 0.006458
1627.6260, 0.006404
1629.5540, 0.006347
1631.4830, 0.005906
1633.4110, 0.005601
1635.3400, 0.005601
1637.2680, 0.005691
1639.1970, 0.005798
1641.1250, 0.005878
1643.0540, 0.005849
1644.9820, 0.005766
1646.9110, 0.005707
1648.8390, 0.005738
1650.7670, 0.005784
1652.6960, 0.005951
1654.6240, 0.005967
1656.5530, 0.005675
1658.4810, 0.005517
1660.4100, 0.005496
1662.3380, 0.005475
1664.2670, 0.005327
1666.1950, 0.005226
1668.1240, 0.005268
1670.0520, 0.005343
1671.9810, 0.005496
1673.9090, 0.005584
1675.8380, 0.005512
1677.7660, 0.005240
1679.6940, 0.005194
1681.6230, 0.005176
1683.5510, 0.005227
1685.4800, 0.005167
1687.4080, 0.005117
1689.3370, 0.005201
1691.2650, 0.005093
1693.1940, 0.005084
1695.1220, 0.005215
1697.0510, 0.005039
1698.9790, 0.005189
1700.9080, 0.005022
1702.8360, 0.004901
1704.7650, 0.004976
1706.6930, 0.004958
1708.6210, 0.004948
1710.5500, 0.005107
1712.4780, 0.005012
1714.4070, 0.004960
1716.3350, 0.004918
1718.2640, 0.004957
1720.1920, 0.004927
1722.1210, 0.004895
1724.0490, 0.004848
1725.9780, 0.004926
1727.9060, 0.004628
1729.8350, 0.004559
1731.7630, 0.004537
1733.6920, 0.004404
1735.6200, 0.004204
1737.5480, 0.004383
1739.4770, 0.004688
1741.4050, 0.004602
1743.3340, 0.004589
1745.2620, 0.004796
1747.1910, 0.004818
1749.1190, 0.004768
1751.0480, 0.004792
1752.9760, 0.004878
1754.9050, 0.004911
1756.8330, 0.005043
1758.7620, 0.005131
1760.6900, 0.005403
1762.6190, 0.005447
1764.5470, 0.005319
1766.4750, 0.005339
1768.4040, 0.005039
1770.3320, 0.004730
1772.2610, 0.005059
1774.1890, 0.004989
1776.1180, 0.004867
1778.0460, 0.005095
1779.9750, 0.005202
1781.9030, 0.005080
1783.8320, 0.004923
1785.7600, 0.004705
1787.6890, 0.004821
1789.6170, 0.005181
1791.5460, 0.005189
1793.4740, 0.004813
1795.4020, 0.005034
1797.3310, 0.005341
1799.2590, 0.005243
1801.1880, 0.004948
1803.1160, 0.004770
1805.0450, 0.004783
1806.9730, 0.004937
1808.9020, 0.005068
1810.8300, 0.004905
1812.7590, 0.004352
1814.6870, 0.004138
1816.6160, 0.004457
1818.5440, 0.004737
1820.4730, 0.004545
1822.4010, 0.004674
1824.3290, 0.004990
1826.2580, 0.004886
1828.1860, 0.004649
1830.1150, 0.004170
1832.0430, 0.003847
1833.9720, 0.004037
1835.9000, 0.004506
1837.8290, 0.004387
1839.7570, 0.004029
1841.6860, 0.004078
1843.6140, 0.004322
1845.5430, 0.004537
1847.4710, 0.004612
1849.4000, 0.004463
1851.3280, 0.004059
1853.2560, 0.003941
1855.1850, 0.003857
1857.1130, 0.003932
1859.0420, 0.003845
1860.9700, 0.004106
1862.8990, 0.004187
1864.8270, 0.003926
1866.7560, 0.003916
1868.6840, 0.004031
1870.6130, 0.004227
1872.5410, 0.004726
1874.4700, 0.004419
1876.3980, 0.003963
1878.3270, 0.003906
1880.2550, 0.004311
1882.1830, 0.004194
1884.1120, 0.003683
1886.0400, 0.003577
1887.9690, 0.004129
1889.8970, 0.004227
1891.8260, 0.004388
1893.7540, 0.004267
1895.6830, 0.004072
1897.6110, 0.004243
1899.5400, 0.004449
1901.4680, 0.003986
1903.3970, 0.003286
1905.3250, 0.003154
1907.2540, 0.003733
1909.1820, 0.004098
1911.1100, 0.003700
1913.0390, 0.003171
1914.9670, 0.003312
1916.8960, 0.003670
1918.8240, 0.003176
1920.7530, 0.002481
1922.6810, 0.002656
1924.6100, 0.002913
1926.5380, 0.003687
1928.4670, 0.003752
1930.3950, 0.003707
1932.3240, 0.003315
1934.2520, 0.003160
1936.1810, 0.002553
1938.1090, 0.001953
1940.0370, 0.002633
1941.9660, 0.003061
1943.8940, 0.002468
1945.8230, 0.002350
1947.7510, 0.002403
1949.6800, 0.002331
1951.6080, 0.002436
1953.5370, 0.002407
1955.4650, 0.002836
1957.3940, 0.003071
1959.3220, 0.002580
1961.2510, 0.002082
1963.1790, 0.001803
1965.1080, 0.001012
1967.0360, 0.001308
1968.9640, 0.001617
1970.8930, 0.000684
1972.8210, 0.001078
1974.7500, 0.001694
1976.6780, 0.002017
1978.6070, 0.002862
1980.5350, 0.004409
1982.4640, 0.003609
1984.3920, 0.002107
1986.3210, 0.002285
1988.2490, 0.002335
1990.1780, 0.001785
1992.1060, 0.003847
1994.0350, 0.005046
1995.9630, 0.003125
1997.8910, 0.002224
1999.8200, 0.003132
2001.7480, 0.003835
2003.6770, 0.004189
2005.6050, 0.003363
2007.5340, 0.003492
2009.4620, 0.004685
2011.3910, 0.003175
2013.3190, 0.003103
2015.2480, 0.003994
2017.1760, 0.004239
2019.1050, 0.002405
2021.0330, 0.000680
2022.9620, 0.001174
2024.8900, 0.002765
2026.8180, 0.004064
2028.7470, 0.004876
2030.6750, 0.004562
2032.6040, 0.004346
2034.5320, 0.004653
2036.4610, 0.004013
2038.3890, 0.004749
2040.3180, 0.006095
2042.2460, 0.006165
2044.1750, 0.006162
2046.1030, 0.005424
2048.0320, 0.004710
2049.9600, 0.005418
2051.8890, 0.004806
2053.8170, 0.005124
2055.7460, 0.005383
2057.6740, 0.005153
2059.6030, 0.004952
2061.5310, 0.005327
2063.4590, 0.005468
2065.3880, 0.005327
2067.3160, 0.005970
2069.2450, 0.006166
2071.1730, 0.005793
2073.1020, 0.006155
2075.0300, 0.006333
2076.9590, 0.006731
2078.8870, 0.006270
2080.8160, 0.006299
2082.7440, 0.006498
2084.6730, 0.005941
2086.6010, 0.006209
2088.5300, 0.006511
2090.4580, 0.006428
2092.3860, 0.006604
2094.3150, 0.006465
2096.2430, 0.006347
2098.1720, 0.006534
2100.1000, 0.006301
2102.0290, 0.006603
2103.9570, 0.007456
2105.8860, 0.006950
2107.8140, 0.006506
2109.7430, 0.006533
2111.6710, 0.006035
2113.6000, 0.006126
2115.5280, 0.006132
2117.4570, 0.005067
2119.3850, 0.005053
2121.3130, 0.005426
2123.2420, 0.004821
2125.1700, 0.005213
2127.0990, 0.005991
2129.0270, 0.005378
2130.9560, 0.004983
2132.8840, 0.005425
2134.8130, 0.005253
2136.7410, 0.004309
2138.6700, 0.004486
2140.5980, 0.004868
2142.5270, 0.005744
2144.4550, 0.006271
2146.3840, 0.006739
2148.3120, 0.007096
2150.2400, 0.007404
2152.1690, 0.005554
2154.0970, 0.003212
2156.0260, 0.003071
2157.9540, 0.007333
2159.8830, 0.010378
2161.8110, 0.009569
2163.7400, 0.008432
2165.6680, 0.008578
2167.5970, 0.008003
2169.5250, 0.007781
2171.4540, 0.007941
2173.3820, 0.008065
2175.3110, 0.009424
2177.2390, 0.009594
2179.1670, 0.008100
2181.0960, 0.006959
2183.0240, 0.007664
2184.9530, 0.009309
2186.8810, 0.011081
2188.8100, 0.010713
2190.7380, 0.009892
2192.6670, 0.009387
2194.5950, 0.009068
2196.5240, 0.010197
2198.4520, 0.010520
2200.3810, 0.011064
2202.3090, 0.010479
2204.2380, 0.009669
2206.1660, 0.009523
2208.0940, 0.009210
2210.0230, 0.009784
2211.9510, 0.010653
2213.8800, 0.010249
2215.8080, 0.011196
2217.7370, 0.011229
2219.6650, 0.010861
2221.5940, 0.011098
2223.5220, 0.012069
2225.4510, 0.012524
2227.3790, 0.012134
2229.3080, 0.010648
2231.2360, 0.009962
2233.1650, 0.010361
2235.0930, 0.010659
2237.0210, 0.010081
2238.9500, 0.010253
2240.8780, 0.010399
2242.8070, 0.010748
2244.7350, 0.010506
2246.6640, 0.010017
2248.5920, 0.009251
2250.5210, 0.009053
2252.4490, 0.009767
2254.3780, 0.010268
2256.3060, 0.010093
2258.2350, 0.009761
2260.1630, 0.009401
2262.0920, 0.008708
2264.0200, 0.008101
2265.9480, 0.008905
2267.8770, 0.009360
2269.8050, 0.008867
2271.7340, 0.008854
2273.6620, 0.008574
2275.5910, 0.008750
2277.5190, 0.009467
2279.4480, 0.009679
2281.3760, 0.008661
2283.3050, 0.008490
2285.2330, 0.009169
2287.1620, 0.009241
2289.0900, 0.009267
2291.0190, 0.009664
2292.9470, 0.009547
2294.8750, 0.009309
2296.8040, 0.009504
2298.7320, 0.010055
2300.6610, 0.009807
2302.5890, 0.008993
2304.5180, 0.008818
2306.4460, 0.008830
2308.3750, 0.008892
2310.3030, 0.009098
2312.2320, 0.009397
2314.1600, 0.009273
2316.0890, 0.009176
2318.0170, 0.009228
2319.9460, 0.009333
2321.8740, 0.009692
2323.8020, 0.010078
2325.7310, 0.009283
2327.6590, 0.008979
2329.5880, 0.009252
2331.5160, 0.008773
2333.4450, 0.008788
2335.3730, 0.008691
2337.3020, 0.008609
2339.2300, 0.008771
2341.1590, 0.008694
2343.0870, 0.008277
2345.0160, 0.008442
2346.9440, 0.008771
2348.8730, 0.008340
2350.8010, 0.008379
2352.7290, 0.008953
2354.6580, 0.009295
2356.5860, 0.009017
2358.5150, 0.008887
2360.4430, 0.009240
2362.3720, 0.009045
2364.3000, 0.009163
2366.2290, 0.009352
2368.1570, 0.009286
2370.0860, 0.009010
2372.0140, 0.008644
2373.9420, 0.008168
2375.8710, 0.008388
2377.7990, 0.009077
2379.7280, 0.009161
2381.6560, 0.008973
2383.5850, 0.008816
2385.5130, 0.008599
2387.4420, 0.008576
2389.3700, 0.008414
2391.2990, 0.008546
2393.2270, 0.008849
2395.1560, 0.008761
2397.0840, 0.008705
2399.0120, 0.008678
2400.9410, 0.008819
2402.8690, 0.008721
2404.7980, 0.008860
2406.7260, 0.008760
2408.6550, 0.008829
2410.5830, 0.009313
2412.5120, 0.008953
2414.4400, 0.008560
2416.3690, 0.008925
2418.2970, 0.009288
2420.2260, 0.009533
2422.1540, 0.009310
2424.0830, 0.008863
2426.0110, 0.008929
2427.9390, 0.009530
2429.8680, 0.009059
2431.7960, 0.009579
2433.7250, 0.009740
2435.6530, 0.009156
2437.5820, 0.009384
2439.5100, 0.009744
2441.4390, 0.009189
2443.3670, 0.009265
2445.2960, 0.008994
2447.2240, 0.008918
2449.1530, 0.009378
2451.0810, 0.009462
2453.0100, 0.009170
2454.9380, 0.009538
2456.8660, 0.009638
2458.7950, 0.009900
2460.7230, 0.009851
2462.6520, 0.009850
2464.5800, 0.009470
2466.5090, 0.009619
2468.4370, 0.010027
2470.3660, 0.009013
2472.2940, 0.008509
2474.2230, 0.009606
2476.1510, 0.010280
2478.0800, 0.010064
2480.0080, 0.009940
2481.9370, 0.009915
2483.8650, 0.009452
2485.7930, 0.008786
2487.7220, 0.008992
2489.6500, 0.009561
2491.5790, 0.009276
2493.5070, 0.009138
2495.4360, 0.009332
2497.3640, 0.009127
2499.2930, 0.009167
2501.2210, 0.009353
2503.1500, 0.009581
2505.0780, 0.009801
2507.0070, 0.010186
2508.9350, 0.010141
2510.8640, 0.009161
2512.7920, 0.008787
2514.7200, 0.009257
2516.6490, 0.009680
2518.5770, 0.009177
2520.5060, 0.009114
2522.4340, 0.009778
2524.3630, 0.010592
2526.2910, 0.010392
2528.2200, 0.009913
2530.1480, 0.009524
2532.0770, 0.009857
2534.0050, 0.009868
2535.9340, 0.010004
2537.8620, 0.010349
2539.7910, 0.010466
2541.7190, 0.010520
2543.6470, 0.009979
2545.5760, 0.009548
2547.5040, 0.009596
2549.4330, 0.010433
2551.3610, 0.010793
2553.2900, 0.010122
2555.2180, 0.009856
2557.1470, 0.010170
2559.0750, 0.010463
2561.0040, 0.010277
2562.9320, 0.010630
2564.8610, 0.010612
2566.7890, 0.010692
2568.7180, 0.010925
2570.6460, 0.010651
2572.5740, 0.010593
2574.5030, 0.010922
2576.4310, 0.011195
2578.3600, 0.011289
2580.2880, 0.011089
2582.2170, 0.010738
2584.1450, 0.009857
2586.0740, 0.009656
2588.0020, 0.010226
2589.9310, 0.010692
2591.8590, 0.010124
2593.7880, 0.009404
2595.7160, 0.009512
2597.6450, 0.010043
2599.5730, 0.009987
2601.5010, 0.010156
2603.4300, 0.010426
2605.3580, 0.010655
2607.2870, 0.010230
2609.2150, 0.009813
2611.1440, 0.009920
2613.0720, 0.009920
2615.0010, 0.010235
2616.9290, 0.010392
2618.8580, 0.010321
2620.7860, 0.010756
2622.7150, 0.010552
2624.6430, 0.010434
2626.5720, 0.009967
2628.5000, 0.009782
2630.4280, 0.010325
2632.3570, 0.010777
2634.2850, 0.010554
2636.2140, 0.009992
2638.1420, 0.010109
2640.0710, 0.010262
2641.9990, 0.010319
2643.9280, 0.010510
2645.8560, 0.010103
2647.7850, 0.010402
2649.7130, 0.010777
2651.6420, 0.010537
2653.5700, 0.010531
2655.4990, 0.010587
2657.4270, 0.010110
2659.3550, 0.009904
2661.2840, 0.010136
2663.2120, 0.010229
2665.1410, 0.010171
2667.0690, 0.009698
2668.9980, 0.009489
2670.9260, 0.009639
2672.8550, 0.009647
2674.7830, 0.009778
2676.7120, 0.010036
2678.6400, 0.010224
2680.5690, 0.010227
2682.4970, 0.010453
2684.4260, 0.010659
2686.3540, 0.010430
2688.2820, 0.010032
2690.2110, 0.009413
2692.1390, 0.009368
2694.0680, 0.009779
2695.9960, 0.009883
2697.9250, 0.009503
2699.8530, 0.009389
2701.7820, 0.009829
2703.7100, 0.010011
2705.6390, 0.009828
2707.5670, 0.009647
2709.4960, 0.009617
2711.4240, 0.010162
2713.3530, 0.010096
2715.2810, 0.009846
2717.2090, 0.009866
2719.1380, 0.009821
2721.0660, 0.009821
2722.9950, 0.010004
2724.9230, 0.010422
2726.8520, 0.010411
2728.7800, 0.010343
2730.7090, 0.009884
2732.6370, 0.009782
2734.5660, 0.010074
2736.4940, 0.009998
2738.4230, 0.009692
2740.3510, 0.009742
2742.2800, 0.009842
2744.2080, 0.009960
2746.1360, 0.009796
2748.0650, 0.009934
2749.9930, 0.009984
2751.9220, 0.010003
2753.8500, 0.010120
2755.7790, 0.010320
2757.7070, 0.010148
2759.6360, 0.009875
2761.5640, 0.009858
2763.4930, 0.009617
2765.4210, 0.009983
2767.3500, 0.010403
2769.2780, 0.010085
2771.2070, 0.010086
2773.1350, 0.010351
2775.0630, 0.010728
2776.9920, 0.010731
2778.9200, 0.010531
2780.8490, 0.010437
2782.7770, 0.010854
2784.7060, 0.011044
2786.6340, 0.010445
2788.5630, 0.009659
2790.4910, 0.010059
2792.4200, 0.010540
2794.3480, 0.010958
2796.2770, 0.011040
2798.2050, 0.011136
2800.1340, 0.010994
2802.0620, 0.010627
2803.9900, 0.010485
2805.9190, 0.010853
2807.8470, 0.011041
2809.7760, 0.010808
2811.7040, 0.010715
2813.6330, 0.010056
2815.5610, 0.009931
2817.4900, 0.010581
2819.4180, 0.011041
2821.3470, 0.010982
2823.2750, 0.010920
2825.2040, 0.010757
2827.1320, 0.010391
2829.0610, 0.009863
2830.9890, 0.010178
2832.9170, 0.011088
2834.8460, 0.011384
2836.7740, 0.011241
2838.7030, 0.010995
2840.6310, 0.011005
2842.5600, 0.010690
2844.4880, 0.010535
2846.4170, 0.011024
2848.3450, 0.011266
2850.2740, 0.010989
2852.2020, 0.010786
2854.1310, 0.010621
2856.0590, 0.010955
2857.9880, 0.010728
2859.9160, 0.011027
2861.8440, 0.011051
2863.7730, 0.011494
2865.7010, 0.011422
2867.6300, 0.010998
2869.5580, 0.010882
2871.4870, 0.011262
2873.4150, 0.011275
2875.3440, 0.011666
2877.2720, 0.011653
2879.2010, 0.011581
2881.1290, 0.010862
2883.0580, 0.010361
2884.9860, 0.010839
2886.9150, 0.011623
2888.8430, 0.011329
2890.7710, 0.010897
2892.7000, 0.010763
2894.6280, 0.010623
2896.5570, 0.010847
2898.4850, 0.011075
2900.4140, 0.010862
2902.3420, 0.010779
2904.2710, 0.010741
2906.1990, 0.011096
2908.1280, 0.011350
2910.0560, 0.010977
2911.9850, 0.010802
2913.9130, 0.010728
2915.8420, 0.010549
2917.7700, 0.010589
2919.6980, 0.010840
2921.6270, 0.010484
2923.5550, 0.010357
2925.4840, 0.010819
2927.4120, 0.010398
2929.3410, 0.010067
2931.2690, 0.010173
2933.1980, 0.010616
2935.1260, 0.010515
2937.0550, 0.010549
2938.9830, 0.010558
2940.9120, 0.010495
2942.8400, 0.010261
2944.7690, 0.010231
2946.6970, 0.010599
2948.6250, 0.010423
2950.5540, 0.010568
2952.4820, 0.010918
2954.4110, 0.010339
2956.3390, 0.011158
2958.2680, 0.011414
2960.1960, 0.010796
2962.1250, 0.010690
2964.0530, 0.010597
2965.9820, 0.010937
2967.9100, 0.011424
2969.8390, 0.011314
2971.7670, 0.011229
2973.6960, 0.012149
2975.6240, 0.012358
2977.5520, 0.011425
2979.4810, 0.011593
2981.4090, 0.011934
2983.3380, 0.011439
2985.2660, 0.011424
2987.1950, 0.012100
2989.1230, 0.012598
2991.0520, 0.012170
2992.9800, 0.011131
2994.9090, 0.010516
2996.8370, 0.011315
2998.7660, 0.012133
3000.6940, 0.012249
3002.6230, 0.011758
3004.5510, 0.010731
3006.4790, 0.010168
3008.4080, 0.010746
3010.3360, 0.011261
3012.2650, 0.011442
3014.1930, 0.011682
3016.1220, 0.011892
3018.0500, 0.012122
3019.9790, 0.012206
3021.9070, 0.011414
3023.8360, 0.011587
3025.7640, 0.011996
3027.6930, 0.012060
3029.6210, 0.012419
3031.5500, 0.012426
3033.4780, 0.012014
3035.4060, 0.012156
3037.3350, 0.012537
3039.2630, 0.012231
3041.1920, 0.012465
3043.1200, 0.012699
3045.0490, 0.011859
3046.9770, 0.012012
3048.9060, 0.012772
3050.8340, 0.013200
3052.7630, 0.012759
3054.6910, 0.012478
3056.6200, 0.012429
3058.5480, 0.012412
3060.4770, 0.012613
3062.4050, 0.012660
3064.3330, 0.012832
3066.2620, 0.012725
3068.1900, 0.012036
3070.1190, 0.012160
3072.0470, 0.013099
3073.9760, 0.013036
3075.9040, 0.012534
3077.8330, 0.012191
3079.7610, 0.011861
3081.6900, 0.012681
3083.6180, 0.013370
3085.5470, 0.013226
3087.4750, 0.012612
3089.4040, 0.012727
3091.3320, 0.013056
3093.2600, 0.013125
3095.1890, 0.013440
3097.1170, 0.013574
3099.0460, 0.013243
3100.9740, 0.012925
3102.9030, 0.013356
3104.8310, 0.012925
3106.7600, 0.012950
3108.6880, 0.013284
3110.6170, 0.013463
3112.5450, 0.013733
3114.4740, 0.013541
3116.4020, 0.013807
3118.3310, 0.013969
3120.2590, 0.013419
3122.1880, 0.013296
3124.1160, 0.012934
3126.0440, 0.013161
3127.9730, 0.013861
3129.9010, 0.013503
3131.8300, 0.012799
3133.7580, 0.013350
3135.6870, 0.013160
3137.6150, 0.012474
3139.5440, 0.012681
3141.4720, 0.013142
3143.4010, 0.012785
3145.3290, 0.012871
3147.2580, 0.012981
3149.1860, 0.012663
3151.1150, 0.013411
3153.0430, 0.014101
3154.9710, 0.013430
3156.9000, 0.013495
3158.8280, 0.013629
3160.7570, 0.014011
3162.6850, 0.014537
3164.6140, 0.014149
3166.5420, 0.013626
3168.4710, 0.013231
3170.3990, 0.013469
3172.3280, 0.013571
3174.2560, 0.013686
3176.1850, 0.013599
3178.1130, 0.013379
3180.0420, 0.014012
3181.9700, 0.014687
3183.8980, 0.014317
3185.8270, 0.014266
3187.7550, 0.014463
3189.6840, 0.014448
3191.6120, 0.014271
3193.5410, 0.014240
3195.4690, 0.015010
3197.3980, 0.015022
3199.3260, 0.014616
3201.2550, 0.013521
3203.1830, 0.013431
3205.1120, 0.013999
3207.0400, 0.013575
3208.9690, 0.012264
3210.8970, 0.012276
3212.8250, 0.013394
3214.7540, 0.013820
3216.6820, 0.013712
3218.6110, 0.014026
3220.5390, 0.014931
3222.4680, 0.014956
3224.3960, 0.014686
3226.3250, 0.014943
3228.2530, 0.014222
3230.1820, 0.013025
3232.1100, 0.013263
3234.0390, 0.014340
3235.9670, 0.015352
3237.8960, 0.015708
3239.8240, 0.015003
3241.7520, 0.013776
3243.6810, 0.013674
3245.6090, 0.013694
3247.5380, 0.013569
3249.4660, 0.013385
3251.3950, 0.013328
3253.3230, 0.013872
3255.2520, 0.014191
3257.1800, 0.014431
3259.1090, 0.014211
3261.0370, 0.014240
3262.9660, 0.014377
3264.8940, 0.014070
3266.8230, 0.014372
3268.7510, 0.014246
3270.6790, 0.013784
3272.6080, 0.013611
3274.5360, 0.013913
3276.4650, 0.013998
3278.3930, 0.013005
3280.3220, 0.012673
3282.2500, 0.012829
3284.1790, 0.013458
3286.1070, 0.014304
3288.0360, 0.015351
3289.9640, 0.015233
3291.8930, 0.013760
3293.8210, 0.012879
3295.7500, 0.013261
3297.6780, 0.013741
3299.6060, 0.013834
3301.5350, 0.014550
3303.4630, 0.014188
3305.3920, 0.013434
3307.3200, 0.013747
3309.2490, 0.014051
3311.1770, 0.014649
3313.1060, 0.014738
3315.0340, 0.015083
3316.9630, 0.014855
3318.8910, 0.014688
3320.8200, 0.014643
3322.7480, 0.014193
3324.6770, 0.013984
3326.6050, 0.014379
3328.5330, 0.014577
3330.4620, 0.014285
3332.3900, 0.013594
3334.3190, 0.014283
3336.2470, 0.014498
3338.1760, 0.014187
3340.1040, 0.014254
3342.0330, 0.014001
3343.9610, 0.014331
3345.8900, 0.014561
3347.8180, 0.014754
3349.7470, 0.015145
3351.6750, 0.015458
3353.6040, 0.015145
3355.5320, 0.015037
3357.4600, 0.014484
3359.3890, 0.014166
3361.3170, 0.015151
3363.2460, 0.015674
3365.1740, 0.015355
3367.1030, 0.014431
3369.0310, 0.013598
3370.9600, 0.013773
3372.8880, 0.014232
3374.8170, 0.014290
3376.7450, 0.014805
3378.6740, 0.015244
3380.6020, 0.014647
3382.5310, 0.013904
3384.4590, 0.013379
3386.3870, 0.013462
3388.3160, 0.014142
3390.2440, 0.013964
3392.1730, 0.013076
3394.1010, 0.013047
3396.0300, 0.013240
3397.9580, 0.012727
3399.8870, 0.013303
3401.8150, 0.014061
3403.7440, 0.014325
3405.6720, 0.014672
3407.6010, 0.014103
3409.5290, 0.013819
3411.4580, 0.014396
3413.3860, 0.014876
3415.3140, 0.014976
3417.2430, 0.014984
3419.1710, 0.014843
3421.1000, 0.014797
3423.0280, 0.015689
3424.9570, 0.015042
3426.8850, 0.014663
3428.8140, 0.015554
3430.7420, 0.015455
3432.6710, 0.014663
3434.5990, 0.014436
3436.5280, 0.014194
3438.4560, 0.014154
3440.3850, 0.013879
3442.3130, 0.013661
3444.2410, 0.013794
3446.1700, 0.014662
3448.0980, 0.014532
3450.0270, 0.014558
3451.9550, 0.014231
3453.8840, 0.014071
3455.8120, 0.014411
3457.7410, 0.014170
3459.6690, 0.013936
3461.5980, 0.014203
3463.5260, 0.014932
3465.4550, 0.016025
3467.3830, 0.015266
3469.3120, 0.014239
3471.2400, 0.013513
3473.1680, 0.013100
3475.0970, 0.013035
3477.0250, 0.012980
3478.9540, 0.013670
3480.8820, 0.013906
3482.8110, 0.013796
3484.7390, 0.014410
3486.6680, 0.014006
3488.5960, 0.013331
3490.5250, 0.013735
3492.4530, 0.013740
3494.3820, 0.013786
3496.3100, 0.014428
3498.2390, 0.014553
3500.1670, 0.013881
3502.0950, 0.013774
3504.0240, 0.013915
3505.9520, 0.013523
3507.8810, 0.014202
3509.8090, 0.014813
3511.7380, 0.015758
3513.6660, 0.015472
3515.5950, 0.014758
3517.5230, 0.015177
3519.4520, 0.015341
3521.3800, 0.014545
3523.3090, 0.014558
3525.2370, 0.014439
3527.1660, 0.014868
3529.0940, 0.014805
3531.0220, 0.012983
3532.9510, 0.013263
3534.8790, 0.014704
3536.8080, 0.013902
3538.7360, 0.014065
3540.6650, 0.014280
3542.5930, 0.013954
3544.5220, 0.014688
3546.4500, 0.014341
3548.3790, 0.013959
3550.3070, 0.014007
3552.2360, 0.015347
3554.1640, 0.015727
3556.0930, 0.014864
3558.0210, 0.014633
3559.9490, 0.014917
3561.8780, 0.014575
3563.8060, 0.013321
3565.7350, 0.013255
3567.6630, 0.014079
3569.5920, 0.014455
3571.5200, 0.013193
3573.4490, 0.012273
3575.3770, 0.012696
3577.3060, 0.013370
3579.2340, 0.013711
3581.1630, 0.013200
3583.0910, 0.013172
3585.0200, 0.013905
3586.9480, 0.013769
3588.8760, 0.012656
3590.8050, 0.012479
3592.7330, 0.013118
3594.6620, 0.012441
3596.5900, 0.011995
3598.5190, 0.012221
3600.4470, 0.013095
3602.3760, 0.014642
3604.3040, 0.015177
3606.2330, 0.014769
3608.1610, 0.014716
3610.0900, 0.014257
3612.0180, 0.014013
3613.9470, 0.013757
3615.8750, 0.013315
3617.8030, 0.013519
3619.7320, 0.014286
3621.6600, 0.014088
3623.5890, 0.013142
3625.5170, 0.013793
3627.4460, 0.014835
3629.3740, 0.014726
3631.3030, 0.013432
3633.2310, 0.012869
3635.1600, 0.013883
3637.0880, 0.014811
3639.0170, 0.014683
3640.9450, 0.014819
3642.8740, 0.014386
3644.8020, 0.013415
3646.7300, 0.013488
3648.6590, 0.013727
3650.5870, 0.013651
3652.5160, 0.013653
3654.4440, 0.013900
3656.3730, 0.015367
3658.3010, 0.017167
3660.2300, 0.017559
3662.1580, 0.016682
3664.0870, 0.015561
3666.0150, 0.015675
3667.9440, 0.016145
3669.8720, 0.015349
3671.8010, 0.015453
3673.7290, 0.015103
3675.6570, 0.014482
3677.5860, 0.014407
3679.5140, 0.013591
3681.4430, 0.013230
3683.3710, 0.013706
3685.3000, 0.013432
3687.2280, 0.013617
3689.1570, 0.014367
3691.0850, 0.014756
3693.0140, 0.014288
3694.9420, 0.014406
3696.8710, 0.014516
3698.7990, 0.012352
3700.7280, 0.011804
3702.6560, 0.012593
3704.5840, 0.011871
3706.5130, 0.012098
3708.4410, 0.012961
3710.3700, 0.013783
3712.2980, 0.013681
3714.2270, 0.012583
3716.1550, 0.012738
3718.0840, 0.012738
3720.0120, 0.013366
3721.9410, 0.014756
3723.8690, 0.014932
3725.7980, 0.013450
3727.7260, 0.012457
3729.6550, 0.013969
3731.5830, 0.014474
3733.5110, 0.013777
3735.4400, 0.014397
3737.3680, 0.014685
3739.2970, 0.014978
3741.2250, 0.014972
3743.1540, 0.013648
3745.0820, 0.012970
3747.0110, 0.012623
3748.9390, 0.013579
3750.8680, 0.013814
3752.7960, 0.013616
3754.7250, 0.013403
3756.6530, 0.014114
3758.5820, 0.014203
3760.5100, 0.014259
3762.4380, 0.013665
3764.3670, 0.014070
3766.2950, 0.015259
3768.2240, 0.014372
3770.1520, 0.012491
3772.0810, 0.012439
3774.0090, 0.013527
3775.9380, 0.013651
3777.8660, 0.012230
3779.7950, 0.012819
3781.7230, 0.012404
3783.6520, 0.013382
3785.5800, 0.014174
3787.5090, 0.012738
3789.4370, 0.011657
3791.3650, 0.013171
3793.2940, 0.013818
3795.2220, 0.014108
3797.1510, 0.014307
3799.0790, 0.014291
3801.0080, 0.014845
3802.9360, 0.014671
3804.8650, 0.014168
3806.7930, 0.014149
3808.7220, 0.014158
3810.6500, 0.012855
3812.5790, 0.013169
3814.5070, 0.014271
3816.4360, 0.013928
3818.3640, 0.014430
3820.2920, 0.014865
3822.2210, 0.014868
3824.1490, 0.014914
3826.0780, 0.015884
3828.0060, 0.014131
3829.9350, 0.012698
3831.8630, 0.012681
3833.7920, 0.012913
3835.7200, 0.014326
3837.6490, 0.015633
3839.5770, 0.014915
3841.5060, 0.014791
3843.4340, 0.013941
3845.3630, 0.012319
3847.2910, 0.013561
3849.2190, 0.013867
3851.1480, 0.013225
3853.0760, 0.013682
3855.0050, 0.013122
3856.9330, 0.012408
3858.8620, 0.012592
3860.7900, 0.013566
3862.7190, 0.014676
3864.6470, 0.015469
3866.5760, 0.013481
3868.5040, 0.011944
3870.4330, 0.012550
3872.3610, 0.013727
3874.2900, 0.013716
3876.2180, 0.012731
3878.1460, 0.013303
3880.0750, 0.013894
3882.0030, 0.013218
3883.9320, 0.013865
3885.8600, 0.014369
3887.7890, 0.013398
3889.7170, 0.013314
3891.6460, 0.014145
3893.5740, 0.014485
3895.5030, 0.013451
3897.4310, 0.013249
3899.3600, 0.014232
3901.2880, 0.014462
3903.2170, 0.014809
3905.1450, 0.014355
3907.0730, 0.013588
3909.0020, 0.013282
3910.9300, 0.014242
3912.8590, 0.014581
3914.7870, 0.013391
3916.7160, 0.012692
3918.6440, 0.013156
3920.5730, 0.013313
3922.5010, 0.012756
3924.4300, 0.013861
3926.3580, 0.015446
3928.2870, 0.014064
3930.2150, 0.012199
3932.1440, 0.012198
3934.0720, 0.012699
3936.0000, 0.012510
3937.9290, 0.013008
3939.8570, 0.014107
3941.7860, 0.014304
3943.7140, 0.014684
3945.6430, 0.014746
3947.5710, 0.014641
3949.5000, 0.015578
3951.4280, 0.015892
3953.3570, 0.014646
3955.2850, 0.013974
3957.2140, 0.015219
3959.1420, 0.015402
3961.0710, 0.015303
3962.9990, 0.015583
3964.9270, 0.014992
3966.8560, 0.013571
3968.7840, 0.012127
3970.7130, 0.011965
3972.6410, 0.012109
3974.5700, 0.013413
3976.4980, 0.014808
3978.4270, 0.014500
3980.3550, 0.014167
3982.2840, 0.013797
3984.2120, 0.013041
3986.1410, 0.011833
3988.0690, 0.012372
3989.9980, 0.013338
3991.9260, 0.014064
3993.8540, 0.013784
3995.7830, 0.012891
3997.7110, 0.012191
3999.6400, 0.012197
##END=



