##NAMES=Ludlamite
##RRUFFID=R040152
##IDEAL CHEMISTRY=Fe^2+^_3_(PO_4_)_2_&#183;4H_2_O
##LOCALITY=Cobalt, Lemhi County, Idaho, USA
##OWNER=RRUFF
##SOURCE=University of Arizona Mineral Museum
##DESCRIPTION=Green tabular single crystals
##STATUS=The identification of this mineral has been confirmed by X-ray diffraction and chemical analysis
##URL=rruff.info/R040152
##MEASURED CHEMISTRY=Fe_3.01_(P_1.00_O_4_)_2_Â·4H_2_O
399.1926, 0.049865
401.1211, 0.051561
403.0496, 0.051809
404.9780, 0.052326
406.9065, 0.054177
408.8350, 0.055924
410.7634, 0.058642
412.6919, 0.060589
414.6204, 0.062340
416.5488, 0.065319
418.4773, 0.068057
420.4058, 0.069597
422.3342, 0.071363
424.2627, 0.072844
426.1912, 0.074252
428.1196, 0.076336
430.0481, 0.078187
431.9766, 0.080529
433.9050, 0.083864
435.8335, 0.086901
437.7620, 0.091101
439.6904, 0.096199
441.6189, 0.101586
443.5474, 0.106811
445.4758, 0.111900
447.4043, 0.116679
449.3328, 0.121712
451.2612, 0.126177
453.1897, 0.133053
455.1182, 0.142036
457.0466, 0.148946
458.9751, 0.152245
460.9036, 0.151971
462.8320, 0.146692
464.7605, 0.139829
466.6890, 0.135740
468.6174, 0.134787
470.5459, 0.136044
472.4744, 0.140756
474.4028, 0.147202
476.3313, 0.153667
478.2598, 0.161279
480.1882, 0.170182
482.1167, 0.178557
484.0452, 0.184414
485.9736, 0.188243
487.9021, 0.189959
489.8306, 0.187159
491.7590, 0.180509
493.6875, 0.171301
495.6160, 0.161211
497.5444, 0.153039
499.4729, 0.147263
501.4014, 0.144080
503.3298, 0.144114
505.2583, 0.146953
507.1868, 0.151176
509.1152, 0.156106
511.0437, 0.162425
512.9722, 0.169783
514.9006, 0.177235
516.8291, 0.185786
518.7576, 0.195565
520.6860, 0.205223
522.6145, 0.215344
524.5430, 0.226377
526.4714, 0.237964
528.3999, 0.249541
530.3284, 0.259668
532.2568, 0.267973
534.1853, 0.274525
536.1138, 0.278346
538.0422, 0.280220
539.9707, 0.281141
541.8992, 0.282529
543.8276, 0.284986
545.7561, 0.288037
547.6846, 0.291737
549.6130, 0.294132
551.5415, 0.294321
553.4700, 0.292524
555.3984, 0.286520
557.3269, 0.274753
559.2554, 0.260378
561.1838, 0.250442
563.1123, 0.248253
565.0408, 0.251622
566.9692, 0.254807
568.8977, 0.253637
570.8262, 0.247346
572.7546, 0.235792
574.6831, 0.221448
576.6116, 0.207372
578.5400, 0.194149
580.4685, 0.182527
582.3970, 0.172796
584.3254, 0.165062
586.2539, 0.159005
588.1824, 0.154468
590.1108, 0.151243
592.0393, 0.148252
593.9678, 0.144700
595.8962, 0.140962
597.8247, 0.136345
599.7532, 0.129838
601.6816, 0.121455
603.6101, 0.111722
605.5386, 0.101561
607.4670, 0.092028
609.3955, 0.083624
611.3240, 0.076863
613.2524, 0.072241
615.1809, 0.069921
617.1094, 0.069831
619.0378, 0.071581
620.9663, 0.074765
622.8948, 0.078963
624.8232, 0.083511
626.7517, 0.087689
628.6802, 0.090540
630.6086, 0.092064
632.5371, 0.092006
634.4656, 0.090520
636.3940, 0.088217
638.3225, 0.086195
640.2510, 0.085373
642.1794, 0.085605
644.1079, 0.086477
646.0364, 0.088084
647.9648, 0.090665
649.8933, 0.093191
651.8218, 0.094979
653.7502, 0.096285
655.6787, 0.096509
657.6072, 0.095698
659.5356, 0.093859
661.4641, 0.090684
663.3926, 0.086652
665.3210, 0.082134
667.2495, 0.077907
669.1780, 0.074692
671.1064, 0.072504
673.0349, 0.070900
674.9634, 0.070345
676.8918, 0.070771
678.8203, 0.071762
680.7488, 0.073242
682.6772, 0.074871
684.6057, 0.076205
686.5342, 0.077578
688.4626, 0.079258
690.3911, 0.080462
692.3196, 0.081239
694.2480, 0.081762
696.1765, 0.082029
698.1050, 0.081858
700.0334, 0.081326
701.9619, 0.080876
703.8904, 0.080208
705.8188, 0.079316
707.7473, 0.078300
709.6758, 0.077193
711.6042, 0.075901
713.5327, 0.074584
715.4612, 0.073322
717.3896, 0.071978
719.3181, 0.070626
721.2466, 0.069350
723.1750, 0.068125
725.1035, 0.067121
727.0320, 0.066499
728.9604, 0.066019
730.8889, 0.065615
732.8174, 0.065476
734.7458, 0.065678
736.6743, 0.066146
738.6028, 0.066695
740.5313, 0.067515
742.4597, 0.068785
744.3882, 0.070153
746.3167, 0.071924
748.2451, 0.074088
750.1736, 0.076237
752.1021, 0.078323
754.0305, 0.080487
755.9590, 0.082574
757.8875, 0.084282
759.8159, 0.085112
761.7444, 0.084727
763.6729, 0.083281
765.6013, 0.080729
767.5298, 0.077388
769.4583, 0.073886
771.3867, 0.070655
773.3152, 0.068066
775.2437, 0.066359
777.1721, 0.065448
779.1006, 0.065249
781.0291, 0.066006
782.9575, 0.067664
784.8860, 0.070247
786.8145, 0.073557
788.7429, 0.077174
790.6714, 0.080709
792.5999, 0.083839
794.5283, 0.085746
796.4568, 0.085484
798.3853, 0.082858
800.3137, 0.078358
802.2422, 0.073508
804.1707, 0.069184
806.0991, 0.065830
808.0276, 0.063451
809.9561, 0.062093
811.8845, 0.061342
813.8130, 0.061078
815.7415, 0.061350
817.6699, 0.061926
819.5984, 0.062662
821.5269, 0.063605
823.4553, 0.064700
825.3838, 0.065908
827.3123, 0.067330
829.2407, 0.069003
831.1692, 0.070779
833.0977, 0.072612
835.0261, 0.074715
836.9546, 0.076978
838.8831, 0.079336
840.8115, 0.081644
842.7400, 0.084048
844.6685, 0.086819
846.5969, 0.089627
848.5254, 0.092601
850.4539, 0.095864
852.3823, 0.099213
854.3108, 0.102791
856.2393, 0.106693
858.1677, 0.110946
860.0962, 0.115410
862.0247, 0.119951
863.9531, 0.124714
865.8816, 0.129772
867.8101, 0.135044
869.7385, 0.140383
871.6670, 0.146123
873.5955, 0.152470
875.5239, 0.158977
877.4524, 0.165675
879.3809, 0.173120
881.3093, 0.180987
883.2378, 0.189124
885.1663, 0.197910
887.0947, 0.207084
889.0232, 0.216710
890.9517, 0.226894
892.8801, 0.237593
894.8085, 0.248816
896.7370, 0.260420
898.6655, 0.272239
900.5939, 0.284103
902.5224, 0.295751
904.4509, 0.306579
906.3793, 0.315638
908.3078, 0.321859
910.2363, 0.324204
912.1647, 0.322251
914.0932, 0.316226
916.0217, 0.308054
917.9501, 0.301072
919.8786, 0.298811
921.8071, 0.302082
923.7355, 0.309712
925.6640, 0.319941
927.5925, 0.330803
929.5209, 0.340542
931.4494, 0.347245
933.3779, 0.349670
935.3063, 0.346992
937.2348, 0.338687
939.1633, 0.325959
941.0917, 0.310405
943.0202, 0.293330
944.9487, 0.276058
946.8771, 0.259106
948.8056, 0.243162
950.7341, 0.229761
952.6625, 0.222400
954.5910, 0.224376
956.5195, 0.235046
958.4479, 0.249486
960.3764, 0.262771
962.3049, 0.274455
964.2333, 0.286846
966.1618, 0.301618
968.0903, 0.319396
970.0187, 0.340128
971.9472, 0.363236
973.8757, 0.388037
975.8041, 0.412899
977.7326, 0.435051
979.6611, 0.452258
981.5895, 0.462321
983.5180, 0.463596
985.4465, 0.455973
987.3749, 0.440255
989.3034, 0.417944
991.2319, 0.391450
993.1603, 0.363268
995.0888, 0.335347
997.0173, 0.309439
998.9457, 0.286946
1000.8740, 0.268738
1002.8030, 0.256142
1004.7310, 0.249054
1006.6600, 0.246680
1008.5880, 0.248250
1010.5170, 0.253136
1012.4450, 0.261149
1014.3730, 0.272248
1016.3020, 0.285958
1018.2300, 0.301535
1020.1590, 0.317517
1022.0870, 0.331599
1024.0160, 0.340654
1025.9440, 0.342171
1027.8730, 0.336639
1029.8010, 0.326271
1031.7300, 0.313507
1033.6580, 0.300285
1035.5870, 0.287802
1037.5150, 0.276715
1039.4440, 0.266871
1041.3720, 0.257414
1043.3010, 0.247958
1045.2290, 0.238702
1047.1570, 0.228855
1049.0860, 0.217881
1051.0140, 0.206128
1052.9430, 0.193778
1054.8710, 0.181128
1056.8000, 0.169016
1058.7280, 0.157415
1060.6570, 0.146357
1062.5850, 0.135742
1064.5140, 0.125703
1066.4420, 0.116312
1068.3710, 0.107121
1070.2990, 0.098349
1072.2280, 0.090412
1074.1560, 0.082906
1076.0840, 0.076014
1078.0130, 0.070102
1079.9410, 0.065138
1081.8700, 0.060984
1083.7980, 0.057840
1085.7270, 0.055983
1087.6550, 0.056107
1089.5840, 0.059146
1091.5120, 0.064972
1093.4410, 0.069633
1095.3690, 0.067714
1097.2980, 0.059949
1099.2260, 0.050948
1101.1550, 0.043386
1103.0830, 0.037739
1105.0110, 0.033850
1106.9400, 0.031139
1108.8680, 0.029170
1110.7970, 0.027611
1112.7250, 0.026347
1114.6540, 0.025223
1116.5820, 0.024183
1118.5110, 0.023398
1120.4390, 0.022734
1122.3680, 0.022078
1124.2960, 0.021518
1126.2250, 0.021023
1128.1530, 0.020555
1130.0820, 0.020152
1132.0100, 0.019759
1133.9380, 0.019267
1135.8670, 0.018885
1137.7950, 0.018707
1139.7240, 0.018297
1141.6520, 0.017870
1143.5810, 0.017505
1145.5090, 0.017127
1147.4380, 0.016828
1149.3660, 0.016631
1151.2950, 0.016411
1153.2230, 0.016057
1155.1520, 0.015670
1157.0800, 0.015393
1159.0090, 0.015064
1160.9370, 0.014922
1162.8650, 0.014776
1164.7940, 0.014502
1166.7220, 0.014256
1168.6510, 0.014039
1170.5790, 0.013792
1172.5080, 0.013539
1174.4360, 0.013411
1176.3650, 0.013266
1178.2930, 0.013057
1180.2220, 0.012978
1182.1500, 0.012886
1184.0790, 0.012656
1186.0070, 0.012507
1187.9360, 0.012458
1189.8640, 0.012334
1191.7920, 0.012211
1193.7210, 0.012148
1195.6490, 0.012229
1197.5780, 0.012087
1199.5060, 0.011771
1201.4350, 0.011580
1203.3630, 0.011579
1205.2920, 0.011547
1207.2200, 0.011519
1209.1490, 0.011385
1211.0770, 0.011186
1213.0060, 0.011195
1214.9340, 0.011193
1216.8630, 0.011131
1218.7910, 0.011206
1220.7190, 0.011214
1222.6480, 0.011211
1224.5760, 0.011198
1226.5050, 0.011111
1228.4330, 0.011085
1230.3620, 0.011064
1232.2900, 0.010950
1234.2190, 0.010840
1236.1470, 0.010900
1238.0760, 0.010926
1240.0040, 0.010959
1241.9330, 0.011062
1243.8610, 0.011190
1245.7900, 0.011157
1247.7180, 0.011181
1249.6460, 0.011247
1251.5750, 0.011184
1253.5030, 0.011157
1255.4320, 0.011294
1257.3600, 0.011302
1259.2890, 0.011308
1261.2170, 0.011350
1263.1460, 0.011333
1265.0740, 0.011309
1267.0030, 0.011407
1268.9310, 0.011533
1270.8600, 0.011574
1272.7880, 0.011767
1274.7170, 0.011850
1276.6450, 0.011856
1278.5730, 0.011996
1280.5020, 0.012116
1282.4300, 0.012023
1284.3590, 0.011900
1286.2870, 0.011975
1288.2160, 0.012063
1290.1440, 0.012107
1292.0730, 0.012156
1294.0010, 0.012075
1295.9300, 0.012069
1297.8580, 0.012206
1299.7870, 0.012324
1301.7150, 0.012300
1303.6440, 0.012337
1305.5720, 0.012380
1307.5000, 0.012528
1309.4290, 0.012523
1311.3570, 0.012450
1313.2860, 0.012525
1315.2140, 0.012634
1317.1430, 0.012659
1319.0710, 0.012661
1321.0000, 0.012562
1322.9280, 0.012621
1324.8570, 0.012784
1326.7850, 0.012767
1328.7140, 0.012792
1330.6420, 0.012929
1332.5710, 0.012912
1334.4990, 0.012910
1336.4270, 0.012856
1338.3560, 0.012849
1340.2840, 0.012901
1342.2130, 0.013124
1344.1410, 0.013265
1346.0700, 0.013338
1347.9980, 0.013461
1349.9270, 0.013681
1351.8550, 0.013714
1353.7840, 0.013638
1355.7120, 0.013652
1357.6410, 0.013729
1359.5690, 0.013876
1361.4980, 0.013987
1363.4260, 0.013990
1365.3540, 0.014108
1367.2830, 0.014225
1369.2110, 0.014320
1371.1400, 0.014380
1373.0680, 0.014538
1374.9970, 0.014724
1376.9250, 0.014644
1378.8540, 0.014520
1380.7820, 0.014578
1382.7110, 0.014738
1384.6390, 0.015080
1386.5680, 0.015186
1388.4960, 0.015162
1390.4240, 0.015343
1392.3530, 0.015524
1394.2810, 0.015632
1396.2100, 0.015777
1398.1380, 0.015759
1400.0670, 0.015707
1401.9950, 0.015864
1403.9240, 0.016121
1405.8520, 0.016267
1407.7810, 0.016482
1409.7090, 0.016773
1411.6380, 0.017033
1413.5660, 0.017265
1415.4950, 0.017455
1417.4230, 0.017573
1419.3510, 0.017888
1421.2800, 0.018052
1423.2080, 0.018105
1425.1370, 0.018411
1427.0650, 0.018737
1428.9940, 0.019048
1430.9220, 0.019174
1432.8510, 0.019268
1434.7790, 0.019408
1436.7080, 0.019508
1438.6360, 0.019565
1440.5650, 0.019701
1442.4930, 0.019963
1444.4220, 0.020247
1446.3500, 0.020385
1448.2780, 0.020401
1450.2070, 0.020518
1452.1350, 0.020719
1454.0640, 0.020828
1455.9920, 0.020733
1457.9210, 0.020905
1459.8490, 0.021257
1461.7780, 0.021460
1463.7060, 0.021536
1465.6350, 0.021634
1467.5630, 0.021958
1469.4920, 0.022244
1471.4200, 0.022361
1473.3490, 0.022503
1475.2770, 0.022758
1477.2050, 0.023060
1479.1340, 0.023384
1481.0620, 0.023684
1482.9910, 0.023931
1484.9190, 0.024189
1486.8480, 0.024488
1488.7760, 0.024928
1490.7050, 0.025366
1492.6330, 0.025708
1494.5620, 0.026124
1496.4900, 0.026582
1498.4190, 0.027065
1500.3470, 0.027363
1502.2760, 0.027726
1504.2040, 0.028210
1506.1320, 0.028573
1508.0610, 0.029049
1509.9890, 0.029736
1511.9180, 0.030393
1513.8460, 0.030989
1515.7750, 0.031461
1517.7030, 0.031937
1519.6320, 0.032339
1521.5600, 0.032744
1523.4890, 0.033231
1525.4170, 0.033591
1527.3460, 0.033996
1529.2740, 0.034380
1531.2030, 0.034843
1533.1310, 0.035370
1535.0590, 0.035826
1536.9880, 0.036162
1538.9160, 0.036494
1540.8450, 0.037039
1542.7730, 0.037696
1544.7020, 0.038328
1546.6300, 0.039182
1548.5590, 0.040085
1550.4870, 0.040887
1552.4160, 0.041825
1554.3440, 0.043051
1556.2730, 0.044284
1558.2010, 0.045459
1560.1300, 0.046873
1562.0580, 0.048590
1563.9860, 0.050583
1565.9150, 0.052602
1567.8430, 0.054883
1569.7720, 0.057675
1571.7000, 0.060803
1573.6290, 0.064288
1575.5570, 0.068207
1577.4860, 0.072806
1579.4140, 0.077688
1581.3430, 0.082620
1583.2710, 0.087713
1585.2000, 0.092608
1587.1280, 0.096101
1589.0570, 0.097254
1590.9850, 0.096010
1592.9130, 0.092399
1594.8420, 0.086661
1596.7700, 0.079483
1598.6990, 0.071707
1600.6270, 0.064302
1602.5560, 0.057885
1604.4840, 0.052421
1606.4130, 0.047988
1608.3410, 0.044413
1610.2700, 0.041520
1612.1980, 0.039280
1614.1270, 0.037585
1616.0550, 0.036045
1617.9840, 0.034848
1619.9120, 0.034069
1621.8400, 0.033298
1623.7690, 0.032587
1625.6970, 0.032035
1627.6260, 0.031678
1629.5540, 0.031361
1631.4830, 0.030959
1633.4110, 0.030594
1635.3400, 0.030201
1637.2680, 0.030073
1639.1970, 0.029934
1641.1250, 0.029600
1643.0540, 0.029318
1644.9820, 0.029232
1646.9110, 0.029219
1648.8390, 0.029297
1650.7670, 0.029181
1652.6960, 0.029030
1654.6240, 0.029238
1656.5530, 0.029326
1658.4810, 0.029330
1660.4100, 0.029366
1662.3380, 0.029259
1664.2670, 0.029238
1666.1950, 0.029335
1668.1240, 0.029408
1670.0520, 0.029541
1671.9810, 0.029632
1673.9090, 0.029566
1675.8380, 0.029522
1677.7660, 0.029594
1679.6940, 0.029815
1681.6230, 0.029898
1683.5510, 0.030020
1685.4800, 0.030330
1687.4080, 0.030349
1689.3370, 0.030153
1691.2650, 0.030336
1693.1940, 0.030579
1695.1220, 0.030819
1697.0510, 0.030929
1698.9790, 0.030900
1700.9080, 0.031089
1702.8360, 0.031441
1704.7650, 0.031749
1706.6930, 0.032019
1708.6210, 0.032063
1710.5500, 0.032235
1712.4780, 0.032548
1714.4070, 0.032637
1716.3350, 0.032821
1718.2640, 0.032814
1720.1920, 0.032929
1722.1210, 0.033257
1724.0490, 0.033393
1725.9780, 0.033309
1727.9060, 0.033214
1729.8350, 0.033352
1731.7630, 0.033456
1733.6920, 0.033399
1735.6200, 0.033559
1737.5480, 0.033735
1739.4770, 0.033717
1741.4050, 0.033689
1743.3340, 0.033840
1745.2620, 0.034060
1747.1910, 0.033915
1749.1190, 0.033864
1751.0480, 0.034113
1752.9760, 0.034211
1754.9050, 0.034115
1756.8330, 0.034165
1758.7620, 0.034333
1760.6900, 0.034524
1762.6190, 0.034517
1764.5470, 0.034492
1766.4750, 0.034612
1768.4040, 0.034635
1770.3320, 0.034874
1772.2610, 0.035202
1774.1890, 0.035352
1776.1180, 0.035463
1778.0460, 0.035851
1779.9750, 0.036129
1781.9030, 0.036342
1783.8320, 0.036792
1785.7600, 0.037293
1787.6890, 0.037830
1789.6170, 0.038513
1791.5460, 0.039170
1793.4740, 0.039842
1795.4020, 0.040704
1797.3310, 0.041760
1799.2590, 0.042905
1801.1880, 0.044004
1803.1160, 0.045239
1805.0450, 0.046303
1806.9730, 0.047284
1808.9020, 0.048626
1810.8300, 0.049688
1812.7590, 0.050173
1814.6870, 0.050246
1816.6160, 0.050210
1818.5440, 0.050065
1820.4730, 0.049667
1822.4010, 0.048911
1824.3290, 0.048058
1826.2580, 0.047084
1828.1860, 0.046144
1830.1150, 0.045333
1832.0430, 0.044616
1833.9720, 0.044237
1835.9000, 0.043908
1837.8290, 0.043393
1839.7570, 0.043082
1841.6860, 0.042815
1843.6140, 0.043022
1845.5430, 0.043373
1847.4710, 0.043569
1849.4000, 0.043657
1851.3280, 0.044005
1853.2560, 0.044201
1855.1850, 0.044460
1857.1130, 0.044881
1859.0420, 0.045361
1860.9700, 0.045833
1862.8990, 0.046098
1864.8270, 0.046048
1866.7560, 0.046297
1868.6840, 0.046563
1870.6130, 0.046279
1872.5410, 0.046180
1874.4700, 0.046441
1876.3980, 0.046496
1878.3270, 0.046202
1880.2550, 0.045826
1882.1830, 0.045710
1884.1120, 0.045494
1886.0400, 0.045320
1887.9690, 0.045375
1889.8970, 0.045273
1891.8260, 0.044581
1893.7540, 0.043922
1895.6830, 0.043496
1897.6110, 0.043272
1899.5400, 0.043251
1901.4680, 0.043398
1903.3970, 0.042974
1905.3250, 0.042253
1907.2540, 0.041342
1909.1820, 0.041015
1911.1100, 0.041003
1913.0390, 0.040515
1914.9670, 0.040265
1916.8960, 0.040557
1918.8240, 0.040623
1920.7530, 0.040718
1922.6810, 0.040573
1924.6100, 0.040342
1926.5380, 0.040215
1928.4670, 0.039908
1930.3950, 0.039859
1932.3240, 0.039593
1934.2520, 0.039084
1936.1810, 0.039132
1938.1090, 0.038137
1940.0370, 0.037693
1941.9660, 0.037821
1943.8940, 0.037422
1945.8230, 0.037459
1947.7510, 0.037617
1949.6800, 0.036892
1951.6080, 0.036787
1953.5370, 0.036741
1955.4650, 0.036096
1957.3940, 0.035633
1959.3220, 0.035258
1961.2510, 0.035302
1963.1790, 0.034833
1965.1080, 0.034869
1967.0360, 0.035818
1968.9640, 0.035266
1970.8930, 0.034554
1972.8210, 0.034726
1974.7500, 0.034762
1976.6780, 0.034959
1978.6070, 0.036734
1980.5350, 0.036736
1982.4640, 0.036866
1984.3920, 0.036345
1986.3210, 0.035645
1988.2490, 0.035846
1990.1780, 0.036185
1992.1060, 0.036429
1994.0350, 0.036024
1995.9630, 0.036153
1997.8910, 0.036445
1999.8200, 0.036577
2001.7480, 0.036116
2003.6770, 0.035292
2005.6050, 0.034653
2007.5340, 0.034641
2009.4620, 0.034792
2011.3910, 0.035747
2013.3190, 0.035617
2015.2480, 0.035558
2017.1760, 0.036646
2019.1050, 0.035776
2021.0330, 0.035384
2022.9620, 0.035391
2024.8900, 0.034990
2026.8180, 0.034761
2028.7470, 0.034752
2030.6750, 0.034925
2032.6040, 0.035757
2034.5320, 0.036895
2036.4610, 0.036720
2038.3890, 0.037031
2040.3180, 0.037141
2042.2460, 0.037289
2044.1750, 0.036977
2046.1030, 0.036531
2048.0320, 0.037464
2049.9600, 0.039014
2051.8890, 0.037994
2053.8170, 0.037390
2055.7460, 0.038119
2057.6740, 0.038802
2059.6030, 0.038881
2061.5310, 0.039539
2063.4590, 0.039967
2065.3880, 0.039957
2067.3160, 0.040989
2069.2450, 0.041016
2071.1730, 0.040454
2073.1020, 0.040811
2075.0300, 0.041901
2076.9590, 0.042618
2078.8870, 0.042136
2080.8160, 0.041932
2082.7440, 0.042538
2084.6730, 0.043242
2086.6010, 0.043017
2088.5300, 0.042661
2090.4580, 0.042861
2092.3860, 0.043179
2094.3150, 0.043680
2096.2430, 0.043972
2098.1720, 0.044373
2100.1000, 0.044842
2102.0290, 0.044696
2103.9570, 0.044850
2105.8860, 0.045713
2107.8140, 0.045599
2109.7430, 0.045781
2111.6710, 0.046759
2113.6000, 0.047332
2115.5280, 0.047501
2117.4570, 0.047206
2119.3850, 0.046903
2121.3130, 0.047004
2123.2420, 0.046979
2125.1700, 0.047106
2127.0990, 0.046800
2129.0270, 0.046413
2130.9560, 0.046610
2132.8840, 0.046373
2134.8130, 0.046459
2136.7410, 0.047554
2138.6700, 0.048972
2140.5980, 0.049583
2142.5270, 0.048547
2144.4550, 0.047823
2146.3840, 0.048149
2148.3120, 0.048567
2150.2400, 0.047863
2152.1690, 0.046654
2154.0970, 0.046773
2156.0260, 0.047353
2157.9540, 0.049054
2159.8830, 0.052339
2161.8110, 0.053290
2163.7400, 0.053348
2165.6680, 0.054260
2167.5970, 0.054178
2169.5250, 0.053287
2171.4540, 0.052701
2173.3820, 0.052881
2175.3110, 0.053606
2177.2390, 0.053718
2179.1670, 0.053619
2181.0960, 0.053960
2183.0240, 0.056074
2184.9530, 0.057314
2186.8810, 0.057074
2188.8100, 0.056736
2190.7380, 0.056816
2192.6670, 0.057466
2194.5950, 0.057631
2196.5240, 0.058072
2198.4520, 0.059377
2200.3810, 0.058854
2202.3090, 0.058405
2204.2380, 0.060264
2206.1660, 0.061346
2208.0940, 0.059409
2210.0230, 0.058678
2211.9510, 0.059189
2213.8800, 0.060004
2215.8080, 0.060963
2217.7370, 0.060285
2219.6650, 0.059703
2221.5940, 0.060155
2223.5220, 0.060160
2225.4510, 0.059421
2227.3790, 0.059040
2229.3080, 0.059967
2231.2360, 0.060164
2233.1650, 0.059858
2235.0930, 0.059811
2237.0210, 0.059640
2238.9500, 0.059597
2240.8780, 0.059330
2242.8070, 0.059093
2244.7350, 0.059387
2246.6640, 0.060003
2248.5920, 0.060392
2250.5210, 0.060174
2252.4490, 0.059555
2254.3780, 0.059199
2256.3060, 0.060149
2258.2350, 0.060547
2260.1630, 0.059875
2262.0920, 0.059841
2264.0200, 0.060555
2265.9480, 0.060573
2267.8770, 0.060499
2269.8050, 0.060939
2271.7340, 0.061648
2273.6620, 0.062012
2275.5910, 0.061769
2277.5190, 0.061940
2279.4480, 0.062155
2281.3760, 0.062339
2283.3050, 0.062577
2285.2330, 0.062565
2287.1620, 0.062666
2289.0900, 0.062917
2291.0190, 0.062908
2292.9470, 0.062528
2294.8750, 0.061882
2296.8040, 0.061732
2298.7320, 0.061917
2300.6610, 0.062311
2302.5890, 0.062626
2304.5180, 0.062802
2306.4460, 0.062944
2308.3750, 0.063165
2310.3030, 0.063319
2312.2320, 0.063501
2314.1600, 0.063425
2316.0890, 0.063505
2318.0170, 0.063340
2319.9460, 0.063363
2321.8740, 0.063805
2323.8020, 0.064203
2325.7310, 0.063228
2327.6590, 0.061937
2329.5880, 0.061519
2331.5160, 0.061433
2333.4450, 0.061368
2335.3730, 0.061243
2337.3020, 0.061501
2339.2300, 0.061631
2341.1590, 0.061660
2343.0870, 0.061551
2345.0160, 0.061437
2346.9440, 0.061793
2348.8730, 0.061897
2350.8010, 0.061781
2352.7290, 0.061479
2354.6580, 0.061047
2356.5860, 0.060808
2358.5150, 0.060899
2360.4430, 0.061046
2362.3720, 0.060711
2364.3000, 0.060141
2366.2290, 0.060014
2368.1570, 0.060310
2370.0860, 0.060510
2372.0140, 0.060673
2373.9420, 0.061100
2375.8710, 0.061117
2377.7990, 0.061064
2379.7280, 0.061304
2381.6560, 0.061315
2383.5850, 0.061198
2385.5130, 0.061143
2387.4420, 0.061493
2389.3700, 0.061502
2391.2990, 0.060939
2393.2270, 0.060629
2395.1560, 0.060644
2397.0840, 0.060649
2399.0120, 0.060658
2400.9410, 0.060775
2402.8690, 0.060788
2404.7980, 0.060907
2406.7260, 0.061208
2408.6550, 0.061381
2410.5830, 0.061573
2412.5120, 0.061738
2414.4400, 0.061091
2416.3690, 0.060591
2418.2970, 0.060888
2420.2260, 0.061502
2422.1540, 0.061589
2424.0830, 0.061376
2426.0110, 0.061396
2427.9390, 0.061531
2429.8680, 0.061182
2431.7960, 0.060871
2433.7250, 0.060736
2435.6530, 0.061181
2437.5820, 0.061389
2439.5100, 0.061461
2441.4390, 0.061826
2443.3670, 0.061711
2445.2960, 0.061766
2447.2240, 0.062030
2449.1530, 0.062513
2451.0810, 0.062795
2453.0100, 0.062835
2454.9380, 0.062666
2456.8660, 0.062561
2458.7950, 0.062629
2460.7230, 0.062938
2462.6520, 0.063326
2464.5800, 0.063701
2466.5090, 0.063751
2468.4370, 0.063954
2470.3660, 0.063905
2472.2940, 0.063706
2474.2230, 0.063934
2476.1510, 0.064603
2478.0800, 0.064355
2480.0080, 0.064322
2481.9370, 0.064777
2483.8650, 0.065276
2485.7930, 0.065480
2487.7220, 0.065186
2489.6500, 0.065140
2491.5790, 0.065488
2493.5070, 0.066218
2495.4360, 0.066591
2497.3640, 0.066919
2499.2930, 0.067117
2501.2210, 0.066843
2503.1500, 0.067174
2505.0780, 0.068145
2507.0070, 0.068197
2508.9350, 0.067916
2510.8640, 0.068345
2512.7920, 0.068707
2514.7200, 0.069059
2516.6490, 0.069570
2518.5770, 0.070702
2520.5060, 0.070758
2522.4340, 0.070057
2524.3630, 0.070151
2526.2910, 0.070816
2528.2200, 0.071720
2530.1480, 0.072531
2532.0770, 0.072698
2534.0050, 0.072609
2535.9340, 0.072838
2537.8620, 0.073582
2539.7910, 0.074384
2541.7190, 0.074551
2543.6470, 0.074831
2545.5760, 0.075330
2547.5040, 0.075462
2549.4330, 0.075242
2551.3610, 0.075829
2553.2900, 0.075867
2555.2180, 0.076017
2557.1470, 0.076668
2559.0750, 0.077032
2561.0040, 0.077296
2562.9320, 0.077907
2564.8610, 0.078398
2566.7890, 0.078793
2568.7180, 0.079460
2570.6460, 0.079570
2572.5740, 0.079443
2574.5030, 0.079852
2576.4310, 0.080973
2578.3600, 0.081783
2580.2880, 0.081309
2582.2170, 0.080971
2584.1450, 0.081864
2586.0740, 0.082749
2588.0020, 0.083164
2589.9310, 0.083170
2591.8590, 0.083641
2593.7880, 0.083853
2595.7160, 0.084061
2597.6450, 0.084312
2599.5730, 0.084767
2601.5010, 0.085316
2603.4300, 0.085825
2605.3580, 0.086321
2607.2870, 0.086015
2609.2150, 0.086008
2611.1440, 0.086586
2613.0720, 0.086632
2615.0010, 0.086542
2616.9290, 0.086877
2618.8580, 0.087344
2620.7860, 0.087537
2622.7150, 0.087356
2624.6430, 0.087358
2626.5720, 0.088024
2628.5000, 0.088502
2630.4280, 0.088601
2632.3570, 0.088744
2634.2850, 0.088983
2636.2140, 0.089028
2638.1420, 0.089156
2640.0710, 0.089696
2641.9990, 0.089871
2643.9280, 0.089886
2645.8560, 0.090190
2647.7850, 0.090689
2649.7130, 0.090872
2651.6420, 0.090654
2653.5700, 0.090455
2655.4990, 0.090470
2657.4270, 0.090246
2659.3550, 0.090497
2661.2840, 0.090951
2663.2120, 0.090871
2665.1410, 0.090894
2667.0690, 0.090861
2668.9980, 0.090487
2670.9260, 0.090435
2672.8550, 0.090715
2674.7830, 0.090817
2676.7120, 0.090772
2678.6400, 0.090804
2680.5690, 0.090856
2682.4970, 0.090719
2684.4260, 0.091058
2686.3540, 0.091254
2688.2820, 0.091366
2690.2110, 0.091282
2692.1390, 0.091223
2694.0680, 0.091414
2695.9960, 0.092079
2697.9250, 0.092385
2699.8530, 0.092183
2701.7820, 0.092351
2703.7100, 0.092934
2705.6390, 0.093113
2707.5670, 0.092779
2709.4960, 0.093174
2711.4240, 0.093670
2713.3530, 0.093673
2715.2810, 0.093971
2717.2090, 0.094479
2719.1380, 0.094982
2721.0660, 0.095283
2722.9950, 0.095315
2724.9230, 0.095367
2726.8520, 0.095585
2728.7800, 0.096176
2730.7090, 0.096696
2732.6370, 0.097094
2734.5660, 0.097461
2736.4940, 0.097345
2738.4230, 0.097363
2740.3510, 0.097930
2742.2800, 0.098138
2744.2080, 0.097772
2746.1360, 0.097988
2748.0650, 0.098833
2749.9930, 0.099602
2751.9220, 0.100269
2753.8500, 0.100502
2755.7790, 0.100418
2757.7070, 0.100385
2759.6360, 0.100676
2761.5640, 0.100982
2763.4930, 0.101204
2765.4210, 0.101662
2767.3500, 0.101883
2769.2780, 0.102360
2771.2070, 0.102876
2773.1350, 0.103197
2775.0630, 0.103570
2776.9920, 0.104020
2778.9200, 0.104315
2780.8490, 0.104329
2782.7770, 0.104486
2784.7060, 0.105160
2786.6340, 0.106031
2788.5630, 0.106402
2790.4910, 0.106585
2792.4200, 0.107294
2794.3480, 0.107839
2796.2770, 0.108137
2798.2050, 0.108291
2800.1340, 0.108772
2802.0620, 0.109367
2803.9900, 0.109686
2805.9190, 0.110101
2807.8470, 0.110856
2809.7760, 0.111235
2811.7040, 0.111687
2813.6330, 0.112194
2815.5610, 0.112417
2817.4900, 0.113002
2819.4180, 0.113512
2821.3470, 0.113738
2823.2750, 0.114040
2825.2040, 0.114567
2827.1320, 0.115427
2829.0610, 0.116092
2830.9890, 0.116079
2832.9170, 0.116400
2834.8460, 0.116606
2836.7740, 0.116738
2838.7030, 0.117067
2840.6310, 0.116914
2842.5600, 0.116652
2844.4880, 0.116470
2846.4170, 0.116344
2848.3450, 0.116374
2850.2740, 0.116312
2852.2020, 0.116137
2854.1310, 0.116106
2856.0590, 0.115926
2857.9880, 0.115349
2859.9160, 0.115144
2861.8440, 0.114994
2863.7730, 0.114502
2865.7010, 0.113916
2867.6300, 0.113203
2869.5580, 0.112813
2871.4870, 0.112455
2873.4150, 0.112455
2875.3440, 0.111911
2877.2720, 0.111255
2879.2010, 0.110629
2881.1290, 0.110066
2883.0580, 0.109592
2884.9860, 0.108783
2886.9150, 0.108348
2888.8430, 0.107892
2890.7710, 0.107416
2892.7000, 0.107249
2894.6280, 0.106888
2896.5570, 0.106370
2898.4850, 0.106122
2900.4140, 0.105840
2902.3420, 0.105199
2904.2710, 0.104538
2906.1990, 0.104350
2908.1280, 0.104299
2910.0560, 0.104071
2911.9850, 0.103731
2913.9130, 0.103535
2915.8420, 0.102666
2917.7700, 0.102085
2919.6980, 0.102226
2921.6270, 0.102094
2923.5550, 0.101399
2925.4840, 0.101057
2927.4120, 0.100903
2929.3410, 0.100742
2931.2690, 0.100038
2933.1980, 0.100048
2935.1260, 0.100227
2937.0550, 0.099640
2938.9830, 0.098800
2940.9120, 0.098109
2942.8400, 0.098170
2944.7690, 0.098175
2946.6970, 0.097625
2948.6250, 0.096889
2950.5540, 0.096642
2952.4820, 0.096570
2954.4110, 0.096270
2956.3390, 0.095965
2958.2680, 0.095804
2960.1960, 0.095322
2962.1250, 0.094888
2964.0530, 0.094520
2965.9820, 0.094441
2967.9100, 0.093743
2969.8390, 0.093233
2971.7670, 0.092782
2973.6960, 0.092604
2975.6240, 0.092600
2977.5520, 0.092742
2979.4810, 0.092107
2981.4090, 0.091505
2983.3380, 0.091248
2985.2660, 0.091072
2987.1950, 0.090969
2989.1230, 0.090788
2991.0520, 0.090257
2992.9800, 0.089350
2994.9090, 0.088723
2996.8370, 0.088406
2998.7660, 0.088337
3000.6940, 0.088319
3002.6230, 0.087855
3004.5510, 0.087585
3006.4790, 0.087525
3008.4080, 0.087360
3010.3360, 0.087042
3012.2650, 0.086853
3014.1930, 0.086488
3016.1220, 0.085837
3018.0500, 0.085669
3019.9790, 0.086034
3021.9070, 0.086193
3023.8360, 0.086320
3025.7640, 0.086131
3027.6930, 0.085994
3029.6210, 0.085668
3031.5500, 0.085141
3033.4780, 0.084970
3035.4060, 0.085317
3037.3350, 0.084897
3039.2630, 0.084383
3041.1920, 0.084797
3043.1200, 0.085145
3045.0490, 0.085312
3046.9770, 0.085313
3048.9060, 0.085010
3050.8340, 0.084674
3052.7630, 0.084710
3054.6910, 0.085118
3056.6200, 0.085697
3058.5480, 0.086244
3060.4770, 0.085846
3062.4050, 0.085620
3064.3330, 0.086117
3066.2620, 0.086316
3068.1900, 0.086369
3070.1190, 0.086654
3072.0470, 0.086979
3073.9760, 0.087192
3075.9040, 0.087960
3077.8330, 0.087950
3079.7610, 0.088127
3081.6900, 0.088513
3083.6180, 0.088821
3085.5470, 0.089169
3087.4750, 0.089555
3089.4040, 0.090115
3091.3320, 0.090822
3093.2600, 0.091299
3095.1890, 0.091684
3097.1170, 0.092350
3099.0460, 0.093067
3100.9740, 0.093953
3102.9030, 0.094592
3104.8310, 0.094670
3106.7600, 0.095057
3108.6880, 0.096002
3110.6170, 0.096631
3112.5450, 0.097213
3114.4740, 0.097645
3116.4020, 0.098209
3118.3310, 0.099200
3120.2590, 0.099897
3122.1880, 0.099733
3124.1160, 0.099472
3126.0440, 0.099954
3127.9730, 0.100188
3129.9010, 0.099099
3131.8300, 0.098795
3133.7580, 0.099530
3135.6870, 0.100069
3137.6150, 0.100064
3139.5440, 0.099862
3141.4720, 0.099268
3143.4010, 0.098670
3145.3290, 0.098333
3147.2580, 0.098341
3149.1860, 0.098702
3151.1150, 0.098300
3153.0430, 0.097360
3154.9710, 0.096979
3156.9000, 0.096894
3158.8280, 0.096968
3160.7570, 0.096699
3162.6850, 0.095555
3164.6140, 0.094754
3166.5420, 0.094325
3168.4710, 0.094030
3170.3990, 0.093266
3172.3280, 0.092843
3174.2560, 0.092813
3176.1850, 0.092340
3178.1130, 0.091683
3180.0420, 0.091573
3181.9700, 0.091521
3183.8980, 0.091211
3185.8270, 0.090771
3187.7550, 0.090311
3189.6840, 0.089906
3191.6120, 0.089233
3193.5410, 0.089105
3195.4690, 0.089082
3197.3980, 0.088721
3199.3260, 0.087916
3201.2550, 0.087730
3203.1830, 0.087821
3205.1120, 0.087604
3207.0400, 0.087026
3208.9690, 0.086531
3210.8970, 0.085969
3212.8250, 0.085423
3214.7540, 0.085061
3216.6820, 0.084991
3218.6110, 0.084957
3220.5390, 0.085301
3222.4680, 0.084862
3224.3960, 0.084611
3226.3250, 0.083838
3228.2530, 0.083581
3230.1820, 0.083704
3232.1100, 0.083254
3234.0390, 0.082530
3235.9670, 0.081661
3237.8960, 0.081149
3239.8240, 0.081292
3241.7520, 0.081238
3243.6810, 0.080830
3245.6090, 0.080323
3247.5380, 0.079621
3249.4660, 0.078781
3251.3950, 0.078312
3253.3230, 0.077624
3255.2520, 0.077112
3257.1800, 0.077487
3259.1090, 0.077840
3261.0370, 0.077116
3262.9660, 0.075933
3264.8940, 0.075271
3266.8230, 0.074484
3268.7510, 0.073705
3270.6790, 0.073342
3272.6080, 0.073329
3274.5360, 0.073059
3276.4650, 0.071945
3278.3930, 0.071322
3280.3220, 0.070758
3282.2500, 0.070745
3284.1790, 0.070554
3286.1070, 0.070308
3288.0360, 0.070025
3289.9640, 0.069992
3291.8930, 0.069706
3293.8210, 0.069051
3295.7500, 0.068471
3297.6780, 0.068287
3299.6060, 0.067510
3301.5350, 0.067160
3303.4630, 0.067041
3305.3920, 0.066406
3307.3200, 0.065877
3309.2490, 0.065869
3311.1770, 0.064876
3313.1060, 0.063873
3315.0340, 0.064667
3316.9630, 0.065455
3318.8910, 0.064453
3320.8200, 0.063815
3322.7480, 0.064197
3324.6770, 0.063636
3326.6050, 0.062527
3328.5330, 0.061743
3330.4620, 0.061194
3332.3900, 0.060574
3334.3190, 0.060154
3336.2470, 0.060086
3338.1760, 0.059733
3340.1040, 0.058592
3342.0330, 0.057158
3343.9610, 0.056752
3345.8900, 0.056088
3347.8180, 0.056018
3349.7470, 0.055843
3351.6750, 0.055518
3353.6040, 0.054954
3355.5320, 0.054411
3357.4600, 0.054326
3359.3890, 0.054121
3361.3170, 0.053109
3363.2460, 0.052158
3365.1740, 0.051826
3367.1030, 0.051300
3369.0310, 0.051204
3370.9600, 0.050874
3372.8880, 0.050667
3374.8170, 0.050370
3376.7450, 0.049630
3378.6740, 0.049343
3380.6020, 0.049263
3382.5310, 0.049189
3384.4590, 0.048707
3386.3870, 0.048411
3388.3160, 0.047653
3390.2440, 0.046635
3392.1730, 0.046173
3394.1010, 0.045910
3396.0300, 0.045608
3397.9580, 0.045666
3399.8870, 0.045874
3401.8150, 0.045613
3403.7440, 0.045170
3405.6720, 0.044520
3407.6010, 0.043810
3409.5290, 0.043401
3411.4580, 0.042742
3413.3860, 0.042345
3415.3140, 0.041693
3417.2430, 0.041145
3419.1710, 0.041296
3421.1000, 0.041441
3423.0280, 0.041474
3424.9570, 0.041297
3426.8850, 0.040265
3428.8140, 0.039350
3430.7420, 0.039378
3432.6710, 0.039147
3434.5990, 0.038788
3436.5280, 0.038051
3438.4560, 0.037175
3440.3850, 0.037342
3442.3130, 0.037173
3444.2410, 0.036756
3446.1700, 0.036849
3448.0980, 0.037365
3450.0270, 0.036590
3451.9550, 0.035418
3453.8840, 0.035629
3455.8120, 0.036872
3457.7410, 0.036614
3459.6690, 0.035586
3461.5980, 0.034832
3463.5260, 0.034508
3465.4550, 0.033805
3467.3830, 0.033934
3469.3120, 0.034087
3471.2400, 0.034226
3473.1680, 0.034162
3475.0970, 0.033978
3477.0250, 0.033877
3478.9540, 0.033783
3480.8820, 0.034193
3482.8110, 0.033741
3484.7390, 0.033182
3486.6680, 0.032610
3488.5960, 0.031879
3490.5250, 0.032475
3492.4530, 0.031616
3494.3820, 0.030622
3496.3100, 0.030365
3498.2390, 0.030081
3500.1670, 0.029553
3502.0950, 0.029407
3504.0240, 0.029490
3505.9520, 0.030247
3507.8810, 0.030370
3509.8090, 0.030180
3511.7380, 0.029798
3513.6660, 0.029351
3515.5950, 0.029663
3517.5230, 0.029425
3519.4520, 0.028985
3521.3800, 0.029212
3523.3090, 0.030049
3525.2370, 0.030354
3527.1660, 0.030522
3529.0940, 0.031185
3531.0220, 0.030093
3532.9510, 0.029740
3534.8790, 0.029915
3536.8080, 0.030125
3538.7360, 0.030345
3540.6650, 0.029312
3542.5930, 0.029225
3544.5220, 0.029158
3546.4500, 0.028334
3548.3790, 0.027838
3550.3070, 0.027505
3552.2360, 0.027068
3554.1640, 0.027091
3556.0930, 0.026992
3558.0210, 0.026712
3559.9490, 0.026206
3561.8780, 0.026148
3563.8060, 0.026432
3565.7350, 0.025729
3567.6630, 0.025411
3569.5920, 0.026417
3571.5200, 0.026611
3573.4490, 0.026071
3575.3770, 0.025905
3577.3060, 0.025406
3579.2340, 0.025000
3581.1630, 0.024429
3583.0910, 0.024490
3585.0200, 0.024850
3586.9480, 0.024385
3588.8760, 0.023673
3590.8050, 0.023788
3592.7330, 0.024222
3594.6620, 0.024092
3596.5900, 0.023620
3598.5190, 0.023644
3600.4470, 0.023752
3602.3760, 0.023878
3604.3040, 0.024323
3606.2330, 0.024270
3608.1610, 0.024479
3610.0900, 0.025028
3612.0180, 0.024484
3613.9470, 0.024011
3615.8750, 0.023837
3617.8030, 0.024694
3619.7320, 0.025266
3621.6600, 0.023357
3623.5890, 0.022854
3625.5170, 0.023357
3627.4460, 0.022573
3629.3740, 0.022869
3631.3030, 0.023647
3633.2310, 0.022642
3635.1600, 0.022022
3637.0880, 0.022555
3639.0170, 0.022212
3640.9450, 0.021643
3642.8740, 0.021448
3644.8020, 0.023078
3646.7300, 0.023642
3648.6590, 0.022012
3650.5870, 0.021541
3652.5160, 0.021927
3654.4440, 0.021412
3656.3730, 0.022069
3658.3010, 0.022991
3660.2300, 0.023123
3662.1580, 0.023573
3664.0870, 0.023607
3666.0150, 0.023629
3667.9440, 0.024099
3669.8720, 0.024130
3671.8010, 0.023597
3673.7290, 0.022915
3675.6570, 0.022394
3677.5860, 0.023432
3679.5140, 0.024527
3681.4430, 0.023424
3683.3710, 0.022725
3685.3000, 0.023091
3687.2280, 0.022848
3689.1570, 0.022993
3691.0850, 0.023149
3693.0140, 0.022892
3694.9420, 0.023491
3696.8710, 0.024212
3698.7990, 0.023878
3700.7280, 0.022838
3702.6560, 0.023268
3704.5840, 0.023753
3706.5130, 0.024135
3708.4410, 0.024555
3710.3700, 0.023423
3712.2980, 0.023287
3714.2270, 0.023524
3716.1550, 0.023801
3718.0840, 0.023137
3720.0120, 0.022154
3721.9410, 0.021903
3723.8690, 0.022181
3725.7980, 0.023499
3727.7260, 0.024083
3729.6550, 0.024021
3731.5830, 0.022950
3733.5110, 0.022378
3735.4400, 0.022912
3737.3680, 0.023785
3739.2970, 0.023694
3741.2250, 0.024827
3743.1540, 0.025389
3745.0820, 0.024806
3747.0110, 0.023814
3748.9390, 0.023634
3750.8680, 0.024220
3752.7960, 0.025348
3754.7250, 0.025406
3756.6530, 0.024661
3758.5820, 0.024446
3760.5100, 0.023693
3762.4380, 0.024425
3764.3670, 0.025209
3766.2950, 0.024923
3768.2240, 0.024270
3770.1520, 0.023857
3772.0810, 0.024320
3774.0090, 0.025024
3775.9380, 0.025151
3777.8660, 0.025704
3779.7950, 0.025571
3781.7230, 0.025120
3783.6520, 0.024754
3785.5800, 0.025152
3787.5090, 0.026200
3789.4370, 0.026749
3791.3650, 0.026250
3793.2940, 0.025019
3795.2220, 0.024240
3797.1510, 0.024492
3799.0790, 0.025179
3801.0080, 0.025578
3802.9360, 0.026489
3804.8650, 0.026490
3806.7930, 0.025367
3808.7220, 0.024062
3810.6500, 0.024998
3812.5790, 0.025751
3814.5070, 0.024980
3816.4360, 0.025069
3818.3640, 0.025442
3820.2920, 0.025535
3822.2210, 0.025754
3824.1490, 0.024835
3826.0780, 0.024418
3828.0060, 0.025936
3829.9350, 0.026395
3831.8630, 0.025091
3833.7920, 0.024728
3835.7200, 0.024245
3837.6490, 0.024282
3839.5770, 0.024735
3841.5060, 0.025210
3843.4340, 0.025489
3845.3630, 0.025522
3847.2910, 0.025913
3849.2190, 0.025611
3851.1480, 0.024824
3853.0760, 0.024548
3855.0050, 0.024328
3856.9330, 0.024863
3858.8620, 0.025593
3860.7900, 0.025816
3862.7190, 0.025257
3864.6470, 0.025040
3866.5760, 0.025095
3868.5040, 0.026555
3870.4330, 0.026714
3872.3610, 0.026061
3874.2900, 0.025953
3876.2180, 0.026047
3878.1460, 0.026013
3880.0750, 0.025292
3882.0030, 0.024414
3883.9320, 0.026268
3885.8600, 0.027110
3887.7890, 0.026615
3889.7170, 0.025880
3891.6460, 0.025601
3893.5740, 0.026159
3895.5030, 0.026106
3897.4310, 0.026059
3899.3600, 0.026128
3901.2880, 0.026994
3903.2170, 0.027819
3905.1450, 0.027256
3907.0730, 0.026074
3909.0020, 0.025477
3910.9300, 0.025039
3912.8590, 0.025586
3914.7870, 0.026032
3916.7160, 0.026138
3918.6440, 0.026556
3920.5730, 0.026279
3922.5010, 0.025762
3924.4300, 0.025568
3926.3580, 0.026138
3928.2870, 0.025711
3930.2150, 0.026037
3932.1440, 0.025509
3934.0720, 0.025879
3936.0000, 0.026767
3937.9290, 0.026319
3939.8570, 0.025006
3941.7860, 0.025481
3943.7140, 0.025605
3945.6430, 0.024857
3947.5710, 0.025297
3949.5000, 0.025877
3951.4280, 0.026149
3953.3570, 0.026092
3955.2850, 0.025835
3957.2140, 0.027019
3959.1420, 0.026968
3961.0710, 0.027286
3962.9990, 0.027915
3964.9270, 0.028083
3966.8560, 0.027317
3968.7840, 0.026273
3970.7130, 0.026138
3972.6410, 0.026652
3974.5700, 0.027341
3976.4980, 0.027647
3978.4270, 0.026938
3980.3550, 0.026747
3982.2840, 0.028613
3984.2120, 0.028716
3986.1410, 0.027322
3988.0690, 0.026574
3989.9980, 0.026982
3991.9260, 0.026649
3993.8540, 0.025647
3995.7830, 0.025256
3997.7110, 0.026191
3999.6400, 0.026204
##END=



