##NAMES=Muscovite
##RRUFFID=R040124
##IDEAL CHEMISTRY=KAl_2_(Si_3_Al)O_10_(OH)_2_
##LOCALITY=Garnet Hill, Pennsylvania, USA
##OWNER=RRUFF
##SOURCE=Bob Downs
##DESCRIPTION=Grayish green mica book
##STATUS=The identification of this mineral has been confirmed by X-ray diffraction and chemical analysis
##URL=rruff.info/R040124
##MEASURED CHEMISTRY=(K_0.90_Na_0.07_)(Al_0.86_Fe_0.10_Mg_0.04_)_2_(Si_0.76_Al_0.24_)_4_O_10_((OH)_0.99_F_0.01_)_2_
399.1926, 0.399005
401.1211, 0.435095
403.0496, 0.437187
404.9780, 0.445472
406.9065, 0.425930
408.8350, 0.415464
410.7634, 0.416535
412.6919, 0.422916
414.6204, 0.410581
416.5488, 0.404709
418.4773, 0.417105
420.4058, 0.422397
422.3342, 0.414042
424.2627, 0.421249
426.1912, 0.429378
428.1196, 0.424684
430.0481, 0.419584
431.9766, 0.420058
433.9050, 0.415521
435.8335, 0.414213
437.7620, 0.410979
439.6904, 0.401107
441.6189, 0.393641
443.5474, 0.388833
445.4758, 0.382763
447.4043, 0.378282
449.3328, 0.369416
451.2612, 0.356171
453.1897, 0.342208
455.1182, 0.330232
457.0466, 0.321333
458.9751, 0.312757
460.9036, 0.301524
462.8320, 0.288789
464.7605, 0.277716
466.6890, 0.268601
468.6174, 0.257573
470.5459, 0.244821
472.4744, 0.234801
474.4028, 0.226457
476.3313, 0.220816
478.2598, 0.218364
480.1882, 0.217530
482.1167, 0.218273
484.0452, 0.219264
485.9736, 0.219130
487.9021, 0.218250
489.8306, 0.216361
491.7590, 0.213770
493.6875, 0.212058
495.6160, 0.210240
497.5444, 0.206812
499.4729, 0.203659
501.4014, 0.202574
503.3298, 0.203778
505.2583, 0.206424
507.1868, 0.211502
509.1152, 0.219325
511.0437, 0.229621
512.9722, 0.241144
514.9006, 0.252748
516.8291, 0.264266
518.7576, 0.275683
520.6860, 0.287893
522.6145, 0.299632
524.5430, 0.308592
526.4714, 0.316884
528.3999, 0.324232
530.3284, 0.331682
532.2568, 0.338698
534.1853, 0.343738
536.1138, 0.348289
538.0422, 0.353304
539.9707, 0.358022
541.8992, 0.363243
543.8276, 0.368174
545.7561, 0.372361
547.6846, 0.375696
549.6130, 0.378124
551.5415, 0.381692
553.4700, 0.386021
555.3984, 0.388255
557.3269, 0.389638
559.2554, 0.392280
561.1838, 0.394329
563.1123, 0.394771
565.0408, 0.394545
566.9692, 0.395193
568.8977, 0.397249
570.8262, 0.398587
572.7546, 0.398421
574.6831, 0.398401
576.6116, 0.398983
578.5400, 0.399728
580.4685, 0.398666
582.3970, 0.395818
584.3254, 0.393816
586.2539, 0.391566
588.1824, 0.389124
590.1108, 0.386356
592.0393, 0.383077
593.9678, 0.378998
595.8962, 0.375205
597.8247, 0.371478
599.7532, 0.367840
601.6816, 0.364356
603.6101, 0.360791
605.5386, 0.356046
607.4670, 0.350460
609.3955, 0.345017
611.3240, 0.340321
613.2524, 0.334998
615.1809, 0.328594
617.1094, 0.322342
619.0378, 0.316554
620.9663, 0.310982
622.8948, 0.306491
624.8232, 0.303754
626.7517, 0.303992
628.6802, 0.306873
630.6086, 0.312450
632.5371, 0.318834
634.4656, 0.323148
636.3940, 0.325072
638.3225, 0.324745
640.2510, 0.321924
642.1794, 0.317655
644.1079, 0.313498
646.0364, 0.309125
647.9648, 0.304044
649.8933, 0.299454
651.8218, 0.295327
653.7502, 0.291164
655.6787, 0.286832
657.6072, 0.282800
659.5356, 0.278678
661.4641, 0.274667
663.3926, 0.270861
665.3210, 0.266767
667.2495, 0.263253
669.1780, 0.259741
671.1064, 0.256469
673.0349, 0.253403
674.9634, 0.250267
676.8918, 0.247364
678.8203, 0.244183
680.7488, 0.240892
682.6772, 0.237865
684.6057, 0.235018
686.5342, 0.232336
688.4626, 0.229435
690.3911, 0.226458
692.3196, 0.224003
694.2480, 0.221605
696.1765, 0.219066
698.1050, 0.216951
700.0334, 0.214638
701.9619, 0.211663
703.8904, 0.209231
705.8188, 0.207210
707.7473, 0.204967
709.6758, 0.202584
711.6042, 0.200003
713.5327, 0.197972
715.4612, 0.196240
717.3896, 0.193850
719.3181, 0.191461
721.2466, 0.189120
723.1750, 0.187244
725.1035, 0.185272
727.0320, 0.183274
728.9604, 0.181727
730.8889, 0.180208
732.8174, 0.178261
734.7458, 0.176717
736.6743, 0.175239
738.6028, 0.173314
740.5313, 0.171442
742.4597, 0.170189
744.3882, 0.169027
746.3167, 0.167154
748.2451, 0.165079
750.1736, 0.163062
752.1021, 0.161002
754.0305, 0.159061
755.9590, 0.157022
757.8875, 0.155156
759.8159, 0.153435
761.7444, 0.151507
763.6729, 0.149601
765.6013, 0.147892
767.5298, 0.146275
769.4583, 0.144681
771.3867, 0.143262
773.3152, 0.141607
775.2437, 0.140083
777.1721, 0.139041
779.1006, 0.137995
781.0291, 0.136655
782.9575, 0.135232
784.8860, 0.134204
786.8145, 0.133308
788.7429, 0.132039
790.6714, 0.131175
792.5999, 0.130424
794.5283, 0.129279
796.4568, 0.127954
798.3853, 0.126921
800.3137, 0.125761
802.2422, 0.124505
804.1707, 0.123226
806.0991, 0.122117
808.0276, 0.120802
809.9561, 0.119470
811.8845, 0.118106
813.8130, 0.116814
815.7415, 0.115682
817.6699, 0.114343
819.5984, 0.112926
821.5269, 0.111673
823.4553, 0.110102
825.3838, 0.108776
827.3123, 0.107580
829.2407, 0.105894
831.1692, 0.103993
833.0977, 0.101975
835.0261, 0.100352
836.9546, 0.098762
838.8831, 0.097111
840.8115, 0.095359
842.7400, 0.093428
844.6685, 0.091624
846.5969, 0.090001
848.5254, 0.088385
850.4539, 0.086704
852.3823, 0.084987
854.3108, 0.083438
856.2393, 0.081966
858.1677, 0.080332
860.0962, 0.079027
862.0247, 0.077766
863.9531, 0.076287
865.8816, 0.074782
867.8101, 0.073452
869.7385, 0.072056
871.6670, 0.070583
873.5955, 0.069095
875.5239, 0.067838
877.4524, 0.066807
879.3809, 0.066003
881.3093, 0.065196
883.2378, 0.064237
885.1663, 0.063224
887.0947, 0.062294
889.0232, 0.061569
890.9517, 0.061120
892.8801, 0.060771
894.8085, 0.060486
896.7370, 0.060611
898.6655, 0.060880
900.5939, 0.060948
902.5224, 0.060981
904.4509, 0.060951
906.3793, 0.061044
908.3078, 0.061196
910.2363, 0.061052
912.1647, 0.060998
914.0932, 0.060832
916.0217, 0.060453
917.9501, 0.060143
919.8786, 0.059889
921.8071, 0.059813
923.7355, 0.059539
925.6640, 0.059264
927.5925, 0.058951
929.5209, 0.058724
931.4494, 0.058831
933.3779, 0.058664
935.3063, 0.058353
937.2348, 0.058142
939.1633, 0.058087
941.0917, 0.058068
943.0202, 0.058125
944.9487, 0.058524
946.8771, 0.059219
948.8056, 0.060003
950.7341, 0.061151
952.6625, 0.062500
954.5910, 0.063718
956.5195, 0.065269
958.4479, 0.067039
960.3764, 0.068857
962.3049, 0.071221
964.2333, 0.074050
966.1618, 0.077235
968.0903, 0.080877
970.0187, 0.084818
971.9472, 0.088603
973.8757, 0.092343
975.8041, 0.096092
977.7326, 0.099415
979.6611, 0.102517
981.5895, 0.105308
983.5180, 0.107781
985.4465, 0.110059
987.3749, 0.112015
989.3034, 0.113614
991.2319, 0.114784
993.1603, 0.115669
995.0888, 0.116421
997.0173, 0.117005
998.9457, 0.117670
1000.8740, 0.118047
1002.8030, 0.118080
1004.7310, 0.118295
1006.6600, 0.118558
1008.5880, 0.118521
1010.5170, 0.118680
1012.4450, 0.119073
1014.3730, 0.119217
1016.3020, 0.119260
1018.2300, 0.119274
1020.1590, 0.119081
1022.0870, 0.118806
1024.0160, 0.118395
1025.9440, 0.118018
1027.8730, 0.117384
1029.8010, 0.115890
1031.7300, 0.113596
1033.6580, 0.110505
1035.5870, 0.106385
1037.5150, 0.101655
1039.4440, 0.096888
1041.3720, 0.092193
1043.3010, 0.087881
1045.2290, 0.084305
1047.1570, 0.081117
1049.0860, 0.078691
1051.0140, 0.076867
1052.9430, 0.075550
1054.8710, 0.074746
1056.8000, 0.074522
1058.7280, 0.074424
1060.6570, 0.074424
1062.5850, 0.074436
1064.5140, 0.074457
1066.4420, 0.073950
1068.3710, 0.072847
1070.2990, 0.071524
1072.2280, 0.070041
1074.1560, 0.068448
1076.0840, 0.066628
1078.0130, 0.064727
1079.9410, 0.062701
1081.8700, 0.060609
1083.7980, 0.058558
1085.7270, 0.056678
1087.6550, 0.054815
1089.5840, 0.053007
1091.5120, 0.051345
1093.4410, 0.049811
1095.3690, 0.048451
1097.2980, 0.047306
1099.2260, 0.046088
1101.1550, 0.044891
1103.0830, 0.043720
1105.0110, 0.042890
1106.9400, 0.042076
1108.8680, 0.041144
1110.7970, 0.040122
1112.7250, 0.039091
1114.6540, 0.038170
1116.5820, 0.037244
1118.5110, 0.036302
1120.4390, 0.035389
1122.3680, 0.034597
1124.2960, 0.033753
1126.2250, 0.032729
1128.1530, 0.031814
1130.0820, 0.031127
1132.0100, 0.030467
1133.9380, 0.029717
1135.8670, 0.028900
1137.7950, 0.028340
1139.7240, 0.027623
1141.6520, 0.026745
1143.5810, 0.026272
1145.5090, 0.026026
1147.4380, 0.025554
1149.3660, 0.025043
1151.2950, 0.024744
1153.2230, 0.024587
1155.1520, 0.024243
1157.0800, 0.023778
1159.0090, 0.023287
1160.9370, 0.022893
1162.8650, 0.022686
1164.7940, 0.022436
1166.7220, 0.022123
1168.6510, 0.021760
1170.5790, 0.021332
1172.5080, 0.021027
1174.4360, 0.020630
1176.3650, 0.020162
1178.2930, 0.019642
1180.2220, 0.019306
1182.1500, 0.019138
1184.0790, 0.019021
1186.0070, 0.018691
1187.9360, 0.018302
1189.8640, 0.017916
1191.7920, 0.017721
1193.7210, 0.017584
1195.6490, 0.017067
1197.5780, 0.016641
1199.5060, 0.016518
1201.4350, 0.016211
1203.3630, 0.015950
1205.2920, 0.015682
1207.2200, 0.015177
1209.1490, 0.014849
1211.0770, 0.014672
1213.0060, 0.014281
1214.9340, 0.014008
1216.8630, 0.013760
1218.7910, 0.013190
1220.7190, 0.012674
1222.6480, 0.012459
1224.5760, 0.012257
1226.5050, 0.012053
1228.4330, 0.011767
1230.3620, 0.011474
1232.2900, 0.011347
1234.2190, 0.011109
1236.1470, 0.010613
1238.0760, 0.010319
1240.0040, 0.010090
1241.9330, 0.009947
1243.8610, 0.009851
1245.7900, 0.009578
1247.7180, 0.009331
1249.6460, 0.009182
1251.5750, 0.009204
1253.5030, 0.009140
1255.4320, 0.008923
1257.3600, 0.008631
1259.2890, 0.008437
1261.2170, 0.008280
1263.1460, 0.008086
1265.0740, 0.008075
1267.0030, 0.008122
1268.9310, 0.008156
1270.8600, 0.008045
1272.7880, 0.007912
1274.7170, 0.007740
1276.6450, 0.007709
1278.5730, 0.007839
1280.5020, 0.007724
1282.4300, 0.007610
1284.3590, 0.007569
1286.2870, 0.007654
1288.2160, 0.007615
1290.1440, 0.007446
1292.0730, 0.007482
1294.0010, 0.007596
1295.9300, 0.007515
1297.8580, 0.007362
1299.7870, 0.007384
1301.7150, 0.007504
1303.6440, 0.007564
1305.5720, 0.007532
1307.5000, 0.007454
1309.4290, 0.007457
1311.3570, 0.007275
1313.2860, 0.007055
1315.2140, 0.006921
1317.1430, 0.006841
1319.0710, 0.006901
1321.0000, 0.006924
1322.9280, 0.006845
1324.8570, 0.006874
1326.7850, 0.006967
1328.7140, 0.007061
1330.6420, 0.007066
1332.5710, 0.007070
1334.4990, 0.007121
1336.4270, 0.006959
1338.3560, 0.006745
1340.2840, 0.006743
1342.2130, 0.006773
1344.1410, 0.006830
1346.0700, 0.006898
1347.9980, 0.006927
1349.9270, 0.007077
1351.8550, 0.007207
1353.7840, 0.007245
1355.7120, 0.007415
1357.6410, 0.007521
1359.5690, 0.007477
1361.4980, 0.007425
1363.4260, 0.007420
1365.3540, 0.007595
1367.2830, 0.007799
1369.2110, 0.008147
1371.1400, 0.008600
1373.0680, 0.009571
1374.9970, 0.010661
1376.9250, 0.011013
1378.8540, 0.010338
1380.7820, 0.009312
1382.7110, 0.008331
1384.6390, 0.007820
1386.5680, 0.007459
1388.4960, 0.007397
1390.4240, 0.007587
1392.3530, 0.007376
1394.2810, 0.007187
1396.2100, 0.007406
1398.1380, 0.007482
1400.0670, 0.007441
1401.9950, 0.007678
1403.9240, 0.007842
1405.8520, 0.007970
1407.7810, 0.008045
1409.7090, 0.008094
1411.6380, 0.008255
1413.5660, 0.008278
1415.4950, 0.008099
1417.4230, 0.007715
1419.3510, 0.007340
1421.2800, 0.007772
1423.2080, 0.008179
1425.1370, 0.008245
1427.0650, 0.008118
1428.9940, 0.007952
1430.9220, 0.007993
1432.8510, 0.008289
1434.7790, 0.008079
1436.7080, 0.007659
1438.6360, 0.008082
1440.5650, 0.008453
1442.4930, 0.008585
1444.4220, 0.008796
1446.3500, 0.008886
1448.2780, 0.009035
1450.2070, 0.009648
1452.1350, 0.009981
1454.0640, 0.009740
1455.9920, 0.008728
1457.9210, 0.008742
1459.8490, 0.009635
1461.7780, 0.009701
1463.7060, 0.009183
1465.6350, 0.008682
1467.5630, 0.008450
1469.4920, 0.007932
1471.4200, 0.006912
1473.3490, 0.006174
1475.2770, 0.006182
1477.2050, 0.006342
1479.1340, 0.006506
1481.0620, 0.006392
1482.9910, 0.006186
1484.9190, 0.006093
1486.8480, 0.005941
1488.7760, 0.005722
1490.7050, 0.005896
1492.6330, 0.006334
1494.5620, 0.006047
1496.4900, 0.005523
1498.4190, 0.005834
1500.3470, 0.006370
1502.2760, 0.006701
1504.2040, 0.005734
1506.1320, 0.004648
1508.0610, 0.005141
1509.9890, 0.006038
1511.9180, 0.006320
1513.8460, 0.006466
1515.7750, 0.006085
1517.7030, 0.005956
1519.6320, 0.005764
1521.5600, 0.005535
1523.4890, 0.006285
1525.4170, 0.006588
1527.3460, 0.006779
1529.2740, 0.007168
1531.2030, 0.007260
1533.1310, 0.006808
1535.0590, 0.007105
1536.9880, 0.006992
1538.9160, 0.005826
1540.8450, 0.005696
1542.7730, 0.006427
1544.7020, 0.007057
1546.6300, 0.007506
1548.5590, 0.007562
1550.4870, 0.007630
1552.4160, 0.007545
1554.3440, 0.007048
1556.2730, 0.006480
1558.2010, 0.005121
1560.1300, 0.005432
1562.0580, 0.007016
1563.9860, 0.007566
1565.9150, 0.007554
1567.8430, 0.007236
1569.7720, 0.006972
1571.7000, 0.007368
1573.6290, 0.007150
1575.5570, 0.006345
1577.4860, 0.006822
1579.4140, 0.007513
1581.3430, 0.007492
1583.2710, 0.007405
1585.2000, 0.007131
1587.1280, 0.007233
1589.0570, 0.007315
1590.9850, 0.007146
1592.9130, 0.007064
1594.8420, 0.007140
1596.7700, 0.007263
1598.6990, 0.007461
1600.6270, 0.007223
1602.5560, 0.007219
1604.4840, 0.007474
1606.4130, 0.007591
1608.3410, 0.007670
1610.2700, 0.007821
1612.1980, 0.007940
1614.1270, 0.007601
1616.0550, 0.006633
1617.9840, 0.007175
1619.9120, 0.008080
1621.8400, 0.007912
1623.7690, 0.007622
1625.6970, 0.007970
1627.6260, 0.008093
1629.5540, 0.008299
1631.4830, 0.008556
1633.4110, 0.007895
1635.3400, 0.006930
1637.2680, 0.007407
1639.1970, 0.008164
1641.1250, 0.008439
1643.0540, 0.008343
1644.9820, 0.007496
1646.9110, 0.007245
1648.8390, 0.007715
1650.7670, 0.007095
1652.6960, 0.005296
1654.6240, 0.006172
1656.5530, 0.007626
1658.4810, 0.008112
1660.4100, 0.008028
1662.3380, 0.007844
1664.2670, 0.007886
1666.1950, 0.007605
1668.1240, 0.006887
1670.0520, 0.006771
1671.9810, 0.007168
1673.9090, 0.006974
1675.8380, 0.006577
1677.7660, 0.006803
1679.6940, 0.006796
1681.6230, 0.006460
1683.5510, 0.005138
1685.4800, 0.005251
1687.4080, 0.006451
1689.3370, 0.006627
1691.2650, 0.006524
1693.1940, 0.006167
1695.1220, 0.005063
1697.0510, 0.004891
1698.9790, 0.004596
1700.9080, 0.004451
1702.8360, 0.005625
1704.7650, 0.005910
1706.6930, 0.006181
1708.6210, 0.006162
1710.5500, 0.006213
1712.4780, 0.006126
1714.4070, 0.005469
1716.3350, 0.004521
1718.2640, 0.004668
1720.1920, 0.005551
1722.1210, 0.005917
1724.0490, 0.006223
1725.9780, 0.006594
1727.9060, 0.006496
1729.8350, 0.006026
1731.7630, 0.005031
1733.6920, 0.004151
1735.6200, 0.005071
1737.5480, 0.005826
1739.4770, 0.005492
1741.4050, 0.005833
1743.3340, 0.005913
1745.2620, 0.005697
1747.1910, 0.005588
1749.1190, 0.005365
1751.0480, 0.004844
1752.9760, 0.005045
1754.9050, 0.005072
1756.8330, 0.005049
1758.7620, 0.005077
1760.6900, 0.004822
1762.6190, 0.004897
1764.5470, 0.005253
1766.4750, 0.005268
1768.4040, 0.005003
1770.3320, 0.004347
1772.2610, 0.003854
1774.1890, 0.004523
1776.1180, 0.005065
1778.0460, 0.005177
1779.9750, 0.005204
1781.9030, 0.005241
1783.8320, 0.004858
1785.7600, 0.004618
1787.6890, 0.004951
1789.6170, 0.005134
1791.5460, 0.004511
1793.4740, 0.004213
1795.4020, 0.004556
1797.3310, 0.004469
1799.2590, 0.004395
1801.1880, 0.004470
1803.1160, 0.004644
1805.0450, 0.004580
1806.9730, 0.004434
1808.9020, 0.004899
1810.8300, 0.004909
1812.7590, 0.004527
1814.6870, 0.004721
1816.6160, 0.005134
1818.5440, 0.005297
1820.4730, 0.004998
1822.4010, 0.004944
1824.3290, 0.004590
1826.2580, 0.004700
1828.1860, 0.005362
1830.1150, 0.005244
1832.0430, 0.004762
1833.9720, 0.005144
1835.9000, 0.005291
1837.8290, 0.005257
1839.7570, 0.005203
1841.6860, 0.005357
1843.6140, 0.005059
1845.5430, 0.004946
1847.4710, 0.005062
1849.4000, 0.005373
1851.3280, 0.005341
1853.2560, 0.004917
1855.1850, 0.004784
1857.1130, 0.005295
1859.0420, 0.005821
1860.9700, 0.006053
1862.8990, 0.005993
1864.8270, 0.005811
1866.7560, 0.005070
1868.6840, 0.004313
1870.6130, 0.004163
1872.5410, 0.004239
1874.4700, 0.004734
1876.3980, 0.004990
1878.3270, 0.004647
1880.2550, 0.004966
1882.1830, 0.005210
1884.1120, 0.005250
1886.0400, 0.005343
1887.9690, 0.005470
1889.8970, 0.005349
1891.8260, 0.005564
1893.7540, 0.005450
1895.6830, 0.005263
1897.6110, 0.005304
1899.5400, 0.005619
1901.4680, 0.005563
1903.3970, 0.005137
1905.3250, 0.005204
1907.2540, 0.005503
1909.1820, 0.005120
1911.1100, 0.005251
1913.0390, 0.005388
1914.9670, 0.005310
1916.8960, 0.005836
1918.8240, 0.005462
1920.7530, 0.005253
1922.6810, 0.005967
1924.6100, 0.006487
1926.5380, 0.005653
1928.4670, 0.004303
1930.3950, 0.003780
1932.3240, 0.003873
1934.2520, 0.004228
1936.1810, 0.004774
1938.1090, 0.004400
1940.0370, 0.004355
1941.9660, 0.005046
1943.8940, 0.005101
1945.8230, 0.005001
1947.7510, 0.003901
1949.6800, 0.003876
1951.6080, 0.004383
1953.5370, 0.003931
1955.4650, 0.002632
1957.3940, 0.001892
1959.3220, 0.002710
1961.2510, 0.003122
1963.1790, 0.003046
1965.1080, 0.003770
1967.0360, 0.004026
1968.9640, 0.002578
1970.8930, 0.001623
1972.8210, 0.003562
1974.7500, 0.004150
1976.6780, 0.004419
1978.6070, 0.004566
1980.5350, 0.003776
1982.4640, 0.003065
1984.3920, 0.003199
1986.3210, 0.003622
1988.2490, 0.004267
1990.1780, 0.003534
1992.1060, 0.003396
1994.0350, 0.003942
1995.9630, 0.003740
1997.8910, 0.002627
1999.8200, 0.002529
2001.7480, 0.002982
2003.6770, 0.002729
2005.6050, 0.002488
2007.5340, 0.003261
2009.4620, 0.003334
2011.3910, 0.003193
2013.3190, 0.002818
2015.2480, 0.003662
2017.1760, 0.004599
2019.1050, 0.004436
2021.0330, 0.005387
2022.9620, 0.005472
2024.8900, 0.005155
2026.8180, 0.005963
2028.7470, 0.005034
2030.6750, 0.003750
2032.6040, 0.003731
2034.5320, 0.002248
2036.4610, 0.002510
2038.3890, 0.005701
2040.3180, 0.004793
2042.2460, 0.003614
2044.1750, 0.004345
2046.1030, 0.005165
2048.0320, 0.005809
2049.9600, 0.006405
2051.8890, 0.005427
2053.8170, 0.004298
2055.7460, 0.004789
2057.6740, 0.004243
2059.6030, 0.004252
2061.5310, 0.005483
2063.4590, 0.005813
2065.3880, 0.005839
2067.3160, 0.005866
2069.2450, 0.006086
2071.1730, 0.006147
2073.1020, 0.006102
2075.0300, 0.005641
2076.9590, 0.005884
2078.8870, 0.005481
2080.8160, 0.005244
2082.7440, 0.005559
2084.6730, 0.005595
2086.6010, 0.004960
2088.5300, 0.004854
2090.4580, 0.005873
2092.3860, 0.006792
2094.3150, 0.006136
2096.2430, 0.005610
2098.1720, 0.006013
2100.1000, 0.006043
2102.0290, 0.005364
2103.9570, 0.005903
2105.8860, 0.006597
2107.8140, 0.006674
2109.7430, 0.005857
2111.6710, 0.004703
2113.6000, 0.004630
2115.5280, 0.005161
2117.4570, 0.005051
2119.3850, 0.004328
2121.3130, 0.004013
2123.2420, 0.004645
2125.1700, 0.005128
2127.0990, 0.004940
2129.0270, 0.004151
2130.9560, 0.002887
2132.8840, 0.002135
2134.8130, 0.002944
2136.7410, 0.003687
2138.6700, 0.003382
2140.5980, 0.001583
2142.5270, 0.000256
2144.4550, 0.000795
2146.3840, 0.000668
2148.3120, 0.000093
2150.2400, 0.000977
2152.1690, 0.002202
2154.0970, 0.001716
2156.0260, -0.002094
2157.9540, -0.001508
2159.8830, 0.004477
2161.8110, 0.005793
2163.7400, 0.004855
2165.6680, 0.005436
2167.5970, 0.005717
2169.5250, 0.006478
2171.4540, 0.005723
2173.3820, 0.003945
2175.3110, 0.003494
2177.2390, 0.004126
2179.1670, 0.004558
2181.0960, 0.005158
2183.0240, 0.004714
2184.9530, 0.005370
2186.8810, 0.005417
2188.8100, 0.005248
2190.7380, 0.005624
2192.6670, 0.005630
2194.5950, 0.005232
2196.5240, 0.005267
2198.4520, 0.005169
2200.3810, 0.005577
2202.3090, 0.006901
2204.2380, 0.007662
2206.1660, 0.007114
2208.0940, 0.004974
2210.0230, 0.004376
2211.9510, 0.005450
2213.8800, 0.006427
2215.8080, 0.006570
2217.7370, 0.005463
2219.6650, 0.005846
2221.5940, 0.005988
2223.5220, 0.005471
2225.4510, 0.006264
2227.3790, 0.007006
2229.3080, 0.006027
2231.2360, 0.005547
2233.1650, 0.006245
2235.0930, 0.006212
2237.0210, 0.006893
2238.9500, 0.007084
2240.8780, 0.006048
2242.8070, 0.005967
2244.7350, 0.006327
2246.6640, 0.006330
2248.5920, 0.005573
2250.5210, 0.006010
2252.4490, 0.005580
2254.3780, 0.005698
2256.3060, 0.006838
2258.2350, 0.007072
2260.1630, 0.007035
2262.0920, 0.007740
2264.0200, 0.008427
2265.9480, 0.008208
2267.8770, 0.007806
2269.8050, 0.007949
2271.7340, 0.008224
2273.6620, 0.008093
2275.5910, 0.008159
2277.5190, 0.008684
2279.4480, 0.008912
2281.3760, 0.009402
2283.3050, 0.009914
2285.2330, 0.009763
2287.1620, 0.009268
2289.0900, 0.009058
2291.0190, 0.008506
2292.9470, 0.008817
2294.8750, 0.008692
2296.8040, 0.008502
2298.7320, 0.009160
2300.6610, 0.009357
2302.5890, 0.008706
2304.5180, 0.008075
2306.4460, 0.008359
2308.3750, 0.008590
2310.3030, 0.008652
2312.2320, 0.008406
2314.1600, 0.008505
2316.0890, 0.008814
2318.0170, 0.009110
2319.9460, 0.009425
2321.8740, 0.009572
2323.8020, 0.009818
2325.7310, 0.008923
2327.6590, 0.007951
2329.5880, 0.007395
2331.5160, 0.007112
2333.4450, 0.007477
2335.3730, 0.008043
2337.3020, 0.008012
2339.2300, 0.008212
2341.1590, 0.008283
2343.0870, 0.007922
2345.0160, 0.008001
2346.9440, 0.008030
2348.8730, 0.007449
2350.8010, 0.007657
2352.7290, 0.008019
2354.6580, 0.008048
2356.5860, 0.008092
2358.5150, 0.008098
2360.4430, 0.008024
2362.3720, 0.007359
2364.3000, 0.006947
2366.2290, 0.007257
2368.1570, 0.007048
2370.0860, 0.007051
2372.0140, 0.007761
2373.9420, 0.007752
2375.8710, 0.007639
2377.7990, 0.007567
2379.7280, 0.007369
2381.6560, 0.007529
2383.5850, 0.007380
2385.5130, 0.007472
2387.4420, 0.008046
2389.3700, 0.007969
2391.2990, 0.007195
2393.2270, 0.007263
2395.1560, 0.007529
2397.0840, 0.008017
2399.0120, 0.008571
2400.9410, 0.008187
2402.8690, 0.007760
2404.7980, 0.007456
2406.7260, 0.007280
2408.6550, 0.007908
2410.5830, 0.008448
2412.5120, 0.008515
2414.4400, 0.008056
2416.3690, 0.007948
2418.2970, 0.008176
2420.2260, 0.008219
2422.1540, 0.009014
2424.0830, 0.009061
2426.0110, 0.007980
2427.9390, 0.008048
2429.8680, 0.009310
2431.7960, 0.009113
2433.7250, 0.009191
2435.6530, 0.008613
2437.5820, 0.008065
2439.5100, 0.008790
2441.4390, 0.008926
2443.3670, 0.008759
2445.2960, 0.009165
2447.2240, 0.009246
2449.1530, 0.009926
2451.0810, 0.009812
2453.0100, 0.009104
2454.9380, 0.008803
2456.8660, 0.008391
2458.7950, 0.008941
2460.7230, 0.009142
2462.6520, 0.008447
2464.5800, 0.009087
2466.5090, 0.009533
2468.4370, 0.009747
2470.3660, 0.010028
2472.2940, 0.010012
2474.2230, 0.009661
2476.1510, 0.009351
2478.0800, 0.009251
2480.0080, 0.009146
2481.9370, 0.009485
2483.8650, 0.009828
2485.7930, 0.009019
2487.7220, 0.008152
2489.6500, 0.008108
2491.5790, 0.008868
2493.5070, 0.009529
2495.4360, 0.010148
2497.3640, 0.010359
2499.2930, 0.009364
2501.2210, 0.008712
2503.1500, 0.009212
2505.0780, 0.009570
2507.0070, 0.009431
2508.9350, 0.009807
2510.8640, 0.010148
2512.7920, 0.009601
2514.7200, 0.009557
2516.6490, 0.010232
2518.5770, 0.010720
2520.5060, 0.010336
2522.4340, 0.009698
2524.3630, 0.010355
2526.2910, 0.010245
2528.2200, 0.009538
2530.1480, 0.009928
2532.0770, 0.010260
2534.0050, 0.010215
2535.9340, 0.010747
2537.8620, 0.010833
2539.7910, 0.010508
2541.7190, 0.010552
2543.6470, 0.009785
2545.5760, 0.009470
2547.5040, 0.009817
2549.4330, 0.009673
2551.3610, 0.010089
2553.2900, 0.010234
2555.2180, 0.010365
2557.1470, 0.009911
2559.0750, 0.009741
2561.0040, 0.010056
2562.9320, 0.010136
2564.8610, 0.010278
2566.7890, 0.010724
2568.7180, 0.011487
2570.6460, 0.010986
2572.5740, 0.010648
2574.5030, 0.010410
2576.4310, 0.010520
2578.3600, 0.010666
2580.2880, 0.010758
2582.2170, 0.011102
2584.1450, 0.010602
2586.0740, 0.010354
2588.0020, 0.011198
2589.9310, 0.011320
2591.8590, 0.011404
2593.7880, 0.011797
2595.7160, 0.011090
2597.6450, 0.010918
2599.5730, 0.011436
2601.5010, 0.011107
2603.4300, 0.010618
2605.3580, 0.010859
2607.2870, 0.011831
2609.2150, 0.011935
2611.1440, 0.011096
2613.0720, 0.010468
2615.0010, 0.010492
2616.9290, 0.010863
2618.8580, 0.011186
2620.7860, 0.011075
2622.7150, 0.010508
2624.6430, 0.010735
2626.5720, 0.011011
2628.5000, 0.011343
2630.4280, 0.011414
2632.3570, 0.010967
2634.2850, 0.011378
2636.2140, 0.011427
2638.1420, 0.011177
2640.0710, 0.010913
2641.9990, 0.011054
2643.9280, 0.011561
2645.8560, 0.011648
2647.7850, 0.011672
2649.7130, 0.011656
2651.6420, 0.011648
2653.5700, 0.011683
2655.4990, 0.011617
2657.4270, 0.011148
2659.3550, 0.011524
2661.2840, 0.011537
2663.2120, 0.010605
2665.1410, 0.010447
2667.0690, 0.011454
2668.9980, 0.011532
2670.9260, 0.011046
2672.8550, 0.010511
2674.7830, 0.010737
2676.7120, 0.011316
2678.6400, 0.011428
2680.5690, 0.011035
2682.4970, 0.010778
2684.4260, 0.010886
2686.3540, 0.010746
2688.2820, 0.010280
2690.2110, 0.010398
2692.1390, 0.011133
2694.0680, 0.011535
2695.9960, 0.011802
2697.9250, 0.011397
2699.8530, 0.011240
2701.7820, 0.011550
2703.7100, 0.011378
2705.6390, 0.011309
2707.5670, 0.011716
2709.4960, 0.011627
2711.4240, 0.011398
2713.3530, 0.011469
2715.2810, 0.011296
2717.2090, 0.011274
2719.1380, 0.010964
2721.0660, 0.010998
2722.9950, 0.011247
2724.9230, 0.011947
2726.8520, 0.012060
2728.7800, 0.011441
2730.7090, 0.011200
2732.6370, 0.011458
2734.5660, 0.011670
2736.4940, 0.011835
2738.4230, 0.011768
2740.3510, 0.011662
2742.2800, 0.011742
2744.2080, 0.011627
2746.1360, 0.011247
2748.0650, 0.010971
2749.9930, 0.011057
2751.9220, 0.011719
2753.8500, 0.012048
2755.7790, 0.011887
2757.7070, 0.011755
2759.6360, 0.011842
2761.5640, 0.012258
2763.4930, 0.012633
2765.4210, 0.012647
2767.3500, 0.013038
2769.2780, 0.012581
2771.2070, 0.012148
2773.1350, 0.012628
2775.0630, 0.013273
2776.9920, 0.013175
2778.9200, 0.012980
2780.8490, 0.012717
2782.7770, 0.012564
2784.7060, 0.012441
2786.6340, 0.013038
2788.5630, 0.012865
2790.4910, 0.012656
2792.4200, 0.013335
2794.3480, 0.013706
2796.2770, 0.013589
2798.2050, 0.013395
2800.1340, 0.013539
2802.0620, 0.013969
2803.9900, 0.013803
2805.9190, 0.013628
2807.8470, 0.013895
2809.7760, 0.013807
2811.7040, 0.013747
2813.6330, 0.014386
2815.5610, 0.014682
2817.4900, 0.015045
2819.4180, 0.014941
2821.3470, 0.014360
2823.2750, 0.014366
2825.2040, 0.014902
2827.1320, 0.015503
2829.0610, 0.016450
2830.9890, 0.016709
2832.9170, 0.017123
2834.8460, 0.018731
2836.7740, 0.019439
2838.7030, 0.018935
2840.6310, 0.018632
2842.5600, 0.018501
2844.4880, 0.017993
2846.4170, 0.018045
2848.3450, 0.018353
2850.2740, 0.018243
2852.2020, 0.018259
2854.1310, 0.018928
2856.0590, 0.019828
2857.9880, 0.019972
2859.9160, 0.019760
2861.8440, 0.019776
2863.7730, 0.020264
2865.7010, 0.020544
2867.6300, 0.020545
2869.5580, 0.020778
2871.4870, 0.021147
2873.4150, 0.020986
2875.3440, 0.021019
2877.2720, 0.021148
2879.2010, 0.020548
2881.1290, 0.020367
2883.0580, 0.020315
2884.9860, 0.020635
2886.9150, 0.021107
2888.8430, 0.020455
2890.7710, 0.020462
2892.7000, 0.021296
2894.6280, 0.021515
2896.5570, 0.021204
2898.4850, 0.021738
2900.4140, 0.022800
2902.3420, 0.023672
2904.2710, 0.024478
2906.1990, 0.024725
2908.1280, 0.025175
2910.0560, 0.026114
2911.9850, 0.027066
2913.9130, 0.028730
2915.8420, 0.029850
2917.7700, 0.029504
2919.6980, 0.029743
2921.6270, 0.030555
2923.5550, 0.030395
2925.4840, 0.029922
2927.4120, 0.029261
2929.3410, 0.028665
2931.2690, 0.027267
2933.1980, 0.026072
2935.1260, 0.025261
2937.0550, 0.024510
2938.9830, 0.024002
2940.9120, 0.023773
2942.8400, 0.023997
2944.7690, 0.024640
2946.6970, 0.026249
2948.6250, 0.027473
2950.5540, 0.027348
2952.4820, 0.027009
2954.4110, 0.027081
2956.3390, 0.026644
2958.2680, 0.027066
2960.1960, 0.027031
2962.1250, 0.026346
2964.0530, 0.025689
2965.9820, 0.024196
2967.9100, 0.022691
2969.8390, 0.020963
2971.7670, 0.019895
2973.6960, 0.020395
2975.6240, 0.019938
2977.5520, 0.019704
2979.4810, 0.019720
2981.4090, 0.019110
2983.3380, 0.018748
2985.2660, 0.018964
2987.1950, 0.019129
2989.1230, 0.018709
2991.0520, 0.018392
2992.9800, 0.018524
2994.9090, 0.018772
2996.8370, 0.019068
2998.7660, 0.019195
3000.6940, 0.018607
3002.6230, 0.019210
3004.5510, 0.019331
3006.4790, 0.018981
3008.4080, 0.019499
3010.3360, 0.019516
3012.2650, 0.018844
3014.1930, 0.018973
3016.1220, 0.018928
3018.0500, 0.018872
3019.9790, 0.020046
3021.9070, 0.019840
3023.8360, 0.019359
3025.7640, 0.019085
3027.6930, 0.018659
3029.6210, 0.018574
3031.5500, 0.018945
3033.4780, 0.020119
3035.4060, 0.020294
3037.3350, 0.019753
3039.2630, 0.019704
3041.1920, 0.019724
3043.1200, 0.019506
3045.0490, 0.019712
3046.9770, 0.019689
3048.9060, 0.019253
3050.8340, 0.019439
3052.7630, 0.020013
3054.6910, 0.020925
3056.6200, 0.021612
3058.5480, 0.021222
3060.4770, 0.020271
3062.4050, 0.020266
3064.3330, 0.020764
3066.2620, 0.021121
3068.1900, 0.021156
3070.1190, 0.021017
3072.0470, 0.020725
3073.9760, 0.021369
3075.9040, 0.022090
3077.8330, 0.022080
3079.7610, 0.022616
3081.6900, 0.022495
3083.6180, 0.021762
3085.5470, 0.021852
3087.4750, 0.022174
3089.4040, 0.022529
3091.3320, 0.022567
3093.2600, 0.021870
3095.1890, 0.022197
3097.1170, 0.023248
3099.0460, 0.023327
3100.9740, 0.022900
3102.9030, 0.022419
3104.8310, 0.023384
3106.7600, 0.024152
3108.6880, 0.023168
3110.6170, 0.022625
3112.5450, 0.022742
3114.4740, 0.023177
3116.4020, 0.024141
3118.3310, 0.025309
3120.2590, 0.024935
3122.1880, 0.024414
3124.1160, 0.024854
3126.0440, 0.024621
3127.9730, 0.024579
3129.9010, 0.024823
3131.8300, 0.024938
3133.7580, 0.024900
3135.6870, 0.024782
3137.6150, 0.025187
3139.5440, 0.026484
3141.4720, 0.026269
3143.4010, 0.025082
3145.3290, 0.024355
3147.2580, 0.023714
3149.1860, 0.023999
3151.1150, 0.025047
3153.0430, 0.025743
3154.9710, 0.025727
3156.9000, 0.025430
3158.8280, 0.025129
3160.7570, 0.025172
3162.6850, 0.025646
3164.6140, 0.026212
3166.5420, 0.026516
3168.4710, 0.027123
3170.3990, 0.027003
3172.3280, 0.026459
3174.2560, 0.025804
3176.1850, 0.025504
3178.1130, 0.025857
3180.0420, 0.026277
3181.9700, 0.026813
3183.8980, 0.027494
3185.8270, 0.027473
3187.7550, 0.026638
3189.6840, 0.026869
3191.6120, 0.027322
3193.5410, 0.027126
3195.4690, 0.027382
3197.3980, 0.028293
3199.3260, 0.028325
3201.2550, 0.027244
3203.1830, 0.027495
3205.1120, 0.028643
3207.0400, 0.028740
3208.9690, 0.028630
3210.8970, 0.028863
3212.8250, 0.028940
3214.7540, 0.028899
3216.6820, 0.028704
3218.6110, 0.027769
3220.5390, 0.027575
3222.4680, 0.027752
3224.3960, 0.027707
3226.3250, 0.027942
3228.2530, 0.028967
3230.1820, 0.029076
3232.1100, 0.029514
3234.0390, 0.029782
3235.9670, 0.029362
3237.8960, 0.029731
3239.8240, 0.028819
3241.7520, 0.028869
3243.6810, 0.030423
3245.6090, 0.030426
3247.5380, 0.029834
3249.4660, 0.030168
3251.3950, 0.030865
3253.3230, 0.031111
3255.2520, 0.031126
3257.1800, 0.030971
3259.1090, 0.030398
3261.0370, 0.030008
3262.9660, 0.030247
3264.8940, 0.030487
3266.8230, 0.030192
3268.7510, 0.030576
3270.6790, 0.030985
3272.6080, 0.030630
3274.5360, 0.030639
3276.4650, 0.030061
3278.3930, 0.030311
3280.3220, 0.031248
3282.2500, 0.030228
3284.1790, 0.030365
3286.1070, 0.030558
3288.0360, 0.031099
3289.9640, 0.032504
3291.8930, 0.032733
3293.8210, 0.032620
3295.7500, 0.032591
3297.6780, 0.031229
3299.6060, 0.030303
3301.5350, 0.031206
3303.4630, 0.032499
3305.3920, 0.033147
3307.3200, 0.033337
3309.2490, 0.032709
3311.1770, 0.032023
3313.1060, 0.031820
3315.0340, 0.031666
3316.9630, 0.032658
3318.8910, 0.033782
3320.8200, 0.034317
3322.7480, 0.032933
3324.6770, 0.032460
3326.6050, 0.033303
3328.5330, 0.033677
3330.4620, 0.033438
3332.3900, 0.033167
3334.3190, 0.032918
3336.2470, 0.032594
3338.1760, 0.032904
3340.1040, 0.033131
3342.0330, 0.033571
3343.9610, 0.034448
3345.8900, 0.035223
3347.8180, 0.034677
3349.7470, 0.034098
3351.6750, 0.033744
3353.6040, 0.033602
3355.5320, 0.034026
3357.4600, 0.034716
3359.3890, 0.034552
3361.3170, 0.033949
3363.2460, 0.033353
3365.1740, 0.032790
3367.1030, 0.032960
3369.0310, 0.033922
3370.9600, 0.033792
3372.8880, 0.033176
3374.8170, 0.033256
3376.7450, 0.034257
3378.6740, 0.034647
3380.6020, 0.034489
3382.5310, 0.035186
3384.4590, 0.034467
3386.3870, 0.033966
3388.3160, 0.035614
3390.2440, 0.036559
3392.1730, 0.035912
3394.1010, 0.035946
3396.0300, 0.036152
3397.9580, 0.034707
3399.8870, 0.033784
3401.8150, 0.034440
3403.7440, 0.034519
3405.6720, 0.034520
3407.6010, 0.035481
3409.5290, 0.036210
3411.4580, 0.035289
3413.3860, 0.034357
3415.3140, 0.035340
3417.2430, 0.035896
3419.1710, 0.035746
3421.1000, 0.035096
3423.0280, 0.034833
3424.9570, 0.035346
3426.8850, 0.035780
3428.8140, 0.035126
3430.7420, 0.034321
3432.6710, 0.034326
3434.5990, 0.035130
3436.5280, 0.036455
3438.4560, 0.036761
3440.3850, 0.035610
3442.3130, 0.035248
3444.2410, 0.035010
3446.1700, 0.034426
3448.0980, 0.034161
3450.0270, 0.033799
3451.9550, 0.034437
3453.8840, 0.035325
3455.8120, 0.035381
3457.7410, 0.035299
3459.6690, 0.034894
3461.5980, 0.034366
3463.5260, 0.033890
3465.4550, 0.034051
3467.3830, 0.034099
3469.3120, 0.033104
3471.2400, 0.034386
3473.1680, 0.035011
3475.0970, 0.034969
3477.0250, 0.034100
3478.9540, 0.033773
3480.8820, 0.034340
3482.8110, 0.034531
3484.7390, 0.035863
3486.6680, 0.035465
3488.5960, 0.033414
3490.5250, 0.033277
3492.4530, 0.032717
3494.3820, 0.032551
3496.3100, 0.034443
3498.2390, 0.034552
3500.1670, 0.033842
3502.0950, 0.033872
3504.0240, 0.033694
3505.9520, 0.033689
3507.8810, 0.033157
3509.8090, 0.033297
3511.7380, 0.033875
3513.6660, 0.032574
3515.5950, 0.030808
3517.5230, 0.031410
3519.4520, 0.031542
3521.3800, 0.031189
3523.3090, 0.031254
3525.2370, 0.031864
3527.1660, 0.032113
3529.0940, 0.031960
3531.0220, 0.032396
3532.9510, 0.032800
3534.8790, 0.032392
3536.8080, 0.032654
3538.7360, 0.032113
3540.6650, 0.031007
3542.5930, 0.031817
3544.5220, 0.032369
3546.4500, 0.032630
3548.3790, 0.032926
3550.3070, 0.032037
3552.2360, 0.031235
3554.1640, 0.030485
3556.0930, 0.029567
3558.0210, 0.030125
3559.9490, 0.030942
3561.8780, 0.031320
3563.8060, 0.031789
3565.7350, 0.031469
3567.6630, 0.029987
3569.5920, 0.029855
3571.5200, 0.030461
3573.4490, 0.029687
3575.3770, 0.028915
3577.3060, 0.029495
3579.2340, 0.029342
3581.1630, 0.030505
3583.0910, 0.030933
3585.0200, 0.031015
3586.9480, 0.031153
3588.8760, 0.031092
3590.8050, 0.030500
3592.7330, 0.031298
3594.6620, 0.032372
3596.5900, 0.031856
3598.5190, 0.032678
3600.4470, 0.033261
3602.3760, 0.031977
3604.3040, 0.033402
3606.2330, 0.035165
3608.1610, 0.033803
3610.0900, 0.033398
3612.0180, 0.034371
3613.9470, 0.034579
3615.8750, 0.035064
3617.8030, 0.033865
3619.7320, 0.033543
3621.6600, 0.035190
3623.5890, 0.035245
3625.5170, 0.033820
3627.4460, 0.032259
3629.3740, 0.030684
3631.3030, 0.032056
3633.2310, 0.031326
3635.1600, 0.029171
3637.0880, 0.030780
3639.0170, 0.032352
3640.9450, 0.030759
3642.8740, 0.029169
3644.8020, 0.028883
3646.7300, 0.027432
3648.6590, 0.023992
3650.5870, 0.023534
3652.5160, 0.025283
3654.4440, 0.023955
3656.3730, 0.021238
3658.3010, 0.023269
3660.2300, 0.025135
3662.1580, 0.024704
3664.0870, 0.023873
3666.0150, 0.021947
3667.9440, 0.019974
3669.8720, 0.018740
3671.8010, 0.017532
3673.7290, 0.016824
3675.6570, 0.015969
3677.5860, 0.016594
3679.5140, 0.016996
3681.4430, 0.017263
3683.3710, 0.016916
3685.3000, 0.015701
3687.2280, 0.014650
3689.1570, 0.014512
3691.0850, 0.015976
3693.0140, 0.017233
3694.9420, 0.019440
3696.8710, 0.019052
3698.7990, 0.017376
3700.7280, 0.016407
3702.6560, 0.015132
3704.5840, 0.015034
3706.5130, 0.016670
3708.4410, 0.016788
3710.3700, 0.016408
3712.2980, 0.015269
3714.2270, 0.015390
3716.1550, 0.016394
3718.0840, 0.016047
3720.0120, 0.015650
3721.9410, 0.015442
3723.8690, 0.014635
3725.7980, 0.015020
3727.7260, 0.016037
3729.6550, 0.015943
3731.5830, 0.013752
3733.5110, 0.013233
3735.4400, 0.013985
3737.3680, 0.013726
3739.2970, 0.014865
3741.2250, 0.016363
3743.1540, 0.014702
3745.0820, 0.013483
3747.0110, 0.014817
3748.9390, 0.014328
3750.8680, 0.012778
3752.7960, 0.013179
3754.7250, 0.015601
3756.6530, 0.016315
3758.5820, 0.016135
3760.5100, 0.015663
3762.4380, 0.015986
3764.3670, 0.015114
3766.2950, 0.015578
3768.2240, 0.016979
3770.1520, 0.015415
3772.0810, 0.013990
3774.0090, 0.014597
3775.9380, 0.015426
3777.8660, 0.015706
3779.7950, 0.015513
3781.7230, 0.015182
3783.6520, 0.015290
3785.5800, 0.014457
3787.5090, 0.013822
3789.4370, 0.014555
3791.3650, 0.015743
3793.2940, 0.016358
3795.2220, 0.014778
3797.1510, 0.014452
3799.0790, 0.014662
3801.0080, 0.013499
3802.9360, 0.014525
3804.8650, 0.015117
3806.7930, 0.013175
3808.7220, 0.014799
3810.6500, 0.015596
3812.5790, 0.015493
3814.5070, 0.013778
3816.4360, 0.014373
3818.3640, 0.016310
3820.2920, 0.014810
3822.2210, 0.013312
3824.1490, 0.014306
3826.0780, 0.016088
3828.0060, 0.017091
3829.9350, 0.017297
3831.8630, 0.016594
3833.7920, 0.015576
3835.7200, 0.013404
3837.6490, 0.011982
3839.5770, 0.013422
3841.5060, 0.014011
3843.4340, 0.013381
3845.3630, 0.013601
3847.2910, 0.013904
3849.2190, 0.014499
3851.1480, 0.014118
3853.0760, 0.012587
3855.0050, 0.013554
3856.9330, 0.015377
3858.8620, 0.016102
3860.7900, 0.015701
3862.7190, 0.015086
3864.6470, 0.015031
3866.5760, 0.016363
3868.5040, 0.014505
3870.4330, 0.013397
3872.3610, 0.016061
3874.2900, 0.016609
3876.2180, 0.016570
3878.1460, 0.017440
3880.0750, 0.016724
3882.0030, 0.016234
3883.9320, 0.015992
3885.8600, 0.014332
3887.7890, 0.015975
3889.7170, 0.016905
3891.6460, 0.016038
3893.5740, 0.015827
3895.5030, 0.015545
3897.4310, 0.015023
3899.3600, 0.014885
3901.2880, 0.014727
3903.2170, 0.014432
3905.1450, 0.014716
3907.0730, 0.015645
3909.0020, 0.015788
3910.9300, 0.015260
3912.8590, 0.015602
3914.7870, 0.016693
3916.7160, 0.016301
3918.6440, 0.015363
3920.5730, 0.015094
3922.5010, 0.014585
3924.4300, 0.014047
3926.3580, 0.014469
3928.2870, 0.016083
3930.2150, 0.016642
3932.1440, 0.016108
3934.0720, 0.018075
3936.0000, 0.019150
3937.9290, 0.018352
3939.8570, 0.016667
3941.7860, 0.015131
3943.7140, 0.015439
3945.6430, 0.018225
3947.5710, 0.018815
3949.5000, 0.018216
3951.4280, 0.018365
3953.3570, 0.018021
3955.2850, 0.016865
3957.2140, 0.016839
3959.1420, 0.015547
3961.0710, 0.016322
3962.9990, 0.017448
3964.9270, 0.017768
3966.8560, 0.016923
3968.7840, 0.017690
3970.7130, 0.017790
3972.6410, 0.017495
3974.5700, 0.019283
3976.4980, 0.019166
3978.4270, 0.018350
3980.3550, 0.017177
3982.2840, 0.016175
3984.2120, 0.017508
3986.1410, 0.018439
3988.0690, 0.018927
3989.9980, 0.018317
3991.9260, 0.018180
3993.8540, 0.018534
3995.7830, 0.018036
3997.7110, 0.018225
3999.6400, 0.018233
##END=



