##NAMES=Pseudomalachite
##RRUFFID=R040175
##IDEAL CHEMISTRY=Cu^2+^_5_(P^5+^O_4_)_2_(OH)_4_
##LOCALITY=West Bogan mine, Tottenham, Australia
##OWNER=RRUFF
##SOURCE=University of Arizona Mineral Museum
##DESCRIPTION=Green massive in a botryoidal shape
##STATUS=The identification of this mineral has been confirmed by X-ray diffraction and chemical analysis
##URL=rruff.info/R040175
##MEASURED CHEMISTRY=Cu_5.00_(P_1.00_O_4_)_2_(OH_.98_F_.02_)_4_
399.1926, 0.121550
401.1211, 0.124316
403.0496, 0.124914
404.9780, 0.133869
406.9065, 0.148470
408.8350, 0.161030
410.7634, 0.173672
412.6919, 0.183578
414.6204, 0.186957
416.5488, 0.182519
418.4773, 0.176007
420.4058, 0.166127
422.3342, 0.155128
424.2627, 0.145698
426.1912, 0.141397
428.1196, 0.140968
430.0481, 0.144471
431.9766, 0.153591
433.9050, 0.164498
435.8335, 0.176142
437.7620, 0.188150
439.6904, 0.197325
441.6189, 0.201375
443.5474, 0.198383
445.4758, 0.189316
447.4043, 0.176826
449.3328, 0.163812
451.2612, 0.153484
453.1897, 0.145564
455.1182, 0.140308
457.0466, 0.137780
458.9751, 0.136306
460.9036, 0.135196
462.8320, 0.133682
464.7605, 0.131917
466.6890, 0.130971
468.6174, 0.132094
470.5459, 0.136822
472.4744, 0.144186
474.4028, 0.151311
476.3313, 0.156145
478.2598, 0.155709
480.1882, 0.149797
482.1167, 0.142059
484.0452, 0.136097
485.9736, 0.133895
487.9021, 0.134574
489.8306, 0.136834
491.7590, 0.138786
493.6875, 0.139685
495.6160, 0.140589
497.5444, 0.142044
499.4729, 0.144714
501.4014, 0.149296
503.3298, 0.154130
505.2583, 0.158034
507.1868, 0.161034
509.1152, 0.161772
511.0437, 0.160673
512.9722, 0.158724
514.9006, 0.157632
516.8291, 0.159109
518.7576, 0.162968
520.6860, 0.167156
522.6145, 0.168190
524.5430, 0.165271
526.4714, 0.157870
528.3999, 0.146697
530.3284, 0.135691
532.2568, 0.127699
534.1853, 0.123502
536.1138, 0.123633
538.0422, 0.127390
539.9707, 0.134130
541.8992, 0.143582
543.8276, 0.155720
545.7561, 0.169924
547.6846, 0.181117
549.6130, 0.182573
551.5415, 0.171745
553.4700, 0.154102
555.3984, 0.136272
557.3269, 0.123178
559.2554, 0.116251
561.1838, 0.114415
563.1123, 0.115837
565.0408, 0.119389
566.9692, 0.124906
568.8977, 0.131876
570.8262, 0.139950
572.7546, 0.149251
574.6831, 0.159084
576.6116, 0.170096
578.5400, 0.181678
580.4685, 0.193109
582.3970, 0.204895
584.3254, 0.216585
586.2539, 0.227619
588.1824, 0.238145
590.1108, 0.248454
592.0393, 0.258623
593.9678, 0.268381
595.8962, 0.276661
597.8247, 0.281696
599.7532, 0.284174
601.6816, 0.283804
603.6101, 0.280627
605.5386, 0.274619
607.4670, 0.265797
609.3955, 0.254453
611.3240, 0.241546
613.2524, 0.226976
615.1809, 0.211931
617.1094, 0.196852
619.0378, 0.181218
620.9663, 0.165814
622.8948, 0.150565
624.8232, 0.135460
626.7517, 0.120628
628.6802, 0.106563
630.6086, 0.093721
632.5371, 0.082481
634.4656, 0.072760
636.3940, 0.064641
638.3225, 0.058206
640.2510, 0.053565
642.1794, 0.049881
644.1079, 0.047102
646.0364, 0.044930
647.9648, 0.043393
649.8933, 0.042134
651.8218, 0.041407
653.7502, 0.040826
655.6787, 0.040429
657.6072, 0.040265
659.5356, 0.040331
661.4641, 0.040677
663.3926, 0.041029
665.3210, 0.041548
667.2495, 0.042587
669.1780, 0.043004
671.1064, 0.043307
673.0349, 0.044124
674.9634, 0.044975
676.8918, 0.045881
678.8203, 0.046887
680.7488, 0.048006
682.6772, 0.049103
684.6057, 0.050344
686.5342, 0.051944
688.4626, 0.053746
690.3911, 0.055505
692.3196, 0.057377
694.2480, 0.059410
696.1765, 0.061655
698.1050, 0.063879
700.0334, 0.066352
701.9619, 0.068912
703.8904, 0.071365
705.8188, 0.074066
707.7473, 0.077189
709.6758, 0.080790
711.6042, 0.084532
713.5327, 0.088272
715.4612, 0.092450
717.3896, 0.096983
719.3181, 0.101922
721.2466, 0.107370
723.1750, 0.113412
725.1035, 0.119927
727.0320, 0.126816
728.9604, 0.134305
730.8889, 0.142306
732.8174, 0.150817
734.7458, 0.159875
736.6743, 0.169511
738.6028, 0.179687
740.5313, 0.190325
742.4597, 0.200905
744.3882, 0.211027
746.3167, 0.220732
748.2451, 0.229072
750.1736, 0.235174
752.1021, 0.238860
754.0305, 0.239772
755.9590, 0.237390
757.8875, 0.232285
759.8159, 0.224798
761.7444, 0.216196
763.6729, 0.206730
765.6013, 0.197031
767.5298, 0.187893
769.4583, 0.179491
771.3867, 0.171909
773.3152, 0.165260
775.2437, 0.159810
777.1721, 0.155812
779.1006, 0.153838
781.0291, 0.153700
782.9575, 0.155151
784.8860, 0.158480
786.8145, 0.163432
788.7429, 0.169502
790.6714, 0.176951
792.5999, 0.185413
794.5283, 0.193846
796.4568, 0.201759
798.3853, 0.208599
800.3137, 0.213523
802.2422, 0.215968
804.1707, 0.216545
806.0991, 0.216015
808.0276, 0.214416
809.9561, 0.211981
811.8845, 0.208693
813.8130, 0.204757
815.7415, 0.200122
817.6699, 0.194499
819.5984, 0.188085
821.5269, 0.181139
823.4553, 0.173569
825.3838, 0.165332
827.3123, 0.156773
829.2407, 0.148583
831.1692, 0.141034
833.0977, 0.134113
835.0261, 0.127956
836.9546, 0.122558
838.8831, 0.117959
840.8115, 0.114396
842.7400, 0.111793
844.6685, 0.109780
846.5969, 0.108507
848.5254, 0.107693
850.4539, 0.107272
852.3823, 0.107453
854.3108, 0.108479
856.2393, 0.109970
858.1677, 0.111622
860.0962, 0.113522
862.0247, 0.115608
863.9531, 0.117910
865.8816, 0.120863
867.8101, 0.124623
869.7385, 0.128608
871.6670, 0.132800
873.5955, 0.137426
875.5239, 0.142177
877.4524, 0.146564
879.3809, 0.150566
881.3093, 0.154002
883.2378, 0.156336
885.1663, 0.157273
887.0947, 0.156669
889.0232, 0.154624
890.9517, 0.151326
892.8801, 0.147264
894.8085, 0.142525
896.7370, 0.137786
898.6655, 0.133406
900.5939, 0.129487
902.5224, 0.126311
904.4509, 0.124257
906.3793, 0.122845
908.3078, 0.122349
910.2363, 0.122921
912.1647, 0.124529
914.0932, 0.127107
916.0217, 0.130514
917.9501, 0.134760
919.8786, 0.139836
921.8071, 0.145901
923.7355, 0.152497
925.6640, 0.159884
927.5925, 0.168213
929.5209, 0.177375
931.4494, 0.187267
933.3779, 0.197967
935.3063, 0.209363
937.2348, 0.221416
939.1633, 0.233791
941.0917, 0.246144
943.0202, 0.257738
944.9487, 0.267550
946.8771, 0.274400
948.8056, 0.277575
950.7341, 0.276564
952.6625, 0.271829
954.5910, 0.264746
956.5195, 0.256701
958.4479, 0.249311
960.3764, 0.243993
962.3049, 0.242136
964.2333, 0.244581
966.1618, 0.251367
968.0903, 0.262192
970.0187, 0.276447
971.9472, 0.292672
973.8757, 0.309693
975.8041, 0.326125
977.7326, 0.340519
979.6611, 0.352493
981.5895, 0.362705
983.5180, 0.370889
985.4465, 0.376793
987.3749, 0.379988
989.3034, 0.380827
991.2319, 0.380177
993.1603, 0.378515
995.0888, 0.375182
997.0173, 0.368933
998.9457, 0.360005
1000.8740, 0.349743
1002.8030, 0.339175
1004.7310, 0.328732
1006.6600, 0.318567
1008.5880, 0.308807
1010.5170, 0.299518
1012.4450, 0.290896
1014.3730, 0.282873
1016.3020, 0.275479
1018.2300, 0.268664
1020.1590, 0.262463
1022.0870, 0.256760
1024.0160, 0.251386
1025.9440, 0.246629
1027.8730, 0.241873
1029.8010, 0.236991
1031.7300, 0.232399
1033.6580, 0.227682
1035.5870, 0.222659
1037.5150, 0.217494
1039.4440, 0.212179
1041.3720, 0.206327
1043.3010, 0.200014
1045.2290, 0.193174
1047.1570, 0.185885
1049.0860, 0.178055
1051.0140, 0.169182
1052.9430, 0.159116
1054.8710, 0.148293
1056.8000, 0.137524
1058.7280, 0.127351
1060.6570, 0.118394
1062.5850, 0.111267
1064.5140, 0.106115
1066.4420, 0.102925
1068.3710, 0.101983
1070.2990, 0.103389
1072.2280, 0.107405
1074.1560, 0.114181
1076.0840, 0.123587
1078.0130, 0.135851
1079.9410, 0.151070
1081.8700, 0.168702
1083.7980, 0.187507
1085.7270, 0.205922
1087.6550, 0.222523
1089.5840, 0.235433
1091.5120, 0.242720
1093.4410, 0.243308
1095.3690, 0.237277
1097.2980, 0.226732
1099.2260, 0.213871
1101.1550, 0.200005
1103.0830, 0.186254
1105.0110, 0.173148
1106.9400, 0.160548
1108.8680, 0.148402
1110.7970, 0.136526
1112.7250, 0.124898
1114.6540, 0.113645
1116.5820, 0.102865
1118.5110, 0.092393
1120.4390, 0.082526
1122.3680, 0.073491
1124.2960, 0.065131
1126.2250, 0.057341
1128.1530, 0.050268
1130.0820, 0.044084
1132.0100, 0.038887
1133.9380, 0.034723
1135.8670, 0.031179
1137.7950, 0.028232
1139.7240, 0.026046
1141.6520, 0.024150
1143.5810, 0.022542
1145.5090, 0.021273
1147.4380, 0.019959
1149.3660, 0.018753
1151.2950, 0.017956
1153.2230, 0.017371
1155.1520, 0.016667
1157.0800, 0.016062
1159.0090, 0.015694
1160.9370, 0.015379
1162.8650, 0.015145
1164.7940, 0.014871
1166.7220, 0.014404
1168.6510, 0.013896
1170.5790, 0.013601
1172.5080, 0.013400
1174.4360, 0.013194
1176.3650, 0.013006
1178.2930, 0.012778
1180.2220, 0.012477
1182.1500, 0.012292
1184.0790, 0.012126
1186.0070, 0.011783
1187.9360, 0.011551
1189.8640, 0.011486
1191.7920, 0.011323
1193.7210, 0.011105
1195.6490, 0.010979
1197.5780, 0.010895
1199.5060, 0.010577
1201.4350, 0.010305
1203.3630, 0.010190
1205.2920, 0.010120
1207.2200, 0.009975
1209.1490, 0.009838
1211.0770, 0.009819
1213.0060, 0.009651
1214.9340, 0.009464
1216.8630, 0.009292
1218.7910, 0.009046
1220.7190, 0.008840
1222.6480, 0.008784
1224.5760, 0.008856
1226.5050, 0.008790
1228.4330, 0.008631
1230.3620, 0.008621
1232.2900, 0.008625
1234.2190, 0.008674
1236.1470, 0.008600
1238.0760, 0.008509
1240.0040, 0.008646
1241.9330, 0.008610
1243.8610, 0.008526
1245.7900, 0.008567
1247.7180, 0.008573
1249.6460, 0.008558
1251.5750, 0.008598
1253.5030, 0.008679
1255.4320, 0.008733
1257.3600, 0.008595
1259.2890, 0.008720
1261.2170, 0.008870
1263.1460, 0.008945
1265.0740, 0.009111
1267.0030, 0.009278
1268.9310, 0.009503
1270.8600, 0.009847
1272.7880, 0.010163
1274.7170, 0.010349
1276.6450, 0.010641
1278.5730, 0.010873
1280.5020, 0.011018
1282.4300, 0.011368
1284.3590, 0.011960
1286.2870, 0.012498
1288.2160, 0.013057
1290.1440, 0.013654
1292.0730, 0.014276
1294.0010, 0.015050
1295.9300, 0.015985
1297.8580, 0.017043
1299.7870, 0.018190
1301.7150, 0.019406
1303.6440, 0.020512
1305.5720, 0.021626
1307.5000, 0.022874
1309.4290, 0.024233
1311.3570, 0.025507
1313.2860, 0.026715
1315.2140, 0.027855
1317.1430, 0.028801
1319.0710, 0.029247
1321.0000, 0.029361
1322.9280, 0.029178
1324.8570, 0.028759
1326.7850, 0.028186
1328.7140, 0.027451
1330.6420, 0.026553
1332.5710, 0.025691
1334.4990, 0.024856
1336.4270, 0.024140
1338.3560, 0.023545
1340.2840, 0.022996
1342.2130, 0.022409
1344.1410, 0.021823
1346.0700, 0.021197
1347.9980, 0.020827
1349.9270, 0.020554
1351.8550, 0.020348
1353.7840, 0.020322
1355.7120, 0.020174
1357.6410, 0.019917
1359.5690, 0.019939
1361.4980, 0.020047
1363.4260, 0.020199
1365.3540, 0.020530
1367.2830, 0.020921
1369.2110, 0.021344
1371.1400, 0.021984
1373.0680, 0.022714
1374.9970, 0.023300
1376.9250, 0.023778
1378.8540, 0.024080
1380.7820, 0.023838
1382.7110, 0.023501
1384.6390, 0.023351
1386.5680, 0.023242
1388.4960, 0.022924
1390.4240, 0.022577
1392.3530, 0.022474
1394.2810, 0.022445
1396.2100, 0.022115
1398.1380, 0.021744
1400.0670, 0.021222
1401.9950, 0.020585
1403.9240, 0.020208
1405.8520, 0.019721
1407.7810, 0.019287
1409.7090, 0.019052
1411.6380, 0.018835
1413.5660, 0.018672
1415.4950, 0.018615
1417.4230, 0.018867
1419.3510, 0.019068
1421.2800, 0.018774
1423.2080, 0.018644
1425.1370, 0.018690
1427.0650, 0.018613
1428.9940, 0.018474
1430.9220, 0.018351
1432.8510, 0.018081
1434.7790, 0.018070
1436.7080, 0.018257
1438.6360, 0.017983
1440.5650, 0.017875
1442.4930, 0.017914
1444.4220, 0.018051
1446.3500, 0.018307
1448.2780, 0.018703
1450.2070, 0.019048
1452.1350, 0.019543
1454.0640, 0.020155
1455.9920, 0.021339
1457.9210, 0.022055
1459.8490, 0.022223
1461.7780, 0.022720
1463.7060, 0.023656
1465.6350, 0.024368
1467.5630, 0.024838
1469.4920, 0.025489
1471.4200, 0.026274
1473.3490, 0.026990
1475.2770, 0.027420
1477.2050, 0.027720
1479.1340, 0.027993
1481.0620, 0.028526
1482.9910, 0.029027
1484.9190, 0.029652
1486.8480, 0.030432
1488.7760, 0.031206
1490.7050, 0.031823
1492.6330, 0.032263
1494.5620, 0.032994
1496.4900, 0.033847
1498.4190, 0.034277
1500.3470, 0.034734
1502.2760, 0.035202
1504.2040, 0.035909
1506.1320, 0.036701
1508.0610, 0.036426
1509.9890, 0.035688
1511.9180, 0.034972
1513.8460, 0.034190
1515.7750, 0.033449
1517.7030, 0.032295
1519.6320, 0.031230
1521.5600, 0.030152
1523.4890, 0.028420
1525.4170, 0.026965
1527.3460, 0.025631
1529.2740, 0.024333
1531.2030, 0.023331
1533.1310, 0.022619
1535.0590, 0.021743
1536.9880, 0.021110
1538.9160, 0.021108
1540.8450, 0.020645
1542.7730, 0.019688
1544.7020, 0.018887
1546.6300, 0.018225
1548.5590, 0.017722
1550.4870, 0.017523
1552.4160, 0.017454
1554.3440, 0.017470
1556.2730, 0.017431
1558.2010, 0.017847
1560.1300, 0.017623
1562.0580, 0.016848
1563.9860, 0.016432
1565.9150, 0.016278
1567.8430, 0.016239
1569.7720, 0.016384
1571.7000, 0.016291
1573.6290, 0.016206
1575.5570, 0.016670
1577.4860, 0.016647
1579.4140, 0.016251
1581.3430, 0.016206
1583.2710, 0.016283
1585.2000, 0.016247
1587.1280, 0.016280
1589.0570, 0.016442
1590.9850, 0.016542
1592.9130, 0.016560
1594.8420, 0.016578
1596.7700, 0.016596
1598.6990, 0.016600
1600.6270, 0.016564
1602.5560, 0.016679
1604.4840, 0.016786
1606.4130, 0.016756
1608.3410, 0.016774
1610.2700, 0.016848
1612.1980, 0.016894
1614.1270, 0.017112
1616.0550, 0.017571
1617.9840, 0.017350
1619.9120, 0.017158
1621.8400, 0.017515
1623.7690, 0.017575
1625.6970, 0.017308
1627.6260, 0.017331
1629.5540, 0.017529
1631.4830, 0.017509
1633.4110, 0.017806
1635.3400, 0.018288
1637.2680, 0.017869
1639.1970, 0.017389
1641.1250, 0.017365
1643.0540, 0.017341
1644.9820, 0.017631
1646.9110, 0.017694
1648.8390, 0.017262
1650.7670, 0.017488
1652.6960, 0.018302
1654.6240, 0.017767
1656.5530, 0.016708
1658.4810, 0.016335
1660.4100, 0.016501
1662.3380, 0.016620
1664.2670, 0.016427
1666.1950, 0.016305
1668.1240, 0.016469
1670.0520, 0.016401
1671.9810, 0.016040
1673.9090, 0.016023
1675.8380, 0.016014
1677.7660, 0.015597
1679.6940, 0.015480
1681.6230, 0.015683
1683.5510, 0.016341
1685.4800, 0.016106
1687.4080, 0.015284
1689.3370, 0.015035
1691.2650, 0.014982
1693.1940, 0.015281
1695.1220, 0.015913
1697.0510, 0.015649
1698.9790, 0.015656
1700.9080, 0.015732
1702.8360, 0.015027
1704.7650, 0.014891
1706.6930, 0.014837
1708.6210, 0.014795
1710.5500, 0.014765
1712.4780, 0.014770
1714.4070, 0.014907
1716.3350, 0.015419
1718.2640, 0.015346
1720.1920, 0.014593
1722.1210, 0.014203
1724.0490, 0.014232
1725.9780, 0.014217
1727.9060, 0.014021
1729.8350, 0.014047
1731.7630, 0.014471
1733.6920, 0.015006
1735.6200, 0.014459
1737.5480, 0.014146
1739.4770, 0.014370
1741.4050, 0.014133
1743.3340, 0.014186
1745.2620, 0.014325
1747.1910, 0.014372
1749.1190, 0.014347
1751.0480, 0.014373
1752.9760, 0.014337
1754.9050, 0.014491
1756.8330, 0.014489
1758.7620, 0.014271
1760.6900, 0.014397
1762.6190, 0.014528
1764.5470, 0.014401
1766.4750, 0.014711
1768.4040, 0.014807
1770.3320, 0.014883
1772.2610, 0.015211
1774.1890, 0.014923
1776.1180, 0.014546
1778.0460, 0.014766
1779.9750, 0.015159
1781.9030, 0.015284
1783.8320, 0.015336
1785.7600, 0.015394
1787.6890, 0.015315
1789.6170, 0.015330
1791.5460, 0.015531
1793.4740, 0.015702
1795.4020, 0.015800
1797.3310, 0.015877
1799.2590, 0.015924
1801.1880, 0.015924
1803.1160, 0.015668
1805.0450, 0.015605
1806.9730, 0.015840
1808.9020, 0.015959
1810.8300, 0.015825
1812.7590, 0.015778
1814.6870, 0.016028
1816.6160, 0.015922
1818.5440, 0.015963
1820.4730, 0.015801
1822.4010, 0.015704
1824.3290, 0.016019
1826.2580, 0.016130
1828.1860, 0.015961
1830.1150, 0.015868
1832.0430, 0.016035
1833.9720, 0.016321
1835.9000, 0.016318
1837.8290, 0.016219
1839.7570, 0.016281
1841.6860, 0.016392
1843.6140, 0.016618
1845.5430, 0.016734
1847.4710, 0.016587
1849.4000, 0.016587
1851.3280, 0.016740
1853.2560, 0.016499
1855.1850, 0.016514
1857.1130, 0.016602
1859.0420, 0.016328
1860.9700, 0.016100
1862.8990, 0.016062
1864.8270, 0.015877
1866.7560, 0.016211
1868.6840, 0.016457
1870.6130, 0.016416
1872.5410, 0.016558
1874.4700, 0.016370
1876.3980, 0.016214
1878.3270, 0.016502
1880.2550, 0.016543
1882.1830, 0.016429
1884.1120, 0.016211
1886.0400, 0.016115
1887.9690, 0.016262
1889.8970, 0.016664
1891.8260, 0.017137
1893.7540, 0.017522
1895.6830, 0.017208
1897.6110, 0.016819
1899.5400, 0.016864
1901.4680, 0.016664
1903.3970, 0.016858
1905.3250, 0.016648
1907.2540, 0.016404
1909.1820, 0.016528
1911.1100, 0.016571
1913.0390, 0.016744
1914.9670, 0.017108
1916.8960, 0.017339
1918.8240, 0.017503
1920.7530, 0.017346
1922.6810, 0.016872
1924.6100, 0.016994
1926.5380, 0.016966
1928.4670, 0.016894
1930.3950, 0.016533
1932.3240, 0.015814
1934.2520, 0.015991
1936.1810, 0.016701
1938.1090, 0.016425
1940.0370, 0.016232
1941.9660, 0.016411
1943.8940, 0.016704
1945.8230, 0.016577
1947.7510, 0.016892
1949.6800, 0.016542
1951.6080, 0.016001
1953.5370, 0.016281
1955.4650, 0.015904
1957.3940, 0.015319
1959.3220, 0.015264
1961.2510, 0.015009
1963.1790, 0.014533
1965.1080, 0.014692
1967.0360, 0.014445
1968.9640, 0.014550
1970.8930, 0.014486
1972.8210, 0.013319
1974.7500, 0.013477
1976.6780, 0.015505
1978.6070, 0.016754
1980.5350, 0.016741
1982.4640, 0.016737
1984.3920, 0.016026
1986.3210, 0.015854
1988.2490, 0.015988
1990.1780, 0.015227
1992.1060, 0.015075
1994.0350, 0.015817
1995.9630, 0.015778
1997.8910, 0.015101
1999.8200, 0.014945
2001.7480, 0.014996
2003.6770, 0.014380
2005.6050, 0.013445
2007.5340, 0.013906
2009.4620, 0.015508
2011.3910, 0.015455
2013.3190, 0.014878
2015.2480, 0.014972
2017.1760, 0.015441
2019.1050, 0.016185
2021.0330, 0.016275
2022.9620, 0.015442
2024.8900, 0.015146
2026.8180, 0.016390
2028.7470, 0.016863
2030.6750, 0.016220
2032.6040, 0.016408
2034.5320, 0.017627
2036.4610, 0.018574
2038.3890, 0.018326
2040.3180, 0.018386
2042.2460, 0.017833
2044.1750, 0.017615
2046.1030, 0.018546
2048.0320, 0.019640
2049.9600, 0.020104
2051.8890, 0.018947
2053.8170, 0.019331
2055.7460, 0.019737
2057.6740, 0.019399
2059.6030, 0.020044
2061.5310, 0.020274
2063.4590, 0.019460
2065.3880, 0.018734
2067.3160, 0.018808
2069.2450, 0.019087
2071.1730, 0.018895
2073.1020, 0.018701
2075.0300, 0.018709
2076.9590, 0.019358
2078.8870, 0.019305
2080.8160, 0.019029
2082.7440, 0.018340
2084.6730, 0.018399
2086.6010, 0.018694
2088.5300, 0.018695
2090.4580, 0.018992
2092.3860, 0.018855
2094.3150, 0.018378
2096.2430, 0.018390
2098.1720, 0.019357
2100.1000, 0.019651
2102.0290, 0.020032
2103.9570, 0.019872
2105.8860, 0.019853
2107.8140, 0.019694
2109.7430, 0.019703
2111.6710, 0.019395
2113.6000, 0.019149
2115.5280, 0.019356
2117.4570, 0.019157
2119.3850, 0.019185
2121.3130, 0.019549
2123.2420, 0.019409
2125.1700, 0.018860
2127.0990, 0.019191
2129.0270, 0.018899
2130.9560, 0.018022
2132.8840, 0.017579
2134.8130, 0.018224
2136.7410, 0.018819
2138.6700, 0.018347
2140.5980, 0.018126
2142.5270, 0.017365
2144.4550, 0.017061
2146.3840, 0.017341
2148.3120, 0.018062
2150.2400, 0.019122
2152.1690, 0.018724
2154.0970, 0.017419
2156.0260, 0.015243
2157.9540, 0.015798
2159.8830, 0.019821
2161.8110, 0.021367
2163.7400, 0.020386
2165.6680, 0.019881
2167.5970, 0.019868
2169.5250, 0.018984
2171.4540, 0.017945
2173.3820, 0.017491
2175.3110, 0.018386
2177.2390, 0.018486
2179.1670, 0.017235
2181.0960, 0.017421
2183.0240, 0.018103
2184.9530, 0.017422
2186.8810, 0.017103
2188.8100, 0.017127
2190.7380, 0.017914
2192.6670, 0.017861
2194.5950, 0.017659
2196.5240, 0.017950
2198.4520, 0.018459
2200.3810, 0.019014
2202.3090, 0.019201
2204.2380, 0.018924
2206.1660, 0.019626
2208.0940, 0.020503
2210.0230, 0.019650
2211.9510, 0.019155
2213.8800, 0.019338
2215.8080, 0.020355
2217.7370, 0.021136
2219.6650, 0.021027
2221.5940, 0.020923
2223.5220, 0.020969
2225.4510, 0.020921
2227.3790, 0.021425
2229.3080, 0.021975
2231.2360, 0.022105
2233.1650, 0.022311
2235.0930, 0.022193
2237.0210, 0.021826
2238.9500, 0.022805
2240.8780, 0.023681
2242.8070, 0.023437
2244.7350, 0.023730
2246.6640, 0.023995
2248.5920, 0.023392
2250.5210, 0.023493
2252.4490, 0.023506
2254.3780, 0.023961
2256.3060, 0.025029
2258.2350, 0.025018
2260.1630, 0.024938
2262.0920, 0.025168
2264.0200, 0.024726
2265.9480, 0.024469
2267.8770, 0.024742
2269.8050, 0.025495
2271.7340, 0.025901
2273.6620, 0.025673
2275.5910, 0.025623
2277.5190, 0.025581
2279.4480, 0.025814
2281.3760, 0.026204
2283.3050, 0.026191
2285.2330, 0.026083
2287.1620, 0.025776
2289.0900, 0.025671
2291.0190, 0.025635
2292.9470, 0.025668
2294.8750, 0.025645
2296.8040, 0.025678
2298.7320, 0.025690
2300.6610, 0.025792
2302.5890, 0.025983
2304.5180, 0.026134
2306.4460, 0.026107
2308.3750, 0.025774
2310.3030, 0.025825
2312.2320, 0.026186
2314.1600, 0.026913
2316.0890, 0.027351
2318.0170, 0.027166
2319.9460, 0.027444
2321.8740, 0.028076
2323.8020, 0.028340
2325.7310, 0.027491
2327.6590, 0.026983
2329.5880, 0.027472
2331.5160, 0.027875
2333.4450, 0.028030
2335.3730, 0.027986
2337.3020, 0.027980
2339.2300, 0.027912
2341.1590, 0.027733
2343.0870, 0.027623
2345.0160, 0.026897
2346.9440, 0.025946
2348.8730, 0.025678
2350.8010, 0.026250
2352.7290, 0.026851
2354.6580, 0.027560
2356.5860, 0.028184
2358.5150, 0.028569
2360.4430, 0.028740
2362.3720, 0.028655
2364.3000, 0.028463
2366.2290, 0.028467
2368.1570, 0.028237
2370.0860, 0.027712
2372.0140, 0.027322
2373.9420, 0.026698
2375.8710, 0.025759
2377.7990, 0.025389
2379.7280, 0.025255
2381.6560, 0.025304
2383.5850, 0.025255
2385.5130, 0.025142
2387.4420, 0.025117
2389.3700, 0.025312
2391.2990, 0.025252
2393.2270, 0.025339
2395.1560, 0.025191
2397.0840, 0.024732
2399.0120, 0.025033
2400.9410, 0.025106
2402.8690, 0.025109
2404.7980, 0.025267
2406.7260, 0.025737
2408.6550, 0.026214
2410.5830, 0.026487
2412.5120, 0.026043
2414.4400, 0.025796
2416.3690, 0.025849
2418.2970, 0.025918
2420.2260, 0.025685
2422.1540, 0.025661
2424.0830, 0.026514
2426.0110, 0.026700
2427.9390, 0.026534
2429.8680, 0.026382
2431.7960, 0.025803
2433.7250, 0.025802
2435.6530, 0.026117
2437.5820, 0.026474
2439.5100, 0.026691
2441.4390, 0.026773
2443.3670, 0.027310
2445.2960, 0.027686
2447.2240, 0.027557
2449.1530, 0.027452
2451.0810, 0.027350
2453.0100, 0.027408
2454.9380, 0.027638
2456.8660, 0.027493
2458.7950, 0.027342
2460.7230, 0.027077
2462.6520, 0.026894
2464.5800, 0.027058
2466.5090, 0.027246
2468.4370, 0.026912
2470.3660, 0.026651
2472.2940, 0.027433
2474.2230, 0.028108
2476.1510, 0.027643
2478.0800, 0.027432
2480.0080, 0.027539
2481.9370, 0.027381
2483.8650, 0.027466
2485.7930, 0.027829
2487.7220, 0.027793
2489.6500, 0.027227
2491.5790, 0.027536
2493.5070, 0.028093
2495.4360, 0.028468
2497.3640, 0.028339
2499.2930, 0.028194
2501.2210, 0.028381
2503.1500, 0.028643
2505.0780, 0.028560
2507.0070, 0.028727
2508.9350, 0.028715
2510.8640, 0.028575
2512.7920, 0.028513
2514.7200, 0.028622
2516.6490, 0.028924
2518.5770, 0.029176
2520.5060, 0.028956
2522.4340, 0.028713
2524.3630, 0.029168
2526.2910, 0.029547
2528.2200, 0.029214
2530.1480, 0.028721
2532.0770, 0.029107
2534.0050, 0.029725
2535.9340, 0.029990
2537.8620, 0.029456
2539.7910, 0.029659
2541.7190, 0.030077
2543.6470, 0.029921
2545.5760, 0.029760
2547.5040, 0.029884
2549.4330, 0.030013
2551.3610, 0.030027
2553.2900, 0.029784
2555.2180, 0.030054
2557.1470, 0.030614
2559.0750, 0.030790
2561.0040, 0.030833
2562.9320, 0.030206
2564.8610, 0.030133
2566.7890, 0.030675
2568.7180, 0.030933
2570.6460, 0.031222
2572.5740, 0.031189
2574.5030, 0.031408
2576.4310, 0.032001
2578.3600, 0.031914
2580.2880, 0.031457
2582.2170, 0.031392
2584.1450, 0.031578
2586.0740, 0.031227
2588.0020, 0.030894
2589.9310, 0.030710
2591.8590, 0.030986
2593.7880, 0.031195
2595.7160, 0.030950
2597.6450, 0.031171
2599.5730, 0.031482
2601.5010, 0.031152
2603.4300, 0.031259
2605.3580, 0.031555
2607.2870, 0.031634
2609.2150, 0.031587
2611.1440, 0.031285
2613.0720, 0.031695
2615.0010, 0.032022
2616.9290, 0.031618
2618.8580, 0.031669
2620.7860, 0.031832
2622.7150, 0.031726
2624.6430, 0.031710
2626.5720, 0.032147
2628.5000, 0.032224
2630.4280, 0.032323
2632.3570, 0.032197
2634.2850, 0.031736
2636.2140, 0.031502
2638.1420, 0.031833
2640.0710, 0.032199
2641.9990, 0.032507
2643.9280, 0.032562
2645.8560, 0.032219
2647.7850, 0.031914
2649.7130, 0.031932
2651.6420, 0.032165
2653.5700, 0.032457
2655.4990, 0.032686
2657.4270, 0.032636
2659.3550, 0.032479
2661.2840, 0.032418
2663.2120, 0.032285
2665.1410, 0.032428
2667.0690, 0.032644
2668.9980, 0.032667
2670.9260, 0.032665
2672.8550, 0.032533
2674.7830, 0.032478
2676.7120, 0.032654
2678.6400, 0.032468
2680.5690, 0.032126
2682.4970, 0.032399
2684.4260, 0.032723
2686.3540, 0.032808
2688.2820, 0.032723
2690.2110, 0.032861
2692.1390, 0.032924
2694.0680, 0.033278
2695.9960, 0.033503
2697.9250, 0.033311
2699.8530, 0.033386
2701.7820, 0.033563
2703.7100, 0.033669
2705.6390, 0.033572
2707.5670, 0.033470
2709.4960, 0.033706
2711.4240, 0.034059
2713.3530, 0.034105
2715.2810, 0.034166
2717.2090, 0.034178
2719.1380, 0.033985
2721.0660, 0.033988
2722.9950, 0.034237
2724.9230, 0.034518
2726.8520, 0.034659
2728.7800, 0.034757
2730.7090, 0.034792
2732.6370, 0.034606
2734.5660, 0.034342
2736.4940, 0.034576
2738.4230, 0.034912
2740.3510, 0.035028
2742.2800, 0.035395
2744.2080, 0.035610
2746.1360, 0.035785
2748.0650, 0.035769
2749.9930, 0.035781
2751.9220, 0.035759
2753.8500, 0.035625
2755.7790, 0.035540
2757.7070, 0.035740
2759.6360, 0.036211
2761.5640, 0.035854
2763.4930, 0.035943
2765.4210, 0.036401
2767.3500, 0.036469
2769.2780, 0.036385
2771.2070, 0.036370
2773.1350, 0.036687
2775.0630, 0.036985
2776.9920, 0.037039
2778.9200, 0.036877
2780.8490, 0.037110
2782.7770, 0.037347
2784.7060, 0.037642
2786.6340, 0.037701
2788.5630, 0.037746
2790.4910, 0.037548
2792.4200, 0.037449
2794.3480, 0.037634
2796.2770, 0.037870
2798.2050, 0.038257
2800.1340, 0.038266
2802.0620, 0.038201
2803.9900, 0.038231
2805.9190, 0.038039
2807.8470, 0.038145
2809.7760, 0.038529
2811.7040, 0.038652
2813.6330, 0.038690
2815.5610, 0.039012
2817.4900, 0.039176
2819.4180, 0.039137
2821.3470, 0.039316
2823.2750, 0.039435
2825.2040, 0.039321
2827.1320, 0.039420
2829.0610, 0.039665
2830.9890, 0.039554
2832.9170, 0.039149
2834.8460, 0.039311
2836.7740, 0.039977
2838.7030, 0.040230
2840.6310, 0.040120
2842.5600, 0.039829
2844.4880, 0.040186
2846.4170, 0.040641
2848.3450, 0.040666
2850.2740, 0.040828
2852.2020, 0.040927
2854.1310, 0.041015
2856.0590, 0.041076
2857.9880, 0.041221
2859.9160, 0.041432
2861.8440, 0.041862
2863.7730, 0.041902
2865.7010, 0.041739
2867.6300, 0.041842
2869.5580, 0.041931
2871.4870, 0.041910
2873.4150, 0.042048
2875.3440, 0.042535
2877.2720, 0.042596
2879.2010, 0.042477
2881.1290, 0.042290
2883.0580, 0.042532
2884.9860, 0.042699
2886.9150, 0.042581
2888.8430, 0.042775
2890.7710, 0.042991
2892.7000, 0.043082
2894.6280, 0.043446
2896.5570, 0.043350
2898.4850, 0.043450
2900.4140, 0.043748
2902.3420, 0.044052
2904.2710, 0.044387
2906.1990, 0.044329
2908.1280, 0.044040
2910.0560, 0.043927
2911.9850, 0.044083
2913.9130, 0.044698
2915.8420, 0.044752
2917.7700, 0.044686
2919.6980, 0.044877
2921.6270, 0.045181
2923.5550, 0.045330
2925.4840, 0.045551
2927.4120, 0.045964
2929.3410, 0.046397
2931.2690, 0.046577
2933.1980, 0.046642
2935.1260, 0.046476
2937.0550, 0.046534
2938.9830, 0.046504
2940.9120, 0.046329
2942.8400, 0.046484
2944.7690, 0.046396
2946.6970, 0.046459
2948.6250, 0.046703
2950.5540, 0.046765
2952.4820, 0.046951
2954.4110, 0.047312
2956.3390, 0.047505
2958.2680, 0.047283
2960.1960, 0.047233
2962.1250, 0.047854
2964.0530, 0.048796
2965.9820, 0.048625
2967.9100, 0.047976
2969.8390, 0.047660
2971.7670, 0.047768
2973.6960, 0.048008
2975.6240, 0.047903
2977.5520, 0.048136
2979.4810, 0.048397
2981.4090, 0.048325
2983.3380, 0.048013
2985.2660, 0.047750
2987.1950, 0.047859
2989.1230, 0.048067
2991.0520, 0.047773
2992.9800, 0.048378
2994.9090, 0.048869
2996.8370, 0.048845
2998.7660, 0.049336
3000.6940, 0.049766
3002.6230, 0.049703
3004.5510, 0.049970
3006.4790, 0.049841
3008.4080, 0.049355
3010.3360, 0.049346
3012.2650, 0.049879
3014.1930, 0.049775
3016.1220, 0.049580
3018.0500, 0.049914
3019.9790, 0.050199
3021.9070, 0.050554
3023.8360, 0.050576
3025.7640, 0.050373
3027.6930, 0.050271
3029.6210, 0.050585
3031.5500, 0.051317
3033.4780, 0.051378
3035.4060, 0.051406
3037.3350, 0.051355
3039.2630, 0.051797
3041.1920, 0.052462
3043.1200, 0.052327
3045.0490, 0.052162
3046.9770, 0.052304
3048.9060, 0.052453
3050.8340, 0.052682
3052.7630, 0.052830
3054.6910, 0.052718
3056.6200, 0.053268
3058.5480, 0.053838
3060.4770, 0.053786
3062.4050, 0.053771
3064.3330, 0.053901
3066.2620, 0.054050
3068.1900, 0.053973
3070.1190, 0.054130
3072.0470, 0.054438
3073.9760, 0.054486
3075.9040, 0.054522
3077.8330, 0.054520
3079.7610, 0.054725
3081.6900, 0.055056
3083.6180, 0.055276
3085.5470, 0.055438
3087.4750, 0.055803
3089.4040, 0.055679
3091.3320, 0.056211
3093.2600, 0.056525
3095.1890, 0.056538
3097.1170, 0.057170
3099.0460, 0.057689
3100.9740, 0.057572
3102.9030, 0.057297
3104.8310, 0.057479
3106.7600, 0.058041
3108.6880, 0.058060
3110.6170, 0.058120
3112.5450, 0.058596
3114.4740, 0.058566
3116.4020, 0.058632
3118.3310, 0.059157
3120.2590, 0.059697
3122.1880, 0.059717
3124.1160, 0.059719
3126.0440, 0.059896
3127.9730, 0.060223
3129.9010, 0.060740
3131.8300, 0.061003
3133.7580, 0.060906
3135.6870, 0.060961
3137.6150, 0.061205
3139.5440, 0.061518
3141.4720, 0.061651
3143.4010, 0.061959
3145.3290, 0.061931
3147.2580, 0.061872
3149.1860, 0.062314
3151.1150, 0.062746
3153.0430, 0.062779
3154.9710, 0.063090
3156.9000, 0.063151
3158.8280, 0.063360
3160.7570, 0.063799
3162.6850, 0.063762
3164.6140, 0.064010
3166.5420, 0.064464
3168.4710, 0.064617
3170.3990, 0.064965
3172.3280, 0.065106
3174.2560, 0.065327
3176.1850, 0.065407
3178.1130, 0.065439
3180.0420, 0.065524
3181.9700, 0.065953
3183.8980, 0.066326
3185.8270, 0.066316
3187.7550, 0.066432
3189.6840, 0.067255
3191.6120, 0.067446
3193.5410, 0.067125
3195.4690, 0.067501
3197.3980, 0.068549
3199.3260, 0.069362
3201.2550, 0.069605
3203.1830, 0.069525
3205.1120, 0.069221
3207.0400, 0.069743
3208.9690, 0.070236
3210.8970, 0.070123
3212.8250, 0.070538
3214.7540, 0.070951
3216.6820, 0.071066
3218.6110, 0.071262
3220.5390, 0.071212
3222.4680, 0.071648
3224.3960, 0.072003
3226.3250, 0.072317
3228.2530, 0.072185
3230.1820, 0.072233
3232.1100, 0.072393
3234.0390, 0.072706
3235.9670, 0.073446
3237.8960, 0.074123
3239.8240, 0.074384
3241.7520, 0.074810
3243.6810, 0.074924
3245.6090, 0.075487
3247.5380, 0.075903
3249.4660, 0.076319
3251.3950, 0.076753
3253.3230, 0.076874
3255.2520, 0.077069
3257.1800, 0.077077
3259.1090, 0.076904
3261.0370, 0.077884
3262.9660, 0.078404
3264.8940, 0.078774
3266.8230, 0.079042
3268.7510, 0.078897
3270.6790, 0.079226
3272.6080, 0.080073
3274.5360, 0.080799
3276.4650, 0.080858
3278.3930, 0.081548
3280.3220, 0.082396
3282.2500, 0.082468
3284.1790, 0.082827
3286.1070, 0.083737
3288.0360, 0.084455
3289.9640, 0.085243
3291.8930, 0.085555
3293.8210, 0.086270
3295.7500, 0.087805
3297.6780, 0.088363
3299.6060, 0.088840
3301.5350, 0.089642
3303.4630, 0.090019
3305.3920, 0.090733
3307.3200, 0.091591
3309.2490, 0.092746
3311.1770, 0.094029
3313.1060, 0.094166
3315.0340, 0.094964
3316.9630, 0.095948
3318.8910, 0.096204
3320.8200, 0.096544
3322.7480, 0.097304
3324.6770, 0.097953
3326.6050, 0.098569
3328.5330, 0.100056
3330.4620, 0.101497
3332.3900, 0.102151
3334.3190, 0.102853
3336.2470, 0.103549
3338.1760, 0.104779
3340.1040, 0.106692
3342.0330, 0.107938
3343.9610, 0.109165
3345.8900, 0.110430
3347.8180, 0.111301
3349.7470, 0.112947
3351.6750, 0.114660
3353.6040, 0.116278
3355.5320, 0.118341
3357.4600, 0.120418
3359.3890, 0.122592
3361.3170, 0.125191
3363.2460, 0.128289
3365.1740, 0.130179
3367.1030, 0.131904
3369.0310, 0.134999
3370.9600, 0.138124
3372.8880, 0.140230
3374.8170, 0.142134
3376.7450, 0.144920
3378.6740, 0.147488
3380.6020, 0.148969
3382.5310, 0.150841
3384.4590, 0.152737
3386.3870, 0.154696
3388.3160, 0.156375
3390.2440, 0.156477
3392.1730, 0.156337
3394.1010, 0.155843
3396.0300, 0.155021
3397.9580, 0.154078
3399.8870, 0.152167
3401.8150, 0.150523
3403.7440, 0.148525
3405.6720, 0.146414
3407.6010, 0.144724
3409.5290, 0.143596
3411.4580, 0.142809
3413.3860, 0.142365
3415.3140, 0.143336
3417.2430, 0.143763
3419.1710, 0.144091
3421.1000, 0.146066
3423.0280, 0.147646
3424.9570, 0.149463
3426.8850, 0.151591
3428.8140, 0.153813
3430.7420, 0.155296
3432.6710, 0.156752
3434.5990, 0.158431
3436.5280, 0.159403
3438.4560, 0.159370
3440.3850, 0.158925
3442.3130, 0.157685
3444.2410, 0.154629
3446.1700, 0.150724
3448.0980, 0.146112
3450.0270, 0.139536
3451.9550, 0.132360
3453.8840, 0.125239
3455.8120, 0.119165
3457.7410, 0.113211
3459.6690, 0.106039
3461.5980, 0.099865
3463.5260, 0.095620
3465.4550, 0.091646
3467.3830, 0.087147
3469.3120, 0.083120
3471.2400, 0.079337
3473.1680, 0.076345
3475.0970, 0.073979
3477.0250, 0.071612
3478.9540, 0.069993
3480.8820, 0.068443
3482.8110, 0.066776
3484.7390, 0.065283
3486.6680, 0.063709
3488.5960, 0.062615
3490.5250, 0.061729
3492.4530, 0.059655
3494.3820, 0.058491
3496.3100, 0.059269
3498.2390, 0.058966
3500.1670, 0.058055
3502.0950, 0.056880
3504.0240, 0.055549
3505.9520, 0.054869
3507.8810, 0.054696
3509.8090, 0.054548
3511.7380, 0.054279
3513.6660, 0.053360
3515.5950, 0.052516
3517.5230, 0.051783
3519.4520, 0.051897
3521.3800, 0.051796
3523.3090, 0.051176
3525.2370, 0.050660
3527.1660, 0.049581
3529.0940, 0.048600
3531.0220, 0.048077
3532.9510, 0.047499
3534.8790, 0.047465
3536.8080, 0.047729
3538.7360, 0.047212
3540.6650, 0.046317
3542.5930, 0.046549
3544.5220, 0.046344
3546.4500, 0.045797
3548.3790, 0.045326
3550.3070, 0.044721
3552.2360, 0.044402
3554.1640, 0.043986
3556.0930, 0.043424
3558.0210, 0.043832
3559.9490, 0.044343
3561.8780, 0.043327
3563.8060, 0.042408
3565.7350, 0.042389
3567.6630, 0.043040
3569.5920, 0.042212
3571.5200, 0.041337
3573.4490, 0.041796
3575.3770, 0.041424
3577.3060, 0.040757
3579.2340, 0.040993
3581.1630, 0.039813
3583.0910, 0.038863
3585.0200, 0.039639
3586.9480, 0.039766
3588.8760, 0.039155
3590.8050, 0.038584
3592.7330, 0.038014
3594.6620, 0.037761
3596.5900, 0.038536
3598.5190, 0.038902
3600.4470, 0.038023
3602.3760, 0.037142
3604.3040, 0.037087
3606.2330, 0.036844
3608.1610, 0.036859
3610.0900, 0.036766
3612.0180, 0.036593
3613.9470, 0.036824
3615.8750, 0.037050
3617.8030, 0.037586
3619.7320, 0.038041
3621.6600, 0.037385
3623.5890, 0.036541
3625.5170, 0.036327
3627.4460, 0.036160
3629.3740, 0.036536
3631.3030, 0.035485
3633.2310, 0.035111
3635.1600, 0.035821
3637.0880, 0.035872
3639.0170, 0.035342
3640.9450, 0.035063
3642.8740, 0.035222
3644.8020, 0.035434
3646.7300, 0.034820
3648.6590, 0.035305
3650.5870, 0.035292
3652.5160, 0.034968
3654.4440, 0.035835
3656.3730, 0.035228
3658.3010, 0.034558
3660.2300, 0.034607
3662.1580, 0.034582
3664.0870, 0.034643
3666.0150, 0.035116
3667.9440, 0.034581
3669.8720, 0.034642
3671.8010, 0.033928
3673.7290, 0.033900
3675.6570, 0.035283
3677.5860, 0.035323
3679.5140, 0.034576
3681.4430, 0.035003
3683.3710, 0.034756
3685.3000, 0.033869
3687.2280, 0.035247
3689.1570, 0.036287
3691.0850, 0.036546
3693.0140, 0.036028
3694.9420, 0.035046
3696.8710, 0.035893
3698.7990, 0.036206
3700.7280, 0.036050
3702.6560, 0.036102
3704.5840, 0.036347
3706.5130, 0.036774
3708.4410, 0.036554
3710.3700, 0.036771
3712.2980, 0.036831
3714.2270, 0.036591
3716.1550, 0.036433
3718.0840, 0.035472
3720.0120, 0.035218
3721.9410, 0.036045
3723.8690, 0.036244
3725.7980, 0.035754
3727.7260, 0.035320
3729.6550, 0.035323
3731.5830, 0.036151
3733.5110, 0.036676
3735.4400, 0.037545
3737.3680, 0.037473
3739.2970, 0.035553
3741.2250, 0.035266
3743.1540, 0.038020
3745.0820, 0.038152
3747.0110, 0.037074
3748.9390, 0.038753
3750.8680, 0.039054
3752.7960, 0.037539
3754.7250, 0.036729
3756.6530, 0.036872
3758.5820, 0.036772
3760.5100, 0.037314
3762.4380, 0.037019
3764.3670, 0.036606
3766.2950, 0.036196
3768.2240, 0.036065
3770.1520, 0.035879
3772.0810, 0.035819
3774.0090, 0.035326
3775.9380, 0.035054
3777.8660, 0.035936
3779.7950, 0.036801
3781.7230, 0.036316
3783.6520, 0.036378
3785.5800, 0.037315
3787.5090, 0.036555
3789.4370, 0.035973
3791.3650, 0.036512
3793.2940, 0.037146
3795.2220, 0.037663
3797.1510, 0.038158
3799.0790, 0.037732
3801.0080, 0.038183
3802.9360, 0.037718
3804.8650, 0.037241
3806.7930, 0.037735
3808.7220, 0.036476
3810.6500, 0.036510
3812.5790, 0.037145
3814.5070, 0.037943
3816.4360, 0.038038
3818.3640, 0.037322
3820.2920, 0.037990
3822.2210, 0.037914
3824.1490, 0.037638
3826.0780, 0.037703
3828.0060, 0.036707
3829.9350, 0.037129
3831.8630, 0.037425
3833.7920, 0.037553
3835.7200, 0.037974
3837.6490, 0.039161
3839.5770, 0.038425
3841.5060, 0.037456
3843.4340, 0.037668
3845.3630, 0.036758
3847.2910, 0.036630
3849.2190, 0.038231
3851.1480, 0.039891
3853.0760, 0.041298
3855.0050, 0.040226
3856.9330, 0.038593
3858.8620, 0.038696
3860.7900, 0.038164
3862.7190, 0.037677
3864.6470, 0.037828
3866.5760, 0.037836
3868.5040, 0.038082
3870.4330, 0.038585
3872.3610, 0.038739
3874.2900, 0.038197
3876.2180, 0.038438
3878.1460, 0.039449
3880.0750, 0.039560
3882.0030, 0.039895
3883.9320, 0.039709
3885.8600, 0.039097
3887.7890, 0.038301
3889.7170, 0.038750
3891.6460, 0.038852
3893.5740, 0.038327
3895.5030, 0.039217
3897.4310, 0.039854
3899.3600, 0.039673
3901.2880, 0.039993
3903.2170, 0.039961
3905.1450, 0.039059
3907.0730, 0.038072
3909.0020, 0.037809
3910.9300, 0.038457
3912.8590, 0.038738
3914.7870, 0.038862
3916.7160, 0.039376
3918.6440, 0.039378
3920.5730, 0.038437
3922.5010, 0.037810
3924.4300, 0.037723
3926.3580, 0.038741
3928.2870, 0.039240
3930.2150, 0.039220
3932.1440, 0.039995
3934.0720, 0.039677
3936.0000, 0.038554
3937.9290, 0.038143
3939.8570, 0.038566
3941.7860, 0.038798
3943.7140, 0.039829
3945.6430, 0.039700
3947.5710, 0.038634
3949.5000, 0.038722
3951.4280, 0.038911
3953.3570, 0.039306
3955.2850, 0.039426
3957.2140, 0.039968
3959.1420, 0.039684
3961.0710, 0.039399
3962.9990, 0.039232
3964.9270, 0.039655
3966.8560, 0.040303
3968.7840, 0.040742
3970.7130, 0.040672
3972.6410, 0.039413
3974.5700, 0.038980
3976.4980, 0.040044
3978.4270, 0.039834
3980.3550, 0.039395
3982.2840, 0.039755
3984.2120, 0.040317
3986.1410, 0.039406
3988.0690, 0.039248
3989.9980, 0.039622
3991.9260, 0.039845
3993.8540, 0.039885
3995.7830, 0.039881
3997.7110, 0.040294
##END=



