##NAMES=Pyrope
##RRUFFID=R040159
##IDEAL CHEMISTRY=Mg_3_Al_2_(SiO_4_)_3_
##LOCALITY=Meronitz, Bohemia
##OWNER=RRUFF
##SOURCE=University of Arizona Mineral Museum
##DESCRIPTION=Deep red crystal fragments
##STATUS=The identification of this mineral has been confirmed by X-ray diffraction and chemical analysis
##URL=rruff.info/R040159
##MEASURED CHEMISTRY=(Mg_2.17_Fe^2+^_0.47_Ca_0.34_Mn_0.02_)_Σ=3_(Al_1.86_Cr_0.11_Ti_0.03_)_Σ=2_((Si_0.99_Al_0.01_)_Σ=1_O_4_)_3_; trace amounts of Rb?
399.1926, 0.161917
401.1211, 0.168940
403.0496, 0.169752
404.9780, 0.169504
406.9065, 0.174987
408.8350, 0.185129
410.7634, 0.190822
412.6919, 0.196451
414.6204, 0.201094
416.5488, 0.203634
418.4773, 0.207482
420.4058, 0.212036
422.3342, 0.217821
424.2627, 0.221704
426.1912, 0.224533
428.1196, 0.229492
430.0481, 0.234882
431.9766, 0.238789
433.9050, 0.243995
435.8335, 0.248546
437.7620, 0.251608
439.6904, 0.254352
441.6189, 0.255547
443.5474, 0.256858
445.4758, 0.257938
447.4043, 0.256785
449.3328, 0.256851
451.2612, 0.258854
453.1897, 0.258008
455.1182, 0.255736
457.0466, 0.251023
458.9751, 0.243783
460.9036, 0.237246
462.8320, 0.230200
464.7605, 0.223664
466.6890, 0.219279
468.6174, 0.218560
470.5459, 0.220758
472.4744, 0.224476
474.4028, 0.226904
476.3313, 0.226449
478.2598, 0.224144
480.1882, 0.219380
482.1167, 0.212374
484.0452, 0.204496
485.9736, 0.197290
487.9021, 0.189956
489.8306, 0.182891
491.7590, 0.176840
493.6875, 0.171346
495.6160, 0.165788
497.5444, 0.160389
499.4729, 0.154944
501.4014, 0.149426
503.3298, 0.144066
505.2583, 0.138833
507.1868, 0.133471
509.1152, 0.127645
511.0437, 0.122262
512.9722, 0.118015
514.9006, 0.114059
516.8291, 0.110452
518.7576, 0.107820
520.6860, 0.106235
522.6145, 0.106168
524.5430, 0.107426
526.4714, 0.108668
528.3999, 0.109412
530.3284, 0.108211
532.2568, 0.104335
534.1853, 0.099070
536.1138, 0.093408
538.0422, 0.087512
539.9707, 0.081349
541.8992, 0.076073
543.8276, 0.071302
545.7561, 0.067090
547.6846, 0.063939
549.6130, 0.062139
551.5415, 0.062118
553.4700, 0.064024
555.3984, 0.068325
557.3269, 0.075811
559.2554, 0.086802
561.1838, 0.100873
563.1123, 0.117419
565.0408, 0.134155
566.9692, 0.148563
568.8977, 0.157953
570.8262, 0.160935
572.7546, 0.158117
574.6831, 0.150995
576.6116, 0.141582
578.5400, 0.131795
580.4685, 0.122451
582.3970, 0.112903
584.3254, 0.103749
586.2539, 0.095604
588.1824, 0.087989
590.1108, 0.081593
592.0393, 0.075908
593.9678, 0.070081
595.8962, 0.064318
597.8247, 0.058801
599.7532, 0.053737
601.6816, 0.049098
603.6101, 0.045156
605.5386, 0.041493
607.4670, 0.037998
609.3955, 0.035054
611.3240, 0.032736
613.2524, 0.030841
615.1809, 0.029333
617.1094, 0.027977
619.0378, 0.026718
620.9663, 0.026456
622.8948, 0.025864
624.8232, 0.024864
626.7517, 0.024071
628.6802, 0.023573
630.6086, 0.023250
632.5371, 0.023095
634.4656, 0.023231
636.3940, 0.023440
638.3225, 0.023311
640.2510, 0.023077
642.1794, 0.023033
644.1079, 0.023085
646.0364, 0.023301
647.9648, 0.023478
649.8933, 0.023392
651.8218, 0.023241
653.7502, 0.023020
655.6787, 0.022719
657.6072, 0.022555
659.5356, 0.022121
661.4641, 0.021630
663.3926, 0.021401
665.3210, 0.021375
667.2495, 0.021132
669.1780, 0.021015
671.1064, 0.020907
673.0349, 0.020817
674.9634, 0.020801
676.8918, 0.020837
678.8203, 0.021014
680.7488, 0.021277
682.6772, 0.021568
684.6057, 0.021661
686.5342, 0.021821
688.4626, 0.021979
690.3911, 0.022223
692.3196, 0.022563
694.2480, 0.022997
696.1765, 0.023441
698.1050, 0.023821
700.0334, 0.024120
701.9619, 0.024315
703.8904, 0.024885
705.8188, 0.025422
707.7473, 0.025869
709.6758, 0.026202
711.6042, 0.026723
713.5327, 0.027409
715.4612, 0.028007
717.3896, 0.028712
719.3181, 0.029500
721.2466, 0.030310
723.1750, 0.031131
725.1035, 0.031958
727.0320, 0.032684
728.9604, 0.033669
730.8889, 0.034797
732.8174, 0.035880
734.7458, 0.036911
736.6743, 0.037967
738.6028, 0.039268
740.5313, 0.040602
742.4597, 0.042059
744.3882, 0.043359
746.3167, 0.045047
748.2451, 0.046809
750.1736, 0.048543
752.1021, 0.050602
754.0305, 0.052706
755.9590, 0.054506
757.8875, 0.056325
759.8159, 0.058569
761.7444, 0.061169
763.6729, 0.064221
765.6013, 0.067183
767.5298, 0.070203
769.4583, 0.073131
771.3867, 0.076372
773.3152, 0.079945
775.2437, 0.083305
777.1721, 0.086845
779.1006, 0.090852
781.0291, 0.095488
782.9575, 0.100132
784.8860, 0.104630
786.8145, 0.109412
788.7429, 0.114576
790.6714, 0.120015
792.5999, 0.125777
794.5283, 0.131369
796.4568, 0.136869
798.3853, 0.142249
800.3137, 0.147413
802.2422, 0.152442
804.1707, 0.156940
806.0991, 0.160641
808.0276, 0.163612
809.9561, 0.165964
811.8845, 0.167801
813.8130, 0.168878
815.7415, 0.170071
817.6699, 0.171704
819.5984, 0.174345
821.5269, 0.178369
823.4553, 0.183476
825.3838, 0.189244
827.3123, 0.195413
829.2407, 0.201781
831.1692, 0.208250
833.0977, 0.214441
835.0261, 0.219996
836.9546, 0.225453
838.8831, 0.230507
840.8115, 0.234527
842.7400, 0.237617
844.6685, 0.240277
846.5969, 0.242861
848.5254, 0.244973
850.4539, 0.246933
852.3823, 0.248562
854.3108, 0.249918
856.2393, 0.250851
858.1677, 0.251250
860.0962, 0.251247
862.0247, 0.250938
863.9531, 0.249815
865.8816, 0.247738
867.8101, 0.245148
869.7385, 0.242141
871.6670, 0.238072
873.5955, 0.232816
875.5239, 0.226818
877.4524, 0.221065
879.3809, 0.216032
881.3093, 0.212193
883.2378, 0.210113
885.1663, 0.210302
887.0947, 0.212007
889.0232, 0.214664
890.9517, 0.217179
892.8801, 0.218743
894.8085, 0.218982
896.7370, 0.217604
898.6655, 0.214738
900.5939, 0.210478
902.5224, 0.204993
904.4509, 0.198788
906.3793, 0.192059
908.3078, 0.184803
910.2363, 0.177647
912.1647, 0.170777
914.0932, 0.163769
916.0217, 0.156543
917.9501, 0.149170
919.8786, 0.141785
921.8071, 0.134404
923.7355, 0.127031
925.6640, 0.120247
927.5925, 0.114256
929.5209, 0.108747
931.4494, 0.104118
933.3779, 0.100706
935.3063, 0.098836
937.2348, 0.098553
939.1633, 0.100028
941.0917, 0.103529
943.0202, 0.109254
944.9487, 0.117686
946.8771, 0.128913
948.8056, 0.142607
950.7341, 0.157697
952.6625, 0.173171
954.5910, 0.187718
956.5195, 0.200346
958.4479, 0.210631
960.3764, 0.217923
962.3049, 0.222043
964.2333, 0.222705
966.1618, 0.220322
968.0903, 0.215392
970.0187, 0.208973
971.9472, 0.201514
973.8757, 0.193458
975.8041, 0.185375
977.7326, 0.177389
979.6611, 0.169511
981.5895, 0.162279
983.5180, 0.155462
985.4465, 0.148870
987.3749, 0.142495
989.3034, 0.136350
991.2319, 0.130391
993.1603, 0.124616
995.0888, 0.118890
997.0173, 0.113004
998.9457, 0.107385
1000.8740, 0.101869
1002.8030, 0.096333
1004.7310, 0.091093
1006.6600, 0.086210
1008.5880, 0.081448
1010.5170, 0.076656
1012.4450, 0.072235
1014.3730, 0.068063
1016.3020, 0.063822
1018.2300, 0.059795
1020.1590, 0.056175
1022.0870, 0.052641
1024.0160, 0.049125
1025.9440, 0.045746
1027.8730, 0.042414
1029.8010, 0.039307
1031.7300, 0.036434
1033.6580, 0.033766
1035.5870, 0.031405
1037.5150, 0.029302
1039.4440, 0.027484
1041.3720, 0.025800
1043.3010, 0.024206
1045.2290, 0.022774
1047.1570, 0.021734
1049.0860, 0.020695
1051.0140, 0.019696
1052.9430, 0.018824
1054.8710, 0.017967
1056.8000, 0.017212
1058.7280, 0.016468
1060.6570, 0.015763
1062.5850, 0.015155
1064.5140, 0.014599
1066.4420, 0.014204
1068.3710, 0.013977
1070.2990, 0.013493
1072.2280, 0.012930
1074.1560, 0.012511
1076.0840, 0.012226
1078.0130, 0.012048
1079.9410, 0.011899
1081.8700, 0.011605
1083.7980, 0.011403
1085.7270, 0.011322
1087.6550, 0.011023
1089.5840, 0.010803
1091.5120, 0.010761
1093.4410, 0.010512
1095.3690, 0.010082
1097.2980, 0.010009
1099.2260, 0.009890
1101.1550, 0.009732
1103.0830, 0.009555
1105.0110, 0.009323
1106.9400, 0.009336
1108.8680, 0.009343
1110.7970, 0.009090
1112.7250, 0.008829
1114.6540, 0.008549
1116.5820, 0.008444
1118.5110, 0.008376
1120.4390, 0.008172
1122.3680, 0.008228
1124.2960, 0.008268
1126.2250, 0.008151
1128.1530, 0.008138
1130.0820, 0.007928
1132.0100, 0.007798
1133.9380, 0.007800
1135.8670, 0.007594
1137.7950, 0.007393
1139.7240, 0.007286
1141.6520, 0.007098
1143.5810, 0.006932
1145.5090, 0.006783
1147.4380, 0.006720
1149.3660, 0.006676
1151.2950, 0.006554
1153.2230, 0.006385
1155.1520, 0.006293
1157.0800, 0.006303
1159.0090, 0.006245
1160.9370, 0.006004
1162.8650, 0.005902
1164.7940, 0.005846
1166.7220, 0.005730
1168.6510, 0.005659
1170.5790, 0.005647
1172.5080, 0.005588
1174.4360, 0.005373
1176.3650, 0.005148
1178.2930, 0.005049
1180.2220, 0.005020
1182.1500, 0.004955
1184.0790, 0.004820
1186.0070, 0.004652
1187.9360, 0.004561
1189.8640, 0.004530
1191.7920, 0.004491
1193.7210, 0.004367
1195.6490, 0.004229
1197.5780, 0.004219
1199.5060, 0.004361
1201.4350, 0.004427
1203.3630, 0.004259
1205.2920, 0.004127
1207.2200, 0.004085
1209.1490, 0.004136
1211.0770, 0.004216
1213.0060, 0.003999
1214.9340, 0.003668
1216.8630, 0.003679
1218.7910, 0.003837
1220.7190, 0.003820
1222.6480, 0.003683
1224.5760, 0.003624
1226.5050, 0.003725
1228.4330, 0.003746
1230.3620, 0.003630
1232.2900, 0.003499
1234.2190, 0.003635
1236.1470, 0.003801
1238.0760, 0.003834
1240.0040, 0.003763
1241.9330, 0.003678
1243.8610, 0.003727
1245.7900, 0.003697
1247.7180, 0.003585
1249.6460, 0.003733
1251.5750, 0.003777
1253.5030, 0.003751
1255.4320, 0.003926
1257.3600, 0.003880
1259.2890, 0.003726
1261.2170, 0.003689
1263.1460, 0.003727
1265.0740, 0.003879
1267.0030, 0.003902
1268.9310, 0.003788
1270.8600, 0.003751
1272.7880, 0.003758
1274.7170, 0.003803
1276.6450, 0.003797
1278.5730, 0.003865
1280.5020, 0.003886
1282.4300, 0.003758
1284.3590, 0.003796
1286.2870, 0.003908
1288.2160, 0.003795
1290.1440, 0.003864
1292.0730, 0.003930
1294.0010, 0.004029
1295.9300, 0.004156
1297.8580, 0.003989
1299.7870, 0.003862
1301.7150, 0.003891
1303.6440, 0.003879
1305.5720, 0.003974
1307.5000, 0.004048
1309.4290, 0.004006
1311.3570, 0.004120
1313.2860, 0.004253
1315.2140, 0.004280
1317.1430, 0.004229
1319.0710, 0.004317
1321.0000, 0.004353
1322.9280, 0.004437
1324.8570, 0.004542
1326.7850, 0.004534
1328.7140, 0.004539
1330.6420, 0.004471
1332.5710, 0.004579
1334.4990, 0.004658
1336.4270, 0.004699
1338.3560, 0.004770
1340.2840, 0.004830
1342.2130, 0.004862
1344.1410, 0.004885
1346.0700, 0.004987
1347.9980, 0.005124
1349.9270, 0.005044
1351.8550, 0.005023
1353.7840, 0.005109
1355.7120, 0.005094
1357.6410, 0.005080
1359.5690, 0.005283
1361.4980, 0.005358
1363.4260, 0.005289
1365.3540, 0.005265
1367.2830, 0.005365
1369.2110, 0.005237
1371.1400, 0.005349
1373.0680, 0.005689
1374.9970, 0.005726
1376.9250, 0.005662
1378.8540, 0.005744
1380.7820, 0.005760
1382.7110, 0.005789
1384.6390, 0.005931
1386.5680, 0.006062
1388.4960, 0.006100
1390.4240, 0.006208
1392.3530, 0.006085
1394.2810, 0.005994
1396.2100, 0.006111
1398.1380, 0.006272
1400.0670, 0.006278
1401.9950, 0.006318
1403.9240, 0.006572
1405.8520, 0.006687
1407.7810, 0.006649
1409.7090, 0.006619
1411.6380, 0.006610
1413.5660, 0.006735
1415.4950, 0.007034
1417.4230, 0.007497
1419.3510, 0.007427
1421.2800, 0.007317
1423.2080, 0.007403
1425.1370, 0.007550
1427.0650, 0.007783
1428.9940, 0.007913
1430.9220, 0.007848
1432.8510, 0.007845
1434.7790, 0.008079
1436.7080, 0.008314
1438.6360, 0.008157
1440.5650, 0.008166
1442.4930, 0.008341
1444.4220, 0.008418
1446.3500, 0.008476
1448.2780, 0.008481
1450.2070, 0.008575
1452.1350, 0.008806
1454.0640, 0.008960
1455.9920, 0.009164
1457.9210, 0.009287
1459.8490, 0.009079
1461.7780, 0.008965
1463.7060, 0.008873
1465.6350, 0.008679
1467.5630, 0.008772
1469.4920, 0.009022
1471.4200, 0.009096
1473.3490, 0.008839
1475.2770, 0.008776
1477.2050, 0.008812
1479.1340, 0.008643
1481.0620, 0.008512
1482.9910, 0.008587
1484.9190, 0.008698
1486.8480, 0.008672
1488.7760, 0.008630
1490.7050, 0.008667
1492.6330, 0.008462
1494.5620, 0.008385
1496.4900, 0.008377
1498.4190, 0.008273
1500.3470, 0.008299
1502.2760, 0.008335
1504.2040, 0.008390
1506.1320, 0.008396
1508.0610, 0.008166
1509.9890, 0.008029
1511.9180, 0.008087
1513.8460, 0.007979
1515.7750, 0.007816
1517.7030, 0.007731
1519.6320, 0.007736
1521.5600, 0.007684
1523.4890, 0.007587
1525.4170, 0.007713
1527.3460, 0.007735
1529.2740, 0.007577
1531.2030, 0.007429
1533.1310, 0.007472
1535.0590, 0.007515
1536.9880, 0.007524
1538.9160, 0.007689
1540.8450, 0.007816
1542.7730, 0.007739
1544.7020, 0.007678
1546.6300, 0.007681
1548.5590, 0.007867
1550.4870, 0.008166
1552.4160, 0.008120
1554.3440, 0.007945
1556.2730, 0.007972
1558.2010, 0.008294
1560.1300, 0.008371
1562.0580, 0.008282
1563.9860, 0.008308
1565.9150, 0.008214
1567.8430, 0.008256
1569.7720, 0.008554
1571.7000, 0.008518
1573.6290, 0.008510
1575.5570, 0.008537
1577.4860, 0.008524
1579.4140, 0.008438
1581.3430, 0.008246
1583.2710, 0.008139
1585.2000, 0.008340
1587.1280, 0.008467
1589.0570, 0.008446
1590.9850, 0.008504
1592.9130, 0.008478
1594.8420, 0.008587
1596.7700, 0.008799
1598.6990, 0.008584
1600.6270, 0.008370
1602.5560, 0.008582
1604.4840, 0.008758
1606.4130, 0.008815
1608.3410, 0.008669
1610.2700, 0.008624
1612.1980, 0.008655
1614.1270, 0.008623
1616.0550, 0.008809
1617.9840, 0.008889
1619.9120, 0.008595
1621.8400, 0.008563
1623.7690, 0.008726
1625.6970, 0.008519
1627.6260, 0.008465
1629.5540, 0.008672
1631.4830, 0.008615
1633.4110, 0.008462
1635.3400, 0.008647
1637.2680, 0.008585
1639.1970, 0.008429
1641.1250, 0.008424
1643.0540, 0.008182
1644.9820, 0.008153
1646.9110, 0.008324
1648.8390, 0.008283
1650.7670, 0.008409
1652.6960, 0.008643
1654.6240, 0.008330
1656.5530, 0.007896
1658.4810, 0.007880
1660.4100, 0.008127
1662.3380, 0.008238
1664.2670, 0.008215
1666.1950, 0.008137
1668.1240, 0.008086
1670.0520, 0.008373
1671.9810, 0.008420
1673.9090, 0.008189
1675.8380, 0.008224
1677.7660, 0.008262
1679.6940, 0.008444
1681.6230, 0.008399
1683.5510, 0.008406
1685.4800, 0.008419
1687.4080, 0.008371
1689.3370, 0.008277
1691.2650, 0.008372
1693.1940, 0.008476
1695.1220, 0.008363
1697.0510, 0.008400
1698.9790, 0.008398
1700.9080, 0.008601
1702.8360, 0.008660
1704.7650, 0.008652
1706.6930, 0.008758
1708.6210, 0.008629
1710.5500, 0.008423
1712.4780, 0.008437
1714.4070, 0.008552
1716.3350, 0.008575
1718.2640, 0.008596
1720.1920, 0.008717
1722.1210, 0.008780
1724.0490, 0.008805
1725.9780, 0.008806
1727.9060, 0.008845
1729.8350, 0.008901
1731.7630, 0.008938
1733.6920, 0.008972
1735.6200, 0.008884
1737.5480, 0.008820
1739.4770, 0.008959
1741.4050, 0.008943
1743.3340, 0.009068
1745.2620, 0.009096
1747.1910, 0.008917
1749.1190, 0.009036
1751.0480, 0.009181
1752.9760, 0.009009
1754.9050, 0.009081
1756.8330, 0.009100
1758.7620, 0.009138
1760.6900, 0.009349
1762.6190, 0.009244
1764.5470, 0.008990
1766.4750, 0.009243
1768.4040, 0.009429
1770.3320, 0.009357
1772.2610, 0.009305
1774.1890, 0.009194
1776.1180, 0.009186
1778.0460, 0.009270
1779.9750, 0.009222
1781.9030, 0.009072
1783.8320, 0.009074
1785.7600, 0.009429
1787.6890, 0.009669
1789.6170, 0.009742
1791.5460, 0.009723
1793.4740, 0.009691
1795.4020, 0.009693
1797.3310, 0.009575
1799.2590, 0.009473
1801.1880, 0.009479
1803.1160, 0.009223
1805.0450, 0.009142
1806.9730, 0.008952
1808.9020, 0.008808
1810.8300, 0.008791
1812.7590, 0.008615
1814.6870, 0.008662
1816.6160, 0.009007
1818.5440, 0.009139
1820.4730, 0.009238
1822.4010, 0.009238
1824.3290, 0.009363
1826.2580, 0.009436
1828.1860, 0.009199
1830.1150, 0.009198
1832.0430, 0.009373
1833.9720, 0.009343
1835.9000, 0.009178
1837.8290, 0.009043
1839.7570, 0.009280
1841.6860, 0.009422
1843.6140, 0.009372
1845.5430, 0.009179
1847.4710, 0.009436
1849.4000, 0.009572
1851.3280, 0.009276
1853.2560, 0.009183
1855.1850, 0.009323
1857.1130, 0.009383
1859.0420, 0.009379
1860.9700, 0.009168
1862.8990, 0.009300
1864.8270, 0.009447
1866.7560, 0.009577
1868.6840, 0.009897
1870.6130, 0.009924
1872.5410, 0.009683
1874.4700, 0.009643
1876.3980, 0.009681
1878.3270, 0.009706
1880.2550, 0.009804
1882.1830, 0.009880
1884.1120, 0.009206
1886.0400, 0.008884
1887.9690, 0.009491
1889.8970, 0.009137
1891.8260, 0.009028
1893.7540, 0.009333
1895.6830, 0.009614
1897.6110, 0.009708
1899.5400, 0.009548
1901.4680, 0.008799
1903.3970, 0.008543
1905.3250, 0.008743
1907.2540, 0.008880
1909.1820, 0.008432
1911.1100, 0.008388
1913.0390, 0.008877
1914.9670, 0.009232
1916.8960, 0.008781
1918.8240, 0.007905
1920.7530, 0.008015
1922.6810, 0.008481
1924.6100, 0.008121
1926.5380, 0.007347
1928.4670, 0.007215
1930.3950, 0.007011
1932.3240, 0.006764
1934.2520, 0.007617
1936.1810, 0.008150
1938.1090, 0.007343
1940.0370, 0.006726
1941.9660, 0.007269
1943.8940, 0.008166
1945.8230, 0.008299
1947.7510, 0.008121
1949.6800, 0.007788
1951.6080, 0.007240
1953.5370, 0.007034
1955.4650, 0.007070
1957.3940, 0.006472
1959.3220, 0.006690
1961.2510, 0.007583
1963.1790, 0.007593
1965.1080, 0.007889
1967.0360, 0.007600
1968.9640, 0.006125
1970.8930, 0.006470
1972.8210, 0.007452
1974.7500, 0.007554
1976.6780, 0.008167
1978.6070, 0.008822
1980.5350, 0.009845
1982.4640, 0.009085
1984.3920, 0.007640
1986.3210, 0.007613
1988.2490, 0.007865
1990.1780, 0.007596
1992.1060, 0.007242
1994.0350, 0.007934
1995.9630, 0.008016
1997.8910, 0.007637
1999.8200, 0.007716
2001.7480, 0.007794
2003.6770, 0.007538
2005.6050, 0.007546
2007.5340, 0.007989
2009.4620, 0.008548
2011.3910, 0.008856
2013.3190, 0.008641
2015.2480, 0.008452
2017.1760, 0.008879
2019.1050, 0.009918
2021.0330, 0.009308
2022.9620, 0.008494
2024.8900, 0.008018
2026.8180, 0.008091
2028.7470, 0.009833
2030.6750, 0.010251
2032.6040, 0.011085
2034.5320, 0.012164
2036.4610, 0.012279
2038.3890, 0.012553
2040.3180, 0.012331
2042.2460, 0.012180
2044.1750, 0.011585
2046.1030, 0.011981
2048.0320, 0.013162
2049.9600, 0.012717
2051.8890, 0.011379
2053.8170, 0.011827
2055.7460, 0.011335
2057.6740, 0.010473
2059.6030, 0.010731
2061.5310, 0.011712
2063.4590, 0.012028
2065.3880, 0.012298
2067.3160, 0.013166
2069.2450, 0.012650
2071.1730, 0.012345
2073.1020, 0.013467
2075.0300, 0.013918
2076.9590, 0.013603
2078.8870, 0.012873
2080.8160, 0.012811
2082.7440, 0.013414
2084.6730, 0.012425
2086.6010, 0.011694
2088.5300, 0.011475
2090.4580, 0.011618
2092.3860, 0.012343
2094.3150, 0.012732
2096.2430, 0.013341
2098.1720, 0.013556
2100.1000, 0.013549
2102.0290, 0.013556
2103.9570, 0.013458
2105.8860, 0.013500
2107.8140, 0.013065
2109.7430, 0.012928
2111.6710, 0.013869
2113.6000, 0.014333
2115.5280, 0.014049
2117.4570, 0.013416
2119.3850, 0.012827
2121.3130, 0.012735
2123.2420, 0.013546
2125.1700, 0.013985
2127.0990, 0.014029
2129.0270, 0.013370
2130.9560, 0.012361
2132.8840, 0.011082
2134.8130, 0.011090
2136.7410, 0.011627
2138.6700, 0.011821
2140.5980, 0.012715
2142.5270, 0.012930
2144.4550, 0.012571
2146.3840, 0.013442
2148.3120, 0.013102
2150.2400, 0.012124
2152.1690, 0.011969
2154.0970, 0.011903
2156.0260, 0.011916
2157.9540, 0.012382
2159.8830, 0.015622
2161.8110, 0.016521
2163.7400, 0.015087
2165.6680, 0.015213
2167.5970, 0.016294
2169.5250, 0.016709
2171.4540, 0.015739
2173.3820, 0.014708
2175.3110, 0.015278
2177.2390, 0.015282
2179.1670, 0.015559
2181.0960, 0.016037
2183.0240, 0.016284
2184.9530, 0.017107
2186.8810, 0.017557
2188.8100, 0.016622
2190.7380, 0.015551
2192.6670, 0.014725
2194.5950, 0.015362
2196.5240, 0.016098
2198.4520, 0.015469
2200.3810, 0.015226
2202.3090, 0.015675
2204.2380, 0.015703
2206.1660, 0.015256
2208.0940, 0.015037
2210.0230, 0.014713
2211.9510, 0.015280
2213.8800, 0.014991
2215.8080, 0.014801
2217.7370, 0.014902
2219.6650, 0.014842
2221.5940, 0.014986
2223.5220, 0.015356
2225.4510, 0.016069
2227.3790, 0.015873
2229.3080, 0.015128
2231.2360, 0.015097
2233.1650, 0.015048
2235.0930, 0.015068
2237.0210, 0.016009
2238.9500, 0.016344
2240.8780, 0.016361
2242.8070, 0.016541
2244.7350, 0.015779
2246.6640, 0.014978
2248.5920, 0.015049
2250.5210, 0.015157
2252.4490, 0.014810
2254.3780, 0.014376
2256.3060, 0.015165
2258.2350, 0.016237
2260.1630, 0.015692
2262.0920, 0.015498
2264.0200, 0.015389
2265.9480, 0.014795
2267.8770, 0.015146
2269.8050, 0.015798
2271.7340, 0.015486
2273.6620, 0.014789
2275.5910, 0.015573
2277.5190, 0.016299
2279.4480, 0.016430
2281.3760, 0.016213
2283.3050, 0.015980
2285.2330, 0.016290
2287.1620, 0.016833
2289.0900, 0.016936
2291.0190, 0.016300
2292.9470, 0.015783
2294.8750, 0.016118
2296.8040, 0.016323
2298.7320, 0.016268
2300.6610, 0.015963
2302.5890, 0.015890
2304.5180, 0.016085
2306.4460, 0.016239
2308.3750, 0.016056
2310.3030, 0.015650
2312.2320, 0.015646
2314.1600, 0.015368
2316.0890, 0.015543
2318.0170, 0.016193
2319.9460, 0.016574
2321.8740, 0.017021
2323.8020, 0.017452
2325.7310, 0.016482
2327.6590, 0.015777
2329.5880, 0.015667
2331.5160, 0.015567
2333.4450, 0.015358
2335.3730, 0.015218
2337.3020, 0.015143
2339.2300, 0.015124
2341.1590, 0.015400
2343.0870, 0.015669
2345.0160, 0.015308
2346.9440, 0.014908
2348.8730, 0.015327
2350.8010, 0.015841
2352.7290, 0.015829
2354.6580, 0.015920
2356.5860, 0.015746
2358.5150, 0.015314
2360.4430, 0.014721
2362.3720, 0.015133
2364.3000, 0.015984
2366.2290, 0.015543
2368.1570, 0.015123
2370.0860, 0.015353
2372.0140, 0.015630
2373.9420, 0.015458
2375.8710, 0.015250
2377.7990, 0.015308
2379.7280, 0.015356
2381.6560, 0.015835
2383.5850, 0.015865
2385.5130, 0.015388
2387.4420, 0.015251
2389.3700, 0.015588
2391.2990, 0.015679
2393.2270, 0.015488
2395.1560, 0.015595
2397.0840, 0.015853
2399.0120, 0.016278
2400.9410, 0.016289
2402.8690, 0.016033
2404.7980, 0.015619
2406.7260, 0.015423
2408.6550, 0.015353
2410.5830, 0.015495
2412.5120, 0.015861
2414.4400, 0.016274
2416.3690, 0.016072
2418.2970, 0.015903
2420.2260, 0.016093
2422.1540, 0.015953
2424.0830, 0.015757
2426.0110, 0.015603
2427.9390, 0.015840
2429.8680, 0.016025
2431.7960, 0.016336
2433.7250, 0.016190
2435.6530, 0.015480
2437.5820, 0.015451
2439.5100, 0.016231
2441.4390, 0.017075
2443.3670, 0.017294
2445.2960, 0.016518
2447.2240, 0.016142
2449.1530, 0.016238
2451.0810, 0.016491
2453.0100, 0.016628
2454.9380, 0.016464
2456.8660, 0.016281
2458.7950, 0.016327
2460.7230, 0.016825
2462.6520, 0.016684
2464.5800, 0.016675
2466.5090, 0.016847
2468.4370, 0.016824
2470.3660, 0.016971
2472.2940, 0.017158
2474.2230, 0.016731
2476.1510, 0.016150
2478.0800, 0.016656
2480.0080, 0.016839
2481.9370, 0.016553
2483.8650, 0.016119
2485.7930, 0.015718
2487.7220, 0.015819
2489.6500, 0.016174
2491.5790, 0.016360
2493.5070, 0.016389
2495.4360, 0.016743
2497.3640, 0.016927
2499.2930, 0.017060
2501.2210, 0.017123
2503.1500, 0.016716
2505.0780, 0.017151
2507.0070, 0.017763
2508.9350, 0.017988
2510.8640, 0.017860
2512.7920, 0.017072
2514.7200, 0.016419
2516.6490, 0.016365
2518.5770, 0.016469
2520.5060, 0.016419
2522.4340, 0.016822
2524.3630, 0.017154
2526.2910, 0.017315
2528.2200, 0.017246
2530.1480, 0.017051
2532.0770, 0.017691
2534.0050, 0.017836
2535.9340, 0.017560
2537.8620, 0.017303
2539.7910, 0.016741
2541.7190, 0.016566
2543.6470, 0.016992
2545.5760, 0.017575
2547.5040, 0.017742
2549.4330, 0.017877
2551.3610, 0.018042
2553.2900, 0.017210
2555.2180, 0.016758
2557.1470, 0.017418
2559.0750, 0.017537
2561.0040, 0.017190
2562.9320, 0.017980
2564.8610, 0.018459
2566.7890, 0.017517
2568.7180, 0.017463
2570.6460, 0.017510
2572.5740, 0.017281
2574.5030, 0.017556
2576.4310, 0.017836
2578.3600, 0.017464
2580.2880, 0.017110
2582.2170, 0.018057
2584.1450, 0.018337
2586.0740, 0.018277
2588.0020, 0.018371
2589.9310, 0.018110
2591.8590, 0.017907
2593.7880, 0.017954
2595.7160, 0.017908
2597.6450, 0.017851
2599.5730, 0.017939
2601.5010, 0.017887
2603.4300, 0.018163
2605.3580, 0.018149
2607.2870, 0.017691
2609.2150, 0.017861
2611.1440, 0.018141
2613.0720, 0.018192
2615.0010, 0.018472
2616.9290, 0.019025
2618.8580, 0.018881
2620.7860, 0.018528
2622.7150, 0.018241
2624.6430, 0.017749
2626.5720, 0.017819
2628.5000, 0.018294
2630.4280, 0.018314
2632.3570, 0.018428
2634.2850, 0.018325
2636.2140, 0.018271
2638.1420, 0.018581
2640.0710, 0.018467
2641.9990, 0.018477
2643.9280, 0.018348
2645.8560, 0.017859
2647.7850, 0.017513
2649.7130, 0.017985
2651.6420, 0.018315
2653.5700, 0.017880
2655.4990, 0.017810
2657.4270, 0.018301
2659.3550, 0.018380
2661.2840, 0.018369
2663.2120, 0.018491
2665.1410, 0.018244
2667.0690, 0.017802
2668.9980, 0.017827
2670.9260, 0.017788
2672.8550, 0.017846
2674.7830, 0.017853
2676.7120, 0.017682
2678.6400, 0.017326
2680.5690, 0.017249
2682.4970, 0.017585
2684.4260, 0.017751
2686.3540, 0.017710
2688.2820, 0.017907
2690.2110, 0.018068
2692.1390, 0.017756
2694.0680, 0.017527
2695.9960, 0.017833
2697.9250, 0.017936
2699.8530, 0.017652
2701.7820, 0.017375
2703.7100, 0.018015
2705.6390, 0.018204
2707.5670, 0.017858
2709.4960, 0.017809
2711.4240, 0.018012
2713.3530, 0.018295
2715.2810, 0.018110
2717.2090, 0.017848
2719.1380, 0.017835
2721.0660, 0.017684
2722.9950, 0.017778
2724.9230, 0.018096
2726.8520, 0.018089
2728.7800, 0.017985
2730.7090, 0.018112
2732.6370, 0.018459
2734.5660, 0.018338
2736.4940, 0.018020
2738.4230, 0.018111
2740.3510, 0.017893
2742.2800, 0.017874
2744.2080, 0.018239
2746.1360, 0.018336
2748.0650, 0.018336
2749.9930, 0.018374
2751.9220, 0.018942
2753.8500, 0.018993
2755.7790, 0.018497
2757.7070, 0.017996
2759.6360, 0.017875
2761.5640, 0.017794
2763.4930, 0.017676
2765.4210, 0.018144
2767.3500, 0.018334
2769.2780, 0.018571
2771.2070, 0.018729
2773.1350, 0.018249
2775.0630, 0.018222
2776.9920, 0.018493
2778.9200, 0.018380
2780.8490, 0.018210
2782.7770, 0.018396
2784.7060, 0.018851
2786.6340, 0.018731
2788.5630, 0.018504
2790.4910, 0.018997
2792.4200, 0.019374
2794.3480, 0.019411
2796.2770, 0.019336
2798.2050, 0.019089
2800.1340, 0.019143
2802.0620, 0.019259
2803.9900, 0.018805
2805.9190, 0.018694
2807.8470, 0.019079
2809.7760, 0.018728
2811.7040, 0.018643
2813.6330, 0.018664
2815.5610, 0.018876
2817.4900, 0.018947
2819.4180, 0.018830
2821.3470, 0.018738
2823.2750, 0.018719
2825.2040, 0.019191
2827.1320, 0.019150
2829.0610, 0.018895
2830.9890, 0.018814
2832.9170, 0.018963
2834.8460, 0.019448
2836.7740, 0.020215
2838.7030, 0.019643
2840.6310, 0.018550
2842.5600, 0.018551
2844.4880, 0.019699
2846.4170, 0.020339
2848.3450, 0.020332
2850.2740, 0.019595
2852.2020, 0.019170
2854.1310, 0.019736
2856.0590, 0.020349
2857.9880, 0.020310
2859.9160, 0.019617
2861.8440, 0.019551
2863.7730, 0.019534
2865.7010, 0.019192
2867.6300, 0.019559
2869.5580, 0.019656
2871.4870, 0.019677
2873.4150, 0.019966
2875.3440, 0.020285
2877.2720, 0.020244
2879.2010, 0.020138
2881.1290, 0.020247
2883.0580, 0.020731
2884.9860, 0.020953
2886.9150, 0.020469
2888.8430, 0.020035
2890.7710, 0.020284
2892.7000, 0.020339
2894.6280, 0.020191
2896.5570, 0.020301
2898.4850, 0.020330
2900.4140, 0.020247
2902.3420, 0.020271
2904.2710, 0.020346
2906.1990, 0.020574
2908.1280, 0.020576
2910.0560, 0.020195
2911.9850, 0.020306
2913.9130, 0.020840
2915.8420, 0.021169
2917.7700, 0.021144
2919.6980, 0.020590
2921.6270, 0.020340
2923.5550, 0.020637
2925.4840, 0.020780
2927.4120, 0.020864
2929.3410, 0.020456
2931.2690, 0.019933
2933.1980, 0.019957
2935.1260, 0.020467
2937.0550, 0.020738
2938.9830, 0.020772
2940.9120, 0.020863
2942.8400, 0.020811
2944.7690, 0.020490
2946.6970, 0.020253
2948.6250, 0.020811
2950.5540, 0.021027
2952.4820, 0.020772
2954.4110, 0.020185
2956.3390, 0.020145
2958.2680, 0.020051
2960.1960, 0.020621
2962.1250, 0.021308
2964.0530, 0.021597
2965.9820, 0.021426
2967.9100, 0.021316
2969.8390, 0.021501
2971.7670, 0.021340
2973.6960, 0.021146
2975.6240, 0.021276
2977.5520, 0.020724
2979.4810, 0.020194
2981.4090, 0.020290
2983.3380, 0.020587
2985.2660, 0.021057
2987.1950, 0.020757
2989.1230, 0.020699
2991.0520, 0.020646
2992.9800, 0.020724
2994.9090, 0.020854
2996.8370, 0.021111
2998.7660, 0.021148
3000.6940, 0.021233
3002.6230, 0.020702
3004.5510, 0.020128
3006.4790, 0.020562
3008.4080, 0.020457
3010.3360, 0.020239
3012.2650, 0.020368
3014.1930, 0.020766
3016.1220, 0.020911
3018.0500, 0.021004
3019.9790, 0.021262
3021.9070, 0.021363
3023.8360, 0.021294
3025.7640, 0.021186
3027.6930, 0.021217
3029.6210, 0.021201
3031.5500, 0.021180
3033.4780, 0.020525
3035.4060, 0.020436
3037.3350, 0.020778
3039.2630, 0.021396
3041.1920, 0.021461
3043.1200, 0.021241
3045.0490, 0.021640
3046.9770, 0.021670
3048.9060, 0.021475
3050.8340, 0.021130
3052.7630, 0.021519
3054.6910, 0.022539
3056.6200, 0.022273
3058.5480, 0.021638
3060.4770, 0.021480
3062.4050, 0.021562
3064.3330, 0.021373
3066.2620, 0.021664
3068.1900, 0.022137
3070.1190, 0.021956
3072.0470, 0.021549
3073.9760, 0.021481
3075.9040, 0.021147
3077.8330, 0.021392
3079.7610, 0.021949
3081.6900, 0.022016
3083.6180, 0.021601
3085.5470, 0.021447
3087.4750, 0.022410
3089.4040, 0.022850
3091.3320, 0.022486
3093.2600, 0.021901
3095.1890, 0.021814
3097.1170, 0.021938
3099.0460, 0.021913
3100.9740, 0.022573
3102.9030, 0.023248
3104.8310, 0.023538
3106.7600, 0.023318
3108.6880, 0.023050
3110.6170, 0.022602
3112.5450, 0.022146
3114.4740, 0.022059
3116.4020, 0.022764
3118.3310, 0.022392
3120.2590, 0.022545
3122.1880, 0.023056
3124.1160, 0.022300
3126.0440, 0.022086
3127.9730, 0.022664
3129.9010, 0.023276
3131.8300, 0.023190
3133.7580, 0.022993
3135.6870, 0.022943
3137.6150, 0.022967
3139.5440, 0.023148
3141.4720, 0.023176
3143.4010, 0.022876
3145.3290, 0.022492
3147.2580, 0.022565
3149.1860, 0.022484
3151.1150, 0.022392
3153.0430, 0.022750
3154.9710, 0.023415
3156.9000, 0.023366
3158.8280, 0.023353
3160.7570, 0.022779
3162.6850, 0.022484
3164.6140, 0.023569
3166.5420, 0.024009
3168.4710, 0.023766
3170.3990, 0.023127
3172.3280, 0.022745
3174.2560, 0.023030
3176.1850, 0.022874
3178.1130, 0.023142
3180.0420, 0.023064
3181.9700, 0.023367
3183.8980, 0.023490
3185.8270, 0.023404
3187.7550, 0.023679
3189.6840, 0.023335
3191.6120, 0.023065
3193.5410, 0.023624
3195.4690, 0.023469
3197.3980, 0.023504
3199.3260, 0.023299
3201.2550, 0.023751
3203.1830, 0.023561
3205.1120, 0.023000
3207.0400, 0.022575
3208.9690, 0.021750
3210.8970, 0.022763
3212.8250, 0.023973
3214.7540, 0.023129
3216.6820, 0.023008
3218.6110, 0.023563
3220.5390, 0.023743
3222.4680, 0.024021
3224.3960, 0.024094
3226.3250, 0.023730
3228.2530, 0.023973
3230.1820, 0.024464
3232.1100, 0.024668
3234.0390, 0.024385
3235.9670, 0.024549
3237.8960, 0.025425
3239.8240, 0.025144
3241.7520, 0.024048
3243.6810, 0.023642
3245.6090, 0.023587
3247.5380, 0.024076
3249.4660, 0.025143
3251.3950, 0.025235
3253.3230, 0.024547
3255.2520, 0.024294
3257.1800, 0.024381
3259.1090, 0.024225
3261.0370, 0.023906
3262.9660, 0.023739
3264.8940, 0.023873
3266.8230, 0.023956
3268.7510, 0.023464
3270.6790, 0.023663
3272.6080, 0.024082
3274.5360, 0.024619
3276.4650, 0.024777
3278.3930, 0.024457
3280.3220, 0.024114
3282.2500, 0.023938
3284.1790, 0.023897
3286.1070, 0.024101
3288.0360, 0.024197
3289.9640, 0.024634
3291.8930, 0.024477
3293.8210, 0.024617
3295.7500, 0.024795
3297.6780, 0.024577
3299.6060, 0.023911
3301.5350, 0.023607
3303.4630, 0.024487
3305.3920, 0.024680
3307.3200, 0.023322
3309.2490, 0.022699
3311.1770, 0.023062
3313.1060, 0.023358
3315.0340, 0.023727
3316.9630, 0.024044
3318.8910, 0.024117
3320.8200, 0.023897
3322.7480, 0.024029
3324.6770, 0.023603
3326.6050, 0.023591
3328.5330, 0.023207
3330.4620, 0.023815
3332.3900, 0.025247
3334.3190, 0.025192
3336.2470, 0.024342
3338.1760, 0.024216
3340.1040, 0.024583
3342.0330, 0.024476
3343.9610, 0.024164
3345.8900, 0.023993
3347.8180, 0.023406
3349.7470, 0.023490
3351.6750, 0.024704
3353.6040, 0.025311
3355.5320, 0.024640
3357.4600, 0.024001
3359.3890, 0.023967
3361.3170, 0.024811
3363.2460, 0.025015
3365.1740, 0.024461
3367.1030, 0.025278
3369.0310, 0.024798
3370.9600, 0.024573
3372.8880, 0.024884
3374.8170, 0.025238
3376.7450, 0.025436
3378.6740, 0.025028
3380.6020, 0.025464
3382.5310, 0.024988
3384.4590, 0.024596
3386.3870, 0.024596
3388.3160, 0.024593
3390.2440, 0.023991
3392.1730, 0.023199
3394.1010, 0.023412
3396.0300, 0.024242
3397.9580, 0.025278
3399.8870, 0.025039
3401.8150, 0.024730
3403.7440, 0.025488
3405.6720, 0.025806
3407.6010, 0.024825
3409.5290, 0.025224
3411.4580, 0.026669
3413.3860, 0.025002
3415.3140, 0.024067
3417.2430, 0.024923
3419.1710, 0.024254
3421.1000, 0.023531
3423.0280, 0.024782
3424.9570, 0.025282
3426.8850, 0.025529
3428.8140, 0.025574
3430.7420, 0.025297
3432.6710, 0.025178
3434.5990, 0.025884
3436.5280, 0.026762
3438.4560, 0.025822
3440.3850, 0.024320
3442.3130, 0.024362
3444.2410, 0.025178
3446.1700, 0.025199
3448.0980, 0.024160
3450.0270, 0.024391
3451.9550, 0.024300
3453.8840, 0.023783
3455.8120, 0.024040
3457.7410, 0.024503
3459.6690, 0.024639
3461.5980, 0.024809
3463.5260, 0.025649
3465.4550, 0.025498
3467.3830, 0.024694
3469.3120, 0.024363
3471.2400, 0.024309
3473.1680, 0.024584
3475.0970, 0.024685
3477.0250, 0.024459
3478.9540, 0.024377
3480.8820, 0.024851
3482.8110, 0.024548
3484.7390, 0.024638
3486.6680, 0.024894
3488.5960, 0.024616
3490.5250, 0.024279
3492.4530, 0.024370
3494.3820, 0.024353
3496.3100, 0.023585
3498.2390, 0.022910
3500.1670, 0.023536
3502.0950, 0.025094
3504.0240, 0.024578
3505.9520, 0.024109
3507.8810, 0.024828
3509.8090, 0.024707
3511.7380, 0.023329
3513.6660, 0.023761
3515.5950, 0.024946
3517.5230, 0.025297
3519.4520, 0.024718
3521.3800, 0.024619
3523.3090, 0.025084
3525.2370, 0.025681
3527.1660, 0.025291
3529.0940, 0.024259
3531.0220, 0.024372
3532.9510, 0.024096
3534.8790, 0.023486
3536.8080, 0.023043
3538.7360, 0.023196
3540.6650, 0.023866
3542.5930, 0.024682
3544.5220, 0.025371
3546.4500, 0.025528
3548.3790, 0.025825
3550.3070, 0.025389
3552.2360, 0.024766
3554.1640, 0.024379
3556.0930, 0.024364
3558.0210, 0.024385
3559.9490, 0.025050
3561.8780, 0.024772
3563.8060, 0.024228
3565.7350, 0.024612
3567.6630, 0.024884
3569.5920, 0.025014
3571.5200, 0.024492
3573.4490, 0.024634
3575.3770, 0.024983
3577.3060, 0.023873
3579.2340, 0.022814
3581.1630, 0.023136
3583.0910, 0.023319
3585.0200, 0.023681
3586.9480, 0.024378
3588.8760, 0.024594
3590.8050, 0.025408
3592.7330, 0.025248
3594.6620, 0.023776
3596.5900, 0.023692
3598.5190, 0.024158
3600.4470, 0.023812
3602.3760, 0.022964
3604.3040, 0.022910
3606.2330, 0.023015
3608.1610, 0.023128
3610.0900, 0.024005
3612.0180, 0.024105
3613.9470, 0.024314
3615.8750, 0.024040
3617.8030, 0.022295
3619.7320, 0.022516
3621.6600, 0.023578
3623.5890, 0.023743
3625.5170, 0.022922
3627.4460, 0.023747
3629.3740, 0.024486
3631.3030, 0.023563
3633.2310, 0.023369
3635.1600, 0.022169
3637.0880, 0.021035
3639.0170, 0.021666
3640.9450, 0.023218
3642.8740, 0.023454
3644.8020, 0.021394
3646.7300, 0.021724
3648.6590, 0.022468
3650.5870, 0.023495
3652.5160, 0.023985
3654.4440, 0.023238
3656.3730, 0.023224
3658.3010, 0.022906
3660.2300, 0.021352
3662.1580, 0.021326
3664.0870, 0.022109
3666.0150, 0.023238
3667.9440, 0.023789
3669.8720, 0.024415
3671.8010, 0.024864
3673.7290, 0.023641
3675.6570, 0.022232
3677.5860, 0.022158
3679.5140, 0.022189
3681.4430, 0.022023
3683.3710, 0.021509
3685.3000, 0.022160
3687.2280, 0.022500
3689.1570, 0.022660
3691.0850, 0.023284
3693.0140, 0.023969
3694.9420, 0.023892
3696.8710, 0.023999
3698.7990, 0.024863
3700.7280, 0.022610
3702.6560, 0.022221
3704.5840, 0.023893
3706.5130, 0.024107
3708.4410, 0.022788
3710.3700, 0.022532
3712.2980, 0.024956
3714.2270, 0.024594
3716.1550, 0.022322
3718.0840, 0.022714
3720.0120, 0.023554
3721.9410, 0.022685
3723.8690, 0.023518
3725.7980, 0.025109
3727.7260, 0.024568
3729.6550, 0.024637
3731.5830, 0.025628
3733.5110, 0.024827
3735.4400, 0.023263
3737.3680, 0.023080
3739.2970, 0.024750
3741.2250, 0.025009
3743.1540, 0.024289
3745.0820, 0.022125
3747.0110, 0.020364
3748.9390, 0.022597
3750.8680, 0.023731
3752.7960, 0.023987
3754.7250, 0.024336
3756.6530, 0.023050
3758.5820, 0.023832
3760.5100, 0.024167
3762.4380, 0.023014
3764.3670, 0.023929
3766.2950, 0.024176
3768.2240, 0.023722
3770.1520, 0.022412
3772.0810, 0.022160
3774.0090, 0.023540
3775.9380, 0.023606
3777.8660, 0.023022
3779.7950, 0.023766
3781.7230, 0.023835
3783.6520, 0.023000
3785.5800, 0.022909
3787.5090, 0.022639
3789.4370, 0.021830
3791.3650, 0.022609
3793.2940, 0.024504
3795.2220, 0.024517
3797.1510, 0.023102
3799.0790, 0.022430
3801.0080, 0.022437
3802.9360, 0.023088
3804.8650, 0.024360
3806.7930, 0.025385
3808.7220, 0.025158
3810.6500, 0.024584
3812.5790, 0.024575
3814.5070, 0.024932
3816.4360, 0.023928
3818.3640, 0.023761
3820.2920, 0.024382
3822.2210, 0.023404
3824.1490, 0.022679
3826.0780, 0.022361
3828.0060, 0.021889
3829.9350, 0.022454
3831.8630, 0.022524
3833.7920, 0.022368
3835.7200, 0.023169
3837.6490, 0.024613
3839.5770, 0.025435
3841.5060, 0.023709
3843.4340, 0.023003
3845.3630, 0.022771
3847.2910, 0.023054
3849.2190, 0.024287
3851.1480, 0.025262
3853.0760, 0.025698
3855.0050, 0.024463
3856.9330, 0.022872
3858.8620, 0.021959
3860.7900, 0.021977
3862.7190, 0.021409
3864.6470, 0.022203
3866.5760, 0.023443
3868.5040, 0.023186
3870.4330, 0.023122
3872.3610, 0.023963
3874.2900, 0.023764
3876.2180, 0.023969
3878.1460, 0.024470
3880.0750, 0.023948
3882.0030, 0.023767
3883.9320, 0.025008
3885.8600, 0.025668
3887.7890, 0.023394
3889.7170, 0.021531
3891.6460, 0.022652
3893.5740, 0.023223
3895.5030, 0.023004
3897.4310, 0.023944
3899.3600, 0.024613
3901.2880, 0.024945
3903.2170, 0.024694
3905.1450, 0.023007
3907.0730, 0.022179
3909.0020, 0.022367
3910.9300, 0.022534
3912.8590, 0.022439
3914.7870, 0.023291
3916.7160, 0.023957
3918.6440, 0.023271
3920.5730, 0.023804
3922.5010, 0.023683
3924.4300, 0.023277
3926.3580, 0.023510
3928.2870, 0.024597
3930.2150, 0.024926
3932.1440, 0.023705
3934.0720, 0.022322
3936.0000, 0.021835
3937.9290, 0.022472
3939.8570, 0.023547
3941.7860, 0.023580
3943.7140, 0.022922
3945.6430, 0.022745
3947.5710, 0.023646
3949.5000, 0.023452
3951.4280, 0.023796
3953.3570, 0.024709
3955.2850, 0.024517
3957.2140, 0.025297
3959.1420, 0.024814
3961.0710, 0.023863
3962.9990, 0.024238
3964.9270, 0.024847
3966.8560, 0.024990
3968.7840, 0.025043
3970.7130, 0.025636
3972.6410, 0.024743
3974.5700, 0.024655
3976.4980, 0.024789
3978.4270, 0.023091
3980.3550, 0.023281
3982.2840, 0.024141
3984.2120, 0.024770
3986.1410, 0.024340
3988.0690, 0.022994
3989.9980, 0.024308
3991.9260, 0.026334
3993.8540, 0.025875
3995.7830, 0.025216
3997.7110, 0.024932
3999.6400, 0.024944
##END=



