##NAMES=Thenardite
##RRUFFID=R040183
##IDEAL CHEMISTRY=Na_2_S^6+^O_4_
##LOCALITY=Camp Verde, Yavapai County, Arizona, USA
##OWNER=RRUFF
##SOURCE=University of Arizona Mineral Museum
##DESCRIPTION=Tan colored fragment
##STATUS=The identification of this mineral has been confirmed by X-ray diffraction and chemical analysis
##URL=rruff.info/R040183
##MEASURED CHEMISTRY=Na_2.00_S_1.00_O_4_
399.1926, 0.006770
401.1211, 0.000221
403.0496, 0.000222
404.9780, 0.002628
406.9065, 0.007845
408.8350, 0.009413
410.7634, 0.009835
412.6919, 0.008230
414.6204, 0.004745
416.5488, 0.002966
418.4773, 0.003673
420.4058, 0.004054
422.3342, 0.003527
424.2627, 0.002163
426.1912, 0.000141
428.1196, -0.000978
430.0481, 0.000747
431.9766, 0.003402
433.9050, 0.004261
435.8335, 0.003935
437.7620, 0.003357
439.6904, 0.002993
441.6189, 0.002798
443.5474, 0.001723
445.4758, 0.001023
447.4043, 0.001652
449.3328, 0.001599
451.2612, 0.001903
453.1897, 0.002347
455.1182, 0.002421
457.0466, 0.002033
458.9751, 0.002083
460.9036, 0.002228
462.8320, 0.001955
464.7605, 0.002961
466.6890, 0.003530
468.6174, 0.003144
470.5459, 0.002625
472.4744, 0.002841
474.4028, 0.003876
476.3313, 0.004104
478.2598, 0.003413
480.1882, 0.003254
482.1167, 0.003191
484.0452, 0.002988
485.9736, 0.002872
487.9021, 0.003184
489.8306, 0.003212
491.7590, 0.003317
493.6875, 0.003505
495.6160, 0.003556
497.5444, 0.003503
499.4729, 0.003256
501.4014, 0.003065
503.3298, 0.003076
505.2583, 0.003514
507.1868, 0.003573
509.1152, 0.003394
511.0437, 0.003432
512.9722, 0.003565
514.9006, 0.003811
516.8291, 0.004111
518.7576, 0.003940
520.6860, 0.003586
522.6145, 0.003861
524.5430, 0.003808
526.4714, 0.003811
528.3999, 0.004405
530.3284, 0.004974
532.2568, 0.004931
534.1853, 0.004685
536.1138, 0.004506
538.0422, 0.004654
539.9707, 0.004873
541.8992, 0.005043
543.8276, 0.005317
545.7561, 0.005694
547.6846, 0.005711
549.6130, 0.005979
551.5415, 0.006480
553.4700, 0.006710
555.3984, 0.006889
557.3269, 0.007243
559.2554, 0.007653
561.1838, 0.008260
563.1123, 0.008721
565.0408, 0.008834
566.9692, 0.009350
568.8977, 0.010027
570.8262, 0.010679
572.7546, 0.011530
574.6831, 0.012292
576.6116, 0.013208
578.5400, 0.014698
580.4685, 0.016655
582.3970, 0.018360
584.3254, 0.020177
586.2539, 0.022522
588.1824, 0.025954
590.1108, 0.030629
592.0393, 0.036399
593.9678, 0.043892
595.8962, 0.054254
597.8247, 0.068270
599.7532, 0.087547
601.6816, 0.114036
603.6101, 0.150376
605.5386, 0.195870
607.4670, 0.244152
609.3955, 0.285474
611.3240, 0.306837
613.2524, 0.301263
615.1809, 0.273962
617.1094, 0.234579
619.0378, 0.192435
620.9663, 0.154679
622.8948, 0.123578
624.8232, 0.099559
626.7517, 0.083058
628.6802, 0.075267
630.6086, 0.077487
632.5371, 0.090297
634.4656, 0.110528
636.3940, 0.126855
638.3225, 0.128686
640.2510, 0.117132
642.1794, 0.099233
644.1079, 0.079609
646.0364, 0.060809
647.9648, 0.044379
649.8933, 0.030899
651.8218, 0.021600
653.7502, 0.015880
655.6787, 0.012409
657.6072, 0.010263
659.5356, 0.008549
661.4641, 0.007195
663.3926, 0.006498
665.3210, 0.006189
667.2495, 0.005659
669.1780, 0.005367
671.1064, 0.004949
673.0349, 0.004481
674.9634, 0.004352
676.8918, 0.004125
678.8203, 0.003877
680.7488, 0.003994
682.6772, 0.004101
684.6057, 0.003835
686.5342, 0.003851
688.4626, 0.003643
690.3911, 0.003404
692.3196, 0.003765
694.2480, 0.003931
696.1765, 0.003750
698.1050, 0.003628
700.0334, 0.003536
701.9619, 0.003398
703.8904, 0.003607
705.8188, 0.003713
707.7473, 0.003616
709.6758, 0.003769
711.6042, 0.004036
713.5327, 0.004200
715.4612, 0.004019
717.3896, 0.003941
719.3181, 0.004035
721.2466, 0.004126
723.1750, 0.004084
725.1035, 0.004054
727.0320, 0.004060
728.9604, 0.003908
730.8889, 0.004023
732.8174, 0.004199
734.7458, 0.004072
736.6743, 0.003999
738.6028, 0.003932
740.5313, 0.003967
742.4597, 0.004104
744.3882, 0.004034
746.3167, 0.004405
748.2451, 0.004514
750.1736, 0.004292
752.1021, 0.004478
754.0305, 0.004596
755.9590, 0.004380
757.8875, 0.004261
759.8159, 0.004294
761.7444, 0.004429
763.6729, 0.004704
765.6013, 0.004878
767.5298, 0.005099
769.4583, 0.004925
771.3867, 0.004884
773.3152, 0.005120
775.2437, 0.004948
777.1721, 0.004754
779.1006, 0.004899
781.0291, 0.005244
782.9575, 0.005228
784.8860, 0.005350
786.8145, 0.005421
788.7429, 0.005193
790.6714, 0.005082
792.5999, 0.005215
794.5283, 0.005170
796.4568, 0.004966
798.3853, 0.005042
800.3137, 0.005107
802.2422, 0.005194
804.1707, 0.005301
806.0991, 0.005329
808.0276, 0.005319
809.9561, 0.005335
811.8845, 0.005535
813.8130, 0.005702
815.7415, 0.005675
817.6699, 0.005439
819.5984, 0.005431
821.5269, 0.005614
823.4553, 0.005623
825.3838, 0.005683
827.3123, 0.005821
829.2407, 0.005804
831.1692, 0.005706
833.0977, 0.005771
835.0261, 0.005872
836.9546, 0.005958
838.8831, 0.006045
840.8115, 0.005989
842.7400, 0.005834
844.6685, 0.005793
846.5969, 0.005902
848.5254, 0.005809
850.4539, 0.005989
852.3823, 0.006307
854.3108, 0.006492
856.2393, 0.006615
858.1677, 0.006655
860.0962, 0.006775
862.0247, 0.006783
863.9531, 0.006796
865.8816, 0.006973
867.8101, 0.007205
869.7385, 0.007291
871.6670, 0.007498
873.5955, 0.007774
875.5239, 0.007727
877.4524, 0.007625
879.3809, 0.007834
881.3093, 0.008031
883.2378, 0.007948
885.1663, 0.007848
887.0947, 0.008047
889.0232, 0.008412
890.9517, 0.008428
892.8801, 0.008285
894.8085, 0.008477
896.7370, 0.008584
898.6655, 0.008546
900.5939, 0.008620
902.5224, 0.008905
904.4509, 0.009010
906.3793, 0.009097
908.3078, 0.009076
910.2363, 0.009042
912.1647, 0.009376
914.0932, 0.009744
916.0217, 0.009855
917.9501, 0.010023
919.8786, 0.010225
921.8071, 0.010352
923.7355, 0.010389
925.6640, 0.010740
927.5925, 0.011206
929.5209, 0.011255
931.4494, 0.011385
933.3779, 0.011656
935.3063, 0.011863
937.2348, 0.012085
939.1633, 0.012438
941.0917, 0.012863
943.0202, 0.013363
944.9487, 0.013608
946.8771, 0.013846
948.8056, 0.014087
950.7341, 0.014358
952.6625, 0.014915
954.5910, 0.015297
956.5195, 0.015641
958.4479, 0.016252
960.3764, 0.016729
962.3049, 0.017236
964.2333, 0.017653
966.1618, 0.018148
968.0903, 0.018778
970.0187, 0.019321
971.9472, 0.019788
973.8757, 0.020758
975.8041, 0.021916
977.7326, 0.022487
979.6611, 0.022685
981.5895, 0.023223
983.5180, 0.024046
985.4465, 0.024912
987.3749, 0.025954
989.3034, 0.027014
991.2319, 0.028084
993.1603, 0.029168
995.0888, 0.030087
997.0173, 0.030872
998.9457, 0.032051
1000.8740, 0.033315
1002.8030, 0.034394
1004.7310, 0.035735
1006.6600, 0.037468
1008.5880, 0.039026
1010.5170, 0.040419
1012.4450, 0.042178
1014.3730, 0.044244
1016.3020, 0.046172
1018.2300, 0.048210
1020.1590, 0.050597
1022.0870, 0.053044
1024.0160, 0.055746
1025.9440, 0.058768
1027.8730, 0.061770
1029.8010, 0.065241
1031.7300, 0.069430
1033.6580, 0.073844
1035.5870, 0.078601
1037.5150, 0.084091
1039.4440, 0.090169
1041.3720, 0.096661
1043.3010, 0.103639
1045.2290, 0.111310
1047.1570, 0.120118
1049.0860, 0.129653
1051.0140, 0.139915
1052.9430, 0.151502
1054.8710, 0.164487
1056.8000, 0.178595
1058.7280, 0.193888
1060.6570, 0.210436
1062.5850, 0.228259
1064.5140, 0.247564
1066.4420, 0.268023
1068.3710, 0.289528
1070.2990, 0.312065
1072.2280, 0.335761
1074.1560, 0.360432
1076.0840, 0.385759
1078.0130, 0.411832
1079.9410, 0.438209
1081.8700, 0.464436
1083.7980, 0.490773
1085.7270, 0.517015
1087.6550, 0.542867
1089.5840, 0.568465
1091.5120, 0.590930
1093.4410, 0.606172
1095.3690, 0.613902
1097.2980, 0.619876
1099.2260, 0.624230
1101.1550, 0.620145
1103.0830, 0.607860
1105.0110, 0.594846
1106.9400, 0.585033
1108.8680, 0.575946
1110.7970, 0.566001
1112.7250, 0.554646
1114.6540, 0.540693
1116.5820, 0.525073
1118.5110, 0.507749
1120.4390, 0.486685
1122.3680, 0.462771
1124.2960, 0.437863
1126.2250, 0.412812
1128.1530, 0.388233
1130.0820, 0.364936
1132.0100, 0.343515
1133.9380, 0.323413
1135.8670, 0.304645
1137.7950, 0.287898
1139.7240, 0.273347
1141.6520, 0.260788
1143.5810, 0.249632
1145.5090, 0.239039
1147.4380, 0.228401
1149.3660, 0.217603
1151.2950, 0.206650
1153.2230, 0.195615
1155.1520, 0.184614
1157.0800, 0.173585
1159.0090, 0.162387
1160.9370, 0.151194
1162.8650, 0.140600
1164.7940, 0.130254
1166.7220, 0.119956
1168.6510, 0.110058
1170.5790, 0.100829
1172.5080, 0.091800
1174.4360, 0.082979
1176.3650, 0.074657
1178.2930, 0.066552
1180.2220, 0.058780
1182.1500, 0.051538
1184.0790, 0.044956
1186.0070, 0.038886
1187.9360, 0.033585
1189.8640, 0.029351
1191.7920, 0.026036
1193.7210, 0.023517
1195.6490, 0.021112
1197.5780, 0.018571
1199.5060, 0.015861
1201.4350, 0.013101
1203.3630, 0.010627
1205.2920, 0.008954
1207.2200, 0.008027
1209.1490, 0.007637
1211.0770, 0.007320
1213.0060, 0.006837
1214.9340, 0.006277
1216.8630, 0.005862
1218.7910, 0.005633
1220.7190, 0.005309
1222.6480, 0.005036
1224.5760, 0.005034
1226.5050, 0.004959
1228.4330, 0.004937
1230.3620, 0.004873
1232.2900, 0.004730
1234.2190, 0.004646
1236.1470, 0.004727
1238.0760, 0.004752
1240.0040, 0.004563
1241.9330, 0.004357
1243.8610, 0.004327
1245.7900, 0.004274
1247.7180, 0.004031
1249.6460, 0.003845
1251.5750, 0.003640
1253.5030, 0.003548
1255.4320, 0.003469
1257.3600, 0.003256
1259.2890, 0.003146
1261.2170, 0.003210
1263.1460, 0.003230
1265.0740, 0.003118
1267.0030, 0.002962
1268.9310, 0.002801
1270.8600, 0.002737
1272.7880, 0.002690
1274.7170, 0.002697
1276.6450, 0.002589
1278.5730, 0.002462
1280.5020, 0.002193
1282.4300, 0.001904
1284.3590, 0.001923
1286.2870, 0.001738
1288.2160, 0.001553
1290.1440, 0.001727
1292.0730, 0.001797
1294.0010, 0.001887
1295.9300, 0.001910
1297.8580, 0.001592
1299.7870, 0.001393
1301.7150, 0.001381
1303.6440, 0.001383
1305.5720, 0.001419
1307.5000, 0.001408
1309.4290, 0.001291
1311.3570, 0.001445
1313.2860, 0.001476
1315.2140, 0.001232
1317.1430, 0.001095
1319.0710, 0.001179
1321.0000, 0.001096
1322.9280, 0.001176
1324.8570, 0.001315
1326.7850, 0.001201
1328.7140, 0.001107
1330.6420, 0.001155
1332.5710, 0.001254
1334.4990, 0.001215
1336.4270, 0.001049
1338.3560, 0.000990
1340.2840, 0.001089
1342.2130, 0.001126
1344.1410, 0.001183
1346.0700, 0.001210
1347.9980, 0.001161
1349.9270, 0.000996
1351.8550, 0.000937
1353.7840, 0.001063
1355.7120, 0.001027
1357.6410, 0.000964
1359.5690, 0.001084
1361.4980, 0.001083
1363.4260, 0.000981
1365.3540, 0.000824
1367.2830, 0.000614
1369.2110, 0.000592
1371.1400, 0.000763
1373.0680, 0.000815
1374.9970, 0.000851
1376.9250, 0.000855
1378.8540, 0.000808
1380.7820, 0.000792
1382.7110, 0.000717
1384.6390, 0.000860
1386.5680, 0.001148
1388.4960, 0.001153
1390.4240, 0.001226
1392.3530, 0.001105
1394.2810, 0.000855
1396.2100, 0.000813
1398.1380, 0.000852
1400.0670, 0.000792
1401.9950, 0.000871
1403.9240, 0.001147
1405.8520, 0.001137
1407.7810, 0.001041
1409.7090, 0.000997
1411.6380, 0.000997
1413.5660, 0.000891
1415.4950, 0.000875
1417.4230, 0.001255
1419.3510, 0.001465
1421.2800, 0.001259
1423.2080, 0.001307
1425.1370, 0.001383
1427.0650, 0.001379
1428.9940, 0.001597
1430.9220, 0.001399
1432.8510, 0.001129
1434.7790, 0.001229
1436.7080, 0.001377
1438.6360, 0.001180
1440.5650, 0.001089
1442.4930, 0.001261
1444.4220, 0.001303
1446.3500, 0.001226
1448.2780, 0.001207
1450.2070, 0.001322
1452.1350, 0.001354
1454.0640, 0.001304
1455.9920, 0.001443
1457.9210, 0.001566
1459.8490, 0.001423
1461.7780, 0.001442
1463.7060, 0.001236
1465.6350, 0.000880
1467.5630, 0.001079
1469.4920, 0.001503
1471.4200, 0.001636
1473.3490, 0.001476
1475.2770, 0.001374
1477.2050, 0.001325
1479.1340, 0.001187
1481.0620, 0.001072
1482.9910, 0.001114
1484.9190, 0.001333
1486.8480, 0.001328
1488.7760, 0.001216
1490.7050, 0.001299
1492.6330, 0.001115
1494.5620, 0.001072
1496.4900, 0.001198
1498.4190, 0.001130
1500.3470, 0.001148
1502.2760, 0.001231
1504.2040, 0.001362
1506.1320, 0.001487
1508.0610, 0.001394
1509.9890, 0.001263
1511.9180, 0.001251
1513.8460, 0.001302
1515.7750, 0.001357
1517.7030, 0.001401
1519.6320, 0.001420
1521.5600, 0.001379
1523.4890, 0.001298
1525.4170, 0.001440
1527.3460, 0.001447
1529.2740, 0.001481
1531.2030, 0.001572
1533.1310, 0.001565
1535.0590, 0.001478
1536.9880, 0.001500
1538.9160, 0.001649
1540.8450, 0.001656
1542.7730, 0.001575
1544.7020, 0.001600
1546.6300, 0.001670
1548.5590, 0.001902
1550.4870, 0.002107
1552.4160, 0.002158
1554.3440, 0.002149
1556.2730, 0.002093
1558.2010, 0.002207
1560.1300, 0.002266
1562.0580, 0.002204
1563.9860, 0.002298
1565.9150, 0.002384
1567.8430, 0.002484
1569.7720, 0.002560
1571.7000, 0.002454
1573.6290, 0.002590
1575.5570, 0.002633
1577.4860, 0.002428
1579.4140, 0.002205
1581.3430, 0.002223
1583.2710, 0.002289
1585.2000, 0.002401
1587.1280, 0.002476
1589.0570, 0.002571
1590.9850, 0.002684
1592.9130, 0.002591
1594.8420, 0.002639
1596.7700, 0.002696
1598.6990, 0.002508
1600.6270, 0.002572
1602.5560, 0.002880
1604.4840, 0.003060
1606.4130, 0.003207
1608.3410, 0.003080
1610.2700, 0.002782
1612.1980, 0.002487
1614.1270, 0.002396
1616.0550, 0.002733
1617.9840, 0.002998
1619.9120, 0.002915
1621.8400, 0.002679
1623.7690, 0.002717
1625.6970, 0.002743
1627.6260, 0.002517
1629.5540, 0.002391
1631.4830, 0.002618
1633.4110, 0.002621
1635.3400, 0.002627
1637.2680, 0.002439
1639.1970, 0.002253
1641.1250, 0.002334
1643.0540, 0.002378
1644.9820, 0.002338
1646.9110, 0.002293
1648.8390, 0.002081
1650.7670, 0.002069
1652.6960, 0.002303
1654.6240, 0.002137
1656.5530, 0.001764
1658.4810, 0.001734
1660.4100, 0.001980
1662.3380, 0.002136
1664.2670, 0.002129
1666.1950, 0.002123
1668.1240, 0.002045
1670.0520, 0.002309
1671.9810, 0.002418
1673.9090, 0.002159
1675.8380, 0.002087
1677.7660, 0.002103
1679.6940, 0.002230
1681.6230, 0.002131
1683.5510, 0.002275
1685.4800, 0.002507
1687.4080, 0.002361
1689.3370, 0.002177
1691.2650, 0.002275
1693.1940, 0.002516
1695.1220, 0.002472
1697.0510, 0.002484
1698.9790, 0.002417
1700.9080, 0.002471
1702.8360, 0.002439
1704.7650, 0.002363
1706.6930, 0.002431
1708.6210, 0.002247
1710.5500, 0.002121
1712.4780, 0.002162
1714.4070, 0.002249
1716.3350, 0.002314
1718.2640, 0.002370
1720.1920, 0.002475
1722.1210, 0.002331
1724.0490, 0.002201
1725.9780, 0.002354
1727.9060, 0.002636
1729.8350, 0.002710
1731.7630, 0.002640
1733.6920, 0.002634
1735.6200, 0.002506
1737.5480, 0.002153
1739.4770, 0.002239
1741.4050, 0.002448
1743.3340, 0.002568
1745.2620, 0.002505
1747.1910, 0.002190
1749.1190, 0.002452
1751.0480, 0.002708
1752.9760, 0.002441
1754.9050, 0.002449
1756.8330, 0.002434
1758.7620, 0.002434
1760.6900, 0.002620
1762.6190, 0.002449
1764.5470, 0.002023
1766.4750, 0.002095
1768.4040, 0.002344
1770.3320, 0.002360
1772.2610, 0.002428
1774.1890, 0.002135
1776.1180, 0.001932
1778.0460, 0.002282
1779.9750, 0.002644
1781.9030, 0.002525
1783.8320, 0.002211
1785.7600, 0.002348
1787.6890, 0.002864
1789.6170, 0.003161
1791.5460, 0.002719
1793.4740, 0.002258
1795.4020, 0.002218
1797.3310, 0.002385
1799.2590, 0.002564
1801.1880, 0.002635
1803.1160, 0.002271
1805.0450, 0.001997
1806.9730, 0.002016
1808.9020, 0.002088
1810.8300, 0.001948
1812.7590, 0.001803
1814.6870, 0.001871
1816.6160, 0.002224
1818.5440, 0.002527
1820.4730, 0.002639
1822.4010, 0.002454
1824.3290, 0.002205
1826.2580, 0.002083
1828.1860, 0.002230
1830.1150, 0.002368
1832.0430, 0.002271
1833.9720, 0.002263
1835.9000, 0.002356
1837.8290, 0.002281
1839.7570, 0.002556
1841.6860, 0.002816
1843.6140, 0.002722
1845.5430, 0.002540
1847.4710, 0.002564
1849.4000, 0.002216
1851.3280, 0.002094
1853.2560, 0.002312
1855.1850, 0.002486
1857.1130, 0.002336
1859.0420, 0.002093
1860.9700, 0.002490
1862.8990, 0.002435
1864.8270, 0.002097
1866.7560, 0.002425
1868.6840, 0.002572
1870.6130, 0.002306
1872.5410, 0.002116
1874.4700, 0.002430
1876.3980, 0.002384
1878.3270, 0.002326
1880.2550, 0.002207
1882.1830, 0.002361
1884.1120, 0.002618
1886.0400, 0.002855
1887.9690, 0.002904
1889.8970, 0.002421
1891.8260, 0.001955
1893.7540, 0.001797
1895.6830, 0.002138
1897.6110, 0.002183
1899.5400, 0.001937
1901.4680, 0.001598
1903.3970, 0.001913
1905.3250, 0.002328
1907.2540, 0.002529
1909.1820, 0.002899
1911.1100, 0.002879
1913.0390, 0.002646
1914.9670, 0.002964
1916.8960, 0.002877
1918.8240, 0.002272
1920.7530, 0.002564
1922.6810, 0.003060
1924.6100, 0.002761
1926.5380, 0.001369
1928.4670, 0.000987
1930.3950, 0.001598
1932.3240, 0.001787
1934.2520, 0.002383
1936.1810, 0.002927
1938.1090, 0.002705
1940.0370, 0.002079
1941.9660, 0.001670
1943.8940, 0.001627
1945.8230, 0.001660
1947.7510, 0.002527
1949.6800, 0.003215
1951.6080, 0.002601
1953.5370, 0.001597
1955.4650, 0.002003
1957.3940, 0.002142
1959.3220, 0.002283
1961.2510, 0.002287
1963.1790, 0.002452
1965.1080, 0.002698
1967.0360, 0.002352
1968.9640, 0.001575
1970.8930, 0.001316
1972.8210, 0.001325
1974.7500, 0.001984
1976.6780, 0.002432
1978.6070, 0.002938
1980.5350, 0.003957
1982.4640, 0.003137
1984.3920, 0.002193
1986.3210, 0.002550
1988.2490, 0.002737
1990.1780, 0.002710
1992.1060, 0.001821
1994.0350, 0.001443
1995.9630, 0.001185
1997.8910, 0.001789
1999.8200, 0.002274
2001.7480, 0.001156
2003.6770, 0.001339
2005.6050, 0.002080
2007.5340, 0.001602
2009.4620, 0.000769
2011.3910, 0.000062
2013.3190, 0.000028
2015.2480, 0.000300
2017.1760, 0.001365
2019.1050, 0.002411
2021.0330, 0.001695
2022.9620, 0.000352
2024.8900, -0.000509
2026.8180, -0.000594
2028.7470, 0.001057
2030.6750, 0.002026
2032.6040, 0.004163
2034.5320, 0.005302
2036.4610, 0.003121
2038.3890, 0.002238
2040.3180, 0.001737
2042.2460, 0.001946
2044.1750, 0.002633
2046.1030, 0.002924
2048.0320, 0.003041
2049.9600, 0.002159
2051.8890, 0.001364
2053.8170, 0.001639
2055.7460, 0.000583
2057.6740, 0.000296
2059.6030, 0.000702
2061.5310, 0.001075
2063.4590, 0.001109
2065.3880, 0.001051
2067.3160, 0.001517
2069.2450, 0.002002
2071.1730, 0.002392
2073.1020, 0.002261
2075.0300, 0.002077
2076.9590, 0.002090
2078.8870, 0.002205
2080.8160, 0.002000
2082.7440, 0.002916
2084.6730, 0.003601
2086.6010, 0.003175
2088.5300, 0.003017
2090.4580, 0.004413
2092.3860, 0.005484
2094.3150, 0.006247
2096.2430, 0.006926
2098.1720, 0.006177
2100.1000, 0.005575
2102.0290, 0.005442
2103.9570, 0.004647
2105.8860, 0.004622
2107.8140, 0.003589
2109.7430, 0.003421
2111.6710, 0.004661
2113.6000, 0.005322
2115.5280, 0.004262
2117.4570, 0.002431
2119.3850, 0.001544
2121.3130, 0.001528
2123.2420, 0.002254
2125.1700, 0.001846
2127.0990, 0.000691
2129.0270, -0.000681
2130.9560, -0.001654
2132.8840, -0.002779
2134.8130, -0.002865
2136.7410, -0.003158
2138.6700, -0.004085
2140.5980, -0.004323
2142.5270, -0.003820
2144.4550, -0.004172
2146.3840, -0.004977
2148.3120, -0.006081
2150.2400, -0.007159
2152.1690, -0.007788
2154.0970, -0.008850
2156.0260, -0.009740
2157.9540, -0.011730
2159.8830, -0.009738
2161.8110, -0.008048
2163.7400, -0.009395
2165.6680, -0.009334
2167.5970, -0.008336
2169.5250, -0.008000
2171.4540, -0.007296
2173.3820, -0.006459
2175.3110, -0.006271
2177.2390, -0.006220
2179.1670, -0.006072
2181.0960, -0.005403
2183.0240, -0.005151
2184.9530, -0.005422
2186.8810, -0.005145
2188.8100, -0.005632
2190.7380, -0.005943
2192.6670, -0.006358
2194.5950, -0.007709
2196.5240, -0.007254
2198.4520, -0.006964
2200.3810, -0.006304
2202.3090, -0.005789
2204.2380, -0.006909
2206.1660, -0.007390
2208.0940, -0.005832
2210.0230, -0.005456
2211.9510, -0.005747
2213.8800, -0.006164
2215.8080, -0.004969
2217.7370, -0.004493
2219.6650, -0.004833
2221.5940, -0.004717
2223.5220, -0.004318
2225.4510, -0.003726
2227.3790, -0.003351
2229.3080, -0.002711
2231.2360, -0.003050
2233.1650, -0.004250
2235.0930, -0.003671
2237.0210, -0.002586
2238.9500, -0.002330
2240.8780, -0.002066
2242.8070, -0.001611
2244.7350, -0.002154
2246.6640, -0.003284
2248.5920, -0.003198
2250.5210, -0.002528
2252.4490, -0.001576
2254.3780, -0.001054
2256.3060, 0.000644
2258.2350, 0.001179
2260.1630, -0.000580
2262.0920, -0.001051
2264.0200, -0.000227
2265.9480, -0.000004
2267.8770, 0.000838
2269.8050, 0.000869
2271.7340, 0.000477
2273.6620, 0.000324
2275.5910, 0.001029
2277.5190, 0.001263
2279.4480, 0.001468
2281.3760, 0.001213
2283.3050, 0.001111
2285.2330, 0.001932
2287.1620, 0.002534
2289.0900, 0.002999
2291.0190, 0.002734
2292.9470, 0.002522
2294.8750, 0.003207
2296.8040, 0.003752
2298.7320, 0.003781
2300.6610, 0.003050
2302.5890, 0.002610
2304.5180, 0.003532
2306.4460, 0.004315
2308.3750, 0.004049
2310.3030, 0.003417
2312.2320, 0.003063
2314.1600, 0.003138
2316.0890, 0.003336
2318.0170, 0.003927
2319.9460, 0.004058
2321.8740, 0.004452
2323.8020, 0.005168
2325.7310, 0.005030
2327.6590, 0.004356
2329.5880, 0.003833
2331.5160, 0.003677
2333.4450, 0.003616
2335.3730, 0.003463
2337.3020, 0.003384
2339.2300, 0.003350
2341.1590, 0.003872
2343.0870, 0.003945
2345.0160, 0.003669
2346.9440, 0.003763
2348.8730, 0.003917
2350.8010, 0.003950
2352.7290, 0.003943
2354.6580, 0.004186
2356.5860, 0.004052
2358.5150, 0.003675
2360.4430, 0.003391
2362.3720, 0.003575
2364.3000, 0.003956
2366.2290, 0.004142
2368.1570, 0.003962
2370.0860, 0.004039
2372.0140, 0.004332
2373.9420, 0.004047
2375.8710, 0.004085
2377.7990, 0.004326
2379.7280, 0.004157
2381.6560, 0.004425
2383.5850, 0.004642
2385.5130, 0.004350
2387.4420, 0.004143
2389.3700, 0.004623
2391.2990, 0.004731
2393.2270, 0.004388
2395.1560, 0.004750
2397.0840, 0.004804
2399.0120, 0.004889
2400.9410, 0.005349
2402.8690, 0.005362
2404.7980, 0.005069
2406.7260, 0.005037
2408.6550, 0.004744
2410.5830, 0.005164
2412.5120, 0.005143
2414.4400, 0.004792
2416.3690, 0.004768
2418.2970, 0.004585
2420.2260, 0.004792
2422.1540, 0.005045
2424.0830, 0.005033
2426.0110, 0.004874
2427.9390, 0.004916
2429.8680, 0.005450
2431.7960, 0.005907
2433.7250, 0.005683
2435.6530, 0.005096
2437.5820, 0.004592
2439.5100, 0.004648
2441.4390, 0.005042
2443.3670, 0.005283
2445.2960, 0.005239
2447.2240, 0.005324
2449.1530, 0.005509
2451.0810, 0.005549
2453.0100, 0.004999
2454.9380, 0.004437
2456.8660, 0.004856
2458.7950, 0.004813
2460.7230, 0.005390
2462.6520, 0.006222
2464.5800, 0.006245
2466.5090, 0.005464
2468.4370, 0.005023
2470.3660, 0.005388
2472.2940, 0.005926
2474.2230, 0.005909
2476.1510, 0.004959
2478.0800, 0.005433
2480.0080, 0.006084
2481.9370, 0.005298
2483.8650, 0.004979
2485.7930, 0.004999
2487.7220, 0.004865
2489.6500, 0.004964
2491.5790, 0.005327
2493.5070, 0.005106
2495.4360, 0.005328
2497.3640, 0.005856
2499.2930, 0.005570
2501.2210, 0.005195
2503.1500, 0.005460
2505.0780, 0.005840
2507.0070, 0.006258
2508.9350, 0.006491
2510.8640, 0.006327
2512.7920, 0.005438
2514.7200, 0.004509
2516.6490, 0.004470
2518.5770, 0.005211
2520.5060, 0.005339
2522.4340, 0.005572
2524.3630, 0.005996
2526.2910, 0.006024
2528.2200, 0.005855
2530.1480, 0.005420
2532.0770, 0.005765
2534.0050, 0.006350
2535.9340, 0.006283
2537.8620, 0.006248
2539.7910, 0.005795
2541.7190, 0.005396
2543.6470, 0.005689
2545.5760, 0.006228
2547.5040, 0.006247
2549.4330, 0.006690
2551.3610, 0.007084
2553.2900, 0.006380
2555.2180, 0.005680
2557.1470, 0.006402
2559.0750, 0.006985
2561.0040, 0.006567
2562.9320, 0.006485
2564.8610, 0.006609
2566.7890, 0.005735
2568.7180, 0.005744
2570.6460, 0.005604
2572.5740, 0.005723
2574.5030, 0.006484
2576.4310, 0.006605
2578.3600, 0.006225
2580.2880, 0.005933
2582.2170, 0.006493
2584.1450, 0.006529
2586.0740, 0.006408
2588.0020, 0.006198
2589.9310, 0.006455
2591.8590, 0.006969
2593.7880, 0.007031
2595.7160, 0.006401
2597.6450, 0.006240
2599.5730, 0.006772
2601.5010, 0.006877
2603.4300, 0.007119
2605.3580, 0.007274
2607.2870, 0.006744
2609.2150, 0.006876
2611.1440, 0.007210
2613.0720, 0.007013
2615.0010, 0.007077
2616.9290, 0.007311
2618.8580, 0.007487
2620.7860, 0.007315
2622.7150, 0.006653
2624.6430, 0.005904
2626.5720, 0.005899
2628.5000, 0.006472
2630.4280, 0.007007
2632.3570, 0.007386
2634.2850, 0.007465
2636.2140, 0.007306
2638.1420, 0.007791
2640.0710, 0.007424
2641.9990, 0.007206
2643.9280, 0.007175
2645.8560, 0.006816
2647.7850, 0.006158
2649.7130, 0.006289
2651.6420, 0.006895
2653.5700, 0.006566
2655.4990, 0.006619
2657.4270, 0.007275
2659.3550, 0.006739
2661.2840, 0.006330
2663.2120, 0.006729
2665.1410, 0.006899
2667.0690, 0.006581
2668.9980, 0.006304
2670.9260, 0.005887
2672.8550, 0.006067
2674.7830, 0.006449
2676.7120, 0.006141
2678.6400, 0.005518
2680.5690, 0.005855
2682.4970, 0.006310
2684.4260, 0.006681
2686.3540, 0.006559
2688.2820, 0.006293
2690.2110, 0.006214
2692.1390, 0.006169
2694.0680, 0.006424
2695.9960, 0.006630
2697.9250, 0.006462
2699.8530, 0.005965
2701.7820, 0.005895
2703.7100, 0.006670
2705.6390, 0.007169
2707.5670, 0.006972
2709.4960, 0.006671
2711.4240, 0.006552
2713.3530, 0.006436
2715.2810, 0.006437
2717.2090, 0.006101
2719.1380, 0.005907
2721.0660, 0.005397
2722.9950, 0.005712
2724.9230, 0.006566
2726.8520, 0.006560
2728.7800, 0.006227
2730.7090, 0.006024
2732.6370, 0.006382
2734.5660, 0.006574
2736.4940, 0.006230
2738.4230, 0.005866
2740.3510, 0.006010
2742.2800, 0.006286
2744.2080, 0.006250
2746.1360, 0.006674
2748.0650, 0.006549
2749.9930, 0.005939
2751.9220, 0.006395
2753.8500, 0.006984
2755.7790, 0.006668
2757.7070, 0.005973
2759.6360, 0.005584
2761.5640, 0.005986
2763.4930, 0.006069
2765.4210, 0.005972
2767.3500, 0.006408
2769.2780, 0.006744
2771.2070, 0.006508
2773.1350, 0.006160
2775.0630, 0.006461
2776.9920, 0.006826
2778.9200, 0.006307
2780.8490, 0.006074
2782.7770, 0.006673
2784.7060, 0.006982
2786.6340, 0.006662
2788.5630, 0.006402
2790.4910, 0.006580
2792.4200, 0.006809
2794.3480, 0.007051
2796.2770, 0.006475
2798.2050, 0.005752
2800.1340, 0.006344
2802.0620, 0.006981
2803.9900, 0.006823
2805.9190, 0.006779
2807.8470, 0.006739
2809.7760, 0.006546
2811.7040, 0.006559
2813.6330, 0.006592
2815.5610, 0.006919
2817.4900, 0.007042
2819.4180, 0.006715
2821.3470, 0.006751
2823.2750, 0.006898
2825.2040, 0.006728
2827.1320, 0.006354
2829.0610, 0.006459
2830.9890, 0.006337
2832.9170, 0.006199
2834.8460, 0.006505
2836.7740, 0.007077
2838.7030, 0.006969
2840.6310, 0.006168
2842.5600, 0.006047
2844.4880, 0.006728
2846.4170, 0.007179
2848.3450, 0.007494
2850.2740, 0.007408
2852.2020, 0.006898
2854.1310, 0.007220
2856.0590, 0.007738
2857.9880, 0.007465
2859.9160, 0.006703
2861.8440, 0.006585
2863.7730, 0.006220
2865.7010, 0.005687
2867.6300, 0.006679
2869.5580, 0.007292
2871.4870, 0.006655
2873.4150, 0.006572
2875.3440, 0.006911
2877.2720, 0.007209
2879.2010, 0.007147
2881.1290, 0.007299
2883.0580, 0.007573
2884.9860, 0.007726
2886.9150, 0.007351
2888.8430, 0.007033
2890.7710, 0.007019
2892.7000, 0.006922
2894.6280, 0.006654
2896.5570, 0.006759
2898.4850, 0.007364
2900.4140, 0.007934
2902.3420, 0.007431
2904.2710, 0.007318
2906.1990, 0.008271
2908.1280, 0.007856
2910.0560, 0.006588
2911.9850, 0.006377
2913.9130, 0.006724
2915.8420, 0.006963
2917.7700, 0.007346
2919.6980, 0.007108
2921.6270, 0.007013
2923.5550, 0.007414
2925.4840, 0.007174
2927.4120, 0.007115
2929.3410, 0.006653
2931.2690, 0.006264
2933.1980, 0.006155
2935.1260, 0.006495
2937.0550, 0.006808
2938.9830, 0.006628
2940.9120, 0.006579
2942.8400, 0.006417
2944.7690, 0.006634
2946.6970, 0.007059
2948.6250, 0.006908
2950.5540, 0.007226
2952.4820, 0.007788
2954.4110, 0.007033
2956.3390, 0.006414
2958.2680, 0.006393
2960.1960, 0.006753
2962.1250, 0.007262
2964.0530, 0.008220
2965.9820, 0.008069
2967.9100, 0.007701
2969.8390, 0.007699
2971.7670, 0.007455
2973.6960, 0.007664
2975.6240, 0.007496
2977.5520, 0.006496
2979.4810, 0.006498
2981.4090, 0.006749
2983.3380, 0.006814
2985.2660, 0.007563
2987.1950, 0.007014
2989.1230, 0.006730
2991.0520, 0.006895
2992.9800, 0.007101
2994.9090, 0.006825
2996.8370, 0.006748
2998.7660, 0.006945
3000.6940, 0.007268
3002.6230, 0.007107
3004.5510, 0.006550
3006.4790, 0.006744
3008.4080, 0.006852
3010.3360, 0.006793
3012.2650, 0.006924
3014.1930, 0.006934
3016.1220, 0.006906
3018.0500, 0.006670
3019.9790, 0.006397
3021.9070, 0.006665
3023.8360, 0.007000
3025.7640, 0.006976
3027.6930, 0.006701
3029.6210, 0.006873
3031.5500, 0.007593
3033.4780, 0.007374
3035.4060, 0.007433
3037.3350, 0.007506
3039.2630, 0.007531
3041.1920, 0.007094
3043.1200, 0.006811
3045.0490, 0.007146
3046.9770, 0.007798
3048.9060, 0.007417
3050.8340, 0.006656
3052.7630, 0.007023
3054.6910, 0.007789
3056.6200, 0.007784
3058.5480, 0.007868
3060.4770, 0.007754
3062.4050, 0.007376
3064.3330, 0.007058
3066.2620, 0.007378
3068.1900, 0.007658
3070.1190, 0.007346
3072.0470, 0.007230
3073.9760, 0.007358
3075.9040, 0.007161
3077.8330, 0.007759
3079.7610, 0.008419
3081.6900, 0.008274
3083.6180, 0.007314
3085.5470, 0.007108
3087.4750, 0.007973
3089.4040, 0.008496
3091.3320, 0.008596
3093.2600, 0.008086
3095.1890, 0.007675
3097.1170, 0.007947
3099.0460, 0.007913
3100.9740, 0.008230
3102.9030, 0.008353
3104.8310, 0.007929
3106.7600, 0.008369
3108.6880, 0.008773
3110.6170, 0.008512
3112.5450, 0.007880
3114.4740, 0.007333
3116.4020, 0.007893
3118.3310, 0.008374
3120.2590, 0.008849
3122.1880, 0.008438
3124.1160, 0.007678
3126.0440, 0.007555
3127.9730, 0.008167
3129.9010, 0.008740
3131.8300, 0.008197
3133.7580, 0.007373
3135.6870, 0.007985
3137.6150, 0.008087
3139.5440, 0.008172
3141.4720, 0.008139
3143.4010, 0.008375
3145.3290, 0.008244
3147.2580, 0.008263
3149.1860, 0.008488
3151.1150, 0.008637
3153.0430, 0.008616
3154.9710, 0.008916
3156.9000, 0.009030
3158.8280, 0.009171
3160.7570, 0.008781
3162.6850, 0.008610
3164.6140, 0.009359
3166.5420, 0.009581
3168.4710, 0.009154
3170.3990, 0.008659
3172.3280, 0.008369
3174.2560, 0.008154
3176.1850, 0.007582
3178.1130, 0.008025
3180.0420, 0.008355
3181.9700, 0.008599
3183.8980, 0.008519
3185.8270, 0.008434
3187.7550, 0.008728
3189.6840, 0.008757
3191.6120, 0.008235
3193.5410, 0.008417
3195.4690, 0.008270
3197.3980, 0.008744
3199.3260, 0.008578
3201.2550, 0.008666
3203.1830, 0.008456
3205.1120, 0.007154
3207.0400, 0.006859
3208.9690, 0.007355
3210.8970, 0.008858
3212.8250, 0.009644
3214.7540, 0.008733
3216.6820, 0.007679
3218.6110, 0.007606
3220.5390, 0.008406
3222.4680, 0.009329
3224.3960, 0.009469
3226.3250, 0.008342
3228.2530, 0.008758
3230.1820, 0.009372
3232.1100, 0.009277
3234.0390, 0.008819
3235.9670, 0.009353
3237.8960, 0.010142
3239.8240, 0.010277
3241.7520, 0.009667
3243.6810, 0.009507
3245.6090, 0.009598
3247.5380, 0.009470
3249.4660, 0.009506
3251.3950, 0.009888
3253.3230, 0.009707
3255.2520, 0.009745
3257.1800, 0.010467
3259.1090, 0.010193
3261.0370, 0.009500
3262.9660, 0.009643
3264.8940, 0.010132
3266.8230, 0.009852
3268.7510, 0.008928
3270.6790, 0.008664
3272.6080, 0.009087
3274.5360, 0.009487
3276.4650, 0.009786
3278.3930, 0.009289
3280.3220, 0.008797
3282.2500, 0.008942
3284.1790, 0.009354
3286.1070, 0.009486
3288.0360, 0.009822
3289.9640, 0.009966
3291.8930, 0.009682
3293.8210, 0.010394
3295.7500, 0.011141
3297.6780, 0.010134
3299.6060, 0.008909
3301.5350, 0.009301
3303.4630, 0.010297
3305.3920, 0.009676
3307.3200, 0.008207
3309.2490, 0.007501
3311.1770, 0.007501
3313.1060, 0.008257
3315.0340, 0.008576
3316.9630, 0.008759
3318.8910, 0.009038
3320.8200, 0.009134
3322.7480, 0.009137
3324.6770, 0.008899
3326.6050, 0.009235
3328.5330, 0.008803
3330.4620, 0.009356
3332.3900, 0.010066
3334.3190, 0.009957
3336.2470, 0.010103
3338.1760, 0.009616
3340.1040, 0.009289
3342.0330, 0.008817
3343.9610, 0.007867
3345.8900, 0.008158
3347.8180, 0.008323
3349.7470, 0.008779
3351.6750, 0.009494
3353.6040, 0.010125
3355.5320, 0.009580
3357.4600, 0.008868
3359.3890, 0.009074
3361.3170, 0.009612
3363.2460, 0.009634
3365.1740, 0.009088
3367.1030, 0.009325
3369.0310, 0.009727
3370.9600, 0.009809
3372.8880, 0.009366
3374.8170, 0.009652
3376.7450, 0.010199
3378.6740, 0.009716
3380.6020, 0.009756
3382.5310, 0.009366
3384.4590, 0.009550
3386.3870, 0.010158
3388.3160, 0.009821
3390.2440, 0.009337
3392.1730, 0.008881
3394.1010, 0.008646
3396.0300, 0.009003
3397.9580, 0.009753
3399.8870, 0.009215
3401.8150, 0.009096
3403.7440, 0.010313
3405.6720, 0.010556
3407.6010, 0.009674
3409.5290, 0.010140
3411.4580, 0.011352
3413.3860, 0.010680
3415.3140, 0.009776
3417.2430, 0.009148
3419.1710, 0.007441
3421.1000, 0.007613
3423.0280, 0.009496
3424.9570, 0.009897
3426.8850, 0.009860
3428.8140, 0.010171
3430.7420, 0.009932
3432.6710, 0.009776
3434.5990, 0.010794
3436.5280, 0.011867
3438.4560, 0.010993
3440.3850, 0.008643
3442.3130, 0.008482
3444.2410, 0.009337
3446.1700, 0.009068
3448.0980, 0.008243
3450.0270, 0.008306
3451.9550, 0.008323
3453.8840, 0.009444
3455.8120, 0.009865
3457.7410, 0.008945
3459.6690, 0.008587
3461.5980, 0.009512
3463.5260, 0.011140
3465.4550, 0.011720
3467.3830, 0.010758
3469.3120, 0.008736
3471.2400, 0.008000
3473.1680, 0.009153
3475.0970, 0.009994
3477.0250, 0.008839
3478.9540, 0.008554
3480.8820, 0.009572
3482.8110, 0.009393
3484.7390, 0.009125
3486.6680, 0.009589
3488.5960, 0.010235
3490.5250, 0.009896
3492.4530, 0.009188
3494.3820, 0.010025
3496.3100, 0.009802
3498.2390, 0.008616
3500.1670, 0.009151
3502.0950, 0.009682
3504.0240, 0.008903
3505.9520, 0.009151
3507.8810, 0.010379
3509.8090, 0.010881
3511.7380, 0.009864
3513.6660, 0.009306
3515.5950, 0.009918
3517.5230, 0.010224
3519.4520, 0.009645
3521.3800, 0.009260
3523.3090, 0.009769
3525.2370, 0.010717
3527.1660, 0.010630
3529.0940, 0.009924
3531.0220, 0.009861
3532.9510, 0.009966
3534.8790, 0.009449
3536.8080, 0.008782
3538.7360, 0.008959
3540.6650, 0.009349
3542.5930, 0.009539
3544.5220, 0.009786
3546.4500, 0.010416
3548.3790, 0.011158
3550.3070, 0.010509
3552.2360, 0.010324
3554.1640, 0.009788
3556.0930, 0.009386
3558.0210, 0.011212
3559.9490, 0.011744
3561.8780, 0.010168
3563.8060, 0.010351
3565.7350, 0.010773
3567.6630, 0.009827
3569.5920, 0.009952
3571.5200, 0.009740
3573.4490, 0.009882
3575.3770, 0.009763
3577.3060, 0.008144
3579.2340, 0.006822
3581.1630, 0.007804
3583.0910, 0.008307
3585.0200, 0.009816
3586.9480, 0.010773
3588.8760, 0.010065
3590.8050, 0.009734
3592.7330, 0.010128
3594.6620, 0.010017
3596.5900, 0.009212
3598.5190, 0.009453
3600.4470, 0.009998
3602.3760, 0.010448
3604.3040, 0.009951
3606.2330, 0.008952
3608.1610, 0.008929
3610.0900, 0.009121
3612.0180, 0.008659
3613.9470, 0.008887
3615.8750, 0.009673
3617.8030, 0.008120
3619.7320, 0.007947
3621.6600, 0.009276
3623.5890, 0.009473
3625.5170, 0.008679
3627.4460, 0.009836
3629.3740, 0.010791
3631.3030, 0.010059
3633.2310, 0.009728
3635.1600, 0.009248
3637.0880, 0.008687
3639.0170, 0.007803
3640.9450, 0.007902
3642.8740, 0.009280
3644.8020, 0.009007
3646.7300, 0.009274
3648.6590, 0.009810
3650.5870, 0.010553
3652.5160, 0.010691
3654.4440, 0.009794
3656.3730, 0.009850
3658.3010, 0.010631
3660.2300, 0.009437
3662.1580, 0.009245
3664.0870, 0.009952
3666.0150, 0.009150
3667.9440, 0.008426
3669.8720, 0.009423
3671.8010, 0.010513
3673.7290, 0.009761
3675.6570, 0.008641
3677.5860, 0.008085
3679.5140, 0.009694
3681.4430, 0.010328
3683.3710, 0.009220
3685.3000, 0.009964
3687.2280, 0.010527
3689.1570, 0.009545
3691.0850, 0.009172
3693.0140, 0.009963
3694.9420, 0.009947
3696.8710, 0.010146
3698.7990, 0.011139
3700.7280, 0.008681
3702.6560, 0.008661
3704.5840, 0.011475
3706.5130, 0.011396
3708.4410, 0.010345
3710.3700, 0.009773
3712.2980, 0.010151
3714.2270, 0.008912
3716.1550, 0.008671
3718.0840, 0.009185
3720.0120, 0.008409
3721.9410, 0.007756
3723.8690, 0.009669
3725.7980, 0.012142
3727.7260, 0.010928
3729.6550, 0.010067
3731.5830, 0.010350
3733.5110, 0.010368
3735.4400, 0.010370
3737.3680, 0.009471
3739.2970, 0.010275
3741.2250, 0.011071
3743.1540, 0.011469
3745.0820, 0.010111
3747.0110, 0.008210
3748.9390, 0.009696
3750.8680, 0.010625
3752.7960, 0.011330
3754.7250, 0.010266
3756.6530, 0.008605
3758.5820, 0.010534
3760.5100, 0.010919
3762.4380, 0.008607
3764.3670, 0.009002
3766.2950, 0.009225
3768.2240, 0.008873
3770.1520, 0.008697
3772.0810, 0.009080
3774.0090, 0.009693
3775.9380, 0.009852
3777.8660, 0.009523
3779.7950, 0.011128
3781.7230, 0.011573
3783.6520, 0.010811
3785.5800, 0.010268
3787.5090, 0.009076
3789.4370, 0.008147
3791.3650, 0.008911
3793.2940, 0.010321
3795.2220, 0.010195
3797.1510, 0.009481
3799.0790, 0.008986
3801.0080, 0.009380
3802.9360, 0.009451
3804.8650, 0.010416
3806.7930, 0.012002
3808.7220, 0.012160
3810.6500, 0.012225
3812.5790, 0.012019
3814.5070, 0.011700
3816.4360, 0.010857
3818.3640, 0.010814
3820.2920, 0.011348
3822.2210, 0.010378
3824.1490, 0.009547
3826.0780, 0.008861
3828.0060, 0.008202
3829.9350, 0.008830
3831.8630, 0.009643
3833.7920, 0.009073
3835.7200, 0.009526
3837.6490, 0.011886
3839.5770, 0.012813
3841.5060, 0.011042
3843.4340, 0.010879
3845.3630, 0.010113
3847.2910, 0.009571
3849.2190, 0.010335
3851.1480, 0.011391
3853.0760, 0.011770
3855.0050, 0.009400
3856.9330, 0.008278
3858.8620, 0.008382
3860.7900, 0.008678
3862.7190, 0.008288
3864.6470, 0.008180
3866.5760, 0.009567
3868.5040, 0.010805
3870.4330, 0.010091
3872.3610, 0.009470
3874.2900, 0.009540
3876.2180, 0.010215
3878.1460, 0.010400
3880.0750, 0.009996
3882.0030, 0.010307
3883.9320, 0.010178
3885.8600, 0.010553
3887.7890, 0.009437
3889.7170, 0.009202
3891.6460, 0.011633
3893.5740, 0.011054
3895.5030, 0.008857
3897.4310, 0.009699
3899.3600, 0.010641
3901.2880, 0.010535
3903.2170, 0.010046
3905.1450, 0.008927
3907.0730, 0.009116
3909.0020, 0.010621
3910.9300, 0.010369
3912.8590, 0.009957
3914.7870, 0.010319
3916.7160, 0.010329
3918.6440, 0.009181
3920.5730, 0.009637
3922.5010, 0.009955
3924.4300, 0.010125
3926.3580, 0.010473
3928.2870, 0.010990
3930.2150, 0.010997
3932.1440, 0.011241
3934.0720, 0.009585
3936.0000, 0.007801
3937.9290, 0.007981
3939.8570, 0.009203
3941.7860, 0.008628
3943.7140, 0.007696
3945.6430, 0.009326
3947.5710, 0.010420
3949.5000, 0.009100
3951.4280, 0.008742
3953.3570, 0.009251
3955.2850, 0.009895
3957.2140, 0.010556
3959.1420, 0.010252
3961.0710, 0.009741
3962.9990, 0.010585
3964.9270, 0.012075
3966.8560, 0.011715
3968.7840, 0.010652
3970.7130, 0.011256
3972.6410, 0.011341
3974.5700, 0.011276
3976.4980, 0.011036
3978.4270, 0.009754
3980.3550, 0.010262
3982.2840, 0.010303
3984.2120, 0.009344
3986.1410, 0.009185
3988.0690, 0.009708
3989.9980, 0.011083
3991.9260, 0.011636
3993.8540, 0.012351
3995.7830, 0.012267
3997.7110, 0.010859
3999.6400, 0.010864
##END=



