##NAMES=Actinolite
##RRUFFID=R040064
##IDEAL CHEMISTRY=Ca_2_(Mg_4.5-2.5_Fe^2+^_0.5-2.5_)Si_8_O_22_(OH)_2_
##LOCALITY=Ehime Perfecture, Uma Gun, Japan
##OWNER=RRUFF
##SOURCE=University of Arizona Mineral Museum
##DESCRIPTION=Aggregate of green acicular crystals associated with chlorite
##STATUS=The identification of this mineral has been confirmed by X-ray diffraction and chemical analysis
##URL=rruff.info/R040064
##MEASURED CHEMISTRY=(Ca_0.95_Na_0.04_Mn_0.01_)_2_(Mg_0.88_Fe_0.12_)_5_(Si_0.98_Al_0.02_)_8_O_22_(OH)_2_
3.991926e+002, 0.000000e+000
4.011211e+002, 3.011740e-001
4.030496e+002, 3.025748e-001
4.049780e+002, 2.933609e-001
4.069065e+002, 2.989960e-001
4.088350e+002, 3.184517e-001
4.107634e+002, 3.243708e-001
4.126919e+002, 3.250098e-001
4.146204e+002, 3.308763e-001
4.165488e+002, 3.237157e-001
4.184773e+002, 3.137120e-001
4.204058e+002, 3.001015e-001
4.223342e+002, 2.936405e-001
4.242627e+002, 2.970041e-001
4.261912e+002, 3.078787e-001
4.281196e+002, 3.298510e-001
4.300481e+002, 3.561015e-001
4.319766e+002, 3.737275e-001
4.339050e+002, 3.869002e-001
4.358335e+002, 3.948345e-001
4.377620e+002, 3.951137e-001
4.396904e+002, 3.863747e-001
4.416189e+002, 3.731004e-001
4.435474e+002, 3.646784e-001
4.454758e+002, 3.602009e-001
4.474043e+002, 3.474972e-001
4.493328e+002, 3.380615e-001
4.512612e+002, 3.347483e-001
4.531897e+002, 3.347992e-001
4.551182e+002, 3.304518e-001
4.570466e+002, 3.215423e-001
4.589751e+002, 3.138970e-001
4.609036e+002, 3.095088e-001
4.628320e+002, 3.007277e-001
4.647605e+002, 2.907718e-001
4.666890e+002, 2.790287e-001
4.686174e+002, 2.677591e-001
4.705459e+002, 2.579273e-001
4.724744e+002, 2.463666e-001
4.744028e+002, 2.356941e-001
4.763313e+002, 2.281943e-001
4.782598e+002, 2.208808e-001
4.801882e+002, 2.123915e-001
4.821167e+002, 2.044771e-001
4.840452e+002, 2.006841e-001
4.859736e+002, 1.988714e-001
4.879021e+002, 1.985024e-001
4.898306e+002, 2.007718e-001
4.917590e+002, 2.054721e-001
4.936875e+002, 2.103297e-001
4.956160e+002, 2.162518e-001
4.975444e+002, 2.200931e-001
4.994729e+002, 2.211046e-001
5.014014e+002, 2.227017e-001
5.033298e+002, 2.229186e-001
5.052583e+002, 2.191468e-001
5.071868e+002, 2.113615e-001
5.091152e+002, 2.020736e-001
5.110437e+002, 1.925128e-001
5.129722e+002, 1.824068e-001
5.149006e+002, 1.738970e-001
5.168291e+002, 1.685857e-001
5.187576e+002, 1.640154e-001
5.206860e+002, 1.600763e-001
5.226145e+002, 1.577701e-001
5.245430e+002, 1.569459e-001
5.264714e+002, 1.558659e-001
5.283999e+002, 1.533843e-001
5.303284e+002, 1.503524e-001
5.322568e+002, 1.466503e-001
5.341853e+002, 1.421439e-001
5.361138e+002, 1.368696e-001
5.380422e+002, 1.293949e-001
5.399707e+002, 1.213450e-001
5.418992e+002, 1.135334e-001
5.438276e+002, 1.054264e-001
5.457561e+002, 9.768544e-002
5.476846e+002, 9.117842e-002
5.496130e+002, 8.487641e-002
5.515415e+002, 7.917707e-002
5.534700e+002, 7.442804e-002
5.553984e+002, 6.934255e-002
5.573269e+002, 6.444246e-002
5.592554e+002, 6.017458e-002
5.611838e+002, 5.615006e-002
5.631123e+002, 5.245408e-002
5.650408e+002, 4.886929e-002
5.669692e+002, 4.551637e-002
5.688977e+002, 4.257443e-002
5.708262e+002, 4.000570e-002
5.727546e+002, 3.799694e-002
5.746831e+002, 3.578504e-002
5.766116e+002, 3.368393e-002
5.785400e+002, 3.219178e-002
5.804685e+002, 3.087990e-002
5.823970e+002, 2.988983e-002
5.843254e+002, 2.898844e-002
5.862539e+002, 2.801243e-002
5.881824e+002, 2.728978e-002
5.901108e+002, 2.678964e-002
5.920393e+002, 2.612491e-002
5.939678e+002, 2.606653e-002
5.958962e+002, 2.627800e-002
5.978247e+002, 2.606216e-002
5.997532e+002, 2.618011e-002
6.016816e+002, 2.663963e-002
6.036101e+002, 2.701237e-002
6.055386e+002, 2.764802e-002
6.074670e+002, 2.839316e-002
6.093955e+002, 2.910382e-002
6.113240e+002, 2.945924e-002
6.132524e+002, 3.026040e-002
6.151809e+002, 3.146680e-002
6.171094e+002, 3.281642e-002
6.190378e+002, 3.409601e-002
6.209663e+002, 3.578613e-002
6.228948e+002, 3.785917e-002
6.248232e+002, 4.000650e-002
6.267517e+002, 4.281669e-002
6.286802e+002, 4.656751e-002
6.306086e+002, 5.090025e-002
6.325371e+002, 5.590927e-002
6.344656e+002, 6.221681e-002
6.363940e+002, 6.969518e-002
6.383225e+002, 7.762772e-002
6.402510e+002, 8.377089e-002
6.421794e+002, 8.583039e-002
6.441079e+002, 8.425444e-002
6.460364e+002, 8.205280e-002
6.479648e+002, 8.132254e-002
6.498933e+002, 8.297642e-002
6.518218e+002, 8.676072e-002
6.537502e+002, 9.125727e-002
6.556787e+002, 9.564140e-002
6.576072e+002, 9.836134e-002
6.595356e+002, 9.822799e-002
6.614641e+002, 9.602980e-002
6.633926e+002, 9.253906e-002
6.653210e+002, 8.852255e-002
6.672495e+002, 8.535032e-002
6.691780e+002, 8.385096e-002
6.711064e+002, 8.436142e-002
6.730349e+002, 8.672639e-002
6.749634e+002, 9.135143e-002
6.768918e+002, 9.856367e-002
6.788203e+002, 1.065538e-001
6.807488e+002, 1.138248e-001
6.826772e+002, 1.186553e-001
6.846057e+002, 1.187502e-001
6.865342e+002, 1.140420e-001
6.884626e+002, 1.060214e-001
6.903911e+002, 9.654541e-002
6.923196e+002, 8.720183e-002
6.942480e+002, 7.856099e-002
6.961765e+002, 7.134458e-002
6.981050e+002, 6.535485e-002
7.000334e+002, 6.040667e-002
7.019619e+002, 5.674518e-002
7.038904e+002, 5.399805e-002
7.058188e+002, 5.198493e-002
7.077473e+002, 5.044508e-002
7.096758e+002, 4.947504e-002
7.116042e+002, 4.945777e-002
7.135327e+002, 5.002251e-002
7.154612e+002, 5.100791e-002
7.173896e+002, 5.274644e-002
7.193181e+002, 5.521975e-002
7.212466e+002, 5.822040e-002
7.231750e+002, 6.060218e-002
7.251035e+002, 6.121836e-002
7.270320e+002, 6.050063e-002
7.289604e+002, 6.012728e-002
7.308889e+002, 6.152241e-002
7.328174e+002, 6.458069e-002
7.347458e+002, 6.859209e-002
7.366743e+002, 7.281388e-002
7.386028e+002, 7.560534e-002
7.405313e+002, 7.698695e-002
7.424597e+002, 8.010856e-002
7.443882e+002, 8.587637e-002
7.463167e+002, 9.331819e-002
7.482451e+002, 1.024199e-001
7.501736e+002, 1.133987e-001
7.521021e+002, 1.274782e-001
7.540305e+002, 1.440762e-001
7.559590e+002, 1.574645e-001
7.578875e+002, 1.604865e-001
7.598159e+002, 1.511470e-001
7.617444e+002, 1.339807e-001
7.636729e+002, 1.151383e-001
7.656013e+002, 9.799451e-002
7.675298e+002, 8.355565e-002
7.694583e+002, 7.212750e-002
7.713867e+002, 6.403852e-002
7.733152e+002, 5.860216e-002
7.752437e+002, 5.475152e-002
7.771721e+002, 5.189876e-002
7.791006e+002, 4.981600e-002
7.810291e+002, 4.841855e-002
7.829575e+002, 4.741699e-002
7.848860e+002, 4.660613e-002
7.868145e+002, 4.602035e-002
7.887429e+002, 4.563795e-002
7.906714e+002, 4.535525e-002
7.925999e+002, 4.515807e-002
7.945283e+002, 4.537826e-002
7.964568e+002, 4.569798e-002
7.983853e+002, 4.616211e-002
8.003137e+002, 4.666287e-002
8.022422e+002, 4.725670e-002
8.041707e+002, 4.806513e-002
8.060991e+002, 4.881641e-002
8.080276e+002, 4.966499e-002
8.099561e+002, 5.070797e-002
8.118845e+002, 5.188211e-002
8.138130e+002, 5.303064e-002
8.157415e+002, 5.424344e-002
8.176699e+002, 5.565219e-002
8.195984e+002, 5.706777e-002
8.215269e+002, 5.852736e-002
8.234553e+002, 5.966966e-002
8.253838e+002, 6.090770e-002
8.273123e+002, 6.245599e-002
8.292407e+002, 6.399744e-002
8.311692e+002, 6.536838e-002
8.330977e+002, 6.688385e-002
8.350261e+002, 6.863297e-002
8.369546e+002, 7.084337e-002
8.388831e+002, 7.348021e-002
8.408115e+002, 7.634245e-002
8.427400e+002, 7.940101e-002
8.446685e+002, 8.294031e-002
8.465969e+002, 8.646215e-002
8.485254e+002, 8.967399e-002
8.504539e+002, 9.290241e-002
8.523823e+002, 9.669650e-002
8.543108e+002, 1.007990e-001
8.562393e+002, 1.053591e-001
8.581677e+002, 1.101004e-001
8.600962e+002, 1.152115e-001
8.620247e+002, 1.206655e-001
8.639531e+002, 1.265901e-001
8.658816e+002, 1.328948e-001
8.678101e+002, 1.395179e-001
8.697385e+002, 1.464684e-001
8.716670e+002, 1.541655e-001
8.735955e+002, 1.625420e-001
8.755239e+002, 1.711699e-001
8.774524e+002, 1.805194e-001
8.793809e+002, 1.908429e-001
8.813093e+002, 2.016878e-001
8.832378e+002, 2.131540e-001
8.851663e+002, 2.248091e-001
8.870947e+002, 2.367671e-001
8.890232e+002, 2.488037e-001
8.909517e+002, 2.608021e-001
8.928801e+002, 2.732498e-001
8.948085e+002, 2.868295e-001
8.967370e+002, 3.015109e-001
8.986655e+002, 3.172262e-001
9.005939e+002, 3.333160e-001
9.025224e+002, 3.498728e-001
9.044509e+002, 3.674416e-001
9.063793e+002, 3.850658e-001
9.083078e+002, 4.020386e-001
9.102363e+002, 4.180903e-001
9.121647e+002, 4.321739e-001
9.140932e+002, 4.423777e-001
9.160217e+002, 4.454217e-001
9.179501e+002, 4.402792e-001
9.198786e+002, 4.285597e-001
9.218071e+002, 4.126605e-001
9.237355e+002, 3.938901e-001
9.256640e+002, 3.747281e-001
9.275925e+002, 3.590831e-001
9.295209e+002, 3.518536e-001
9.314494e+002, 3.558167e-001
9.333779e+002, 3.693902e-001
9.353063e+002, 3.893417e-001
9.372348e+002, 4.119563e-001
9.391633e+002, 4.347565e-001
9.410917e+002, 4.554750e-001
9.430202e+002, 4.716784e-001
9.449487e+002, 4.819691e-001
9.468771e+002, 4.865871e-001
9.488056e+002, 4.860548e-001
9.507341e+002, 4.816660e-001
9.526625e+002, 4.742368e-001
9.545910e+002, 4.651783e-001
9.565195e+002, 4.560292e-001
9.584479e+002, 4.459635e-001
9.603764e+002, 4.353734e-001
9.623049e+002, 4.255109e-001
9.642333e+002, 4.170700e-001
9.661618e+002, 4.091419e-001
9.680903e+002, 4.020907e-001
9.700187e+002, 3.959815e-001
9.719472e+002, 3.904916e-001
9.738757e+002, 3.857500e-001
9.758041e+002, 3.818306e-001
9.777326e+002, 3.788450e-001
9.796611e+002, 3.762619e-001
9.815895e+002, 3.732081e-001
9.835180e+002, 3.689437e-001
9.854465e+002, 3.632084e-001
9.873749e+002, 3.555180e-001
9.893034e+002, 3.462166e-001
9.912319e+002, 3.354664e-001
9.931603e+002, 3.227710e-001
9.950888e+002, 3.091033e-001
9.970173e+002, 2.947815e-001
9.989457e+002, 2.796778e-001
1.000874e+003, 2.649688e-001
1.002803e+003, 2.514391e-001
1.004731e+003, 2.387300e-001
1.006660e+003, 2.266271e-001
1.008588e+003, 2.152644e-001
1.010517e+003, 2.047752e-001
1.012445e+003, 1.948076e-001
1.014373e+003, 1.854757e-001
1.016302e+003, 1.768188e-001
1.018230e+003, 1.685993e-001
1.020159e+003, 1.607911e-001
1.022087e+003, 1.539481e-001
1.024016e+003, 1.484629e-001
1.025944e+003, 1.446812e-001
1.027873e+003, 1.427806e-001
1.029801e+003, 1.432279e-001
1.031730e+003, 1.466379e-001
1.033658e+003, 1.516889e-001
1.035587e+003, 1.556090e-001
1.037515e+003, 1.556083e-001
1.039444e+003, 1.518357e-001
1.041372e+003, 1.475572e-001
1.043301e+003, 1.450501e-001
1.045229e+003, 1.441741e-001
1.047157e+003, 1.438487e-001
1.049086e+003, 1.438004e-001
1.051014e+003, 1.441571e-001
1.052943e+003, 1.446728e-001
1.054871e+003, 1.450833e-001
1.056800e+003, 1.453570e-001
1.058728e+003, 1.454105e-001
1.060657e+003, 1.452698e-001
1.062585e+003, 1.448030e-001
1.064514e+003, 1.440234e-001
1.066442e+003, 1.425919e-001
1.068371e+003, 1.406796e-001
1.070299e+003, 1.381520e-001
1.072228e+003, 1.350077e-001
1.074156e+003, 1.314465e-001
1.076084e+003, 1.278076e-001
1.078013e+003, 1.242795e-001
1.079941e+003, 1.211695e-001
1.081870e+003, 1.183939e-001
1.083798e+003, 1.164824e-001
1.085727e+003, 1.155274e-001
1.087655e+003, 1.155817e-001
1.089584e+003, 1.166990e-001
1.091512e+003, 1.184113e-001
1.093441e+003, 1.201123e-001
1.095369e+003, 1.221562e-001
1.097298e+003, 1.241057e-001
1.099226e+003, 1.256061e-001
1.101155e+003, 1.267041e-001
1.103083e+003, 1.268670e-001
1.105011e+003, 1.263173e-001
1.106940e+003, 1.247718e-001
1.108868e+003, 1.219585e-001
1.110797e+003, 1.183042e-001
1.112725e+003, 1.138905e-001
1.114654e+003, 1.086231e-001
1.116582e+003, 1.026800e-001
1.118511e+003, 9.647217e-002
1.120439e+003, 9.038959e-002
1.122368e+003, 8.505014e-002
1.124296e+003, 8.082979e-002
1.126225e+003, 7.714284e-002
1.128153e+003, 7.260154e-002
1.130082e+003, 6.704128e-002
1.132010e+003, 6.106277e-002
1.133938e+003, 5.498898e-002
1.135867e+003, 4.939236e-002
1.137795e+003, 4.434787e-002
1.139724e+003, 3.958895e-002
1.141652e+003, 3.536301e-002
1.143581e+003, 3.130003e-002
1.145509e+003, 2.767189e-002
1.147438e+003, 2.470507e-002
1.149366e+003, 2.210939e-002
1.151295e+003, 1.990226e-002
1.153223e+003, 1.802958e-002
1.155152e+003, 1.651945e-002
1.157080e+003, 1.510755e-002
1.159009e+003, 1.386185e-002
1.160937e+003, 1.298036e-002
1.162865e+003, 1.226659e-002
1.164794e+003, 1.148524e-002
1.166722e+003, 1.085205e-002
1.168651e+003, 1.044340e-002
1.170579e+003, 1.000885e-002
1.172508e+003, 9.704901e-003
1.174436e+003, 9.510784e-003
1.176365e+003, 9.213778e-003
1.178293e+003, 8.725952e-003
1.180222e+003, 8.488787e-003
1.182150e+003, 8.415421e-003
1.184079e+003, 8.210414e-003
1.186007e+003, 8.003151e-003
1.187936e+003, 7.836626e-003
1.189864e+003, 7.652014e-003
1.191792e+003, 7.479618e-003
1.193721e+003, 7.237577e-003
1.195649e+003, 7.061863e-003
1.197578e+003, 7.003721e-003
1.199506e+003, 6.861229e-003
1.201435e+003, 6.750832e-003
1.203363e+003, 6.659900e-003
1.205292e+003, 6.537365e-003
1.207220e+003, 6.481010e-003
1.209149e+003, 6.262203e-003
1.211077e+003, 6.188877e-003
1.213006e+003, 5.991417e-003
1.214934e+003, 5.521448e-003
1.216863e+003, 5.189387e-003
1.218791e+003, 5.199906e-003
1.220719e+003, 5.423698e-003
1.222648e+003, 5.491013e-003
1.224576e+003, 5.199504e-003
1.226505e+003, 5.147791e-003
1.228433e+003, 5.261530e-003
1.230362e+003, 5.222661e-003
1.232290e+003, 5.062286e-003
1.234219e+003, 4.914684e-003
1.236147e+003, 4.839791e-003
1.238076e+003, 4.728564e-003
1.240004e+003, 4.714842e-003
1.241933e+003, 4.726711e-003
1.243861e+003, 4.708575e-003
1.245790e+003, 4.675081e-003
1.247718e+003, 4.530766e-003
1.249646e+003, 4.355053e-003
1.251575e+003, 4.294317e-003
1.253503e+003, 4.302660e-003
1.255432e+003, 4.179622e-003
1.257360e+003, 4.109735e-003
1.259289e+003, 4.060474e-003
1.261217e+003, 4.147543e-003
1.263146e+003, 4.228080e-003
1.265074e+003, 4.395300e-003
1.267003e+003, 4.386524e-003
1.268931e+003, 4.176343e-003
1.270860e+003, 4.094878e-003
1.272788e+003, 4.178137e-003
1.274717e+003, 4.221249e-003
1.276645e+003, 4.315589e-003
1.278573e+003, 4.339495e-003
1.280502e+003, 4.346394e-003
1.282430e+003, 4.258697e-003
1.284359e+003, 4.166232e-003
1.286287e+003, 4.096630e-003
1.288216e+003, 4.120755e-003
1.290144e+003, 4.232366e-003
1.292073e+003, 4.382669e-003
1.294001e+003, 4.444318e-003
1.295930e+003, 4.408625e-003
1.297858e+003, 4.279943e-003
1.299787e+003, 4.274943e-003
1.301715e+003, 4.273126e-003
1.303644e+003, 4.117757e-003
1.305572e+003, 4.061811e-003
1.307500e+003, 4.158851e-003
1.309429e+003, 4.208573e-003
1.311357e+003, 4.264073e-003
1.313286e+003, 4.287188e-003
1.315214e+003, 4.507936e-003
1.317143e+003, 4.617103e-003
1.319071e+003, 4.488579e-003
1.321000e+003, 4.380728e-003
1.322928e+003, 4.502696e-003
1.324857e+003, 4.604224e-003
1.326785e+003, 4.598262e-003
1.328714e+003, 4.690703e-003
1.330642e+003, 4.748330e-003
1.332571e+003, 4.715068e-003
1.334499e+003, 4.772100e-003
1.336427e+003, 4.952890e-003
1.338356e+003, 4.869486e-003
1.340284e+003, 4.933435e-003
1.342213e+003, 5.054389e-003
1.344141e+003, 4.990818e-003
1.346070e+003, 4.903889e-003
1.347998e+003, 4.875839e-003
1.349927e+003, 5.035384e-003
1.351855e+003, 5.210859e-003
1.353784e+003, 5.261207e-003
1.355712e+003, 5.190124e-003
1.357641e+003, 5.245671e-003
1.359569e+003, 5.128609e-003
1.361498e+003, 5.115235e-003
1.363426e+003, 5.206435e-003
1.365354e+003, 5.481089e-003
1.367283e+003, 5.572888e-003
1.369211e+003, 5.544261e-003
1.371140e+003, 5.668890e-003
1.373068e+003, 5.668468e-003
1.374997e+003, 5.617799e-003
1.376925e+003, 5.712460e-003
1.378854e+003, 5.733064e-003
1.380782e+003, 5.804424e-003
1.382711e+003, 5.967350e-003
1.384639e+003, 6.053210e-003
1.386568e+003, 6.104486e-003
1.388496e+003, 6.050991e-003
1.390424e+003, 6.268338e-003
1.392353e+003, 6.487271e-003
1.394281e+003, 6.672947e-003
1.396210e+003, 6.784727e-003
1.398138e+003, 6.754756e-003
1.400067e+003, 6.729371e-003
1.401995e+003, 6.886015e-003
1.403924e+003, 7.101459e-003
1.405852e+003, 7.191536e-003
1.407781e+003, 7.348071e-003
1.409709e+003, 7.489821e-003
1.411638e+003, 7.632196e-003
1.413566e+003, 7.509811e-003
1.415495e+003, 7.550786e-003
1.417423e+003, 7.721429e-003
1.419351e+003, 7.882453e-003
1.421280e+003, 7.946739e-003
1.423208e+003, 7.932500e-003
1.425137e+003, 7.907005e-003
1.427065e+003, 8.101027e-003
1.428994e+003, 8.141102e-003
1.430922e+003, 8.057086e-003
1.432851e+003, 7.981963e-003
1.434779e+003, 7.983567e-003
1.436708e+003, 7.983895e-003
1.438636e+003, 8.106596e-003
1.440565e+003, 8.178354e-003
1.442493e+003, 8.167665e-003
1.444422e+003, 8.156775e-003
1.446350e+003, 8.049706e-003
1.448278e+003, 7.945797e-003
1.450207e+003, 8.008408e-003
1.452135e+003, 7.950798e-003
1.454064e+003, 7.872231e-003
1.455992e+003, 7.679995e-003
1.457921e+003, 7.574352e-003
1.459849e+003, 7.614140e-003
1.461778e+003, 7.674307e-003
1.463706e+003, 7.559276e-003
1.465635e+003, 7.530279e-003
1.467563e+003, 7.532862e-003
1.469492e+003, 7.451233e-003
1.471420e+003, 7.344374e-003
1.473349e+003, 7.484791e-003
1.475277e+003, 7.665889e-003
1.477205e+003, 7.399869e-003
1.479134e+003, 7.217596e-003
1.481062e+003, 7.326975e-003
1.482991e+003, 7.497277e-003
1.484919e+003, 7.479460e-003
1.486848e+003, 7.168041e-003
1.488776e+003, 7.074303e-003
1.490705e+003, 7.166478e-003
1.492633e+003, 7.258274e-003
1.494562e+003, 7.192897e-003
1.496490e+003, 7.002071e-003
1.498419e+003, 6.989121e-003
1.500347e+003, 6.963402e-003
1.502276e+003, 7.019605e-003
1.504204e+003, 7.026509e-003
1.506132e+003, 6.707574e-003
1.508061e+003, 6.617384e-003
1.509989e+003, 6.808378e-003
1.511918e+003, 6.977310e-003
1.513846e+003, 6.995547e-003
1.515775e+003, 6.662881e-003
1.517703e+003, 6.501314e-003
1.519632e+003, 6.714645e-003
1.521560e+003, 6.742330e-003
1.523489e+003, 6.747108e-003
1.525417e+003, 6.809223e-003
1.527346e+003, 6.795139e-003
1.529274e+003, 6.776032e-003
1.531203e+003, 6.922271e-003
1.533131e+003, 7.029254e-003
1.535059e+003, 7.229249e-003
1.536988e+003, 7.200810e-003
1.538916e+003, 7.099302e-003
1.540845e+003, 7.284501e-003
1.542773e+003, 7.417560e-003
1.544702e+003, 7.596970e-003
1.546630e+003, 7.692456e-003
1.548559e+003, 7.597274e-003
1.550487e+003, 7.546372e-003
1.552416e+003, 7.841249e-003
1.554344e+003, 7.877678e-003
1.556273e+003, 7.735920e-003
1.558201e+003, 7.590326e-003
1.560130e+003, 7.635384e-003
1.562058e+003, 7.882091e-003
1.563986e+003, 7.983531e-003
1.565915e+003, 8.092405e-003
1.567843e+003, 8.067051e-003
1.569772e+003, 8.009829e-003
1.571700e+003, 8.013827e-003
1.573629e+003, 8.031211e-003
1.575557e+003, 7.888423e-003
1.577486e+003, 8.151940e-003
1.579414e+003, 8.411922e-003
1.581343e+003, 8.524901e-003
1.583271e+003, 8.637615e-003
1.585200e+003, 8.686334e-003
1.587128e+003, 8.686846e-003
1.589057e+003, 8.616420e-003
1.590985e+003, 8.591123e-003
1.592913e+003, 8.819617e-003
1.594842e+003, 9.252775e-003
1.596770e+003, 9.263490e-003
1.598699e+003, 8.910105e-003
1.600627e+003, 8.948582e-003
1.602556e+003, 9.092777e-003
1.604484e+003, 9.247717e-003
1.606413e+003, 9.312782e-003
1.608341e+003, 9.225305e-003
1.610270e+003, 9.204209e-003
1.612198e+003, 9.317872e-003
1.614127e+003, 9.399272e-003
1.616055e+003, 9.249239e-003
1.617984e+003, 9.201298e-003
1.619912e+003, 9.277966e-003
1.621840e+003, 9.062044e-003
1.623769e+003, 8.952179e-003
1.625697e+003, 9.108386e-003
1.627626e+003, 9.309558e-003
1.629554e+003, 9.354518e-003
1.631483e+003, 9.217656e-003
1.633411e+003, 8.874224e-003
1.635340e+003, 8.635382e-003
1.637268e+003, 8.770457e-003
1.639197e+003, 8.975147e-003
1.641125e+003, 8.920682e-003
1.643054e+003, 8.836361e-003
1.644982e+003, 8.760326e-003
1.646911e+003, 8.761052e-003
1.648839e+003, 8.571247e-003
1.650767e+003, 8.442402e-003
1.652696e+003, 8.458927e-003
1.654624e+003, 8.697235e-003
1.656553e+003, 8.423864e-003
1.658481e+003, 8.066313e-003
1.660410e+003, 7.999093e-003
1.662338e+003, 7.933599e-003
1.664267e+003, 7.737556e-003
1.666195e+003, 7.792064e-003
1.668124e+003, 8.152435e-003
1.670052e+003, 8.084927e-003
1.671981e+003, 7.704020e-003
1.673909e+003, 7.630179e-003
1.675838e+003, 7.643470e-003
1.677766e+003, 7.344197e-003
1.679694e+003, 7.286368e-003
1.681623e+003, 7.567519e-003
1.683551e+003, 7.606644e-003
1.685480e+003, 7.628858e-003
1.687408e+003, 7.686119e-003
1.689337e+003, 7.671382e-003
1.691265e+003, 7.571544e-003
1.693194e+003, 7.342376e-003
1.695122e+003, 6.975231e-003
1.697051e+003, 6.897127e-003
1.698979e+003, 6.801612e-003
1.700908e+003, 6.577030e-003
1.702836e+003, 6.781651e-003
1.704765e+003, 6.924514e-003
1.706693e+003, 6.794631e-003
1.708621e+003, 6.561472e-003
1.710550e+003, 6.413826e-003
1.712478e+003, 6.293272e-003
1.714407e+003, 6.226755e-003
1.716335e+003, 6.102971e-003
1.718264e+003, 6.238891e-003
1.720192e+003, 6.313318e-003
1.722121e+003, 6.252560e-003
1.724049e+003, 6.392763e-003
1.725978e+003, 6.320847e-003
1.727906e+003, 6.012273e-003
1.729835e+003, 6.085208e-003
1.731763e+003, 6.062904e-003
1.733692e+003, 5.795803e-003
1.735620e+003, 5.478605e-003
1.737548e+003, 5.368138e-003
1.739477e+003, 5.282105e-003
1.741405e+003, 5.247530e-003
1.743334e+003, 5.171977e-003
1.745262e+003, 5.250548e-003
1.747191e+003, 5.165832e-003
1.749119e+003, 5.343233e-003
1.751048e+003, 5.528532e-003
1.752976e+003, 5.352984e-003
1.754905e+003, 5.623898e-003
1.756833e+003, 5.864517e-003
1.758762e+003, 5.956061e-003
1.760690e+003, 5.947723e-003
1.762619e+003, 5.863904e-003
1.764547e+003, 5.573148e-003
1.766475e+003, 5.402215e-003
1.768404e+003, 5.543796e-003
1.770332e+003, 5.596526e-003
1.772261e+003, 5.294159e-003
1.774189e+003, 5.012662e-003
1.776118e+003, 5.212548e-003
1.778046e+003, 5.571213e-003
1.779975e+003, 5.442306e-003
1.781903e+003, 5.414022e-003
1.783832e+003, 5.209273e-003
1.785760e+003, 5.398526e-003
1.787689e+003, 5.586190e-003
1.789617e+003, 5.448059e-003
1.791546e+003, 5.502421e-003
1.793474e+003, 5.370538e-003
1.795402e+003, 5.326601e-003
1.797331e+003, 5.189633e-003
1.799259e+003, 4.854040e-003
1.801188e+003, 4.536352e-003
1.803116e+003, 4.363483e-003
1.805045e+003, 4.654971e-003
1.806973e+003, 4.697837e-003
1.808902e+003, 4.713169e-003
1.810830e+003, 4.679330e-003
1.812759e+003, 4.589160e-003
1.814687e+003, 4.642435e-003
1.816616e+003, 4.507462e-003
1.818544e+003, 4.286062e-003
1.820473e+003, 4.393905e-003
1.822401e+003, 4.742321e-003
1.824329e+003, 4.927916e-003
1.826258e+003, 4.859217e-003
1.828186e+003, 4.659290e-003
1.830115e+003, 4.724909e-003
1.832043e+003, 4.846354e-003
1.833972e+003, 4.751813e-003
1.835900e+003, 4.218725e-003
1.837829e+003, 3.472002e-003
1.839757e+003, 3.159856e-003
1.841686e+003, 3.568423e-003
1.843614e+003, 3.997198e-003
1.845543e+003, 4.447444e-003
1.847471e+003, 4.777789e-003
1.849400e+003, 4.508759e-003
1.851328e+003, 4.325095e-003
1.853256e+003, 4.519287e-003
1.855185e+003, 4.396914e-003
1.857113e+003, 4.146624e-003
1.859042e+003, 4.006315e-003
1.860970e+003, 3.596077e-003
1.862899e+003, 3.771448e-003
1.864827e+003, 3.745810e-003
1.866756e+003, 3.725021e-003
1.868684e+003, 3.769871e-003
1.870613e+003, 3.337871e-003
1.872541e+003, 3.461131e-003
1.874470e+003, 4.102104e-003
1.876398e+003, 3.837056e-003
1.878327e+003, 3.522100e-003
1.880255e+003, 3.502636e-003
1.882183e+003, 2.830830e-003
1.884112e+003, 2.359212e-003
1.886040e+003, 2.843042e-003
1.887969e+003, 3.305340e-003
1.889897e+003, 3.110006e-003
1.891826e+003, 3.215000e-003
1.893754e+003, 3.101439e-003
1.895683e+003, 2.393966e-003
1.897611e+003, 2.167094e-003
1.899540e+003, 2.552380e-003
1.901468e+003, 2.400535e-003
1.903397e+003, 2.190353e-003
1.905325e+003, 2.225432e-003
1.907254e+003, 2.419966e-003
1.909182e+003, 2.581808e-003
1.911110e+003, 2.156086e-003
1.913039e+003, 1.350850e-003
1.914967e+003, 1.007572e-003
1.916896e+003, 2.086794e-003
1.918824e+003, 2.200133e-003
1.920753e+003, 1.672377e-003
1.922681e+003, 1.551701e-003
1.924610e+003, 8.945070e-004
1.926538e+003, 5.937792e-004
1.928467e+003, 4.029550e-004
1.930395e+003, 6.347318e-004
1.932324e+003, 1.253729e-003
1.934252e+003, 6.798861e-004
1.936181e+003, -4.946030e-004
1.938109e+003, -1.468010e-003
1.940037e+003, -1.116007e-003
1.941966e+003, -4.941946e-004
1.943894e+003, -2.872463e-004
1.945823e+003, 1.938461e-005
1.947751e+003, 3.819181e-005
1.949680e+003, -9.351117e-004
1.951608e+003, -1.710349e-003
1.953537e+003, -2.135047e-003
1.955465e+003, -2.855854e-003
1.957394e+003, -3.211261e-003
1.959322e+003, -3.476186e-003
1.961251e+003, -2.914928e-003
1.963179e+003, -2.703250e-003
1.965108e+003, -3.111466e-003
1.967036e+003, -2.623172e-003
1.968964e+003, -2.878641e-003
1.970893e+003, -3.660877e-003
1.972821e+003, -4.894209e-003
1.974750e+003, -5.825319e-003
1.976678e+003, -5.214147e-003
1.978607e+003, -2.855720e-003
1.980535e+003, -1.633816e-003
1.982464e+003, -1.027221e-003
1.984392e+003, -2.357853e-003
1.986321e+003, -2.700784e-003
1.988249e+003, -1.660338e-003
1.990178e+003, -1.051542e-003
1.992106e+003, -1.329336e-003
1.994035e+003, -1.251119e-003
1.995963e+003, -1.057484e-003
1.997891e+003, -8.543691e-004
1.999820e+003, -1.725511e-003
2.001748e+003, -2.388865e-003
2.003677e+003, -3.615679e-003
2.005605e+003, -2.880616e-003
2.007534e+003, -1.667012e-003
2.009462e+003, -1.664553e-003
2.011391e+003, -2.071284e-003
2.013319e+003, -2.985945e-003
2.015248e+003, -2.395471e-003
2.017176e+003, -1.963125e-003
2.019105e+003, -2.102159e-003
2.021033e+003, -1.976286e-003
2.022962e+003, -1.244200e-003
2.024890e+003, -3.914732e-004
2.026818e+003, -9.023285e-004
2.028747e+003, -1.470903e-003
2.030675e+003, -5.278782e-004
2.032604e+003, -7.338420e-004
2.034532e+003, -7.659866e-004
2.036461e+003, 4.143052e-004
2.038389e+003, 8.962870e-004
2.040318e+003, 4.113156e-004
2.042246e+003, 7.392354e-004
2.044175e+003, 1.490543e-003
2.046103e+003, 1.651287e-003
2.048032e+003, 2.816925e-003
2.049960e+003, 4.999646e-003
2.051889e+003, 4.950823e-003
2.053817e+003, 4.104130e-003
2.055746e+003, 3.338214e-003
2.057674e+003, 2.885007e-003
2.059603e+003, 2.691384e-003
2.061531e+003, 3.079928e-003
2.063459e+003, 3.443555e-003
2.065388e+003, 4.280207e-003
2.067316e+003, 5.178714e-003
2.069245e+003, 5.308859e-003
2.071173e+003, 5.306220e-003
2.073102e+003, 4.315821e-003
2.075030e+003, 3.335435e-003
2.076959e+003, 3.180721e-003
2.078887e+003, 3.074815e-003
2.080816e+003, 2.718278e-003
2.082744e+003, 3.722321e-003
2.084673e+003, 5.454045e-003
2.086601e+003, 5.344337e-003
2.088530e+003, 4.191204e-003
2.090458e+003, 3.493015e-003
2.092386e+003, 3.150064e-003
2.094315e+003, 3.524621e-003
2.096243e+003, 3.296617e-003
2.098172e+003, 2.839336e-003
2.100100e+003, 2.873923e-003
2.102029e+003, 3.790353e-003
2.103957e+003, 3.359640e-003
2.105886e+003, 3.377223e-003
2.107814e+003, 3.271605e-003
2.109743e+003, 3.315787e-003
2.111671e+003, 4.041064e-003
2.113600e+003, 4.980574e-003
2.115528e+003, 4.062892e-003
2.117457e+003, 3.095456e-003
2.119385e+003, 2.499840e-003
2.121313e+003, 2.685174e-003
2.123242e+003, 2.392315e-003
2.125170e+003, 1.046898e-003
2.127099e+003, 1.203523e-003
2.129027e+003, 2.059425e-003
2.130956e+003, 1.435874e-003
2.132884e+003, -2.641103e-005
2.134813e+003, -5.383265e-004
2.136741e+003, -4.463915e-004
2.138670e+003, 1.610543e-004
2.140598e+003, 1.748198e-003
2.142527e+003, 1.614937e-003
2.144455e+003, -1.340838e-004
2.146384e+003, -1.775858e-003
2.148312e+003, -1.747323e-003
2.150240e+003, -2.624094e-003
2.152169e+003, -4.124177e-003
2.154097e+003, -5.294657e-003
2.156026e+003, -6.749586e-003
2.157954e+003, -5.319695e-003
2.159883e+003, 2.909430e-005
2.161811e+003, 2.410047e-003
2.163740e+003, 3.901045e-003
2.165668e+003, 3.252428e-003
2.167597e+003, 2.012431e-003
2.169525e+003, 2.303799e-003
2.171454e+003, 1.957767e-003
2.173382e+003, -1.550937e-004
2.175311e+003, 3.067554e-004
2.177239e+003, 1.167772e-003
2.179167e+003, 3.642297e-004
2.181096e+003, 9.234331e-004
2.183024e+003, 1.812700e-003
2.184953e+003, 2.119150e-003
2.186881e+003, 1.551835e-003
2.188810e+003, 1.030178e-003
2.190738e+003, 1.808076e-003
2.192667e+003, 1.745911e-003
2.194595e+003, 1.698572e-003
2.196524e+003, 2.557367e-003
2.198452e+003, 3.627617e-003
2.200381e+003, 3.782384e-003
2.202309e+003, 3.865450e-003
2.204238e+003, 2.747937e-003
2.206166e+003, 2.328921e-003
2.208094e+003, 2.971927e-003
2.210023e+003, 3.392502e-003
2.211951e+003, 3.621039e-003
2.213880e+003, 3.047166e-003
2.215808e+003, 3.166378e-003
2.217737e+003, 5.217327e-003
2.219665e+003, 5.788797e-003
2.221594e+003, 5.716626e-003
2.223522e+003, 5.871885e-003
2.225451e+003, 5.542571e-003
2.227379e+003, 4.938363e-003
2.229308e+003, 4.400590e-003
2.231236e+003, 4.559489e-003
2.233165e+003, 4.984465e-003
2.235093e+003, 4.932734e-003
2.237021e+003, 5.366898e-003
2.238950e+003, 5.804631e-003
2.240878e+003, 6.186098e-003
2.242807e+003, 6.102371e-003
2.244735e+003, 6.181304e-003
2.246664e+003, 6.129612e-003
2.248592e+003, 6.389191e-003
2.250521e+003, 6.799211e-003
2.252449e+003, 7.395051e-003
2.254378e+003, 7.852960e-003
2.256306e+003, 7.621710e-003
2.258235e+003, 7.917604e-003
2.260163e+003, 7.640895e-003
2.262092e+003, 6.443307e-003
2.264020e+003, 6.599993e-003
2.265948e+003, 7.126118e-003
2.267877e+003, 7.404578e-003
2.269805e+003, 7.699848e-003
2.271734e+003, 8.555033e-003
2.273662e+003, 9.854943e-003
2.275591e+003, 9.942759e-003
2.277519e+003, 9.442870e-003
2.279448e+003, 9.898106e-003
2.281376e+003, 9.785777e-003
2.283305e+003, 9.690030e-003
2.285233e+003, 1.049587e-002
2.287162e+003, 1.058810e-002
2.289090e+003, 1.021504e-002
2.291019e+003, 1.032361e-002
2.292947e+003, 1.021810e-002
2.294875e+003, 1.063596e-002
2.296804e+003, 1.090603e-002
2.298732e+003, 1.019465e-002
2.300661e+003, 9.600875e-003
2.302589e+003, 9.832434e-003
2.304518e+003, 1.038609e-002
2.306446e+003, 1.067746e-002
2.308375e+003, 1.119376e-002
2.310303e+003, 1.113952e-002
2.312232e+003, 1.066052e-002
2.314160e+003, 1.026910e-002
2.316089e+003, 1.061661e-002
2.318017e+003, 1.103622e-002
2.319946e+003, 1.140727e-002
2.321874e+003, 1.235565e-002
2.323802e+003, 1.280570e-002
2.325731e+003, 1.164602e-002
2.327659e+003, 1.055880e-002
2.329588e+003, 1.068927e-002
2.331516e+003, 1.058629e-002
2.333445e+003, 1.044908e-002
2.335373e+003, 1.009697e-002
2.337302e+003, 1.004671e-002
2.339230e+003, 1.040740e-002
2.341159e+003, 1.115799e-002
2.343087e+003, 1.116188e-002
2.345016e+003, 1.072588e-002
2.346944e+003, 1.023765e-002
2.348873e+003, 9.773708e-003
2.350801e+003, 9.899784e-003
2.352729e+003, 1.035203e-002
2.354658e+003, 1.081937e-002
2.356586e+003, 1.080573e-002
2.358515e+003, 1.094555e-002
2.360443e+003, 1.113228e-002
2.362372e+003, 1.053571e-002
2.364300e+003, 1.031990e-002
2.366229e+003, 1.010540e-002
2.368157e+003, 1.013172e-002
2.370086e+003, 1.042410e-002
2.372014e+003, 1.050927e-002
2.373942e+003, 9.907905e-003
2.375871e+003, 9.888560e-003
2.377799e+003, 9.777766e-003
2.379728e+003, 9.181818e-003
2.381656e+003, 9.383100e-003
2.383585e+003, 1.030690e-002
2.385513e+003, 1.037026e-002
2.387442e+003, 9.753621e-003
2.389370e+003, 9.319587e-003
2.391299e+003, 9.415835e-003
2.393227e+003, 9.115352e-003
2.395156e+003, 9.550274e-003
2.397084e+003, 9.473104e-003
2.399012e+003, 8.708462e-003
2.400941e+003, 8.924617e-003
2.402869e+003, 9.244326e-003
2.404798e+003, 9.431332e-003
2.406726e+003, 1.001336e-002
2.408655e+003, 1.023341e-002
2.410583e+003, 9.295747e-003
2.412512e+003, 8.666245e-003
2.414440e+003, 9.567810e-003
2.416369e+003, 1.031721e-002
2.418297e+003, 1.010876e-002
2.420226e+003, 1.015212e-002
2.422154e+003, 1.039752e-002
2.424083e+003, 1.043427e-002
2.426011e+003, 1.070922e-002
2.427939e+003, 1.060664e-002
2.429868e+003, 1.064264e-002
2.431796e+003, 1.053608e-002
2.433725e+003, 1.057124e-002
2.435653e+003, 1.034415e-002
2.437582e+003, 1.023751e-002
2.439510e+003, 1.056543e-002
2.441439e+003, 1.105997e-002
2.443367e+003, 1.097970e-002
2.445296e+003, 1.134717e-002
2.447224e+003, 1.179846e-002
2.449153e+003, 1.085730e-002
2.451081e+003, 1.021500e-002
2.453010e+003, 1.006812e-002
2.454938e+003, 1.028832e-002
2.456866e+003, 1.030372e-002
2.458795e+003, 1.054998e-002
2.460723e+003, 1.057440e-002
2.462652e+003, 1.010408e-002
2.464580e+003, 9.868996e-003
2.466509e+003, 1.060637e-002
2.468437e+003, 1.085978e-002
2.470366e+003, 1.048102e-002
2.472294e+003, 1.153068e-002
2.474223e+003, 1.165603e-002
2.476151e+003, 9.916003e-003
2.478080e+003, 9.508794e-003
2.480008e+003, 1.013665e-002
2.481937e+003, 1.039220e-002
2.483865e+003, 1.028477e-002
2.485793e+003, 9.902257e-003
2.487722e+003, 9.614163e-003
2.489650e+003, 9.885240e-003
2.491579e+003, 1.019562e-002
2.493507e+003, 1.040696e-002
2.495436e+003, 1.010608e-002
2.497364e+003, 9.929572e-003
2.499293e+003, 9.988390e-003
2.501221e+003, 9.826985e-003
2.503150e+003, 1.074436e-002
2.505078e+003, 1.137919e-002
2.507007e+003, 1.045333e-002
2.508935e+003, 9.229754e-003
2.510864e+003, 9.552959e-003
2.512792e+003, 1.035289e-002
2.514720e+003, 1.019681e-002
2.516649e+003, 1.006265e-002
2.518577e+003, 1.094276e-002
2.520506e+003, 1.071480e-002
2.522434e+003, 1.050873e-002
2.524363e+003, 1.054962e-002
2.526291e+003, 1.010350e-002
2.528220e+003, 1.097332e-002
2.530148e+003, 1.205007e-002
2.532077e+003, 1.101524e-002
2.534005e+003, 1.049845e-002
2.535934e+003, 1.093281e-002
2.537862e+003, 1.078461e-002
2.539791e+003, 1.076434e-002
2.541719e+003, 1.162405e-002
2.543647e+003, 1.124820e-002
2.545576e+003, 1.140833e-002
2.547504e+003, 1.132692e-002
2.549433e+003, 1.075548e-002
2.551361e+003, 1.065846e-002
2.553290e+003, 1.045487e-002
2.555218e+003, 1.020776e-002
2.557147e+003, 1.024907e-002
2.559075e+003, 1.041437e-002
2.561004e+003, 1.060708e-002
2.562932e+003, 1.118904e-002
2.564861e+003, 1.147331e-002
2.566789e+003, 1.059644e-002
2.568718e+003, 1.077490e-002
2.570646e+003, 1.138732e-002
2.572574e+003, 1.132638e-002
2.574503e+003, 1.119648e-002
2.576431e+003, 1.197515e-002
2.578360e+003, 1.260334e-002
2.580288e+003, 1.213014e-002
2.582217e+003, 1.181967e-002
2.584145e+003, 1.211496e-002
2.586074e+003, 1.205748e-002
2.588002e+003, 1.172371e-002
2.589931e+003, 1.169421e-002
2.591859e+003, 1.235697e-002
2.593788e+003, 1.246697e-002
2.595716e+003, 1.262226e-002
2.597645e+003, 1.276596e-002
2.599573e+003, 1.295133e-002
2.601501e+003, 1.256053e-002
2.603430e+003, 1.260605e-002
2.605358e+003, 1.296610e-002
2.607287e+003, 1.295071e-002
2.609215e+003, 1.310617e-002
2.611144e+003, 1.317213e-002
2.613072e+003, 1.222574e-002
2.615001e+003, 1.196609e-002
2.616929e+003, 1.193312e-002
2.618858e+003, 1.227422e-002
2.620786e+003, 1.265524e-002
2.622715e+003, 1.253926e-002
2.624643e+003, 1.246293e-002
2.626572e+003, 1.307231e-002
2.628500e+003, 1.310640e-002
2.630428e+003, 1.307220e-002
2.632357e+003, 1.327281e-002
2.634285e+003, 1.322329e-002
2.636214e+003, 1.291358e-002
2.638142e+003, 1.302071e-002
2.640071e+003, 1.314544e-002
2.641999e+003, 1.304214e-002
2.643928e+003, 1.304803e-002
2.645856e+003, 1.279530e-002
2.647785e+003, 1.247545e-002
2.649713e+003, 1.259069e-002
2.651642e+003, 1.260385e-002
2.653570e+003, 1.253782e-002
2.655499e+003, 1.226909e-002
2.657427e+003, 1.218981e-002
2.659355e+003, 1.231060e-002
2.661284e+003, 1.233887e-002
2.663212e+003, 1.212985e-002
2.665141e+003, 1.169101e-002
2.667069e+003, 1.150435e-002
2.668998e+003, 1.192968e-002
2.670926e+003, 1.224441e-002
2.672855e+003, 1.227581e-002
2.674783e+003, 1.191167e-002
2.676712e+003, 1.174492e-002
2.678640e+003, 1.212515e-002
2.680569e+003, 1.259717e-002
2.682497e+003, 1.226109e-002
2.684426e+003, 1.218065e-002
2.686354e+003, 1.196339e-002
2.688282e+003, 1.189405e-002
2.690211e+003, 1.208900e-002
2.692139e+003, 1.191860e-002
2.694068e+003, 1.170477e-002
2.695996e+003, 1.199145e-002
2.697925e+003, 1.185698e-002
2.699853e+003, 1.149383e-002
2.701782e+003, 1.155683e-002
2.703710e+003, 1.202604e-002
2.705639e+003, 1.217682e-002
2.707567e+003, 1.236283e-002
2.709496e+003, 1.254811e-002
2.711424e+003, 1.223319e-002
2.713353e+003, 1.270738e-002
2.715281e+003, 1.263629e-002
2.717209e+003, 1.232261e-002
2.719138e+003, 1.233782e-002
2.721066e+003, 1.270496e-002
2.722995e+003, 1.297218e-002
2.724923e+003, 1.256847e-002
2.726852e+003, 1.267773e-002
2.728780e+003, 1.300505e-002
2.730709e+003, 1.310938e-002
2.732637e+003, 1.309914e-002
2.734566e+003, 1.275554e-002
2.736494e+003, 1.242484e-002
2.738423e+003, 1.219944e-002
2.740351e+003, 1.204247e-002
2.742280e+003, 1.265974e-002
2.744208e+003, 1.282921e-002
2.746136e+003, 1.235260e-002
2.748065e+003, 1.204758e-002
2.749993e+003, 1.269425e-002
2.751922e+003, 1.262188e-002
2.753850e+003, 1.246401e-002
2.755779e+003, 1.279544e-002
2.757707e+003, 1.319624e-002
2.759636e+003, 1.327897e-002
2.761564e+003, 1.333988e-002
2.763493e+003, 1.334550e-002
2.765421e+003, 1.321741e-002
2.767350e+003, 1.351907e-002
2.769278e+003, 1.373118e-002
2.771207e+003, 1.331665e-002
2.773135e+003, 1.284280e-002
2.775063e+003, 1.220349e-002
2.776992e+003, 1.300092e-002
2.778920e+003, 1.345316e-002
2.780849e+003, 1.352940e-002
2.782777e+003, 1.370262e-002
2.784706e+003, 1.301521e-002
2.786634e+003, 1.268007e-002
2.788563e+003, 1.319586e-002
2.790491e+003, 1.341111e-002
2.792420e+003, 1.314864e-002
2.794348e+003, 1.310755e-002
2.796277e+003, 1.335161e-002
2.798205e+003, 1.373341e-002
2.800134e+003, 1.352754e-002
2.802062e+003, 1.377581e-002
2.803990e+003, 1.404241e-002
2.805919e+003, 1.369549e-002
2.807847e+003, 1.379824e-002
2.809776e+003, 1.382834e-002
2.811704e+003, 1.305064e-002
2.813633e+003, 1.246977e-002
2.815561e+003, 1.317275e-002
2.817490e+003, 1.323820e-002
2.819418e+003, 1.322092e-002
2.821347e+003, 1.351415e-002
2.823275e+003, 1.402877e-002
2.825204e+003, 1.397491e-002
2.827132e+003, 1.342244e-002
2.829061e+003, 1.354173e-002
2.830989e+003, 1.383343e-002
2.832917e+003, 1.378381e-002
2.834846e+003, 1.361986e-002
2.836774e+003, 1.323847e-002
2.838703e+003, 1.335862e-002
2.840631e+003, 1.387704e-002
2.842560e+003, 1.370416e-002
2.844488e+003, 1.338747e-002
2.846417e+003, 1.304793e-002
2.848345e+003, 1.205227e-002
2.850274e+003, 1.173794e-002
2.852202e+003, 1.150844e-002
2.854131e+003, 1.207522e-002
2.856059e+003, 1.280402e-002
2.857988e+003, 1.315008e-002
2.859916e+003, 1.345195e-002
2.861844e+003, 1.313899e-002
2.863773e+003, 1.263614e-002
2.865701e+003, 1.276216e-002
2.867630e+003, 1.212698e-002
2.869558e+003, 1.238623e-002
2.871487e+003, 1.350254e-002
2.873415e+003, 1.353259e-002
2.875344e+003, 1.341022e-002
2.877272e+003, 1.378555e-002
2.879201e+003, 1.460039e-002
2.881129e+003, 1.483185e-002
2.883058e+003, 1.403400e-002
2.884986e+003, 1.358739e-002
2.886915e+003, 1.374781e-002
2.888843e+003, 1.390323e-002
2.890771e+003, 1.439067e-002
2.892700e+003, 1.508038e-002
2.894628e+003, 1.533216e-002
2.896557e+003, 1.511787e-002
2.898485e+003, 1.479527e-002
2.900414e+003, 1.490664e-002
2.902342e+003, 1.469509e-002
2.904271e+003, 1.430847e-002
2.906199e+003, 1.426557e-002
2.908128e+003, 1.453683e-002
2.910056e+003, 1.372800e-002
2.911985e+003, 1.389883e-002
2.913913e+003, 1.431575e-002
2.915842e+003, 1.358731e-002
2.917770e+003, 1.300806e-002
2.919698e+003, 1.306416e-002
2.921627e+003, 1.289313e-002
2.923555e+003, 1.226483e-002
2.925484e+003, 1.286687e-002
2.927412e+003, 1.353271e-002
2.929341e+003, 1.373568e-002
2.931269e+003, 1.411247e-002
2.933198e+003, 1.377008e-002
2.935126e+003, 1.397135e-002
2.937055e+003, 1.408965e-002
2.938983e+003, 1.389953e-002
2.940912e+003, 1.381359e-002
2.942840e+003, 1.413722e-002
2.944769e+003, 1.498802e-002
2.946697e+003, 1.517814e-002
2.948625e+003, 1.461933e-002
2.950554e+003, 1.468397e-002
2.952482e+003, 1.492188e-002
2.954411e+003, 1.474882e-002
2.956339e+003, 1.450757e-002
2.958268e+003, 1.484561e-002
2.960196e+003, 1.542913e-002
2.962125e+003, 1.501262e-002
2.964053e+003, 1.471937e-002
2.965982e+003, 1.497152e-002
2.967910e+003, 1.528364e-002
2.969839e+003, 1.570061e-002
2.971767e+003, 1.606011e-002
2.973696e+003, 1.599432e-002
2.975624e+003, 1.514609e-002
2.977552e+003, 1.581221e-002
2.979481e+003, 1.691413e-002
2.981409e+003, 1.608862e-002
2.983338e+003, 1.466688e-002
2.985266e+003, 1.504297e-002
2.987195e+003, 1.624152e-002
2.989123e+003, 1.719708e-002
2.991052e+003, 1.661970e-002
2.992980e+003, 1.581474e-002
2.994909e+003, 1.610281e-002
2.996837e+003, 1.654253e-002
2.998766e+003, 1.687263e-002
3.000694e+003, 1.689285e-002
3.002623e+003, 1.626386e-002
3.004551e+003, 1.617714e-002
3.006479e+003, 1.674751e-002
3.008408e+003, 1.678380e-002
3.010336e+003, 1.631443e-002
3.012265e+003, 1.674992e-002
3.014193e+003, 1.732049e-002
3.016122e+003, 1.780904e-002
3.018050e+003, 1.812011e-002
3.019979e+003, 1.747603e-002
3.021907e+003, 1.614074e-002
3.023836e+003, 1.644776e-002
3.025764e+003, 1.681281e-002
3.027693e+003, 1.696254e-002
3.029621e+003, 1.742939e-002
3.031550e+003, 1.702038e-002
3.033478e+003, 1.569163e-002
3.035406e+003, 1.585867e-002
3.037335e+003, 1.722160e-002
3.039263e+003, 1.748783e-002
3.041192e+003, 1.680271e-002
3.043120e+003, 1.673127e-002
3.045049e+003, 1.722742e-002
3.046977e+003, 1.725173e-002
3.048906e+003, 1.712756e-002
3.050834e+003, 1.739873e-002
3.052763e+003, 1.776121e-002
3.054691e+003, 1.789297e-002
3.056620e+003, 1.763883e-002
3.058548e+003, 1.765437e-002
3.060477e+003, 1.739208e-002
3.062405e+003, 1.692384e-002
3.064333e+003, 1.688946e-002
3.066262e+003, 1.753644e-002
3.068190e+003, 1.819649e-002
3.070119e+003, 1.817225e-002
3.072047e+003, 1.732007e-002
3.073976e+003, 1.776449e-002
3.075904e+003, 1.818222e-002
3.077833e+003, 1.831479e-002
3.079761e+003, 1.766153e-002
3.081690e+003, 1.744344e-002
3.083618e+003, 1.832022e-002
3.085547e+003, 1.865675e-002
3.087475e+003, 1.830829e-002
3.089404e+003, 1.866523e-002
3.091332e+003, 1.892940e-002
3.093260e+003, 1.941790e-002
3.095189e+003, 2.037240e-002
3.097117e+003, 2.026654e-002
3.099046e+003, 1.912474e-002
3.100974e+003, 1.885215e-002
3.102903e+003, 1.901830e-002
3.104831e+003, 1.969858e-002
3.106760e+003, 1.917318e-002
3.108688e+003, 1.903611e-002
3.110617e+003, 1.882727e-002
3.112545e+003, 1.925953e-002
3.114474e+003, 2.015815e-002
3.116402e+003, 1.959964e-002
3.118331e+003, 1.922521e-002
3.120259e+003, 1.977024e-002
3.122188e+003, 2.043848e-002
3.124116e+003, 1.997683e-002
3.126044e+003, 1.918726e-002
3.127973e+003, 2.021356e-002
3.129901e+003, 2.045540e-002
3.131830e+003, 2.003553e-002
3.133758e+003, 1.927263e-002
3.135687e+003, 1.923107e-002
3.137615e+003, 1.986419e-002
3.139544e+003, 2.019405e-002
3.141472e+003, 2.115441e-002
3.143401e+003, 2.124599e-002
3.145329e+003, 2.098426e-002
3.147258e+003, 2.159144e-002
3.149186e+003, 2.130556e-002
3.151115e+003, 2.015246e-002
3.153043e+003, 1.950368e-002
3.154971e+003, 1.896613e-002
3.156900e+003, 1.851411e-002
3.158828e+003, 1.917760e-002
3.160757e+003, 2.050984e-002
3.162685e+003, 2.128620e-002
3.164614e+003, 2.133795e-002
3.166542e+003, 2.181000e-002
3.168471e+003, 2.204292e-002
3.170399e+003, 2.176719e-002
3.172328e+003, 2.152203e-002
3.174256e+003, 2.118881e-002
3.176185e+003, 2.161245e-002
3.178113e+003, 2.248896e-002
3.180042e+003, 2.198574e-002
3.181970e+003, 2.171094e-002
3.183898e+003, 2.119287e-002
3.185827e+003, 2.032445e-002
3.187755e+003, 2.078970e-002
3.189684e+003, 2.115004e-002
3.191612e+003, 2.150551e-002
3.193541e+003, 2.148734e-002
3.195469e+003, 2.149430e-002
3.197398e+003, 2.190027e-002
3.199326e+003, 2.203400e-002
3.201255e+003, 2.201473e-002
3.203183e+003, 2.216516e-002
3.205112e+003, 2.310151e-002
3.207040e+003, 2.361054e-002
3.208969e+003, 2.321980e-002
3.210897e+003, 2.310773e-002
3.212825e+003, 2.366148e-002
3.214754e+003, 2.350495e-002
3.216682e+003, 2.326684e-002
3.218611e+003, 2.349768e-002
3.220539e+003, 2.382672e-002
3.222468e+003, 2.338871e-002
3.224396e+003, 2.318686e-002
3.226325e+003, 2.419383e-002
3.228253e+003, 2.399565e-002
3.230182e+003, 2.311258e-002
3.232110e+003, 2.399546e-002
3.234039e+003, 2.363223e-002
3.235967e+003, 2.302373e-002
3.237896e+003, 2.343720e-002
3.239824e+003, 2.417559e-002
3.241752e+003, 2.378037e-002
3.243681e+003, 2.451766e-002
3.245609e+003, 2.603167e-002
3.247538e+003, 2.535183e-002
3.249466e+003, 2.455482e-002
3.251395e+003, 2.515162e-002
3.253323e+003, 2.617996e-002
3.255252e+003, 2.564741e-002
3.257180e+003, 2.502280e-002
3.259109e+003, 2.530144e-002
3.261037e+003, 2.565097e-002
3.262966e+003, 2.637751e-002
3.264894e+003, 2.594306e-002
3.266823e+003, 2.464083e-002
3.268751e+003, 2.549418e-002
3.270679e+003, 2.686832e-002
3.272608e+003, 2.633185e-002
3.274536e+003, 2.591925e-002
3.276465e+003, 2.608123e-002
3.278393e+003, 2.761356e-002
3.280322e+003, 2.761163e-002
3.282250e+003, 2.687904e-002
3.284179e+003, 2.758241e-002
3.286107e+003, 2.814465e-002
3.288036e+003, 2.781630e-002
3.289964e+003, 2.660167e-002
3.291893e+003, 2.641148e-002
3.293821e+003, 2.721839e-002
3.295750e+003, 2.740529e-002
3.297678e+003, 2.673407e-002
3.299606e+003, 2.671317e-002
3.301535e+003, 2.709551e-002
3.303463e+003, 2.778690e-002
3.305392e+003, 2.921045e-002
3.307320e+003, 2.870418e-002
3.309249e+003, 2.789986e-002
3.311177e+003, 2.839296e-002
3.313106e+003, 2.797513e-002
3.315034e+003, 2.784325e-002
3.316963e+003, 2.791189e-002
3.318891e+003, 2.827204e-002
3.320820e+003, 2.915984e-002
3.322748e+003, 2.923575e-002
3.324677e+003, 2.988092e-002
3.326605e+003, 3.007753e-002
3.328533e+003, 3.012120e-002
3.330462e+003, 2.961120e-002
3.332390e+003, 3.012781e-002
3.334319e+003, 3.034978e-002
3.336247e+003, 3.029633e-002
3.338176e+003, 3.166518e-002
3.340104e+003, 3.233642e-002
3.342033e+003, 3.221888e-002
3.343961e+003, 3.159414e-002
3.345890e+003, 3.157169e-002
3.347818e+003, 3.192174e-002
3.349747e+003, 3.121137e-002
3.351675e+003, 3.049516e-002
3.353604e+003, 3.139041e-002
3.355532e+003, 3.295176e-002
3.357460e+003, 3.343540e-002
3.359389e+003, 3.312563e-002
3.361317e+003, 3.254161e-002
3.363246e+003, 3.163613e-002
3.365174e+003, 3.198604e-002
3.367103e+003, 3.281761e-002
3.369031e+003, 3.298497e-002
3.370960e+003, 3.339610e-002
3.372888e+003, 3.389153e-002
3.374817e+003, 3.326640e-002
3.376745e+003, 3.265811e-002
3.378674e+003, 3.444896e-002
3.380602e+003, 3.562037e-002
3.382531e+003, 3.468922e-002
3.384459e+003, 3.359961e-002
3.386387e+003, 3.335699e-002
3.388316e+003, 3.496179e-002
3.390244e+003, 3.518119e-002
3.392173e+003, 3.467357e-002
3.394101e+003, 3.527989e-002
3.396030e+003, 3.579016e-002
3.397958e+003, 3.478488e-002
3.399887e+003, 3.460952e-002
3.401815e+003, 3.544313e-002
3.403744e+003, 3.538903e-002
3.405672e+003, 3.511694e-002
3.407601e+003, 3.412528e-002
3.409529e+003, 3.512309e-002
3.411458e+003, 3.563250e-002
3.413386e+003, 3.487376e-002
3.415314e+003, 3.470670e-002
3.417243e+003, 3.406291e-002
3.419171e+003, 3.389143e-002
3.421100e+003, 3.468284e-002
3.423028e+003, 3.516436e-002
3.424957e+003, 3.429764e-002
3.426885e+003, 3.420660e-002
3.428814e+003, 3.470984e-002
3.430742e+003, 3.491908e-002
3.432671e+003, 3.515450e-002
3.434599e+003, 3.553011e-002
3.436528e+003, 3.567788e-002
3.438456e+003, 3.511861e-002
3.440385e+003, 3.546741e-002
3.442313e+003, 3.437892e-002
3.444241e+003, 3.381622e-002
3.446170e+003, 3.320204e-002
3.448098e+003, 3.390847e-002
3.450027e+003, 3.398110e-002
3.451955e+003, 3.383517e-002
3.453884e+003, 3.370021e-002
3.455812e+003, 3.426393e-002
3.457741e+003, 3.348513e-002
3.459669e+003, 3.293565e-002
3.461598e+003, 3.365968e-002
3.463526e+003, 3.400221e-002
3.465455e+003, 3.234030e-002
3.467383e+003, 3.261399e-002
3.469312e+003, 3.263886e-002
3.471240e+003, 3.304676e-002
3.473168e+003, 3.414392e-002
3.475097e+003, 3.373093e-002
3.477025e+003, 3.278610e-002
3.478954e+003, 3.219733e-002
3.480882e+003, 3.355876e-002
3.482811e+003, 3.467913e-002
3.484739e+003, 3.439819e-002
3.486668e+003, 3.428384e-002
3.488596e+003, 3.407463e-002
3.490525e+003, 3.398612e-002
3.492453e+003, 3.396777e-002
3.494382e+003, 3.370496e-002
3.496310e+003, 3.468081e-002
3.498239e+003, 3.539017e-002
3.500167e+003, 3.342352e-002
3.502095e+003, 3.319288e-002
3.504024e+003, 3.509786e-002
3.505952e+003, 3.438102e-002
3.507881e+003, 3.457332e-002
3.509809e+003, 3.631038e-002
3.511738e+003, 3.543819e-002
3.513666e+003, 3.525449e-002
3.515595e+003, 3.491989e-002
3.517523e+003, 3.474392e-002
3.519452e+003, 3.619777e-002
3.521380e+003, 3.606546e-002
3.523309e+003, 3.576425e-002
3.525237e+003, 3.701115e-002
3.527166e+003, 3.851075e-002
3.529094e+003, 3.887153e-002
3.531022e+003, 3.724688e-002
3.532951e+003, 3.664214e-002
3.534879e+003, 3.663038e-002
3.536808e+003, 3.788824e-002
3.538736e+003, 3.786994e-002
3.540665e+003, 3.766019e-002
3.542593e+003, 3.847697e-002
3.544522e+003, 3.953199e-002
3.546450e+003, 3.967765e-002
3.548379e+003, 3.969111e-002
3.550307e+003, 3.842194e-002
3.552236e+003, 3.840873e-002
3.554164e+003, 4.049547e-002
3.556093e+003, 4.069262e-002
3.558021e+003, 3.892930e-002
3.559949e+003, 3.911933e-002
3.561878e+003, 4.086557e-002
3.563806e+003, 4.108320e-002
3.565735e+003, 3.983819e-002
3.567663e+003, 4.020848e-002
3.569592e+003, 4.054723e-002
3.571520e+003, 3.975498e-002
3.573449e+003, 3.950245e-002
3.575377e+003, 3.980637e-002
3.577306e+003, 3.978209e-002
3.579234e+003, 3.837589e-002
3.581163e+003, 3.619834e-002
3.583091e+003, 3.438376e-002
3.585020e+003, 3.549824e-002
3.586948e+003, 3.687894e-002
3.588876e+003, 3.557726e-002
3.590805e+003, 3.344714e-002
3.592733e+003, 3.288277e-002
3.594662e+003, 3.394931e-002
3.596590e+003, 3.270384e-002
3.598519e+003, 3.118044e-002
3.600447e+003, 3.391486e-002
3.602376e+003, 3.425361e-002
3.604304e+003, 3.087299e-002
3.606233e+003, 2.943557e-002
3.608161e+003, 2.767191e-002
3.610090e+003, 2.800211e-002
3.612018e+003, 2.934024e-002
3.613947e+003, 2.871103e-002
3.615875e+003, 2.790453e-002
3.617803e+003, 2.726677e-002
3.619732e+003, 2.541505e-002
3.621660e+003, 2.528052e-002
3.623589e+003, 2.627394e-002
3.625517e+003, 2.642191e-002
3.627446e+003, 2.645365e-002
3.629374e+003, 2.542060e-002
3.631303e+003, 2.499355e-002
3.633231e+003, 2.606489e-002
3.635160e+003, 2.478823e-002
3.637088e+003, 2.483738e-002
3.639017e+003, 2.593473e-002
3.640945e+003, 2.562355e-002
3.642874e+003, 2.512891e-002
3.644802e+003, 2.318595e-002
3.646730e+003, 2.198233e-002
3.648659e+003, 2.281169e-002
3.650587e+003, 2.385190e-002
3.652516e+003, 2.505486e-002
3.654444e+003, 2.670306e-002
3.656373e+003, 2.913773e-002
3.658301e+003, 3.096658e-002
3.660230e+003, 3.169613e-002
3.662158e+003, 2.910626e-002
3.664087e+003, 2.587091e-002
3.666015e+003, 2.505772e-002
3.667944e+003, 2.695442e-002
3.669872e+003, 3.215409e-002
3.671801e+003, 4.002848e-002
3.673729e+003, 4.468606e-002
3.675657e+003, 3.739033e-002
3.677586e+003, 2.643747e-002
3.679514e+003, 2.173961e-002
3.681443e+003, 2.066839e-002
3.683371e+003, 2.172349e-002
3.685300e+003, 2.027657e-002
3.687228e+003, 1.849049e-002
3.689157e+003, 1.740825e-002
3.691085e+003, 1.536050e-002
3.693014e+003, 1.569256e-002
3.694942e+003, 1.861336e-002
3.696871e+003, 2.169803e-002
3.698799e+003, 1.977761e-002
3.700728e+003, 1.636566e-002
3.702656e+003, 1.745906e-002
3.704584e+003, 1.763032e-002
3.706513e+003, 1.756079e-002
3.708441e+003, 1.736848e-002
3.710370e+003, 1.758024e-002
3.712298e+003, 1.788397e-002
3.714227e+003, 1.723068e-002
3.716155e+003, 1.904304e-002
3.718084e+003, 1.834488e-002
3.720012e+003, 1.695166e-002
3.721941e+003, 1.817300e-002
3.723869e+003, 1.854522e-002
3.725798e+003, 1.827043e-002
3.727726e+003, 1.667180e-002
3.729655e+003, 1.764450e-002
3.731583e+003, 1.803553e-002
3.733511e+003, 1.815539e-002
3.735440e+003, 1.780622e-002
3.737368e+003, 1.694889e-002
3.739297e+003, 1.731098e-002
3.741225e+003, 1.964922e-002
3.743154e+003, 1.937795e-002
3.745082e+003, 1.774089e-002
3.747011e+003, 1.615645e-002
3.748939e+003, 1.623106e-002
3.750868e+003, 1.787966e-002
3.752796e+003, 1.968214e-002
3.754725e+003, 1.818953e-002
3.756653e+003, 1.719651e-002
3.758582e+003, 1.619800e-002
3.760510e+003, 1.615064e-002
3.762438e+003, 1.671995e-002
3.764367e+003, 1.745970e-002
3.766295e+003, 1.843390e-002
3.768224e+003, 1.812922e-002
3.770152e+003, 1.919668e-002
3.772081e+003, 1.890457e-002
3.774009e+003, 1.791086e-002
3.775938e+003, 1.687895e-002
3.777866e+003, 1.662501e-002
3.779795e+003, 1.726937e-002
3.781723e+003, 1.648155e-002
3.783652e+003, 1.788002e-002
3.785580e+003, 1.870629e-002
3.787509e+003, 1.861516e-002
3.789437e+003, 1.854332e-002
3.791365e+003, 1.838030e-002
3.793294e+003, 1.695409e-002
3.795222e+003, 1.792688e-002
3.797151e+003, 1.971821e-002
3.799079e+003, 1.742983e-002
3.801008e+003, 1.774589e-002
3.802936e+003, 1.831996e-002
3.804865e+003, 1.857442e-002
3.806793e+003, 1.954910e-002
3.808722e+003, 1.833487e-002
3.810650e+003, 1.924131e-002
3.812579e+003, 2.075209e-002
3.814507e+003, 1.983534e-002
3.816436e+003, 1.877354e-002
3.818364e+003, 1.687630e-002
3.820292e+003, 1.839527e-002
3.822221e+003, 2.113543e-002
3.824149e+003, 2.001542e-002
3.826078e+003, 1.902828e-002
3.828006e+003, 1.870976e-002
3.829935e+003, 1.893937e-002
3.831863e+003, 1.972290e-002
3.833792e+003, 1.988287e-002
3.835720e+003, 1.965137e-002
3.837649e+003, 1.847097e-002
3.839577e+003, 1.857295e-002
3.841506e+003, 2.055011e-002
3.843434e+003, 2.082432e-002
3.845363e+003, 1.875112e-002
3.847291e+003, 1.899962e-002
3.849219e+003, 1.851207e-002
3.851148e+003, 1.738340e-002
3.853076e+003, 1.743324e-002
3.855005e+003, 1.834005e-002
3.856933e+003, 1.809218e-002
3.858862e+003, 1.894342e-002
3.860790e+003, 2.016614e-002
3.862719e+003, 1.935477e-002
3.864647e+003, 1.894443e-002
3.866576e+003, 1.968757e-002
3.868504e+003, 1.860978e-002
3.870433e+003, 1.868590e-002
3.872361e+003, 1.943834e-002
3.874290e+003, 1.984614e-002
3.876218e+003, 2.015093e-002
3.878146e+003, 1.980111e-002
3.880075e+003, 1.900592e-002
3.882003e+003, 2.091688e-002
3.883932e+003, 2.152391e-002
3.885860e+003, 1.964164e-002
3.887789e+003, 1.868814e-002
3.889717e+003, 1.834232e-002
3.891646e+003, 1.808134e-002
3.893574e+003, 1.859896e-002
3.895503e+003, 2.049601e-002
3.897431e+003, 2.109136e-002
3.899360e+003, 2.025179e-002
3.901288e+003, 1.875656e-002
3.903217e+003, 1.981648e-002
3.905145e+003, 2.109496e-002
3.907073e+003, 2.028033e-002
3.909002e+003, 1.795297e-002
3.910930e+003, 1.840842e-002
3.912859e+003, 1.915872e-002
3.914787e+003, 1.747397e-002
3.916716e+003, 1.958334e-002
3.918644e+003, 2.076486e-002
3.920573e+003, 1.975725e-002
3.922501e+003, 1.776199e-002
3.924430e+003, 1.750847e-002
3.926358e+003, 1.722717e-002
3.928287e+003, 1.869237e-002
3.930215e+003, 2.131595e-002
3.932144e+003, 2.129368e-002
3.934072e+003, 1.928550e-002
3.936000e+003, 1.794308e-002
3.937929e+003, 1.884392e-002
3.939857e+003, 1.938313e-002
3.941786e+003, 2.035076e-002
3.943714e+003, 1.955239e-002
3.945643e+003, 1.813608e-002
3.947571e+003, 1.831031e-002
3.949500e+003, 1.781355e-002
3.951428e+003, 1.728867e-002
3.953357e+003, 1.794847e-002
3.955285e+003, 1.835022e-002
3.957214e+003, 2.043670e-002
3.959142e+003, 2.168697e-002
3.961071e+003, 2.145470e-002
3.962999e+003, 2.124157e-002
3.964927e+003, 2.324601e-002
3.966856e+003, 2.192160e-002
3.968784e+003, 1.840711e-002
3.970713e+003, 1.724902e-002
3.972641e+003, 1.805758e-002
3.974570e+003, 1.761047e-002
3.976498e+003, 1.842920e-002
3.978427e+003, 2.029277e-002
3.980355e+003, 2.066139e-002
3.982284e+003, 1.962282e-002
3.984212e+003, 1.997887e-002
3.986141e+003, 2.063215e-002
3.988069e+003, 1.977252e-002
3.989998e+003, 1.921949e-002
3.991926e+003, 2.186574e-002
3.993854e+003, 2.332987e-002
3.995783e+003, 2.224861e-002
3.997711e+003, 2.074060e-002
3.999640e+003, 2.074881e-002
4.001568e+003, 0.000000e+000
##END=



