##NAMES=Actinolite
##RRUFFID=R050025
##IDEAL CHEMISTRY=Ca_2_(Mg_4.5-2.5_Fe^2+^_0.5-2.5_)Si_8_O_22_(OH)_2_
##LOCALITY=Tyrol, Austria
##OWNER=RRUFF
##SOURCE=Eugene Schlepp
##DESCRIPTION=Green colored bladed single crystals
##STATUS=The identification of this mineral has been confirmed by X-ray diffraction and chemical analysis
##URL=rruff.info/R050025
##MEASURED CHEMISTRY=(Ca_.930_Na_.056_Mn_.010_K_.004_)_2_(Mg_.883_Fe_.117_)_5_(Si_.978_Al_.022_)_8_O_22_(OH)_2_
3.991926e+002, 0.000000e+000
4.011211e+002, 2.429077e-001
4.030496e+002, 2.441109e-001
4.049780e+002, 2.453943e-001
4.069065e+002, 2.498115e-001
4.088350e+002, 2.578998e-001
4.107634e+002, 2.650956e-001
4.126919e+002, 2.709260e-001
4.146204e+002, 2.730873e-001
4.165488e+002, 2.678002e-001
4.184773e+002, 2.613635e-001
4.204058e+002, 2.570524e-001
4.223342e+002, 2.532023e-001
4.242627e+002, 2.483283e-001
4.261912e+002, 2.490632e-001
4.281196e+002, 2.649958e-001
4.300481e+002, 2.855188e-001
4.319766e+002, 3.036723e-001
4.339050e+002, 3.153580e-001
4.358335e+002, 3.228005e-001
4.377620e+002, 3.294477e-001
4.396904e+002, 3.265529e-001
4.416189e+002, 3.204459e-001
4.435474e+002, 3.146215e-001
4.454758e+002, 3.035105e-001
4.474043e+002, 2.948102e-001
4.493328e+002, 2.883049e-001
4.512612e+002, 2.839750e-001
4.531897e+002, 2.822757e-001
4.551182e+002, 2.840822e-001
4.570466e+002, 2.865039e-001
4.589751e+002, 2.847430e-001
4.609036e+002, 2.811242e-001
4.628320e+002, 2.770544e-001
4.647605e+002, 2.731663e-001
4.666890e+002, 2.662068e-001
4.686174e+002, 2.563608e-001
4.705459e+002, 2.454600e-001
4.724744e+002, 2.365721e-001
4.744028e+002, 2.275229e-001
4.763313e+002, 2.199805e-001
4.782598e+002, 2.131421e-001
4.801882e+002, 2.051453e-001
4.821167e+002, 1.967382e-001
4.840452e+002, 1.909067e-001
4.859736e+002, 1.882050e-001
4.879021e+002, 1.885546e-001
4.898306e+002, 1.906695e-001
4.917590e+002, 1.942818e-001
4.936875e+002, 1.993567e-001
4.956160e+002, 2.032102e-001
4.975444e+002, 2.069456e-001
4.994729e+002, 2.103348e-001
5.014014e+002, 2.115299e-001
5.033298e+002, 2.113321e-001
5.052583e+002, 2.092921e-001
5.071868e+002, 2.034704e-001
5.091152e+002, 1.944453e-001
5.110437e+002, 1.849755e-001
5.129722e+002, 1.754439e-001
5.149006e+002, 1.674047e-001
5.168291e+002, 1.614405e-001
5.187576e+002, 1.565227e-001
5.206860e+002, 1.527748e-001
5.226145e+002, 1.512731e-001
5.245430e+002, 1.509319e-001
5.264714e+002, 1.491771e-001
5.283999e+002, 1.455997e-001
5.303284e+002, 1.415386e-001
5.322568e+002, 1.377176e-001
5.341853e+002, 1.335659e-001
5.361138e+002, 1.277091e-001
5.380422e+002, 1.212848e-001
5.399707e+002, 1.143565e-001
5.418992e+002, 1.068666e-001
5.438276e+002, 9.926235e-002
5.457561e+002, 9.229641e-002
5.476846e+002, 8.554007e-002
5.496130e+002, 7.880711e-002
5.515415e+002, 7.248987e-002
5.534700e+002, 6.626768e-002
5.553984e+002, 6.092186e-002
5.573269e+002, 5.636658e-002
5.592554e+002, 5.219210e-002
5.611838e+002, 4.906326e-002
5.631123e+002, 4.567794e-002
5.650408e+002, 4.210787e-002
5.669692e+002, 3.891477e-002
5.688977e+002, 3.603107e-002
5.708262e+002, 3.356167e-002
5.727546e+002, 3.159085e-002
5.746831e+002, 2.947981e-002
5.766116e+002, 2.754442e-002
5.785400e+002, 2.643158e-002
5.804685e+002, 2.556102e-002
5.823970e+002, 2.451856e-002
5.843254e+002, 2.292180e-002
5.862539e+002, 2.177794e-002
5.881824e+002, 2.142973e-002
5.901108e+002, 2.130439e-002
5.920393e+002, 2.078156e-002
5.939678e+002, 2.052466e-002
5.958962e+002, 2.055193e-002
5.978247e+002, 2.014673e-002
5.997532e+002, 2.001363e-002
6.016816e+002, 1.986002e-002
6.036101e+002, 1.997715e-002
6.055386e+002, 2.033409e-002
6.074670e+002, 2.083806e-002
6.093955e+002, 2.145586e-002
6.113240e+002, 2.217245e-002
6.132524e+002, 2.221135e-002
6.151809e+002, 2.230692e-002
6.171094e+002, 2.286761e-002
6.190378e+002, 2.390121e-002
6.209663e+002, 2.474845e-002
6.228948e+002, 2.579424e-002
6.248232e+002, 2.740685e-002
6.267517e+002, 2.942683e-002
6.286802e+002, 3.210673e-002
6.306086e+002, 3.521536e-002
6.325371e+002, 3.950892e-002
6.344656e+002, 4.487574e-002
6.363940e+002, 5.171939e-002
6.383225e+002, 6.000123e-002
6.402510e+002, 6.692947e-002
6.421794e+002, 6.959243e-002
6.441079e+002, 6.762747e-002
6.460364e+002, 6.347501e-002
6.479648e+002, 6.133151e-002
6.498933e+002, 6.199497e-002
6.518218e+002, 6.505350e-002
6.537502e+002, 6.995241e-002
6.556787e+002, 7.494473e-002
6.576072e+002, 7.920272e-002
6.595356e+002, 8.145071e-002
6.614641e+002, 8.067715e-002
6.633926e+002, 7.800038e-002
6.653210e+002, 7.449788e-002
6.672495e+002, 7.191161e-002
6.691780e+002, 7.148413e-002
6.711064e+002, 7.381859e-002
6.730349e+002, 7.983460e-002
6.749634e+002, 9.015401e-002
6.768918e+002, 1.037078e-001
6.788203e+002, 1.146894e-001
6.807488e+002, 1.198436e-001
6.826772e+002, 1.207992e-001
6.846057e+002, 1.190611e-001
6.865342e+002, 1.138300e-001
6.884626e+002, 1.056172e-001
6.903911e+002, 9.626364e-002
6.923196e+002, 8.746526e-002
6.942480e+002, 7.980008e-002
6.961765e+002, 7.319074e-002
6.981050e+002, 6.760842e-002
7.000334e+002, 6.276542e-002
7.019619e+002, 5.854654e-002
7.038904e+002, 5.546694e-002
7.058188e+002, 5.337384e-002
7.077473e+002, 5.184703e-002
7.096758e+002, 5.095464e-002
7.116042e+002, 5.084271e-002
7.135327e+002, 5.162860e-002
7.154612e+002, 5.338519e-002
7.173896e+002, 5.602176e-002
7.193181e+002, 5.965259e-002
7.212466e+002, 6.402639e-002
7.231750e+002, 6.783655e-002
7.251035e+002, 7.048650e-002
7.270320e+002, 7.233266e-002
7.289604e+002, 7.495006e-002
7.308889e+002, 7.878386e-002
7.328174e+002, 8.446737e-002
7.347458e+002, 9.193627e-002
7.366743e+002, 9.961618e-002
7.386028e+002, 1.057710e-001
7.405313e+002, 1.105568e-001
7.424597e+002, 1.168406e-001
7.443882e+002, 1.253282e-001
7.463167e+002, 1.347364e-001
7.482451e+002, 1.445827e-001
7.501736e+002, 1.561291e-001
7.521021e+002, 1.716797e-001
7.540305e+002, 1.903317e-001
7.559590e+002, 2.071061e-001
7.578875e+002, 2.157739e-001
7.598159e+002, 2.132493e-001
7.617444e+002, 2.018643e-001
7.636729e+002, 1.868064e-001
7.656013e+002, 1.719975e-001
7.675298e+002, 1.594692e-001
7.694583e+002, 1.496266e-001
7.713867e+002, 1.422988e-001
7.733152e+002, 1.370225e-001
7.752437e+002, 1.333546e-001
7.771721e+002, 1.308589e-001
7.791006e+002, 1.293729e-001
7.810291e+002, 1.282492e-001
7.829575e+002, 1.273046e-001
7.848860e+002, 1.266185e-001
7.868145e+002, 1.261838e-001
7.887429e+002, 1.258278e-001
7.906714e+002, 1.253134e-001
7.925999e+002, 1.248907e-001
7.945283e+002, 1.249936e-001
7.964568e+002, 1.249989e-001
7.983853e+002, 1.246469e-001
8.003137e+002, 1.244412e-001
8.022422e+002, 1.247535e-001
8.041707e+002, 1.248911e-001
8.060991e+002, 1.248537e-001
8.080276e+002, 1.248949e-001
8.099561e+002, 1.254283e-001
8.118845e+002, 1.258985e-001
8.138130e+002, 1.262314e-001
8.157415e+002, 1.268185e-001
8.176699e+002, 1.274399e-001
8.195984e+002, 1.280210e-001
8.215269e+002, 1.286141e-001
8.234553e+002, 1.290918e-001
8.253838e+002, 1.297391e-001
8.273123e+002, 1.302620e-001
8.292407e+002, 1.310519e-001
8.311692e+002, 1.323367e-001
8.330977e+002, 1.338169e-001
8.350261e+002, 1.362829e-001
8.369546e+002, 1.392801e-001
8.388831e+002, 1.410118e-001
8.408115e+002, 1.402514e-001
8.427400e+002, 1.373371e-001
8.446685e+002, 1.347606e-001
8.465969e+002, 1.332660e-001
8.485254e+002, 1.326043e-001
8.504539e+002, 1.320940e-001
8.523823e+002, 1.312508e-001
8.543108e+002, 1.302526e-001
8.562393e+002, 1.293575e-001
8.581677e+002, 1.284427e-001
8.600962e+002, 1.272163e-001
8.620247e+002, 1.258404e-001
8.639531e+002, 1.251106e-001
8.658816e+002, 1.250405e-001
8.678101e+002, 1.258918e-001
8.697385e+002, 1.279928e-001
8.716670e+002, 1.309065e-001
8.735955e+002, 1.344835e-001
8.755239e+002, 1.389971e-001
8.774524e+002, 1.445321e-001
8.793809e+002, 1.514053e-001
8.813093e+002, 1.593498e-001
8.832378e+002, 1.679316e-001
8.851663e+002, 1.775529e-001
8.870947e+002, 1.876096e-001
8.890232e+002, 1.970751e-001
8.909517e+002, 2.068083e-001
8.928801e+002, 2.162972e-001
8.948085e+002, 2.260531e-001
8.967370e+002, 2.374676e-001
8.986655e+002, 2.509184e-001
9.005939e+002, 2.651983e-001
9.025224e+002, 2.795529e-001
9.044509e+002, 2.945308e-001
9.063793e+002, 3.097150e-001
9.083078e+002, 3.251068e-001
9.102363e+002, 3.404187e-001
9.121647e+002, 3.544219e-001
9.140932e+002, 3.654966e-001
9.160217e+002, 3.715829e-001
9.179501e+002, 3.706892e-001
9.198786e+002, 3.628693e-001
9.218071e+002, 3.502041e-001
9.237355e+002, 3.346057e-001
9.256640e+002, 3.184829e-001
9.275925e+002, 3.048170e-001
9.295209e+002, 2.977384e-001
9.314494e+002, 2.996492e-001
9.333779e+002, 3.095933e-001
9.353063e+002, 3.254414e-001
9.372348e+002, 3.442524e-001
9.391633e+002, 3.639474e-001
9.410917e+002, 3.822986e-001
9.430202e+002, 3.975956e-001
9.449487e+002, 4.093684e-001
9.468771e+002, 4.172123e-001
9.488056e+002, 4.207747e-001
9.507341e+002, 4.203910e-001
9.526625e+002, 4.171791e-001
9.545910e+002, 4.119321e-001
9.565195e+002, 4.049729e-001
9.584479e+002, 3.966086e-001
9.603764e+002, 3.878050e-001
9.623049e+002, 3.793453e-001
9.642333e+002, 3.710443e-001
9.661618e+002, 3.628893e-001
9.680903e+002, 3.556044e-001
9.700187e+002, 3.490069e-001
9.719472e+002, 3.427858e-001
9.738757e+002, 3.374308e-001
9.758041e+002, 3.330343e-001
9.777326e+002, 3.297073e-001
9.796611e+002, 3.276034e-001
9.815895e+002, 3.261147e-001
9.835180e+002, 3.244356e-001
9.854465e+002, 3.218186e-001
9.873749e+002, 3.180048e-001
9.893034e+002, 3.122618e-001
9.912319e+002, 3.044184e-001
9.931603e+002, 2.951610e-001
9.950888e+002, 2.842894e-001
9.970173e+002, 2.717576e-001
9.989457e+002, 2.581519e-001
1.000874e+003, 2.444727e-001
1.002803e+003, 2.316094e-001
1.004731e+003, 2.194227e-001
1.006660e+003, 2.078463e-001
1.008588e+003, 1.972404e-001
1.010517e+003, 1.870331e-001
1.012445e+003, 1.773620e-001
1.014373e+003, 1.685084e-001
1.016302e+003, 1.605588e-001
1.018230e+003, 1.530646e-001
1.020159e+003, 1.461281e-001
1.022087e+003, 1.398578e-001
1.024016e+003, 1.341403e-001
1.025944e+003, 1.298268e-001
1.027873e+003, 1.278498e-001
1.029801e+003, 1.282882e-001
1.031730e+003, 1.315131e-001
1.033658e+003, 1.377937e-001
1.035587e+003, 1.448984e-001
1.037515e+003, 1.490806e-001
1.039444e+003, 1.492615e-001
1.041372e+003, 1.480551e-001
1.043301e+003, 1.477174e-001
1.045229e+003, 1.486509e-001
1.047157e+003, 1.499995e-001
1.049086e+003, 1.512302e-001
1.051014e+003, 1.518899e-001
1.052943e+003, 1.514311e-001
1.054871e+003, 1.509212e-001
1.056800e+003, 1.503032e-001
1.058728e+003, 1.490409e-001
1.060657e+003, 1.476294e-001
1.062585e+003, 1.461364e-001
1.064514e+003, 1.439208e-001
1.066442e+003, 1.408911e-001
1.068371e+003, 1.374211e-001
1.070299e+003, 1.334661e-001
1.072228e+003, 1.290940e-001
1.074156e+003, 1.248183e-001
1.076084e+003, 1.210064e-001
1.078013e+003, 1.176718e-001
1.079941e+003, 1.150418e-001
1.081870e+003, 1.137045e-001
1.083798e+003, 1.139062e-001
1.085727e+003, 1.156795e-001
1.087655e+003, 1.189069e-001
1.089584e+003, 1.234531e-001
1.091512e+003, 1.287763e-001
1.093441e+003, 1.337644e-001
1.095369e+003, 1.376228e-001
1.097298e+003, 1.404773e-001
1.099226e+003, 1.418626e-001
1.101155e+003, 1.414943e-001
1.103083e+003, 1.399191e-001
1.105011e+003, 1.372418e-001
1.106940e+003, 1.333171e-001
1.108868e+003, 1.283096e-001
1.110797e+003, 1.222545e-001
1.112725e+003, 1.154660e-001
1.114654e+003, 1.087661e-001
1.116582e+003, 1.016112e-001
1.118511e+003, 9.420168e-002
1.120439e+003, 8.733111e-002
1.122368e+003, 8.160243e-002
1.124296e+003, 7.767134e-002
1.126225e+003, 7.429893e-002
1.128153e+003, 6.950562e-002
1.130082e+003, 6.348933e-002
1.132010e+003, 5.719621e-002
1.133938e+003, 5.108319e-002
1.135867e+003, 4.555114e-002
1.137795e+003, 4.045937e-002
1.139724e+003, 3.574904e-002
1.141652e+003, 3.168841e-002
1.143581e+003, 2.818154e-002
1.145509e+003, 2.509419e-002
1.147438e+003, 2.218131e-002
1.149366e+003, 1.987539e-002
1.151295e+003, 1.809494e-002
1.153223e+003, 1.643921e-002
1.155152e+003, 1.489495e-002
1.157080e+003, 1.355025e-002
1.159009e+003, 1.261665e-002
1.160937e+003, 1.183950e-002
1.162865e+003, 1.139478e-002
1.164794e+003, 1.092709e-002
1.166722e+003, 1.033210e-002
1.168651e+003, 9.765496e-003
1.170579e+003, 9.449569e-003
1.172508e+003, 9.394621e-003
1.174436e+003, 9.084581e-003
1.176365e+003, 8.820971e-003
1.178293e+003, 8.658812e-003
1.180222e+003, 8.368023e-003
1.182150e+003, 8.200375e-003
1.184079e+003, 7.859257e-003
1.186007e+003, 7.594614e-003
1.187936e+003, 7.560127e-003
1.189864e+003, 7.465285e-003
1.191792e+003, 7.348264e-003
1.193721e+003, 7.301526e-003
1.195649e+003, 7.022141e-003
1.197578e+003, 6.872620e-003
1.199506e+003, 6.790614e-003
1.201435e+003, 6.710069e-003
1.203363e+003, 6.500100e-003
1.205292e+003, 6.246108e-003
1.207220e+003, 6.070381e-003
1.209149e+003, 6.108230e-003
1.211077e+003, 6.240537e-003
1.213006e+003, 6.123515e-003
1.214934e+003, 6.024390e-003
1.216863e+003, 6.107558e-003
1.218791e+003, 6.093268e-003
1.220719e+003, 5.983033e-003
1.222648e+003, 5.852418e-003
1.224576e+003, 5.804427e-003
1.226505e+003, 5.778244e-003
1.228433e+003, 5.731188e-003
1.230362e+003, 5.755944e-003
1.232290e+003, 5.752001e-003
1.234219e+003, 5.883888e-003
1.236147e+003, 5.920989e-003
1.238076e+003, 5.735802e-003
1.240004e+003, 5.651589e-003
1.241933e+003, 5.752292e-003
1.243861e+003, 5.723651e-003
1.245790e+003, 5.780092e-003
1.247718e+003, 5.884379e-003
1.249646e+003, 5.794911e-003
1.251575e+003, 5.604530e-003
1.253503e+003, 5.499165e-003
1.255432e+003, 5.539182e-003
1.257360e+003, 5.485643e-003
1.259289e+003, 5.387105e-003
1.261217e+003, 5.567155e-003
1.263146e+003, 5.659577e-003
1.265074e+003, 5.515692e-003
1.267003e+003, 5.518346e-003
1.268931e+003, 5.747272e-003
1.270860e+003, 5.936148e-003
1.272788e+003, 5.958464e-003
1.274717e+003, 6.343585e-003
1.276645e+003, 6.719722e-003
1.278573e+003, 6.883527e-003
1.280502e+003, 7.113989e-003
1.282430e+003, 7.076784e-003
1.284359e+003, 6.875493e-003
1.286287e+003, 6.999749e-003
1.288216e+003, 7.259946e-003
1.290144e+003, 7.497120e-003
1.292073e+003, 7.733112e-003
1.294001e+003, 7.860066e-003
1.295930e+003, 8.060319e-003
1.297858e+003, 8.325855e-003
1.299787e+003, 8.684108e-003
1.301715e+003, 8.914569e-003
1.303644e+003, 9.003762e-003
1.305572e+003, 9.137709e-003
1.307500e+003, 9.661067e-003
1.309429e+003, 1.001836e-002
1.311357e+003, 1.020587e-002
1.313286e+003, 1.047639e-002
1.315214e+003, 1.087971e-002
1.317143e+003, 1.116507e-002
1.319071e+003, 1.103132e-002
1.321000e+003, 1.122444e-002
1.322928e+003, 1.186154e-002
1.324857e+003, 1.217982e-002
1.326785e+003, 1.222476e-002
1.328714e+003, 1.245214e-002
1.330642e+003, 1.296430e-002
1.332571e+003, 1.352207e-002
1.334499e+003, 1.404544e-002
1.336427e+003, 1.444560e-002
1.338356e+003, 1.496819e-002
1.340284e+003, 1.528860e-002
1.342213e+003, 1.539911e-002
1.344141e+003, 1.577552e-002
1.346070e+003, 1.625188e-002
1.347998e+003, 1.666214e-002
1.349927e+003, 1.702024e-002
1.351855e+003, 1.740810e-002
1.353784e+003, 1.779865e-002
1.355712e+003, 1.811366e-002
1.357641e+003, 1.856256e-002
1.359569e+003, 1.908513e-002
1.361498e+003, 1.945191e-002
1.363426e+003, 1.999327e-002
1.365354e+003, 2.078073e-002
1.367283e+003, 2.141620e-002
1.369211e+003, 2.208453e-002
1.371140e+003, 2.298955e-002
1.373068e+003, 2.387660e-002
1.374997e+003, 2.475995e-002
1.376925e+003, 2.593918e-002
1.378854e+003, 2.716091e-002
1.380782e+003, 2.855570e-002
1.382711e+003, 3.000022e-002
1.384639e+003, 3.150977e-002
1.386568e+003, 3.309516e-002
1.388496e+003, 3.466533e-002
1.390424e+003, 3.605949e-002
1.392353e+003, 3.752073e-002
1.394281e+003, 3.869550e-002
1.396210e+003, 3.990142e-002
1.398138e+003, 4.112071e-002
1.400067e+003, 4.179778e-002
1.401995e+003, 4.194172e-002
1.403924e+003, 4.209080e-002
1.405852e+003, 4.223668e-002
1.407781e+003, 4.210943e-002
1.409709e+003, 4.148866e-002
1.411638e+003, 4.088167e-002
1.413566e+003, 4.043362e-002
1.415495e+003, 4.005504e-002
1.417423e+003, 3.991875e-002
1.419351e+003, 3.988357e-002
1.421280e+003, 3.963520e-002
1.423208e+003, 3.975726e-002
1.425137e+003, 3.998927e-002
1.427065e+003, 4.011686e-002
1.428994e+003, 4.049407e-002
1.430922e+003, 4.093353e-002
1.432851e+003, 4.112258e-002
1.434779e+003, 4.152879e-002
1.436708e+003, 4.173829e-002
1.438636e+003, 4.157771e-002
1.440565e+003, 4.122070e-002
1.442493e+003, 4.080122e-002
1.444422e+003, 4.012242e-002
1.446350e+003, 3.951606e-002
1.448278e+003, 3.885628e-002
1.450207e+003, 3.824762e-002
1.452135e+003, 3.746214e-002
1.454064e+003, 3.633864e-002
1.455992e+003, 3.519204e-002
1.457921e+003, 3.441441e-002
1.459849e+003, 3.360159e-002
1.461778e+003, 3.235215e-002
1.463706e+003, 3.119961e-002
1.465635e+003, 3.007521e-002
1.467563e+003, 2.913964e-002
1.469492e+003, 2.829051e-002
1.471420e+003, 2.719923e-002
1.473349e+003, 2.597153e-002
1.475277e+003, 2.496319e-002
1.477205e+003, 2.378222e-002
1.479134e+003, 2.272826e-002
1.481062e+003, 2.203288e-002
1.482991e+003, 2.129564e-002
1.484919e+003, 2.032870e-002
1.486848e+003, 1.946902e-002
1.488776e+003, 1.889087e-002
1.490705e+003, 1.821403e-002
1.492633e+003, 1.759647e-002
1.494562e+003, 1.679657e-002
1.496490e+003, 1.626412e-002
1.498419e+003, 1.571630e-002
1.500347e+003, 1.534174e-002
1.502276e+003, 1.490733e-002
1.504204e+003, 1.418537e-002
1.506132e+003, 1.362939e-002
1.508061e+003, 1.327186e-002
1.509989e+003, 1.306060e-002
1.511918e+003, 1.282091e-002
1.513846e+003, 1.237873e-002
1.515775e+003, 1.196711e-002
1.517703e+003, 1.165074e-002
1.519632e+003, 1.160819e-002
1.521560e+003, 1.159335e-002
1.523489e+003, 1.156336e-002
1.525417e+003, 1.155735e-002
1.527346e+003, 1.151147e-002
1.529274e+003, 1.147802e-002
1.531203e+003, 1.150785e-002
1.533131e+003, 1.136073e-002
1.535059e+003, 1.154913e-002
1.536988e+003, 1.143160e-002
1.538916e+003, 1.090429e-002
1.540845e+003, 1.072504e-002
1.542773e+003, 1.097816e-002
1.544702e+003, 1.120920e-002
1.546630e+003, 1.120734e-002
1.548559e+003, 1.108094e-002
1.550487e+003, 1.107983e-002
1.552416e+003, 1.116847e-002
1.554344e+003, 1.116545e-002
1.556273e+003, 1.104543e-002
1.558201e+003, 1.091973e-002
1.560130e+003, 1.107757e-002
1.562058e+003, 1.107328e-002
1.563986e+003, 1.092692e-002
1.565915e+003, 1.116908e-002
1.567843e+003, 1.126671e-002
1.569772e+003, 1.104110e-002
1.571700e+003, 1.099099e-002
1.573629e+003, 1.080591e-002
1.575557e+003, 1.064363e-002
1.577486e+003, 1.081975e-002
1.579414e+003, 1.099255e-002
1.581343e+003, 1.094627e-002
1.583271e+003, 1.092956e-002
1.585200e+003, 1.123341e-002
1.587128e+003, 1.124680e-002
1.589057e+003, 1.138084e-002
1.590985e+003, 1.146320e-002
1.592913e+003, 1.120267e-002
1.594842e+003, 1.091551e-002
1.596770e+003, 1.077742e-002
1.598699e+003, 1.093951e-002
1.600627e+003, 1.071274e-002
1.602556e+003, 1.034518e-002
1.604484e+003, 1.044342e-002
1.606413e+003, 1.025940e-002
1.608341e+003, 1.017201e-002
1.610270e+003, 1.014936e-002
1.612198e+003, 1.008684e-002
1.614127e+003, 1.006044e-002
1.616055e+003, 1.014611e-002
1.617984e+003, 1.010982e-002
1.619912e+003, 9.836154e-003
1.621840e+003, 9.644889e-003
1.623769e+003, 9.519182e-003
1.625697e+003, 9.424600e-003
1.627626e+003, 9.459183e-003
1.629554e+003, 9.181721e-003
1.631483e+003, 9.060604e-003
1.633411e+003, 8.608976e-003
1.635340e+003, 8.108079e-003
1.637268e+003, 8.206936e-003
1.639197e+003, 8.290094e-003
1.641125e+003, 8.160371e-003
1.643054e+003, 8.221123e-003
1.644982e+003, 8.039474e-003
1.646911e+003, 7.750598e-003
1.648839e+003, 7.656923e-003
1.650767e+003, 7.572178e-003
1.652696e+003, 7.545019e-003
1.654624e+003, 7.706461e-003
1.656553e+003, 7.661588e-003
1.658481e+003, 7.702867e-003
1.660410e+003, 7.770578e-003
1.662338e+003, 7.970208e-003
1.664267e+003, 7.970247e-003
1.666195e+003, 7.583220e-003
1.668124e+003, 7.346994e-003
1.670052e+003, 7.442315e-003
1.671981e+003, 7.471564e-003
1.673909e+003, 7.361281e-003
1.675838e+003, 7.111496e-003
1.677766e+003, 7.123468e-003
1.679694e+003, 7.290496e-003
1.681623e+003, 7.055565e-003
1.683551e+003, 6.862601e-003
1.685480e+003, 6.961231e-003
1.687408e+003, 6.956915e-003
1.689337e+003, 7.173170e-003
1.691265e+003, 7.363299e-003
1.693194e+003, 7.281072e-003
1.695122e+003, 6.797248e-003
1.697051e+003, 6.564968e-003
1.698979e+003, 6.782776e-003
1.700908e+003, 6.962111e-003
1.702836e+003, 7.073133e-003
1.704765e+003, 6.921216e-003
1.706693e+003, 7.194493e-003
1.708621e+003, 7.515190e-003
1.710550e+003, 7.362146e-003
1.712478e+003, 7.125075e-003
1.714407e+003, 6.896668e-003
1.716335e+003, 6.785022e-003
1.718264e+003, 6.767204e-003
1.720192e+003, 7.376503e-003
1.722121e+003, 7.928340e-003
1.724049e+003, 8.152134e-003
1.725978e+003, 8.226337e-003
1.727906e+003, 7.845053e-003
1.729835e+003, 7.557985e-003
1.731763e+003, 7.509205e-003
1.733692e+003, 7.237534e-003
1.735620e+003, 7.147362e-003
1.737548e+003, 7.141730e-003
1.739477e+003, 6.719846e-003
1.741405e+003, 6.560611e-003
1.743334e+003, 6.781247e-003
1.745262e+003, 6.572302e-003
1.747191e+003, 6.190822e-003
1.749119e+003, 6.235162e-003
1.751048e+003, 6.354026e-003
1.752976e+003, 5.990089e-003
1.754905e+003, 5.902751e-003
1.756833e+003, 5.826648e-003
1.758762e+003, 5.622009e-003
1.760690e+003, 5.639966e-003
1.762619e+003, 5.295455e-003
1.764547e+003, 5.113604e-003
1.766475e+003, 5.329849e-003
1.768404e+003, 5.368934e-003
1.770332e+003, 5.341871e-003
1.772261e+003, 5.195180e-003
1.774189e+003, 5.311249e-003
1.776118e+003, 5.280136e-003
1.778046e+003, 5.484369e-003
1.779975e+003, 5.415226e-003
1.781903e+003, 5.429169e-003
1.783832e+003, 5.758507e-003
1.785760e+003, 5.479557e-003
1.787689e+003, 5.063938e-003
1.789617e+003, 4.946679e-003
1.791546e+003, 4.753269e-003
1.793474e+003, 4.480365e-003
1.795402e+003, 4.089654e-003
1.797331e+003, 4.297084e-003
1.799259e+003, 4.745077e-003
1.801188e+003, 4.631281e-003
1.803116e+003, 4.465539e-003
1.805045e+003, 4.370825e-003
1.806973e+003, 4.013085e-003
1.808902e+003, 3.481061e-003
1.810830e+003, 3.594946e-003
1.812759e+003, 3.788263e-003
1.814687e+003, 3.334151e-003
1.816616e+003, 3.129815e-003
1.818544e+003, 3.740052e-003
1.820473e+003, 4.236199e-003
1.822401e+003, 4.365339e-003
1.824329e+003, 4.213016e-003
1.826258e+003, 3.725639e-003
1.828186e+003, 3.778989e-003
1.830115e+003, 3.707431e-003
1.832043e+003, 3.721500e-003
1.833972e+003, 3.947993e-003
1.835900e+003, 3.892995e-003
1.837829e+003, 3.862289e-003
1.839757e+003, 4.381693e-003
1.841686e+003, 4.319558e-003
1.843614e+003, 3.444934e-003
1.845543e+003, 3.106537e-003
1.847471e+003, 3.424438e-003
1.849400e+003, 3.584948e-003
1.851328e+003, 3.045534e-003
1.853256e+003, 2.986753e-003
1.855185e+003, 3.663862e-003
1.857113e+003, 3.716768e-003
1.859042e+003, 3.714272e-003
1.860970e+003, 3.278632e-003
1.862899e+003, 2.929747e-003
1.864827e+003, 2.810586e-003
1.866756e+003, 3.248266e-003
1.868684e+003, 3.575696e-003
1.870613e+003, 3.288487e-003
1.872541e+003, 3.077213e-003
1.874470e+003, 3.759248e-003
1.876398e+003, 3.966090e-003
1.878327e+003, 3.902201e-003
1.880255e+003, 3.733974e-003
1.882183e+003, 3.142033e-003
1.884112e+003, 2.760374e-003
1.886040e+003, 2.622361e-003
1.887969e+003, 2.538625e-003
1.889897e+003, 2.677463e-003
1.891826e+003, 2.487931e-003
1.893754e+003, 2.216341e-003
1.895683e+003, 2.906498e-003
1.897611e+003, 3.414937e-003
1.899540e+003, 2.958968e-003
1.901468e+003, 2.795749e-003
1.903397e+003, 2.742285e-003
1.905325e+003, 2.575701e-003
1.907254e+003, 3.143845e-003
1.909182e+003, 3.071064e-003
1.911110e+003, 2.407697e-003
1.913039e+003, 2.327971e-003
1.914967e+003, 2.553136e-003
1.916896e+003, 2.387693e-003
1.918824e+003, 1.372730e-003
1.920753e+003, 5.134246e-004
1.922681e+003, 4.092933e-004
1.924610e+003, 8.455928e-004
1.926538e+003, 8.571345e-004
1.928467e+003, 8.417888e-004
1.930395e+003, 1.241692e-003
1.932324e+003, 1.365432e-003
1.934252e+003, 1.177220e-003
1.936181e+003, 9.761258e-004
1.938109e+003, 2.916986e-004
1.940037e+003, 8.503190e-004
1.941966e+003, 4.963191e-004
1.943894e+003, -1.888536e-005
1.945823e+003, 2.037939e-004
1.947751e+003, -7.183710e-005
1.949680e+003, -3.422446e-004
1.951608e+003, 2.783946e-004
1.953537e+003, 1.232025e-004
1.955465e+003, -2.059990e-003
1.957394e+003, -2.804602e-003
1.959322e+003, -1.563682e-003
1.961251e+003, -1.499513e-003
1.963179e+003, -1.114635e-003
1.965108e+003, -4.262267e-004
1.967036e+003, -1.237186e-003
1.968964e+003, -2.879790e-003
1.970893e+003, -3.691991e-003
1.972821e+003, -1.857992e-003
1.974750e+003, -4.056182e-003
1.976678e+003, -4.834163e-003
1.978607e+003, -7.525545e-004
1.980535e+003, 9.225056e-004
1.982464e+003, -3.346422e-004
1.984392e+003, -2.143112e-003
1.986321e+003, -1.498541e-003
1.988249e+003, -5.530058e-004
1.990178e+003, -1.509587e-003
1.992106e+003, -1.910361e-003
1.994035e+003, -4.622865e-004
1.995963e+003, -6.957689e-004
1.997891e+003, -1.456958e-003
1.999820e+003, -1.513990e-003
2.001748e+003, -1.240857e-003
2.003677e+003, -4.321805e-004
2.005605e+003, -4.674779e-004
2.007534e+003, 1.286855e-003
2.009462e+003, 1.763285e-003
2.011391e+003, 1.669373e-003
2.013319e+003, 2.401392e-004
2.015248e+003, -1.515392e-003
2.017176e+003, 2.621399e-005
2.019105e+003, 2.078555e-003
2.021033e+003, 3.884454e-004
2.022962e+003, -1.247057e-003
2.024890e+003, -1.189191e-003
2.026818e+003, 1.969182e-004
2.028747e+003, -4.906445e-004
2.030675e+003, -4.980660e-004
2.032604e+003, 1.199202e-003
2.034532e+003, 2.331125e-003
2.036461e+003, 2.886421e-003
2.038389e+003, 2.926679e-003
2.040318e+003, 2.383513e-003
2.042246e+003, 1.260186e-003
2.044175e+003, 1.150753e-003
2.046103e+003, 2.054456e-003
2.048032e+003, 4.093114e-003
2.049960e+003, 6.441388e-003
2.051889e+003, 6.184444e-003
2.053817e+003, 5.741852e-003
2.055746e+003, 5.880871e-003
2.057674e+003, 4.332876e-003
2.059603e+003, 5.585819e-003
2.061531e+003, 5.820152e-003
2.063459e+003, 4.286987e-003
2.065388e+003, 3.762968e-003
2.067316e+003, 4.171168e-003
2.069245e+003, 3.897981e-003
2.071173e+003, 3.981406e-003
2.073102e+003, 5.135604e-003
2.075030e+003, 6.245644e-003
2.076959e+003, 4.619691e-003
2.078887e+003, 3.835412e-003
2.080816e+003, 4.258906e-003
2.082744e+003, 4.325128e-003
2.084673e+003, 3.614470e-003
2.086601e+003, 3.247367e-003
2.088530e+003, 3.254803e-003
2.090458e+003, 3.036150e-003
2.092386e+003, 1.835663e-003
2.094315e+003, 1.968603e-003
2.096243e+003, 3.361880e-003
2.098172e+003, 4.211221e-003
2.100100e+003, 4.527141e-003
2.102029e+003, 3.573902e-003
2.103957e+003, 5.008028e-003
2.105886e+003, 6.358188e-003
2.107814e+003, 4.845417e-003
2.109743e+003, 4.789690e-003
2.111671e+003, 4.692981e-003
2.113600e+003, 3.508841e-003
2.115528e+003, 3.410213e-003
2.117457e+003, 2.267511e-003
2.119385e+003, 1.771655e-003
2.121313e+003, 2.054950e-003
2.123242e+003, 1.956604e-003
2.125170e+003, 1.912700e-003
2.127099e+003, 3.052063e-003
2.129027e+003, 3.671314e-003
2.130956e+003, 2.796332e-003
2.132884e+003, 7.655912e-004
2.134813e+003, -7.422979e-005
2.136741e+003, 1.099062e-003
2.138670e+003, 3.014740e-003
2.140598e+003, 2.818793e-003
2.142527e+003, 2.448398e-003
2.144455e+003, 2.592783e-003
2.146384e+003, 8.749584e-004
2.148312e+003, -3.880079e-004
2.150240e+003, -9.057561e-004
2.152169e+003, -2.672745e-003
2.154097e+003, -3.087509e-003
2.156026e+003, -4.507437e-003
2.157954e+003, -3.509025e-003
2.159883e+003, 3.299758e-003
2.161811e+003, 4.844148e-003
2.163740e+003, 3.762893e-003
2.165668e+003, 4.104692e-003
2.167597e+003, 3.650033e-003
2.169525e+003, 1.014605e-003
2.171454e+003, 1.515586e-003
2.173382e+003, 2.995235e-003
2.175311e+003, 3.458802e-003
2.177239e+003, 3.385916e-003
2.179167e+003, 3.153396e-003
2.181096e+003, 2.839371e-003
2.183024e+003, 3.038461e-003
2.184953e+003, 3.122457e-003
2.186881e+003, 5.714653e-003
2.188810e+003, 5.091160e-003
2.190738e+003, 2.789618e-003
2.192667e+003, 2.883391e-003
2.194595e+003, 3.065635e-003
2.196524e+003, 3.135544e-003
2.198452e+003, 4.110228e-003
2.200381e+003, 4.099151e-003
2.202309e+003, 2.944690e-003
2.204238e+003, 3.680297e-003
2.206166e+003, 4.671034e-003
2.208094e+003, 4.403885e-003
2.210023e+003, 4.426822e-003
2.211951e+003, 3.375513e-003
2.213880e+003, 3.263593e-003
2.215808e+003, 4.644516e-003
2.217737e+003, 4.925390e-003
2.219665e+003, 5.994163e-003
2.221594e+003, 7.594793e-003
2.223522e+003, 7.385805e-003
2.225451e+003, 7.141233e-003
2.227379e+003, 5.988347e-003
2.229308e+003, 5.593474e-003
2.231236e+003, 6.710364e-003
2.233165e+003, 9.192200e-003
2.235093e+003, 9.878775e-003
2.237021e+003, 8.589993e-003
2.238950e+003, 8.408485e-003
2.240878e+003, 8.510643e-003
2.242807e+003, 8.194489e-003
2.244735e+003, 8.110344e-003
2.246664e+003, 7.564619e-003
2.248592e+003, 8.114924e-003
2.250521e+003, 7.876043e-003
2.252449e+003, 7.617454e-003
2.254378e+003, 8.658591e-003
2.256306e+003, 9.165442e-003
2.258235e+003, 7.935519e-003
2.260163e+003, 6.893934e-003
2.262092e+003, 7.345961e-003
2.264020e+003, 7.771973e-003
2.265948e+003, 8.600462e-003
2.267877e+003, 8.941471e-003
2.269805e+003, 9.272066e-003
2.271734e+003, 9.673180e-003
2.273662e+003, 1.037136e-002
2.275591e+003, 1.073269e-002
2.277519e+003, 1.002163e-002
2.279448e+003, 1.071024e-002
2.281376e+003, 1.123324e-002
2.283305e+003, 1.130255e-002
2.285233e+003, 1.113593e-002
2.287162e+003, 1.092229e-002
2.289090e+003, 1.082189e-002
2.291019e+003, 1.101469e-002
2.292947e+003, 1.086842e-002
2.294875e+003, 9.810966e-003
2.296804e+003, 9.860004e-003
2.298732e+003, 1.058355e-002
2.300661e+003, 1.004790e-002
2.302589e+003, 9.583049e-003
2.304518e+003, 9.770886e-003
2.306446e+003, 1.054676e-002
2.308375e+003, 1.132062e-002
2.310303e+003, 1.140052e-002
2.312232e+003, 1.141426e-002
2.314160e+003, 1.140612e-002
2.316089e+003, 1.153089e-002
2.318017e+003, 1.127340e-002
2.319946e+003, 1.118965e-002
2.321874e+003, 1.160960e-002
2.323802e+003, 1.155006e-002
2.325731e+003, 1.048991e-002
2.327659e+003, 1.002213e-002
2.329588e+003, 1.001929e-002
2.331516e+003, 9.818943e-003
2.333445e+003, 1.009281e-002
2.335373e+003, 9.584256e-003
2.337302e+003, 8.907066e-003
2.339230e+003, 8.942230e-003
2.341159e+003, 9.307738e-003
2.343087e+003, 9.806271e-003
2.345016e+003, 9.757077e-003
2.346944e+003, 9.816999e-003
2.348873e+003, 9.871677e-003
2.350801e+003, 9.483737e-003
2.352729e+003, 9.019644e-003
2.354658e+003, 9.013995e-003
2.356586e+003, 9.348474e-003
2.358515e+003, 9.525705e-003
2.360443e+003, 9.340690e-003
2.362372e+003, 9.178625e-003
2.364300e+003, 9.298587e-003
2.366229e+003, 8.962497e-003
2.368157e+003, 8.523861e-003
2.370086e+003, 8.382537e-003
2.372014e+003, 8.864929e-003
2.373942e+003, 9.227415e-003
2.375871e+003, 9.653469e-003
2.377799e+003, 9.953690e-003
2.379728e+003, 9.635990e-003
2.381656e+003, 9.992460e-003
2.383585e+003, 1.019755e-002
2.385513e+003, 9.605717e-003
2.387442e+003, 9.231523e-003
2.389370e+003, 9.582547e-003
2.391299e+003, 1.044142e-002
2.393227e+003, 1.046187e-002
2.395156e+003, 1.013767e-002
2.397084e+003, 1.050436e-002
2.399012e+003, 1.109744e-002
2.400941e+003, 1.126403e-002
2.402869e+003, 1.061271e-002
2.404798e+003, 1.035112e-002
2.406726e+003, 1.070970e-002
2.408655e+003, 1.053434e-002
2.410583e+003, 1.061421e-002
2.412512e+003, 1.032139e-002
2.414440e+003, 1.081798e-002
2.416369e+003, 1.133089e-002
2.418297e+003, 1.040263e-002
2.420226e+003, 1.016421e-002
2.422154e+003, 1.000498e-002
2.424083e+003, 1.011375e-002
2.426011e+003, 1.063963e-002
2.427939e+003, 1.035970e-002
2.429868e+003, 1.085804e-002
2.431796e+003, 1.123364e-002
2.433725e+003, 1.108428e-002
2.435653e+003, 1.136692e-002
2.437582e+003, 1.117773e-002
2.439510e+003, 1.136115e-002
2.441439e+003, 1.175760e-002
2.443367e+003, 1.169689e-002
2.445296e+003, 1.205243e-002
2.447224e+003, 1.206706e-002
2.449153e+003, 1.192912e-002
2.451081e+003, 1.171880e-002
2.453010e+003, 1.192040e-002
2.454938e+003, 1.222701e-002
2.456866e+003, 1.234084e-002
2.458795e+003, 1.204089e-002
2.460723e+003, 1.198756e-002
2.462652e+003, 1.135113e-002
2.464580e+003, 1.059828e-002
2.466509e+003, 1.091199e-002
2.468437e+003, 1.137529e-002
2.470366e+003, 1.085989e-002
2.472294e+003, 1.083323e-002
2.474223e+003, 1.117809e-002
2.476151e+003, 1.076805e-002
2.478080e+003, 9.852946e-003
2.480008e+003, 1.020890e-002
2.481937e+003, 1.022982e-002
2.483865e+003, 9.758636e-003
2.485793e+003, 1.076887e-002
2.487722e+003, 1.118930e-002
2.489650e+003, 1.053055e-002
2.491579e+003, 1.104208e-002
2.493507e+003, 1.203985e-002
2.495436e+003, 1.217912e-002
2.497364e+003, 1.218400e-002
2.499293e+003, 1.215045e-002
2.501221e+003, 1.137011e-002
2.503150e+003, 1.085746e-002
2.505078e+003, 1.074636e-002
2.507007e+003, 1.129322e-002
2.508935e+003, 1.172537e-002
2.510864e+003, 1.189878e-002
2.512792e+003, 1.129957e-002
2.514720e+003, 1.067033e-002
2.516649e+003, 1.063797e-002
2.518577e+003, 1.125080e-002
2.520506e+003, 1.174387e-002
2.522434e+003, 1.245494e-002
2.524363e+003, 1.341143e-002
2.526291e+003, 1.307993e-002
2.528220e+003, 1.111540e-002
2.530148e+003, 1.077260e-002
2.532077e+003, 1.126620e-002
2.534005e+003, 1.119797e-002
2.535934e+003, 1.210165e-002
2.537862e+003, 1.269312e-002
2.539791e+003, 1.250186e-002
2.541719e+003, 1.206978e-002
2.543647e+003, 1.151103e-002
2.545576e+003, 1.132370e-002
2.547504e+003, 1.175307e-002
2.549433e+003, 1.273701e-002
2.551361e+003, 1.283252e-002
2.553290e+003, 1.231398e-002
2.555218e+003, 1.235913e-002
2.557147e+003, 1.299939e-002
2.559075e+003, 1.354682e-002
2.561004e+003, 1.315063e-002
2.562932e+003, 1.217905e-002
2.564861e+003, 1.253190e-002
2.566789e+003, 1.347755e-002
2.568718e+003, 1.334312e-002
2.570646e+003, 1.230074e-002
2.572574e+003, 1.126016e-002
2.574503e+003, 1.198772e-002
2.576431e+003, 1.316291e-002
2.578360e+003, 1.298232e-002
2.580288e+003, 1.282502e-002
2.582217e+003, 1.223290e-002
2.584145e+003, 1.163016e-002
2.586074e+003, 1.238180e-002
2.588002e+003, 1.254442e-002
2.589931e+003, 1.198718e-002
2.591859e+003, 1.216996e-002
2.593788e+003, 1.248504e-002
2.595716e+003, 1.210096e-002
2.597645e+003, 1.241567e-002
2.599573e+003, 1.325214e-002
2.601501e+003, 1.369449e-002
2.603430e+003, 1.292380e-002
2.605358e+003, 1.264338e-002
2.607287e+003, 1.326366e-002
2.609215e+003, 1.355402e-002
2.611144e+003, 1.342915e-002
2.613072e+003, 1.306908e-002
2.615001e+003, 1.331697e-002
2.616929e+003, 1.347709e-002
2.618858e+003, 1.334452e-002
2.620786e+003, 1.340091e-002
2.622715e+003, 1.278108e-002
2.624643e+003, 1.251918e-002
2.626572e+003, 1.292402e-002
2.628500e+003, 1.233285e-002
2.630428e+003, 1.255779e-002
2.632357e+003, 1.357868e-002
2.634285e+003, 1.380629e-002
2.636214e+003, 1.318174e-002
2.638142e+003, 1.302552e-002
2.640071e+003, 1.427423e-002
2.641999e+003, 1.460827e-002
2.643928e+003, 1.427280e-002
2.645856e+003, 1.369690e-002
2.647785e+003, 1.316143e-002
2.649713e+003, 1.275002e-002
2.651642e+003, 1.323544e-002
2.653570e+003, 1.383795e-002
2.655499e+003, 1.336732e-002
2.657427e+003, 1.266548e-002
2.659355e+003, 1.232257e-002
2.661284e+003, 1.265012e-002
2.663212e+003, 1.359637e-002
2.665141e+003, 1.347489e-002
2.667069e+003, 1.307217e-002
2.668998e+003, 1.311176e-002
2.670926e+003, 1.229564e-002
2.672855e+003, 1.224014e-002
2.674783e+003, 1.290869e-002
2.676712e+003, 1.306291e-002
2.678640e+003, 1.277193e-002
2.680569e+003, 1.214065e-002
2.682497e+003, 1.217634e-002
2.684426e+003, 1.310613e-002
2.686354e+003, 1.295612e-002
2.688282e+003, 1.239795e-002
2.690211e+003, 1.263826e-002
2.692139e+003, 1.260058e-002
2.694068e+003, 1.252766e-002
2.695996e+003, 1.288303e-002
2.697925e+003, 1.303913e-002
2.699853e+003, 1.308824e-002
2.701782e+003, 1.348155e-002
2.703710e+003, 1.381751e-002
2.705639e+003, 1.396653e-002
2.707567e+003, 1.333205e-002
2.709496e+003, 1.235154e-002
2.711424e+003, 1.186742e-002
2.713353e+003, 1.174619e-002
2.715281e+003, 1.285927e-002
2.717209e+003, 1.329774e-002
2.719138e+003, 1.324421e-002
2.721066e+003, 1.338266e-002
2.722995e+003, 1.386805e-002
2.724923e+003, 1.420940e-002
2.726852e+003, 1.406702e-002
2.728780e+003, 1.311583e-002
2.730709e+003, 1.265518e-002
2.732637e+003, 1.293594e-002
2.734566e+003, 1.293699e-002
2.736494e+003, 1.257363e-002
2.738423e+003, 1.238672e-002
2.740351e+003, 1.221128e-002
2.742280e+003, 1.229542e-002
2.744208e+003, 1.277862e-002
2.746136e+003, 1.323023e-002
2.748065e+003, 1.359957e-002
2.749993e+003, 1.353330e-002
2.751922e+003, 1.336317e-002
2.753850e+003, 1.370079e-002
2.755779e+003, 1.384845e-002
2.757707e+003, 1.367249e-002
2.759636e+003, 1.354360e-002
2.761564e+003, 1.409186e-002
2.763493e+003, 1.478148e-002
2.765421e+003, 1.451153e-002
2.767350e+003, 1.420065e-002
2.769278e+003, 1.364444e-002
2.771207e+003, 1.327033e-002
2.773135e+003, 1.262999e-002
2.775063e+003, 1.264932e-002
2.776992e+003, 1.289297e-002
2.778920e+003, 1.251718e-002
2.780849e+003, 1.260802e-002
2.782777e+003, 1.308913e-002
2.784706e+003, 1.380231e-002
2.786634e+003, 1.394002e-002
2.788563e+003, 1.378133e-002
2.790491e+003, 1.371564e-002
2.792420e+003, 1.352021e-002
2.794348e+003, 1.320395e-002
2.796277e+003, 1.338478e-002
2.798205e+003, 1.404274e-002
2.800134e+003, 1.391561e-002
2.802062e+003, 1.372224e-002
2.803990e+003, 1.397248e-002
2.805919e+003, 1.386683e-002
2.807847e+003, 1.327451e-002
2.809776e+003, 1.325559e-002
2.811704e+003, 1.358974e-002
2.813633e+003, 1.388896e-002
2.815561e+003, 1.462117e-002
2.817490e+003, 1.474686e-002
2.819418e+003, 1.432277e-002
2.821347e+003, 1.371897e-002
2.823275e+003, 1.369600e-002
2.825204e+003, 1.395208e-002
2.827132e+003, 1.428295e-002
2.829061e+003, 1.486342e-002
2.830989e+003, 1.510838e-002
2.832917e+003, 1.480595e-002
2.834846e+003, 1.424578e-002
2.836774e+003, 1.358879e-002
2.838703e+003, 1.467051e-002
2.840631e+003, 1.575647e-002
2.842560e+003, 1.544078e-002
2.844488e+003, 1.479694e-002
2.846417e+003, 1.484176e-002
2.848345e+003, 1.536146e-002
2.850274e+003, 1.547469e-002
2.852202e+003, 1.485010e-002
2.854131e+003, 1.545647e-002
2.856059e+003, 1.593531e-002
2.857988e+003, 1.516521e-002
2.859916e+003, 1.448982e-002
2.861844e+003, 1.480322e-002
2.863773e+003, 1.536867e-002
2.865701e+003, 1.547580e-002
2.867630e+003, 1.468815e-002
2.869558e+003, 1.538141e-002
2.871487e+003, 1.624427e-002
2.873415e+003, 1.587666e-002
2.875344e+003, 1.598343e-002
2.877272e+003, 1.668652e-002
2.879201e+003, 1.681472e-002
2.881129e+003, 1.565102e-002
2.883058e+003, 1.493745e-002
2.884986e+003, 1.552542e-002
2.886915e+003, 1.532810e-002
2.888843e+003, 1.589475e-002
2.890771e+003, 1.653176e-002
2.892700e+003, 1.639950e-002
2.894628e+003, 1.606851e-002
2.896557e+003, 1.705985e-002
2.898485e+003, 1.723585e-002
2.900414e+003, 1.565515e-002
2.902342e+003, 1.465612e-002
2.904271e+003, 1.492392e-002
2.906199e+003, 1.582589e-002
2.908128e+003, 1.618291e-002
2.910056e+003, 1.635960e-002
2.911985e+003, 1.688231e-002
2.913913e+003, 1.739186e-002
2.915842e+003, 1.693788e-002
2.917770e+003, 1.720572e-002
2.919698e+003, 1.751998e-002
2.921627e+003, 1.801804e-002
2.923555e+003, 1.836513e-002
2.925484e+003, 1.839526e-002
2.927412e+003, 1.793597e-002
2.929341e+003, 1.745185e-002
2.931269e+003, 1.738983e-002
2.933198e+003, 1.726300e-002
2.935126e+003, 1.771740e-002
2.937055e+003, 1.790019e-002
2.938983e+003, 1.723165e-002
2.940912e+003, 1.685446e-002
2.942840e+003, 1.718875e-002
2.944769e+003, 1.807508e-002
2.946697e+003, 1.788981e-002
2.948625e+003, 1.697195e-002
2.950554e+003, 1.661868e-002
2.952482e+003, 1.636811e-002
2.954411e+003, 1.614184e-002
2.956339e+003, 1.596334e-002
2.958268e+003, 1.582645e-002
2.960196e+003, 1.638398e-002
2.962125e+003, 1.640235e-002
2.964053e+003, 1.711209e-002
2.965982e+003, 1.735076e-002
2.967910e+003, 1.714673e-002
2.969839e+003, 1.761333e-002
2.971767e+003, 1.805578e-002
2.973696e+003, 1.769070e-002
2.975624e+003, 1.637197e-002
2.977552e+003, 1.661926e-002
2.979481e+003, 1.764150e-002
2.981409e+003, 1.798879e-002
2.983338e+003, 1.775634e-002
2.985266e+003, 1.729476e-002
2.987195e+003, 1.672947e-002
2.989123e+003, 1.715973e-002
2.991052e+003, 1.735460e-002
2.992980e+003, 1.809754e-002
2.994909e+003, 1.874366e-002
2.996837e+003, 1.818069e-002
2.998766e+003, 1.797967e-002
3.000694e+003, 1.805630e-002
3.002623e+003, 1.753044e-002
3.004551e+003, 1.687421e-002
3.006479e+003, 1.675540e-002
3.008408e+003, 1.761588e-002
3.010336e+003, 1.781817e-002
3.012265e+003, 1.673558e-002
3.014193e+003, 1.608845e-002
3.016122e+003, 1.669344e-002
3.018050e+003, 1.777506e-002
3.019979e+003, 1.832518e-002
3.021907e+003, 1.743028e-002
3.023836e+003, 1.692190e-002
3.025764e+003, 1.777786e-002
3.027693e+003, 1.801155e-002
3.029621e+003, 1.798144e-002
3.031550e+003, 1.791609e-002
3.033478e+003, 1.711817e-002
3.035406e+003, 1.677093e-002
3.037335e+003, 1.705861e-002
3.039263e+003, 1.686505e-002
3.041192e+003, 1.629694e-002
3.043120e+003, 1.647701e-002
3.045049e+003, 1.643817e-002
3.046977e+003, 1.652172e-002
3.048906e+003, 1.764781e-002
3.050834e+003, 1.795682e-002
3.052763e+003, 1.828697e-002
3.054691e+003, 1.825798e-002
3.056620e+003, 1.726164e-002
3.058548e+003, 1.743704e-002
3.060477e+003, 1.868673e-002
3.062405e+003, 1.851931e-002
3.064333e+003, 1.718745e-002
3.066262e+003, 1.736663e-002
3.068190e+003, 1.878219e-002
3.070119e+003, 1.812787e-002
3.072047e+003, 1.780819e-002
3.073976e+003, 1.870249e-002
3.075904e+003, 1.916000e-002
3.077833e+003, 1.963122e-002
3.079761e+003, 1.984535e-002
3.081690e+003, 1.912903e-002
3.083618e+003, 1.926671e-002
3.085547e+003, 1.806579e-002
3.087475e+003, 1.716886e-002
3.089404e+003, 1.809067e-002
3.091332e+003, 1.830975e-002
3.093260e+003, 1.862838e-002
3.095189e+003, 1.920133e-002
3.097117e+003, 1.828064e-002
3.099046e+003, 1.804857e-002
3.100974e+003, 1.891211e-002
3.102903e+003, 1.901119e-002
3.104831e+003, 1.916940e-002
3.106760e+003, 2.044627e-002
3.108688e+003, 2.047350e-002
3.110617e+003, 2.017138e-002
3.112545e+003, 1.962989e-002
3.114474e+003, 1.932397e-002
3.116402e+003, 1.983483e-002
3.118331e+003, 1.954897e-002
3.120259e+003, 1.990135e-002
3.122188e+003, 2.014069e-002
3.124116e+003, 1.933135e-002
3.126044e+003, 1.805398e-002
3.127973e+003, 1.763747e-002
3.129901e+003, 1.882704e-002
3.131830e+003, 1.991717e-002
3.133758e+003, 1.926836e-002
3.135687e+003, 1.900505e-002
3.137615e+003, 2.000839e-002
3.139544e+003, 2.017896e-002
3.141472e+003, 2.042039e-002
3.143401e+003, 2.145617e-002
3.145329e+003, 2.185230e-002
3.147258e+003, 2.244938e-002
3.149186e+003, 2.134583e-002
3.151115e+003, 2.015173e-002
3.153043e+003, 2.077582e-002
3.154971e+003, 2.172100e-002
3.156900e+003, 2.126635e-002
3.158828e+003, 1.948010e-002
3.160757e+003, 1.952841e-002
3.162685e+003, 2.028584e-002
3.164614e+003, 2.037116e-002
3.166542e+003, 2.005461e-002
3.168471e+003, 1.974933e-002
3.170399e+003, 2.098214e-002
3.172328e+003, 2.107274e-002
3.174256e+003, 2.173839e-002
3.176185e+003, 2.194171e-002
3.178113e+003, 2.087132e-002
3.180042e+003, 2.124986e-002
3.181970e+003, 2.255486e-002
3.183898e+003, 2.194266e-002
3.185827e+003, 2.066983e-002
3.187755e+003, 2.115437e-002
3.189684e+003, 2.195901e-002
3.191612e+003, 2.233742e-002
3.193541e+003, 2.115596e-002
3.195469e+003, 2.109366e-002
3.197398e+003, 2.109322e-002
3.199326e+003, 2.078979e-002
3.201255e+003, 2.086150e-002
3.203183e+003, 2.051491e-002
3.205112e+003, 2.006526e-002
3.207040e+003, 2.036484e-002
3.208969e+003, 2.169957e-002
3.210897e+003, 2.215158e-002
3.212825e+003, 2.178206e-002
3.214754e+003, 2.095656e-002
3.216682e+003, 2.040783e-002
3.218611e+003, 2.153404e-002
3.220539e+003, 2.283904e-002
3.222468e+003, 2.239227e-002
3.224396e+003, 2.181283e-002
3.226325e+003, 2.156365e-002
3.228253e+003, 2.066745e-002
3.230182e+003, 2.147538e-002
3.232110e+003, 2.228086e-002
3.234039e+003, 2.194453e-002
3.235967e+003, 2.249808e-002
3.237896e+003, 2.309421e-002
3.239824e+003, 2.273617e-002
3.241752e+003, 2.138557e-002
3.243681e+003, 2.058193e-002
3.245609e+003, 2.133827e-002
3.247538e+003, 2.185697e-002
3.249466e+003, 2.131596e-002
3.251395e+003, 2.088583e-002
3.253323e+003, 1.961046e-002
3.255252e+003, 1.956434e-002
3.257180e+003, 2.071188e-002
3.259109e+003, 2.166030e-002
3.261037e+003, 2.140321e-002
3.262966e+003, 2.163660e-002
3.264894e+003, 2.102408e-002
3.266823e+003, 1.968225e-002
3.268751e+003, 2.151738e-002
3.270679e+003, 2.350690e-002
3.272608e+003, 2.286590e-002
3.274536e+003, 2.258667e-002
3.276465e+003, 2.363030e-002
3.278393e+003, 2.463889e-002
3.280322e+003, 2.283670e-002
3.282250e+003, 2.080374e-002
3.284179e+003, 2.138022e-002
3.286107e+003, 2.236720e-002
3.288036e+003, 2.236838e-002
3.289964e+003, 2.077466e-002
3.291893e+003, 2.023090e-002
3.293821e+003, 2.232577e-002
3.295750e+003, 2.371286e-002
3.297678e+003, 2.287900e-002
3.299606e+003, 2.295163e-002
3.301535e+003, 2.412485e-002
3.303463e+003, 2.361746e-002
3.305392e+003, 2.227314e-002
3.307320e+003, 2.187909e-002
3.309249e+003, 2.167499e-002
3.311177e+003, 2.196739e-002
3.313106e+003, 2.349217e-002
3.315034e+003, 2.415840e-002
3.316963e+003, 2.414772e-002
3.318891e+003, 2.411149e-002
3.320820e+003, 2.346495e-002
3.322748e+003, 2.303654e-002
3.324677e+003, 2.318262e-002
3.326605e+003, 2.323415e-002
3.328533e+003, 2.369088e-002
3.330462e+003, 2.388180e-002
3.332390e+003, 2.396666e-002
3.334319e+003, 2.410168e-002
3.336247e+003, 2.240258e-002
3.338176e+003, 2.243900e-002
3.340104e+003, 2.354307e-002
3.342033e+003, 2.355614e-002
3.343961e+003, 2.406228e-002
3.345890e+003, 2.428549e-002
3.347818e+003, 2.404151e-002
3.349747e+003, 2.429023e-002
3.351675e+003, 2.432012e-002
3.353604e+003, 2.520470e-002
3.355532e+003, 2.421927e-002
3.357460e+003, 2.345773e-002
3.359389e+003, 2.434623e-002
3.361317e+003, 2.487258e-002
3.363246e+003, 2.409668e-002
3.365174e+003, 2.362806e-002
3.367103e+003, 2.394707e-002
3.369031e+003, 2.393215e-002
3.370960e+003, 2.418202e-002
3.372888e+003, 2.265308e-002
3.374817e+003, 2.253821e-002
3.376745e+003, 2.248067e-002
3.378674e+003, 2.250267e-002
3.380602e+003, 2.412905e-002
3.382531e+003, 2.427533e-002
3.384459e+003, 2.457110e-002
3.386387e+003, 2.538807e-002
3.388316e+003, 2.504562e-002
3.390244e+003, 2.445900e-002
3.392173e+003, 2.503297e-002
3.394101e+003, 2.470615e-002
3.396030e+003, 2.427108e-002
3.397958e+003, 2.429706e-002
3.399887e+003, 2.502465e-002
3.401815e+003, 2.542119e-002
3.403744e+003, 2.552088e-002
3.405672e+003, 2.568351e-002
3.407601e+003, 2.514078e-002
3.409529e+003, 2.388774e-002
3.411458e+003, 2.329576e-002
3.413386e+003, 2.478625e-002
3.415314e+003, 2.643222e-002
3.417243e+003, 2.507560e-002
3.419171e+003, 2.312659e-002
3.421100e+003, 2.290563e-002
3.423028e+003, 2.444710e-002
3.424957e+003, 2.492818e-002
3.426885e+003, 2.495859e-002
3.428814e+003, 2.522951e-002
3.430742e+003, 2.576222e-002
3.432671e+003, 2.737236e-002
3.434599e+003, 2.646661e-002
3.436528e+003, 2.509454e-002
3.438456e+003, 2.489126e-002
3.440385e+003, 2.411702e-002
3.442313e+003, 2.363181e-002
3.444241e+003, 2.319316e-002
3.446170e+003, 2.342348e-002
3.448098e+003, 2.440911e-002
3.450027e+003, 2.488539e-002
3.451955e+003, 2.450551e-002
3.453884e+003, 2.475599e-002
3.455812e+003, 2.344464e-002
3.457741e+003, 2.212097e-002
3.459669e+003, 2.328041e-002
3.461598e+003, 2.289724e-002
3.463526e+003, 2.352808e-002
3.465455e+003, 2.467116e-002
3.467383e+003, 2.501087e-002
3.469312e+003, 2.541452e-002
3.471240e+003, 2.501469e-002
3.473168e+003, 2.290914e-002
3.475097e+003, 2.305903e-002
3.477025e+003, 2.504505e-002
3.478954e+003, 2.447733e-002
3.480882e+003, 2.381436e-002
3.482811e+003, 2.502413e-002
3.484739e+003, 2.614511e-002
3.486668e+003, 2.551745e-002
3.488596e+003, 2.476252e-002
3.490525e+003, 2.382931e-002
3.492453e+003, 2.178465e-002
3.494382e+003, 2.091773e-002
3.496310e+003, 2.265793e-002
3.498239e+003, 2.565349e-002
3.500167e+003, 2.708624e-002
3.502095e+003, 2.468098e-002
3.504024e+003, 2.234628e-002
3.505952e+003, 2.259107e-002
3.507881e+003, 2.353300e-002
3.509809e+003, 2.342111e-002
3.511738e+003, 2.373131e-002
3.513666e+003, 2.334263e-002
3.515595e+003, 2.382039e-002
3.517523e+003, 2.399194e-002
3.519452e+003, 2.325527e-002
3.521380e+003, 2.340189e-002
3.523309e+003, 2.319195e-002
3.525237e+003, 2.328301e-002
3.527166e+003, 2.343599e-002
3.529094e+003, 2.222060e-002
3.531022e+003, 2.148199e-002
3.532951e+003, 2.159565e-002
3.534879e+003, 2.137799e-002
3.536808e+003, 2.119326e-002
3.538736e+003, 2.195093e-002
3.540665e+003, 2.315264e-002
3.542593e+003, 2.361914e-002
3.544522e+003, 2.413242e-002
3.546450e+003, 2.509007e-002
3.548379e+003, 2.483537e-002
3.550307e+003, 2.382853e-002
3.552236e+003, 2.333288e-002
3.554164e+003, 2.216739e-002
3.556093e+003, 2.199257e-002
3.558021e+003, 2.327734e-002
3.559949e+003, 2.454809e-002
3.561878e+003, 2.525286e-002
3.563806e+003, 2.497068e-002
3.565735e+003, 2.412017e-002
3.567663e+003, 2.432053e-002
3.569592e+003, 2.492230e-002
3.571520e+003, 2.419362e-002
3.573449e+003, 2.432604e-002
3.575377e+003, 2.387321e-002
3.577306e+003, 2.298488e-002
3.579234e+003, 2.313495e-002
3.581163e+003, 2.261210e-002
3.583091e+003, 2.254162e-002
3.585020e+003, 2.272891e-002
3.586948e+003, 2.347026e-002
3.588876e+003, 2.282298e-002
3.590805e+003, 2.316919e-002
3.592733e+003, 2.282004e-002
3.594662e+003, 2.299783e-002
3.596590e+003, 2.308260e-002
3.598519e+003, 2.194386e-002
3.600447e+003, 2.231609e-002
3.602376e+003, 2.405329e-002
3.604304e+003, 2.319868e-002
3.606233e+003, 2.176324e-002
3.608161e+003, 2.306889e-002
3.610090e+003, 2.499856e-002
3.612018e+003, 2.504502e-002
3.613947e+003, 2.336924e-002
3.615875e+003, 2.032806e-002
3.617803e+003, 2.135107e-002
3.619732e+003, 2.262409e-002
3.621660e+003, 2.354263e-002
3.623589e+003, 2.245941e-002
3.625517e+003, 2.043269e-002
3.627446e+003, 2.089373e-002
3.629374e+003, 2.316201e-002
3.631303e+003, 2.443830e-002
3.633231e+003, 2.274132e-002
3.635160e+003, 2.165406e-002
3.637088e+003, 2.120449e-002
3.639017e+003, 2.230881e-002
3.640945e+003, 2.199239e-002
3.642874e+003, 2.245482e-002
3.644802e+003, 2.410046e-002
3.646730e+003, 2.471285e-002
3.648659e+003, 2.499738e-002
3.650587e+003, 2.549386e-002
3.652516e+003, 2.677752e-002
3.654444e+003, 2.748386e-002
3.656373e+003, 2.911787e-002
3.658301e+003, 3.195271e-002
3.660230e+003, 3.159325e-002
3.662158e+003, 2.948304e-002
3.664087e+003, 2.773680e-002
3.666015e+003, 2.817649e-002
3.667944e+003, 2.999407e-002
3.669872e+003, 3.603021e-002
3.671801e+003, 4.190690e-002
3.673729e+003, 4.684453e-002
3.675657e+003, 4.053156e-002
3.677586e+003, 3.026496e-002
3.679514e+003, 2.512820e-002
3.681443e+003, 2.387856e-002
3.683371e+003, 2.236168e-002
3.685300e+003, 2.076400e-002
3.687228e+003, 1.923220e-002
3.689157e+003, 1.916495e-002
3.691085e+003, 2.173542e-002
3.693014e+003, 2.443543e-002
3.694942e+003, 2.230037e-002
3.696871e+003, 2.030279e-002
3.698799e+003, 2.081623e-002
3.700728e+003, 2.051727e-002
3.702656e+003, 1.817447e-002
3.704584e+003, 2.014250e-002
3.706513e+003, 2.265697e-002
3.708441e+003, 2.248663e-002
3.710370e+003, 2.131593e-002
3.712298e+003, 2.132643e-002
3.714227e+003, 2.160233e-002
3.716155e+003, 2.230922e-002
3.718084e+003, 2.070976e-002
3.720012e+003, 2.035893e-002
3.721941e+003, 2.070092e-002
3.723869e+003, 2.266690e-002
3.725798e+003, 2.471505e-002
3.727726e+003, 2.348907e-002
3.729655e+003, 2.255701e-002
3.731583e+003, 2.130351e-002
3.733511e+003, 1.985910e-002
3.735440e+003, 1.915234e-002
3.737368e+003, 2.041691e-002
3.739297e+003, 2.077913e-002
3.741225e+003, 2.019020e-002
3.743154e+003, 2.053774e-002
3.745082e+003, 1.975280e-002
3.747011e+003, 2.091488e-002
3.748939e+003, 2.153514e-002
3.750868e+003, 2.096090e-002
3.752796e+003, 2.099849e-002
3.754725e+003, 2.320339e-002
3.756653e+003, 2.268361e-002
3.758582e+003, 2.114337e-002
3.760510e+003, 2.042481e-002
3.762438e+003, 2.092633e-002
3.764367e+003, 2.280997e-002
3.766295e+003, 2.498491e-002
3.768224e+003, 2.409726e-002
3.770152e+003, 2.275797e-002
3.772081e+003, 2.284690e-002
3.774009e+003, 2.294014e-002
3.775938e+003, 2.335713e-002
3.777866e+003, 2.415617e-002
3.779795e+003, 2.377474e-002
3.781723e+003, 2.454521e-002
3.783652e+003, 2.451316e-002
3.785580e+003, 2.470129e-002
3.787509e+003, 2.363861e-002
3.789437e+003, 2.260147e-002
3.791365e+003, 2.246302e-002
3.793294e+003, 2.286193e-002
3.795222e+003, 2.236165e-002
3.797151e+003, 2.281144e-002
3.799079e+003, 2.449657e-002
3.801008e+003, 2.684790e-002
3.802936e+003, 2.670879e-002
3.804865e+003, 2.438237e-002
3.806793e+003, 2.283500e-002
3.808722e+003, 2.319804e-002
3.810650e+003, 2.449200e-002
3.812579e+003, 2.618782e-002
3.814507e+003, 2.586528e-002
3.816436e+003, 2.507105e-002
3.818364e+003, 2.630554e-002
3.820292e+003, 2.699839e-002
3.822221e+003, 2.529606e-002
3.824149e+003, 2.541065e-002
3.826078e+003, 2.535129e-002
3.828006e+003, 2.376270e-002
3.829935e+003, 2.201954e-002
3.831863e+003, 2.242247e-002
3.833792e+003, 2.534631e-002
3.835720e+003, 2.566085e-002
3.837649e+003, 2.428016e-002
3.839577e+003, 2.400467e-002
3.841506e+003, 2.398195e-002
3.843434e+003, 2.274887e-002
3.845363e+003, 2.196707e-002
3.847291e+003, 2.258615e-002
3.849219e+003, 2.378116e-002
3.851148e+003, 2.348502e-002
3.853076e+003, 2.233869e-002
3.855005e+003, 2.071242e-002
3.856933e+003, 2.027689e-002
3.858862e+003, 2.273881e-002
3.860790e+003, 2.396654e-002
3.862719e+003, 2.349373e-002
3.864647e+003, 2.219098e-002
3.866576e+003, 2.235590e-002
3.868504e+003, 2.333791e-002
3.870433e+003, 2.348570e-002
3.872361e+003, 2.498947e-002
3.874290e+003, 2.459537e-002
3.876218e+003, 2.238479e-002
3.878146e+003, 2.425650e-002
3.880075e+003, 2.458079e-002
3.882003e+003, 2.451175e-002
3.883932e+003, 2.506326e-002
3.885860e+003, 2.481573e-002
3.887789e+003, 2.492190e-002
3.889717e+003, 2.463949e-002
3.891646e+003, 2.430495e-002
3.893574e+003, 2.549639e-002
3.895503e+003, 2.693160e-002
3.897431e+003, 2.686760e-002
3.899360e+003, 2.548906e-002
3.901288e+003, 2.594071e-002
3.903217e+003, 2.487734e-002
3.905145e+003, 2.399860e-002
3.907073e+003, 2.382633e-002
3.909002e+003, 2.242578e-002
3.910930e+003, 2.531148e-002
3.912859e+003, 2.616944e-002
3.914787e+003, 2.606456e-002
3.916716e+003, 2.616641e-002
3.918644e+003, 2.513338e-002
3.920573e+003, 2.349858e-002
3.922501e+003, 2.295821e-002
3.924430e+003, 2.474388e-002
3.926358e+003, 2.491039e-002
3.928287e+003, 2.282773e-002
3.930215e+003, 2.360504e-002
3.932144e+003, 2.513146e-002
3.934072e+003, 2.564280e-002
3.936000e+003, 2.573932e-002
3.937929e+003, 2.457727e-002
3.939857e+003, 2.396610e-002
3.941786e+003, 2.459762e-002
3.943714e+003, 2.601675e-002
3.945643e+003, 2.749382e-002
3.947571e+003, 2.695782e-002
3.949500e+003, 2.563737e-002
3.951428e+003, 2.482834e-002
3.953357e+003, 2.671966e-002
3.955285e+003, 2.621718e-002
3.957214e+003, 2.516809e-002
3.959142e+003, 2.565758e-002
3.961071e+003, 2.547110e-002
3.962999e+003, 2.470497e-002
3.964927e+003, 2.607224e-002
3.966856e+003, 2.834008e-002
3.968784e+003, 2.840488e-002
3.970713e+003, 2.862146e-002
3.972641e+003, 2.792652e-002
3.974570e+003, 2.599847e-002
3.976498e+003, 2.369426e-002
3.978427e+003, 2.248238e-002
3.980355e+003, 2.348566e-002
3.982284e+003, 2.441373e-002
3.984212e+003, 2.608750e-002
3.986141e+003, 2.700921e-002
3.988069e+003, 2.518803e-002
3.989998e+003, 2.524422e-002
3.991926e+003, 2.960582e-002
3.993854e+003, 2.771975e-002
3.995783e+003, 2.278393e-002
3.997711e+003, 2.434116e-002
3.999640e+003, 2.435379e-002
4.001568e+003, 0.000000e+000
##END=



