##NAMES=Albite
##RRUFFID=R040068
##IDEAL CHEMISTRY=NaAlSi_3_O_8_
##LOCALITY=Harding Pegmatite, Dixon, New Mexico, USA
##OWNER=RRUFF
##SOURCE=University of Arizona Mineral Museum
##DESCRIPTION=Tan colored crystal fragment
##STATUS=The identification of this mineral has been confirmed by X-ray diffraction and chemical analysis
##URL=rruff.info/R040068
##MEASURED CHEMISTRY=(Na_0.99_Ca_0.01_)Al_1.00_(Si_0.99_Al_0.01_)_3_O_8_
3.991916e+002, 0.000000e+000
4.011211e+002, 2.125177e-001
4.030506e+002, 2.135153e-001
4.049801e+002, 2.010508e-001
4.069096e+002, 1.956682e-001
4.088391e+002, 1.992226e-001
4.107686e+002, 2.050695e-001
4.126981e+002, 2.100153e-001
4.146276e+002, 2.206945e-001
4.165571e+002, 2.216473e-001
4.184866e+002, 2.089729e-001
4.204161e+002, 1.943388e-001
4.223456e+002, 1.845140e-001
4.242751e+002, 1.744785e-001
4.262046e+002, 1.658382e-001
4.281341e+002, 1.567698e-001
4.300636e+002, 1.468945e-001
4.319931e+002, 1.382713e-001
4.339226e+002, 1.285238e-001
4.358521e+002, 1.182642e-001
4.377816e+002, 1.099167e-001
4.397111e+002, 1.006546e-001
4.416406e+002, 9.142113e-002
4.435701e+002, 8.492851e-002
4.454996e+002, 8.108807e-002
4.474291e+002, 7.817078e-002
4.493586e+002, 7.803440e-002
4.512881e+002, 8.144665e-002
4.532176e+002, 8.997440e-002
4.551471e+002, 1.016979e-001
4.570766e+002, 1.158113e-001
4.590061e+002, 1.311121e-001
4.609356e+002, 1.426239e-001
4.628651e+002, 1.456127e-001
4.647946e+002, 1.404276e-001
4.667241e+002, 1.308098e-001
4.686536e+002, 1.243925e-001
4.705831e+002, 1.234035e-001
4.725126e+002, 1.250296e-001
4.744421e+002, 1.258535e-001
4.763716e+002, 1.215029e-001
4.783011e+002, 1.112938e-001
4.802306e+002, 9.812927e-002
4.821601e+002, 8.506584e-002
4.840896e+002, 7.508945e-002
4.860191e+002, 6.787491e-002
4.879486e+002, 6.288242e-002
4.898781e+002, 5.960274e-002
4.918076e+002, 5.755997e-002
4.937371e+002, 5.697060e-002
4.956666e+002, 5.706024e-002
4.975961e+002, 5.691147e-002
4.995256e+002, 5.714226e-002
5.014551e+002, 5.848598e-002
5.033846e+002, 6.039906e-002
5.053141e+002, 6.234264e-002
5.072436e+002, 6.530094e-002
5.091731e+002, 6.936741e-002
5.111026e+002, 7.400227e-002
5.130322e+002, 7.952023e-002
5.149616e+002, 8.556080e-002
5.168911e+002, 9.288883e-002
5.188206e+002, 1.015644e-001
5.207501e+002, 1.124392e-001
5.226796e+002, 1.251917e-001
5.246091e+002, 1.387243e-001
5.265386e+002, 1.520939e-001
5.284681e+002, 1.606379e-001
5.303976e+002, 1.610994e-001
5.323271e+002, 1.551867e-001
5.342567e+002, 1.431971e-001
5.361862e+002, 1.282578e-001
5.381157e+002, 1.143293e-001
5.400452e+002, 1.024389e-001
5.419747e+002, 9.345627e-002
5.439042e+002, 8.722305e-002
5.458337e+002, 8.346748e-002
5.477631e+002, 8.194065e-002
5.496926e+002, 8.141518e-002
5.516221e+002, 8.176517e-002
5.535516e+002, 8.383274e-002
5.554811e+002, 8.628845e-002
5.574106e+002, 8.946228e-002
5.593401e+002, 9.322071e-002
5.612697e+002, 9.688377e-002
5.631992e+002, 1.013823e-001
5.651287e+002, 1.073027e-001
5.670582e+002, 1.142025e-001
5.689877e+002, 1.207714e-001
5.709172e+002, 1.278334e-001
5.728467e+002, 1.358299e-001
5.747762e+002, 1.442642e-001
5.767057e+002, 1.520309e-001
5.786352e+002, 1.589088e-001
5.805646e+002, 1.639738e-001
5.824941e+002, 1.684217e-001
5.844236e+002, 1.715593e-001
5.863531e+002, 1.725340e-001
5.882827e+002, 1.723795e-001
5.902122e+002, 1.700630e-001
5.921417e+002, 1.659393e-001
5.940712e+002, 1.605215e-001
5.960007e+002, 1.533613e-001
5.979302e+002, 1.458626e-001
5.998597e+002, 1.383801e-001
6.017892e+002, 1.314020e-001
6.037187e+002, 1.265316e-001
6.056482e+002, 1.237497e-001
6.075777e+002, 1.214972e-001
6.095072e+002, 1.179733e-001
6.114367e+002, 1.112986e-001
6.133661e+002, 1.022282e-001
6.152957e+002, 9.203053e-002
6.172252e+002, 8.145142e-002
6.191547e+002, 7.179737e-002
6.210842e+002, 6.366920e-002
6.230137e+002, 5.695724e-002
6.249432e+002, 5.162048e-002
6.268727e+002, 4.791927e-002
6.288022e+002, 4.600430e-002
6.307317e+002, 4.518223e-002
6.326612e+002, 4.567909e-002
6.345907e+002, 4.746532e-002
6.365202e+002, 5.086613e-002
6.384497e+002, 5.632114e-002
6.403792e+002, 6.362724e-002
6.423087e+002, 7.333469e-002
6.442382e+002, 8.584213e-002
6.461677e+002, 9.824085e-002
6.480972e+002, 1.055231e-001
6.500267e+002, 1.048307e-001
6.519562e+002, 9.668732e-002
6.538857e+002, 8.396053e-002
6.558152e+002, 7.084560e-002
6.577447e+002, 5.893326e-002
6.596742e+002, 4.904747e-002
6.616037e+002, 4.184151e-002
6.635332e+002, 3.675461e-002
6.654627e+002, 3.330517e-002
6.673922e+002, 3.142071e-002
6.693217e+002, 2.990437e-002
6.712512e+002, 2.886105e-002
6.731807e+002, 2.825642e-002
6.751102e+002, 2.804661e-002
6.770397e+002, 2.835560e-002
6.789692e+002, 2.850723e-002
6.808987e+002, 2.880192e-002
6.828282e+002, 2.943134e-002
6.847577e+002, 2.980232e-002
6.866872e+002, 3.045845e-002
6.886167e+002, 3.157139e-002
6.905462e+002, 3.283691e-002
6.924757e+002, 3.435040e-002
6.944052e+002, 3.563404e-002
6.963347e+002, 3.695774e-002
6.982642e+002, 3.803825e-002
7.001937e+002, 3.903294e-002
7.021232e+002, 4.095745e-002
7.040527e+002, 4.361820e-002
7.059822e+002, 4.663181e-002
7.079117e+002, 5.017662e-002
7.098412e+002, 5.450726e-002
7.117708e+002, 5.995655e-002
7.137002e+002, 6.666660e-002
7.156297e+002, 7.457829e-002
7.175592e+002, 8.349514e-002
7.194887e+002, 9.249401e-002
7.214182e+002, 9.961319e-002
7.233477e+002, 1.019468e-001
7.252772e+002, 9.777164e-002
7.272067e+002, 8.860779e-002
7.291362e+002, 7.901859e-002
7.310657e+002, 7.322407e-002
7.329952e+002, 7.242680e-002
7.349247e+002, 7.608128e-002
7.368542e+002, 8.384800e-002
7.387838e+002, 9.426308e-002
7.407133e+002, 1.042080e-001
7.426428e+002, 1.106205e-001
7.445723e+002, 1.107883e-001
7.465017e+002, 1.048841e-001
7.484312e+002, 9.610939e-002
7.503607e+002, 8.832264e-002
7.522902e+002, 8.460331e-002
7.542197e+002, 8.662605e-002
7.561492e+002, 9.395027e-002
7.580787e+002, 1.036558e-001
7.600082e+002, 1.109667e-001
7.619377e+002, 1.111879e-001
7.638672e+002, 1.028557e-001
7.657968e+002, 8.933544e-002
7.677263e+002, 7.506657e-002
7.696558e+002, 6.326866e-002
7.715853e+002, 5.595684e-002
7.735148e+002, 5.266476e-002
7.754443e+002, 5.238533e-002
7.773738e+002, 5.465698e-002
7.793032e+002, 5.930901e-002
7.812327e+002, 6.647110e-002
7.831622e+002, 7.571220e-002
7.850917e+002, 8.489513e-002
7.870212e+002, 8.977699e-002
7.889507e+002, 8.642101e-002
7.908802e+002, 7.529068e-002
7.928098e+002, 6.139755e-002
7.947393e+002, 5.027199e-002
7.966688e+002, 4.289627e-002
7.985983e+002, 3.802586e-002
8.005278e+002, 3.483772e-002
8.024573e+002, 3.252411e-002
8.043868e+002, 3.040504e-002
8.063163e+002, 2.852917e-002
8.082458e+002, 2.720261e-002
8.101753e+002, 2.624416e-002
8.121047e+002, 2.570724e-002
8.140342e+002, 2.545643e-002
8.159637e+002, 2.534008e-002
8.178932e+002, 2.539635e-002
8.198228e+002, 2.568436e-002
8.217523e+002, 2.592564e-002
8.236818e+002, 2.615261e-002
8.256113e+002, 2.648163e-002
8.275408e+002, 2.699184e-002
8.294703e+002, 2.750397e-002
8.313998e+002, 2.793598e-002
8.333293e+002, 2.830601e-002
8.352588e+002, 2.847576e-002
8.371883e+002, 2.887440e-002
8.391178e+002, 2.928448e-002
8.410473e+002, 2.970409e-002
8.429768e+002, 3.008556e-002
8.449063e+002, 3.044796e-002
8.468358e+002, 3.117466e-002
8.487653e+002, 3.199100e-002
8.506948e+002, 3.295326e-002
8.526243e+002, 3.401184e-002
8.545538e+002, 3.494072e-002
8.564833e+002, 3.614426e-002
8.584128e+002, 3.753281e-002
8.603423e+002, 3.873634e-002
8.622718e+002, 3.992748e-002
8.642013e+002, 4.133415e-002
8.661308e+002, 4.280853e-002
8.680603e+002, 4.460144e-002
8.699898e+002, 4.625416e-002
8.719193e+002, 4.789543e-002
8.738488e+002, 5.008221e-002
8.757783e+002, 5.214596e-002
8.777078e+002, 5.393696e-002
8.796373e+002, 5.592251e-002
8.815668e+002, 5.807590e-002
8.834963e+002, 6.023598e-002
8.854258e+002, 6.247139e-002
8.873553e+002, 6.501389e-002
8.892848e+002, 6.763840e-002
8.912143e+002, 7.037544e-002
8.931438e+002, 7.329750e-002
8.950733e+002, 7.639503e-002
8.970028e+002, 7.983112e-002
8.989323e+002, 8.328152e-002
9.008618e+002, 8.702850e-002
9.027913e+002, 9.102631e-002
9.047208e+002, 9.526539e-002
9.066503e+002, 9.937954e-002
9.085798e+002, 1.035748e-001
9.105093e+002, 1.080551e-001
9.124388e+002, 1.127253e-001
9.143683e+002, 1.177311e-001
9.162978e+002, 1.230793e-001
9.182273e+002, 1.286526e-001
9.201568e+002, 1.341696e-001
9.220863e+002, 1.401262e-001
9.240158e+002, 1.462955e-001
9.259453e+002, 1.527328e-001
9.278748e+002, 1.593628e-001
9.298043e+002, 1.661749e-001
9.317338e+002, 1.734343e-001
9.336633e+002, 1.810226e-001
9.355928e+002, 1.887379e-001
9.375223e+002, 1.965513e-001
9.394518e+002, 2.047844e-001
9.413813e+002, 2.136574e-001
9.433108e+002, 2.227859e-001
9.452403e+002, 2.320967e-001
9.471698e+002, 2.421761e-001
9.490993e+002, 2.525187e-001
9.510288e+002, 2.632895e-001
9.529583e+002, 2.743235e-001
9.548878e+002, 2.852831e-001
9.568173e+002, 2.962790e-001
9.587468e+002, 3.073530e-001
9.606763e+002, 3.183765e-001
9.626058e+002, 3.289900e-001
9.645353e+002, 3.396616e-001
9.664648e+002, 3.507357e-001
9.683943e+002, 3.623285e-001
9.703239e+002, 3.729811e-001
9.722534e+002, 3.823061e-001
9.741829e+002, 3.905821e-001
9.761123e+002, 3.974771e-001
9.780418e+002, 4.028530e-001
9.799713e+002, 4.064789e-001
9.819008e+002, 4.088898e-001
9.838303e+002, 4.104509e-001
9.857598e+002, 4.107342e-001
9.876893e+002, 4.097338e-001
9.896188e+002, 4.077759e-001
9.915483e+002, 4.046040e-001
9.934778e+002, 4.004030e-001
9.954073e+002, 3.951902e-001
9.973369e+002, 3.888216e-001
9.992664e+002, 3.818970e-001
1.001196e+003, 3.746195e-001
1.003125e+003, 3.671408e-001
1.005055e+003, 3.594694e-001
1.006984e+003, 3.517246e-001
1.008914e+003, 3.441448e-001
1.010843e+003, 3.372478e-001
1.012773e+003, 3.309317e-001
1.014702e+003, 3.250942e-001
1.016632e+003, 3.203344e-001
1.018561e+003, 3.161154e-001
1.020491e+003, 3.127451e-001
1.022420e+003, 3.109894e-001
1.024350e+003, 3.108234e-001
1.026279e+003, 3.114519e-001
1.028209e+003, 3.118734e-001
1.030138e+003, 3.107347e-001
1.032068e+003, 3.077002e-001
1.033997e+003, 3.017788e-001
1.035927e+003, 2.923317e-001
1.037856e+003, 2.804222e-001
1.039786e+003, 2.668171e-001
1.041715e+003, 2.525425e-001
1.043645e+003, 2.382145e-001
1.045574e+003, 2.244539e-001
1.047504e+003, 2.116165e-001
1.049433e+003, 1.997519e-001
1.051363e+003, 1.893339e-001
1.053292e+003, 1.806450e-001
1.055222e+003, 1.735525e-001
1.057151e+003, 1.677752e-001
1.059081e+003, 1.632605e-001
1.061010e+003, 1.596336e-001
1.062940e+003, 1.566267e-001
1.064869e+003, 1.543217e-001
1.066799e+003, 1.523314e-001
1.068728e+003, 1.503639e-001
1.070658e+003, 1.488829e-001
1.072587e+003, 1.479044e-001
1.074517e+003, 1.470470e-001
1.076446e+003, 1.468010e-001
1.078376e+003, 1.470785e-001
1.080305e+003, 1.482801e-001
1.082235e+003, 1.507177e-001
1.084164e+003, 1.548271e-001
1.086094e+003, 1.604481e-001
1.088023e+003, 1.670103e-001
1.089953e+003, 1.742487e-001
1.091882e+003, 1.809015e-001
1.093812e+003, 1.856432e-001
1.095741e+003, 1.877947e-001
1.097671e+003, 1.872234e-001
1.099600e+003, 1.844845e-001
1.101530e+003, 1.806660e-001
1.103459e+003, 1.767006e-001
1.105389e+003, 1.733074e-001
1.107318e+003, 1.700697e-001
1.109248e+003, 1.669149e-001
1.111177e+003, 1.637363e-001
1.113107e+003, 1.606064e-001
1.115036e+003, 1.576557e-001
1.116966e+003, 1.548080e-001
1.118895e+003, 1.527920e-001
1.120825e+003, 1.513882e-001
1.122754e+003, 1.505508e-001
1.124684e+003, 1.503763e-001
1.126613e+003, 1.506376e-001
1.128543e+003, 1.513157e-001
1.130472e+003, 1.525106e-001
1.132402e+003, 1.543074e-001
1.134331e+003, 1.564598e-001
1.136261e+003, 1.586676e-001
1.138190e+003, 1.609049e-001
1.140120e+003, 1.631508e-001
1.142049e+003, 1.651306e-001
1.143979e+003, 1.664667e-001
1.145908e+003, 1.673460e-001
1.147838e+003, 1.678495e-001
1.149767e+003, 1.677313e-001
1.151697e+003, 1.666241e-001
1.153626e+003, 1.645260e-001
1.155556e+003, 1.616459e-001
1.157485e+003, 1.574221e-001
1.159415e+003, 1.522303e-001
1.161344e+003, 1.464262e-001
1.163274e+003, 1.398706e-001
1.165203e+003, 1.329031e-001
1.167133e+003, 1.260099e-001
1.169062e+003, 1.191854e-001
1.170992e+003, 1.123781e-001
1.172921e+003, 1.062250e-001
1.174851e+003, 1.003866e-001
1.176780e+003, 9.477711e-002
1.178710e+003, 8.920670e-002
1.180639e+003, 8.415413e-002
1.182569e+003, 7.931900e-002
1.184498e+003, 7.446957e-002
1.186428e+003, 6.983089e-002
1.188357e+003, 6.540585e-002
1.190287e+003, 6.096363e-002
1.192216e+003, 5.673790e-002
1.194146e+003, 5.275059e-002
1.196075e+003, 4.900837e-002
1.198005e+003, 4.563808e-002
1.199934e+003, 4.245853e-002
1.201864e+003, 3.951168e-002
1.203793e+003, 3.668022e-002
1.205723e+003, 3.403282e-002
1.207652e+003, 3.175735e-002
1.209582e+003, 2.950764e-002
1.211511e+003, 2.738762e-002
1.213441e+003, 2.532578e-002
1.215370e+003, 2.315426e-002
1.217300e+003, 2.112198e-002
1.219229e+003, 1.948833e-002
1.221159e+003, 1.819706e-002
1.223088e+003, 1.685333e-002
1.225018e+003, 1.564598e-002
1.226947e+003, 1.480198e-002
1.228877e+003, 1.400089e-002
1.230806e+003, 1.320553e-002
1.232736e+003, 1.241589e-002
1.234665e+003, 1.167679e-002
1.236595e+003, 1.107407e-002
1.238524e+003, 1.049805e-002
1.240454e+003, 9.978294e-003
1.242383e+003, 9.555817e-003
1.244313e+003, 9.077072e-003
1.246242e+003, 8.671761e-003
1.248172e+003, 8.262634e-003
1.250101e+003, 7.669449e-003
1.252031e+003, 7.124901e-003
1.253960e+003, 6.843567e-003
1.255890e+003, 6.715775e-003
1.257819e+003, 6.456375e-003
1.259749e+003, 6.044388e-003
1.261678e+003, 5.774498e-003
1.263608e+003, 5.780220e-003
1.265537e+003, 5.762100e-003
1.267467e+003, 5.438805e-003
1.269396e+003, 5.059242e-003
1.271326e+003, 4.785538e-003
1.273255e+003, 4.666328e-003
1.275185e+003, 4.566193e-003
1.277115e+003, 4.479408e-003
1.279044e+003, 4.240036e-003
1.280974e+003, 4.081726e-003
1.282903e+003, 4.012108e-003
1.284833e+003, 3.875732e-003
1.286762e+003, 3.842354e-003
1.288691e+003, 3.720284e-003
1.290621e+003, 3.555298e-003
1.292550e+003, 3.453255e-003
1.294480e+003, 3.431320e-003
1.296409e+003, 3.284454e-003
1.298339e+003, 3.170013e-003
1.300268e+003, 3.235817e-003
1.302198e+003, 3.108978e-003
1.304127e+003, 2.871513e-003
1.306057e+003, 2.851486e-003
1.307986e+003, 2.880096e-003
1.309916e+003, 2.823830e-003
1.311845e+003, 2.843857e-003
1.313775e+003, 2.813339e-003
1.315704e+003, 2.868652e-003
1.317634e+003, 3.046036e-003
1.319563e+003, 3.029823e-003
1.321493e+003, 2.870560e-003
1.323422e+003, 2.850533e-003
1.325352e+003, 2.768517e-003
1.327281e+003, 2.620697e-003
1.329211e+003, 2.523422e-003
1.331141e+003, 2.540588e-003
1.333070e+003, 2.504349e-003
1.335000e+003, 2.511978e-003
1.336929e+003, 2.745628e-003
1.338859e+003, 2.552986e-003
1.340788e+003, 2.285957e-003
1.342718e+003, 2.376556e-003
1.344647e+003, 2.463341e-003
1.346577e+003, 2.447128e-003
1.348506e+003, 2.391815e-003
1.350436e+003, 2.372742e-003
1.352365e+003, 2.539635e-003
1.354294e+003, 2.598763e-003
1.356224e+003, 2.419472e-003
1.358153e+003, 2.388954e-003
1.360083e+003, 2.468109e-003
1.362012e+003, 2.530098e-003
1.363942e+003, 2.607346e-003
1.365871e+003, 2.760887e-003
1.367801e+003, 2.567291e-003
1.369730e+003, 2.353668e-003
1.371660e+003, 2.302170e-003
1.373589e+003, 2.264023e-003
1.375519e+003, 2.237320e-003
1.377448e+003, 2.348900e-003
1.379378e+003, 2.392769e-003
1.381307e+003, 2.453804e-003
1.383237e+003, 2.419472e-003
1.385167e+003, 2.367020e-003
1.387096e+003, 2.370834e-003
1.389026e+003, 2.449036e-003
1.390955e+003, 2.430916e-003
1.392885e+003, 2.306938e-003
1.394814e+003, 2.234459e-003
1.396744e+003, 2.205849e-003
1.398673e+003, 2.116203e-003
1.400603e+003, 2.054214e-003
1.402532e+003, 2.322197e-003
1.404462e+003, 2.532005e-003
1.406391e+003, 2.419472e-003
1.408321e+003, 2.392769e-003
1.410250e+003, 2.313614e-003
1.412180e+003, 2.313614e-003
1.414109e+003, 2.322197e-003
1.416039e+003, 2.322197e-003
1.417968e+003, 2.286911e-003
1.419898e+003, 2.333641e-003
1.421827e+003, 2.413750e-003
1.423756e+003, 2.281189e-003
1.425686e+003, 2.124786e-003
1.427615e+003, 2.401352e-003
1.429545e+003, 2.463341e-003
1.431474e+003, 2.355576e-003
1.433404e+003, 2.236366e-003
1.435333e+003, 2.237320e-003
1.437263e+003, 2.364159e-003
1.439193e+003, 2.483368e-003
1.441122e+003, 2.571106e-003
1.443052e+003, 2.648354e-003
1.444981e+003, 2.647400e-003
1.446911e+003, 2.455711e-003
1.448840e+003, 2.361298e-003
1.450770e+003, 2.550125e-003
1.452699e+003, 2.569199e-003
1.454629e+003, 2.366066e-003
1.456558e+003, 2.117157e-003
1.458488e+003, 2.272606e-003
1.460417e+003, 2.519608e-003
1.462347e+003, 2.669334e-003
1.464276e+003, 2.518654e-003
1.466206e+003, 2.383232e-003
1.468135e+003, 2.458572e-003
1.470065e+003, 2.520561e-003
1.471994e+003, 2.346992e-003
1.473924e+003, 2.281189e-003
1.475853e+003, 2.471924e-003
1.477783e+003, 2.332687e-003
1.479712e+003, 2.263069e-003
1.481642e+003, 2.290726e-003
1.483571e+003, 2.429008e-003
1.485501e+003, 2.483368e-003
1.487430e+003, 2.168655e-003
1.489359e+003, 1.941681e-003
1.491289e+003, 1.997948e-003
1.493219e+003, 2.162933e-003
1.495148e+003, 2.040863e-003
1.497078e+003, 1.865387e-003
1.499007e+003, 2.120018e-003
1.500937e+003, 2.237320e-003
1.502866e+003, 2.231598e-003
1.504796e+003, 2.037048e-003
1.506725e+003, 1.520157e-003
1.508655e+003, 1.703262e-003
1.510584e+003, 2.124786e-003
1.512514e+003, 2.198219e-003
1.514443e+003, 2.168655e-003
1.516373e+003, 2.099037e-003
1.518302e+003, 2.056122e-003
1.520232e+003, 2.088547e-003
1.522161e+003, 2.173424e-003
1.524091e+003, 2.439499e-003
1.526020e+003, 2.476692e-003
1.527950e+003, 2.324104e-003
1.529879e+003, 2.333641e-003
1.531809e+003, 2.429962e-003
1.533738e+003, 2.489090e-003
1.535668e+003, 2.718925e-003
1.537597e+003, 2.435684e-003
1.539527e+003, 2.013206e-003
1.541456e+003, 2.128601e-003
1.543386e+003, 2.202034e-003
1.545315e+003, 2.478600e-003
1.547245e+003, 2.736092e-003
1.549174e+003, 2.743721e-003
1.551104e+003, 2.772331e-003
1.553033e+003, 2.970695e-003
1.554963e+003, 2.976418e-003
1.556892e+003, 2.921104e-003
1.558822e+003, 2.582550e-003
1.560751e+003, 2.614021e-003
1.562681e+003, 3.014565e-003
1.564610e+003, 3.142357e-003
1.566540e+003, 3.143311e-003
1.568469e+003, 3.088951e-003
1.570399e+003, 3.124237e-003
1.572328e+003, 3.273964e-003
1.574258e+003, 3.244400e-003
1.576187e+003, 2.960205e-003
1.578117e+003, 3.227234e-003
1.580046e+003, 3.428459e-003
1.581976e+003, 3.466606e-003
1.583905e+003, 3.742218e-003
1.585835e+003, 4.039764e-003
1.587764e+003, 4.100800e-003
1.589694e+003, 3.992081e-003
1.591623e+003, 3.905296e-003
1.593553e+003, 4.013062e-003
1.595482e+003, 4.328728e-003
1.597412e+003, 4.380226e-003
1.599341e+003, 4.180908e-003
1.601271e+003, 4.148483e-003
1.603200e+003, 4.355431e-003
1.605130e+003, 4.373550e-003
1.607059e+003, 4.359245e-003
1.608989e+003, 4.468918e-003
1.610918e+003, 4.596710e-003
1.612848e+003, 4.554749e-003
1.614777e+003, 4.650116e-003
1.616707e+003, 4.555702e-003
1.618636e+003, 4.533768e-003
1.620566e+003, 4.661560e-003
1.622495e+003, 4.472733e-003
1.624425e+003, 4.405975e-003
1.626354e+003, 4.715919e-003
1.628284e+003, 4.778862e-003
1.630213e+003, 4.835129e-003
1.632143e+003, 4.871368e-003
1.634072e+003, 4.467010e-003
1.636002e+003, 4.194260e-003
1.637931e+003, 4.410744e-003
1.639861e+003, 4.437447e-003
1.641790e+003, 4.457474e-003
1.643720e+003, 4.497528e-003
1.645649e+003, 4.246712e-003
1.647579e+003, 4.291534e-003
1.649508e+003, 4.330635e-003
1.651438e+003, 4.212379e-003
1.653367e+003, 3.971100e-003
1.655297e+003, 4.179955e-003
1.657226e+003, 4.110336e-003
1.659156e+003, 4.035950e-003
1.661085e+003, 4.059792e-003
1.663015e+003, 4.002571e-003
1.664944e+003, 3.989220e-003
1.666874e+003, 3.811836e-003
1.668803e+003, 3.933907e-003
1.670733e+003, 4.115105e-003
1.672662e+003, 3.960609e-003
1.674592e+003, 3.726959e-003
1.676521e+003, 3.629684e-003
1.678451e+003, 3.609657e-003
1.680380e+003, 3.506660e-003
1.682310e+003, 3.520012e-003
1.684239e+003, 3.485680e-003
1.686169e+003, 3.475189e-003
1.688098e+003, 3.515244e-003
1.690028e+003, 3.615379e-003
1.691957e+003, 3.653526e-003
1.693887e+003, 3.473282e-003
1.695816e+003, 2.972603e-003
1.697746e+003, 2.898216e-003
1.699675e+003, 2.714157e-003
1.701605e+003, 2.737045e-003
1.703534e+003, 3.251076e-003
1.705464e+003, 3.373146e-003
1.707393e+003, 3.232002e-003
1.709323e+003, 3.044128e-003
1.711252e+003, 3.081322e-003
1.713182e+003, 2.963066e-003
1.715111e+003, 2.924919e-003
1.717041e+003, 2.903938e-003
1.718970e+003, 2.868652e-003
1.720900e+003, 3.123283e-003
1.722829e+003, 3.445625e-003
1.724759e+003, 3.497124e-003
1.726688e+003, 3.547668e-003
1.728618e+003, 3.696442e-003
1.730547e+003, 3.424644e-003
1.732477e+003, 3.037453e-003
1.734406e+003, 2.627373e-003
1.736336e+003, 2.493858e-003
1.738265e+003, 2.661705e-003
1.740195e+003, 2.542496e-003
1.742124e+003, 2.733231e-003
1.744054e+003, 2.976418e-003
1.745983e+003, 3.085136e-003
1.747913e+003, 3.149986e-003
1.749842e+003, 3.287315e-003
1.751772e+003, 3.295898e-003
1.753701e+003, 3.144264e-003
1.755631e+003, 3.172874e-003
1.757560e+003, 3.096581e-003
1.759490e+003, 3.134727e-003
1.761419e+003, 3.250122e-003
1.763349e+003, 3.284454e-003
1.765278e+003, 3.180504e-003
1.767208e+003, 3.140450e-003
1.769137e+003, 3.129959e-003
1.771067e+003, 3.064156e-003
1.772996e+003, 2.815247e-003
1.774926e+003, 2.715111e-003
1.776855e+003, 2.877235e-003
1.778785e+003, 3.119469e-003
1.780714e+003, 3.069878e-003
1.782644e+003, 3.026962e-003
1.784573e+003, 2.769470e-003
1.786503e+003, 2.781868e-003
1.788432e+003, 2.958298e-003
1.790362e+003, 2.943039e-003
1.792291e+003, 2.953529e-003
1.794221e+003, 2.913475e-003
1.796150e+003, 2.928734e-003
1.798080e+003, 2.774239e-003
1.800009e+003, 2.454758e-003
1.801939e+003, 2.183914e-003
1.803868e+003, 1.993179e-003
1.805798e+003, 2.095222e-003
1.807727e+003, 2.437592e-003
1.809657e+003, 2.346992e-003
1.811586e+003, 2.280235e-003
1.813516e+003, 2.269745e-003
1.815445e+003, 2.167702e-003
1.817375e+003, 2.010345e-003
1.819304e+003, 1.967430e-003
1.821234e+003, 2.007484e-003
1.823163e+003, 2.268791e-003
1.825093e+003, 2.686501e-003
1.827022e+003, 2.486229e-003
1.828952e+003, 1.891136e-003
1.830881e+003, 1.798630e-003
1.832811e+003, 1.827240e-003
1.834740e+003, 1.645088e-003
1.836670e+003, 1.553535e-003
1.838599e+003, 1.472473e-003
1.840529e+003, 9.775162e-004
1.842458e+003, 1.102448e-003
1.844388e+003, 1.075745e-003
1.846317e+003, 7.190704e-004
1.848247e+003, 1.134872e-003
1.850176e+003, 1.623154e-003
1.852106e+003, 1.320839e-003
1.854035e+003, 1.116753e-003
1.855965e+003, 1.105309e-003
1.857894e+003, 7.629395e-004
1.859824e+003, 4.758835e-004
1.861753e+003, 2.193451e-005
1.863683e+003, 3.423691e-004
1.865612e+003, 3.576279e-004
1.867542e+003, 4.739761e-004
1.869471e+003, 2.937317e-004
1.871401e+003, -1.840591e-004
1.873330e+003, -3.242493e-005
1.875260e+003, 2.431870e-004
1.877189e+003, 9.536743e-006
1.879119e+003, 2.775192e-004
1.881048e+003, 5.397797e-004
1.882978e+003, 2.002716e-004
1.884907e+003, -3.986359e-004
1.886837e+003, -3.299713e-004
1.888766e+003, 1.668930e-004
1.890696e+003, -3.910065e-005
1.892625e+003, -4.673004e-004
1.894555e+003, -4.968643e-004
1.896484e+003, -7.762909e-004
1.898414e+003, -1.068115e-003
1.900343e+003, -7.743835e-004
1.902273e+003, -5.807877e-004
1.904202e+003, -1.086235e-003
1.906132e+003, -1.672745e-003
1.908061e+003, -1.184464e-003
1.909991e+003, -7.228851e-004
1.911920e+003, -8.382797e-004
1.913850e+003, -1.697540e-003
1.915779e+003, -2.166748e-003
1.917709e+003, -1.158714e-003
1.919638e+003, -1.381874e-003
1.921568e+003, -1.761436e-003
1.923497e+003, -1.996994e-003
1.925427e+003, -2.676010e-003
1.927356e+003, -2.305984e-003
1.929286e+003, -2.728462e-003
1.931215e+003, -3.940582e-003
1.933145e+003, -3.506660e-003
1.935074e+003, -2.915382e-003
1.937004e+003, -3.323555e-003
1.938933e+003, -4.855156e-003
1.940863e+003, -5.722046e-003
1.942792e+003, -5.067825e-003
1.944722e+003, -4.007339e-003
1.946651e+003, -3.904343e-003
1.948581e+003, -4.202843e-003
1.950510e+003, -5.071640e-003
1.952440e+003, -5.661964e-003
1.954369e+003, -6.491661e-003
1.956299e+003, -8.135796e-003
1.958228e+003, -9.223938e-003
1.960158e+003, -8.638382e-003
1.962087e+003, -7.712364e-003
1.964017e+003, -7.306099e-003
1.965946e+003, -7.560730e-003
1.967876e+003, -7.518768e-003
1.969805e+003, -7.760048e-003
1.971735e+003, -9.030342e-003
1.973664e+003, -9.828568e-003
1.975594e+003, -9.721756e-003
1.977523e+003, -9.780884e-003
1.979453e+003, -9.093285e-003
1.981382e+003, -7.446289e-003
1.983312e+003, -7.256508e-003
1.985241e+003, -8.277893e-003
1.987171e+003, -7.603645e-003
1.989100e+003, -7.645607e-003
1.991030e+003, -7.315636e-003
1.992959e+003, -7.346153e-003
1.994889e+003, -6.516457e-003
1.996818e+003, -6.185532e-003
1.998748e+003, -6.269455e-003
2.000677e+003, -7.520676e-003
2.002607e+003, -9.464264e-003
2.004536e+003, -1.091480e-002
2.006466e+003, -1.032639e-002
2.008395e+003, -8.334160e-003
2.010325e+003, -7.954597e-003
2.012254e+003, -9.081841e-003
2.014184e+003, -1.052856e-002
2.016113e+003, -1.030636e-002
2.018043e+003, -1.039886e-002
2.019972e+003, -1.027584e-002
2.021902e+003, -9.928703e-003
2.023831e+003, -1.038456e-002
2.025761e+003, -8.542061e-003
2.027690e+003, -7.887840e-003
2.029620e+003, -8.853912e-003
2.031549e+003, -9.608269e-003
2.033479e+003, -9.007454e-003
2.035408e+003, -7.872581e-003
2.037338e+003, -7.517815e-003
2.039267e+003, -7.542610e-003
2.041197e+003, -7.863998e-003
2.043126e+003, -7.590294e-003
2.045056e+003, -6.575584e-003
2.046985e+003, -6.385803e-003
2.048915e+003, -6.413460e-003
2.050844e+003, -5.243301e-003
2.052774e+003, -4.399300e-003
2.054703e+003, -4.203796e-003
2.056633e+003, -4.623413e-003
2.058562e+003, -5.374908e-003
2.060492e+003, -5.046844e-003
2.062421e+003, -3.435135e-003
2.064351e+003, -4.320145e-003
2.066280e+003, -4.361153e-003
2.068210e+003, -2.955437e-003
2.070139e+003, -2.986908e-003
2.072069e+003, -3.518105e-003
2.073998e+003, -3.777504e-003
2.075928e+003, -3.516197e-003
2.077857e+003, -3.428459e-003
2.079787e+003, -3.293991e-003
2.081716e+003, -3.077507e-003
2.083646e+003, -2.321243e-003
2.085575e+003, -1.855850e-003
2.087505e+003, -2.842903e-003
2.089434e+003, -3.050804e-003
2.091364e+003, -2.391815e-003
2.093293e+003, -2.802849e-003
2.095223e+003, -2.459526e-003
2.097152e+003, -2.741814e-003
2.099082e+003, -3.117561e-003
2.101011e+003, -3.493309e-003
2.102941e+003, -2.508163e-003
2.104870e+003, -2.733231e-003
2.106800e+003, -2.302170e-003
2.108729e+003, -2.250671e-003
2.110659e+003, -1.877785e-003
2.112588e+003, -1.751900e-003
2.114518e+003, -1.516342e-003
2.116447e+003, -1.701355e-003
2.118377e+003, -2.512932e-003
2.120306e+003, -3.751755e-003
2.122236e+003, -3.421783e-003
2.124165e+003, -2.847672e-003
2.126095e+003, -3.917694e-003
2.128024e+003, -3.889084e-003
2.129954e+003, -3.168106e-003
2.131883e+003, -4.831314e-003
2.133813e+003, -6.322861e-003
2.135742e+003, -5.967140e-003
2.137672e+003, -5.337715e-003
2.139601e+003, -5.330086e-003
2.141531e+003, -4.615784e-003
2.143460e+003, -4.142761e-003
2.145390e+003, -4.768372e-003
2.147319e+003, -6.712914e-003
2.149249e+003, -7.499695e-003
2.151178e+003, -8.432388e-003
2.153108e+003, -1.017475e-002
2.155037e+003, -1.214027e-002
2.156967e+003, -1.410198e-002
2.158896e+003, -1.253605e-002
2.160826e+003, -8.399963e-003
2.162755e+003, -6.039619e-003
2.164685e+003, -4.140854e-003
2.166614e+003, -5.251884e-003
2.168544e+003, -4.666328e-003
2.170473e+003, -4.323006e-003
2.172403e+003, -6.784439e-003
2.174332e+003, -7.321358e-003
2.176262e+003, -5.093575e-003
2.178191e+003, -5.789757e-003
2.180121e+003, -7.642746e-003
2.182050e+003, -7.524490e-003
2.183980e+003, -6.496429e-003
2.185909e+003, -5.850792e-003
2.187839e+003, -5.085945e-003
2.189768e+003, -5.941391e-003
2.191698e+003, -6.814003e-003
2.193627e+003, -5.505562e-003
2.195557e+003, -4.776001e-003
2.197486e+003, -5.339622e-003
2.199416e+003, -5.315781e-003
2.201345e+003, -4.744530e-003
2.203275e+003, -3.991127e-003
2.205204e+003, -4.424095e-003
2.207134e+003, -4.529953e-003
2.209063e+003, -4.452705e-003
2.210993e+003, -3.633499e-003
2.212922e+003, -3.107071e-003
2.214852e+003, -4.052162e-003
2.216781e+003, -4.023552e-003
2.218711e+003, -2.358437e-003
2.220640e+003, -2.044678e-003
2.222570e+003, -2.120972e-003
2.224499e+003, -2.469063e-003
2.226429e+003, -3.514290e-003
2.228358e+003, -2.874374e-003
2.230288e+003, -2.475739e-003
2.232217e+003, -3.511429e-003
2.234147e+003, -3.888130e-003
2.236076e+003, -2.487183e-003
2.238006e+003, -1.788139e-003
2.239935e+003, -1.143456e-003
2.241865e+003, -8.249283e-004
2.243794e+003, -1.674652e-003
2.245724e+003, -2.393723e-003
2.247653e+003, -3.315926e-003
2.249583e+003, -3.246307e-003
2.251512e+003, -2.180099e-003
2.253442e+003, -1.057625e-003
2.255371e+003, -3.032684e-004
2.257301e+003, -1.055717e-003
2.259230e+003, -1.134872e-003
2.261160e+003, -1.411438e-003
2.263089e+003, -2.060890e-003
2.265019e+003, -8.487701e-004
2.266948e+003, -4.253387e-004
2.268878e+003, -8.602142e-004
2.270807e+003, -5.235672e-004
2.272737e+003, -1.001358e-004
2.274667e+003, 5.989075e-004
2.276596e+003, 1.104355e-003
2.278525e+003, 7.762909e-004
2.280455e+003, 8.220673e-004
2.282384e+003, 3.099442e-004
2.284314e+003, 6.160736e-004
2.286243e+003, 1.721382e-003
2.288173e+003, 1.379013e-003
2.290102e+003, 1.021385e-003
2.292032e+003, 1.192093e-003
2.293961e+003, 9.431839e-004
2.295891e+003, 1.234055e-003
2.297820e+003, 1.763344e-003
2.299750e+003, 1.341820e-003
2.301679e+003, 1.180649e-003
2.303609e+003, 1.441956e-003
2.305538e+003, 1.530647e-003
2.307468e+003, 1.029015e-003
2.309397e+003, 1.086235e-003
2.311327e+003, 1.469612e-003
2.313256e+003, 1.299858e-003
2.315186e+003, 1.222610e-003
2.317115e+003, 1.752853e-003
2.319045e+003, 1.898766e-003
2.320974e+003, 1.964569e-003
2.322904e+003, 3.021240e-003
2.324833e+003, 3.540993e-003
2.326763e+003, 2.580643e-003
2.328692e+003, 1.660347e-003
2.330622e+003, 1.652718e-003
2.332552e+003, 1.740456e-003
2.334481e+003, 2.182961e-003
2.336410e+003, 1.662254e-003
2.338340e+003, 1.426697e-003
2.340270e+003, 1.797676e-003
2.342199e+003, 2.233505e-003
2.344128e+003, 2.241135e-003
2.346058e+003, 1.930237e-003
2.347987e+003, 1.764297e-003
2.349917e+003, 1.955032e-003
2.351846e+003, 2.099991e-003
2.353776e+003, 1.935005e-003
2.355705e+003, 1.913071e-003
2.357635e+003, 2.037048e-003
2.359564e+003, 1.998901e-003
2.361494e+003, 1.996994e-003
2.363423e+003, 1.660347e-003
2.365353e+003, 1.303673e-003
2.367282e+003, 1.025200e-003
2.369212e+003, 1.009941e-003
2.371141e+003, 1.568794e-003
2.373071e+003, 2.045631e-003
2.375000e+003, 1.393318e-003
2.376930e+003, 1.299858e-003
2.378859e+003, 1.579285e-003
2.380789e+003, 1.456261e-003
2.382719e+003, 1.262665e-003
2.384648e+003, 1.888275e-003
2.386577e+003, 1.814842e-003
2.388507e+003, 1.493454e-003
2.390437e+003, 1.505852e-003
2.392366e+003, 2.134323e-003
2.394295e+003, 2.334595e-003
2.396225e+003, 2.190590e-003
2.398155e+003, 2.196312e-003
2.400084e+003, 1.859665e-003
2.402013e+003, 2.387047e-003
2.403943e+003, 2.350807e-003
2.405873e+003, 2.122879e-003
2.407802e+003, 2.956390e-003
2.409731e+003, 3.111839e-003
2.411661e+003, 2.337456e-003
2.413590e+003, 2.146721e-003
2.415520e+003, 2.650261e-003
2.417449e+003, 2.697945e-003
2.419379e+003, 2.561569e-003
2.421308e+003, 3.302574e-003
2.423238e+003, 3.569603e-003
2.425167e+003, 2.591133e-003
2.427097e+003, 2.167702e-003
2.429026e+003, 3.013611e-003
2.430956e+003, 3.743172e-003
2.432885e+003, 3.433228e-003
2.434815e+003, 3.200531e-003
2.436744e+003, 2.996445e-003
2.438674e+003, 2.887726e-003
2.440604e+003, 3.309250e-003
2.442533e+003, 3.374100e-003
2.444462e+003, 3.351212e-003
2.446392e+003, 3.338814e-003
2.448322e+003, 3.543854e-003
2.450251e+003, 3.949165e-003
2.452180e+003, 4.011154e-003
2.454110e+003, 2.850533e-003
2.456040e+003, 2.207756e-003
2.457969e+003, 2.647400e-003
2.459898e+003, 2.894402e-003
2.461828e+003, 3.423691e-003
2.463758e+003, 4.075050e-003
2.465687e+003, 3.730774e-003
2.467616e+003, 3.642082e-003
2.469546e+003, 3.499031e-003
2.471476e+003, 3.465652e-003
2.473405e+003, 4.080772e-003
2.475334e+003, 4.117012e-003
2.477264e+003, 3.678322e-003
2.479193e+003, 3.852844e-003
2.481123e+003, 4.017830e-003
2.483052e+003, 4.095078e-003
2.484982e+003, 3.751755e-003
2.486911e+003, 3.357887e-003
2.488841e+003, 3.037453e-003
2.490771e+003, 2.779007e-003
2.492700e+003, 3.473282e-003
2.494629e+003, 3.925323e-003
2.496559e+003, 3.643036e-003
2.498489e+003, 3.538132e-003
2.500418e+003, 4.186630e-003
2.502347e+003, 3.477097e-003
2.504277e+003, 3.339767e-003
2.506207e+003, 3.914833e-003
2.508136e+003, 3.419876e-003
2.510065e+003, 2.508163e-003
2.511995e+003, 2.691269e-003
2.513925e+003, 3.080368e-003
2.515854e+003, 3.301620e-003
2.517783e+003, 3.211021e-003
2.519713e+003, 3.767967e-003
2.521643e+003, 3.591537e-003
2.523572e+003, 2.852440e-003
2.525501e+003, 3.151894e-003
2.527431e+003, 2.718925e-003
2.529361e+003, 2.778053e-003
2.531290e+003, 3.783226e-003
2.533219e+003, 3.425598e-003
2.535149e+003, 2.821922e-003
2.537079e+003, 2.782822e-003
2.539008e+003, 2.403259e-003
2.540938e+003, 3.275871e-003
2.542867e+003, 3.861427e-003
2.544796e+003, 3.347397e-003
2.546726e+003, 3.870010e-003
2.548656e+003, 4.414558e-003
2.550585e+003, 4.127502e-003
2.552514e+003, 3.309250e-003
2.554444e+003, 3.147125e-003
2.556374e+003, 3.894806e-003
2.558303e+003, 3.725052e-003
2.560232e+003, 3.398895e-003
2.562162e+003, 4.039764e-003
2.564092e+003, 4.886627e-003
2.566021e+003, 4.632950e-003
2.567950e+003, 3.783226e-003
2.569880e+003, 3.950119e-003
2.571810e+003, 4.005432e-003
2.573739e+003, 4.304886e-003
2.575668e+003, 4.577637e-003
2.577598e+003, 4.308701e-003
2.579528e+003, 4.237175e-003
2.581457e+003, 4.390717e-003
2.583386e+003, 4.147530e-003
2.585316e+003, 4.639626e-003
2.587246e+003, 5.081177e-003
2.589175e+003, 4.859924e-003
2.591104e+003, 4.884720e-003
2.593034e+003, 5.192757e-003
2.594964e+003, 5.043030e-003
2.596893e+003, 4.768372e-003
2.598823e+003, 4.580498e-003
2.600752e+003, 5.040169e-003
2.602682e+003, 4.853249e-003
2.604611e+003, 4.625320e-003
2.606541e+003, 4.863739e-003
2.608470e+003, 4.978180e-003
2.610399e+003, 4.711151e-003
2.612329e+003, 4.272461e-003
2.614259e+003, 4.292488e-003
2.616188e+003, 4.831314e-003
2.618117e+003, 4.986763e-003
2.620047e+003, 4.812241e-003
2.621977e+003, 4.609108e-003
2.623906e+003, 4.806519e-003
2.625835e+003, 4.898071e-003
2.627765e+003, 5.270004e-003
2.629695e+003, 5.026817e-003
2.631624e+003, 5.185127e-003
2.633553e+003, 5.391121e-003
2.635483e+003, 5.555153e-003
2.637413e+003, 5.548477e-003
2.639342e+003, 5.143166e-003
2.641271e+003, 5.290985e-003
2.643201e+003, 4.852295e-003
2.645131e+003, 4.671097e-003
2.647060e+003, 4.939079e-003
2.648990e+003, 4.854202e-003
2.650919e+003, 5.203247e-003
2.652849e+003, 5.401611e-003
2.654778e+003, 5.244255e-003
2.656708e+003, 5.171776e-003
2.658637e+003, 5.188942e-003
2.660567e+003, 4.963875e-003
2.662496e+003, 4.730225e-003
2.664426e+003, 4.474640e-003
2.666355e+003, 3.922462e-003
2.668285e+003, 3.772736e-003
2.670214e+003, 4.070282e-003
2.672144e+003, 4.080772e-003
2.674073e+003, 4.209518e-003
2.676002e+003, 3.948212e-003
2.677932e+003, 3.897667e-003
2.679862e+003, 4.113197e-003
2.681791e+003, 4.096985e-003
2.683720e+003, 4.012108e-003
2.685650e+003, 4.599571e-003
2.687580e+003, 4.179955e-003
2.689509e+003, 3.945351e-003
2.691438e+003, 4.446030e-003
2.693368e+003, 4.333496e-003
2.695298e+003, 4.169464e-003
2.697227e+003, 4.203796e-003
2.699156e+003, 3.832817e-003
2.701086e+003, 3.666878e-003
2.703016e+003, 3.768921e-003
2.704945e+003, 4.000664e-003
2.706875e+003, 3.874779e-003
2.708804e+003, 3.942490e-003
2.710734e+003, 3.991127e-003
2.712663e+003, 3.923416e-003
2.714593e+003, 4.247665e-003
2.716522e+003, 4.302025e-003
2.718452e+003, 4.009247e-003
2.720381e+003, 4.129410e-003
2.722311e+003, 4.426956e-003
2.724240e+003, 4.409790e-003
2.726170e+003, 4.368782e-003
2.728099e+003, 4.631042e-003
2.730029e+003, 4.312515e-003
2.731958e+003, 4.149437e-003
2.733888e+003, 4.719734e-003
2.735817e+003, 4.725456e-003
2.737747e+003, 4.598618e-003
2.739676e+003, 4.370689e-003
2.741605e+003, 4.007339e-003
2.743535e+003, 4.124641e-003
2.745465e+003, 4.773140e-003
2.747394e+003, 4.722595e-003
2.749323e+003, 4.323959e-003
2.751253e+003, 4.966736e-003
2.753183e+003, 5.015373e-003
2.755112e+003, 4.452705e-003
2.757042e+003, 4.415512e-003
2.758971e+003, 4.827499e-003
2.760901e+003, 5.035400e-003
2.762830e+003, 4.706383e-003
2.764760e+003, 4.378319e-003
2.766689e+003, 3.912926e-003
2.768619e+003, 4.486084e-003
2.770548e+003, 5.102158e-003
2.772478e+003, 4.661560e-003
2.774407e+003, 4.133224e-003
2.776337e+003, 4.043579e-003
2.778266e+003, 4.736900e-003
2.780196e+003, 4.925728e-003
2.782125e+003, 4.637718e-003
2.784055e+003, 4.618645e-003
2.785984e+003, 4.839897e-003
2.787914e+003, 5.186081e-003
2.789843e+003, 5.217552e-003
2.791773e+003, 4.910469e-003
2.793702e+003, 4.606247e-003
2.795632e+003, 4.660606e-003
2.797561e+003, 4.852295e-003
2.799491e+003, 5.389214e-003
2.801420e+003, 5.363464e-003
2.803350e+003, 5.227089e-003
2.805279e+003, 5.792618e-003
2.807208e+003, 5.843163e-003
2.809138e+003, 5.169868e-003
2.811068e+003, 5.455017e-003
2.812997e+003, 5.149841e-003
2.814927e+003, 4.630089e-003
2.816856e+003, 4.403114e-003
2.818786e+003, 4.227638e-003
2.820715e+003, 4.914284e-003
2.822645e+003, 5.478859e-003
2.824574e+003, 5.504608e-003
2.826504e+003, 5.018234e-003
2.828433e+003, 4.757881e-003
2.830363e+003, 4.635811e-003
2.832292e+003, 4.830360e-003
2.834222e+003, 5.213737e-003
2.836151e+003, 5.421638e-003
2.838081e+003, 4.974365e-003
2.840010e+003, 4.612923e-003
2.841940e+003, 4.631042e-003
2.843869e+003, 4.721642e-003
2.845799e+003, 4.439354e-003
2.847728e+003, 4.219055e-003
2.849658e+003, 4.714966e-003
2.851587e+003, 5.156517e-003
2.853517e+003, 4.797935e-003
2.855446e+003, 4.734993e-003
2.857376e+003, 4.726410e-003
2.859305e+003, 4.779816e-003
2.861235e+003, 4.837036e-003
2.863164e+003, 5.152702e-003
2.865094e+003, 5.274773e-003
2.867023e+003, 5.301476e-003
2.868953e+003, 4.269600e-003
2.870882e+003, 4.186630e-003
2.872812e+003, 5.129814e-003
2.874741e+003, 5.543709e-003
2.876671e+003, 5.190849e-003
2.878600e+003, 4.676819e-003
2.880530e+003, 5.030632e-003
2.882459e+003, 5.592346e-003
2.884389e+003, 5.147934e-003
2.886318e+003, 4.690170e-003
2.888248e+003, 4.455566e-003
2.890177e+003, 4.914284e-003
2.892107e+003, 5.764961e-003
2.894036e+003, 5.913734e-003
2.895966e+003, 5.496025e-003
2.897895e+003, 5.834579e-003
2.899825e+003, 6.604195e-003
2.901754e+003, 6.874084e-003
2.903684e+003, 6.639481e-003
2.905613e+003, 6.000519e-003
2.907543e+003, 5.742073e-003
2.909472e+003, 5.932808e-003
2.911402e+003, 5.393982e-003
2.913331e+003, 5.633354e-003
2.915261e+003, 5.724907e-003
2.917190e+003, 5.151749e-003
2.919120e+003, 4.675865e-003
2.921049e+003, 4.706383e-003
2.922979e+003, 4.591942e-003
2.924908e+003, 4.570961e-003
2.926838e+003, 5.227089e-003
2.928767e+003, 5.285263e-003
2.930697e+003, 4.861832e-003
2.932626e+003, 5.315781e-003
2.934556e+003, 5.184174e-003
2.936485e+003, 5.546570e-003
2.938415e+003, 5.115509e-003
2.940344e+003, 4.340172e-003
2.942274e+003, 4.792213e-003
2.944203e+003, 4.773140e-003
2.946133e+003, 5.270004e-003
2.948062e+003, 5.492210e-003
2.949992e+003, 5.572319e-003
2.951921e+003, 5.903244e-003
2.953851e+003, 5.081177e-003
2.955780e+003, 4.593849e-003
2.957710e+003, 5.013466e-003
2.959639e+003, 5.996704e-003
2.961569e+003, 5.723000e-003
2.963498e+003, 4.489899e-003
2.965428e+003, 4.275322e-003
2.967357e+003, 4.751205e-003
2.969287e+003, 5.382538e-003
2.971216e+003, 5.810738e-003
2.973146e+003, 5.727768e-003
2.975075e+003, 4.979134e-003
2.977005e+003, 4.190445e-003
2.978934e+003, 4.109383e-003
2.980864e+003, 5.102158e-003
2.982793e+003, 5.628586e-003
2.984723e+003, 5.414009e-003
2.986652e+003, 5.836487e-003
2.988582e+003, 6.210327e-003
2.990511e+003, 6.779671e-003
2.992441e+003, 6.062508e-003
2.994370e+003, 5.357742e-003
2.996300e+003, 5.956650e-003
2.998229e+003, 6.512642e-003
3.000159e+003, 6.021500e-003
3.002088e+003, 6.036758e-003
3.004018e+003, 5.645752e-003
3.005947e+003, 4.762650e-003
3.007877e+003, 4.805565e-003
3.009806e+003, 4.713058e-003
3.011736e+003, 4.675865e-003
3.013665e+003, 5.333900e-003
3.015595e+003, 5.859375e-003
3.017524e+003, 5.840302e-003
3.019454e+003, 5.747795e-003
3.021383e+003, 5.984306e-003
3.023313e+003, 5.760193e-003
3.025242e+003, 5.427361e-003
3.027172e+003, 6.155014e-003
3.029101e+003, 6.398201e-003
3.031031e+003, 6.427765e-003
3.032960e+003, 6.611824e-003
3.034890e+003, 5.323410e-003
3.036819e+003, 4.893303e-003
3.038749e+003, 5.208015e-003
3.040678e+003, 5.099297e-003
3.042608e+003, 5.277634e-003
3.044537e+003, 5.674362e-003
3.046467e+003, 6.052971e-003
3.048396e+003, 5.876541e-003
3.050326e+003, 5.646706e-003
3.052255e+003, 5.763054e-003
3.054185e+003, 5.854607e-003
3.056114e+003, 5.824089e-003
3.058044e+003, 5.657196e-003
3.059973e+003, 6.389618e-003
3.061903e+003, 7.122040e-003
3.063832e+003, 6.342888e-003
3.065762e+003, 5.303383e-003
3.067691e+003, 5.292892e-003
3.069621e+003, 5.498886e-003
3.071550e+003, 5.510330e-003
3.073480e+003, 4.880905e-003
3.075409e+003, 5.725861e-003
3.077339e+003, 6.240845e-003
3.079268e+003, 5.969048e-003
3.081198e+003, 6.177902e-003
3.083127e+003, 6.100655e-003
3.085057e+003, 6.518364e-003
3.086986e+003, 7.154465e-003
3.088916e+003, 6.525040e-003
3.090845e+003, 6.235123e-003
3.092775e+003, 6.263733e-003
3.094704e+003, 6.274223e-003
3.096634e+003, 6.737709e-003
3.098563e+003, 7.628441e-003
3.100493e+003, 7.347107e-003
3.102422e+003, 6.475449e-003
3.104352e+003, 5.830765e-003
3.106281e+003, 6.117821e-003
3.108211e+003, 6.574631e-003
3.110140e+003, 6.711006e-003
3.112070e+003, 5.670547e-003
3.113999e+003, 5.290985e-003
3.115929e+003, 7.171631e-003
3.117858e+003, 7.905960e-003
3.119788e+003, 6.787300e-003
3.121717e+003, 6.443977e-003
3.123647e+003, 6.810188e-003
3.125576e+003, 7.124901e-003
3.127506e+003, 7.232666e-003
3.129435e+003, 7.387161e-003
3.131365e+003, 6.783485e-003
3.133294e+003, 6.370544e-003
3.135224e+003, 5.582809e-003
3.137153e+003, 5.225182e-003
3.139083e+003, 6.255150e-003
3.141012e+003, 7.132530e-003
3.142942e+003, 7.450104e-003
3.144871e+003, 7.971764e-003
3.146801e+003, 8.152008e-003
3.148730e+003, 8.628845e-003
3.150660e+003, 7.586479e-003
3.152589e+003, 5.666733e-003
3.154519e+003, 6.425858e-003
3.156448e+003, 6.829262e-003
3.158378e+003, 6.289482e-003
3.160307e+003, 5.867004e-003
3.162237e+003, 5.785942e-003
3.164166e+003, 5.979538e-003
3.166096e+003, 6.730080e-003
3.168025e+003, 7.274628e-003
3.169955e+003, 8.125305e-003
3.171884e+003, 7.816315e-003
3.173814e+003, 6.440163e-003
3.175743e+003, 5.463600e-003
3.177673e+003, 5.542755e-003
3.179602e+003, 6.649971e-003
3.181532e+003, 7.717133e-003
3.183461e+003, 7.930756e-003
3.185391e+003, 6.873131e-003
3.187320e+003, 6.062508e-003
3.189250e+003, 6.442070e-003
3.191179e+003, 6.688118e-003
3.193109e+003, 6.637573e-003
3.195038e+003, 6.483078e-003
3.196968e+003, 7.654190e-003
3.198897e+003, 7.842064e-003
3.200827e+003, 6.936073e-003
3.202756e+003, 6.488800e-003
3.204686e+003, 6.704330e-003
3.206615e+003, 6.919861e-003
3.208545e+003, 7.182121e-003
3.210474e+003, 8.069038e-003
3.212404e+003, 7.973671e-003
3.214333e+003, 7.387161e-003
3.216263e+003, 6.857872e-003
3.218192e+003, 6.673813e-003
3.220122e+003, 7.358551e-003
3.222051e+003, 8.127213e-003
3.223981e+003, 7.434845e-003
3.225910e+003, 7.231712e-003
3.227840e+003, 8.086205e-003
3.229769e+003, 8.160591e-003
3.231699e+003, 7.756233e-003
3.233628e+003, 7.480621e-003
3.235558e+003, 6.372452e-003
3.237487e+003, 7.185936e-003
3.239417e+003, 7.512093e-003
3.241346e+003, 7.253647e-003
3.243276e+003, 6.706238e-003
3.245205e+003, 7.041931e-003
3.247135e+003, 8.063316e-003
3.249064e+003, 8.344650e-003
3.250994e+003, 8.569717e-003
3.252923e+003, 8.690834e-003
3.254853e+003, 7.955551e-003
3.256782e+003, 8.029938e-003
3.258712e+003, 7.855415e-003
3.260641e+003, 7.964134e-003
3.262571e+003, 8.059502e-003
3.264500e+003, 8.770943e-003
3.266430e+003, 8.791924e-003
3.268359e+003, 7.777214e-003
3.270289e+003, 7.619858e-003
3.272218e+003, 8.571625e-003
3.274148e+003, 9.266853e-003
3.276077e+003, 8.407593e-003
3.278007e+003, 7.048607e-003
3.279936e+003, 8.781433e-003
3.281866e+003, 8.965492e-003
3.283795e+003, 8.206367e-003
3.285725e+003, 7.925987e-003
3.287654e+003, 8.289337e-003
3.289584e+003, 8.355141e-003
3.291513e+003, 7.141113e-003
3.293443e+003, 7.065773e-003
3.295372e+003, 8.689880e-003
3.297302e+003, 8.690834e-003
3.299231e+003, 8.188248e-003
3.301161e+003, 8.085251e-003
3.303090e+003, 7.504463e-003
3.305020e+003, 8.154869e-003
3.306949e+003, 9.013176e-003
3.308879e+003, 7.720947e-003
3.310808e+003, 7.352829e-003
3.312738e+003, 7.684708e-003
3.314667e+003, 7.981300e-003
3.316597e+003, 8.695602e-003
3.318526e+003, 8.436203e-003
3.320456e+003, 8.197784e-003
3.322385e+003, 8.414268e-003
3.324315e+003, 8.434296e-003
3.326244e+003, 8.902550e-003
3.328174e+003, 9.436607e-003
3.330103e+003, 1.003933e-002
3.332033e+003, 9.482384e-003
3.333962e+003, 9.700775e-003
3.335892e+003, 9.628296e-003
3.337821e+003, 8.686066e-003
3.339751e+003, 9.509087e-003
3.341680e+003, 1.030350e-002
3.343610e+003, 1.004314e-002
3.345539e+003, 1.017666e-002
3.347469e+003, 9.794235e-003
3.349398e+003, 8.874893e-003
3.351328e+003, 8.114815e-003
3.353257e+003, 8.436203e-003
3.355187e+003, 9.128571e-003
3.357116e+003, 9.368896e-003
3.359046e+003, 1.015854e-002
3.360975e+003, 1.030350e-002
3.362905e+003, 9.278297e-003
3.364834e+003, 8.405685e-003
3.366764e+003, 9.906769e-003
3.368693e+003, 1.126766e-002
3.370623e+003, 1.101303e-002
3.372552e+003, 1.014137e-002
3.374482e+003, 1.056576e-002
3.376411e+003, 1.029301e-002
3.378341e+003, 9.078979e-003
3.380270e+003, 9.257317e-003
3.382200e+003, 1.139259e-002
3.384129e+003, 1.127720e-002
3.386059e+003, 9.960175e-003
3.387988e+003, 9.305000e-003
3.389918e+003, 1.057911e-002
3.391847e+003, 1.064014e-002
3.393777e+003, 9.905815e-003
3.395706e+003, 1.000214e-002
3.397636e+003, 1.012230e-002
3.399565e+003, 8.790016e-003
3.401495e+003, 8.149147e-003
3.403424e+003, 9.074211e-003
3.405354e+003, 9.631157e-003
3.407283e+003, 9.318352e-003
3.409213e+003, 7.736206e-003
3.411142e+003, 7.713318e-003
3.413072e+003, 8.437157e-003
3.415001e+003, 8.589745e-003
3.416931e+003, 9.452820e-003
3.418860e+003, 8.754730e-003
3.420790e+003, 7.778168e-003
3.422719e+003, 8.678436e-003
3.424649e+003, 8.694649e-003
3.426578e+003, 7.345200e-003
3.428508e+003, 6.949425e-003
3.430437e+003, 8.137703e-003
3.432367e+003, 7.589340e-003
3.434296e+003, 7.035255e-003
3.436226e+003, 8.581161e-003
3.438155e+003, 9.205818e-003
3.440085e+003, 8.237839e-003
3.442014e+003, 8.481026e-003
3.443944e+003, 8.906364e-003
3.445873e+003, 8.763313e-003
3.447803e+003, 8.157730e-003
3.449732e+003, 8.176804e-003
3.451662e+003, 8.017540e-003
3.453591e+003, 8.885384e-003
3.455521e+003, 8.588791e-003
3.457450e+003, 8.147240e-003
3.459380e+003, 7.648468e-003
3.461309e+003, 7.536888e-003
3.463239e+003, 7.677078e-003
3.465168e+003, 8.670807e-003
3.467098e+003, 6.999016e-003
3.469027e+003, 6.591797e-003
3.470957e+003, 7.165909e-003
3.472886e+003, 7.701874e-003
3.474816e+003, 8.011818e-003
3.476745e+003, 7.716179e-003
3.478675e+003, 7.149696e-003
3.480604e+003, 6.926537e-003
3.482534e+003, 7.575035e-003
3.484463e+003, 8.538246e-003
3.486393e+003, 8.917809e-003
3.488323e+003, 9.396553e-003
3.490252e+003, 8.539200e-003
3.492181e+003, 7.722855e-003
3.494111e+003, 8.123398e-003
3.496040e+003, 8.369446e-003
3.497970e+003, 9.518623e-003
3.499899e+003, 9.765625e-003
3.501829e+003, 7.205009e-003
3.503758e+003, 7.285118e-003
3.505688e+003, 8.090019e-003
3.507617e+003, 7.475853e-003
3.509547e+003, 9.757996e-003
3.511476e+003, 1.180649e-002
3.513406e+003, 9.700775e-003
3.515335e+003, 8.453369e-003
3.517265e+003, 9.006500e-003
3.519194e+003, 8.346558e-003
3.521124e+003, 7.921219e-003
3.523053e+003, 8.389473e-003
3.524983e+003, 9.782791e-003
3.526912e+003, 1.014042e-002
3.528842e+003, 8.810043e-003
3.530771e+003, 6.911278e-003
3.532701e+003, 6.720543e-003
3.534630e+003, 8.527756e-003
3.536560e+003, 9.951591e-003
3.538490e+003, 1.033497e-002
3.540419e+003, 9.414673e-003
3.542348e+003, 8.460999e-003
3.544278e+003, 9.401321e-003
3.546208e+003, 1.046467e-002
3.548137e+003, 1.004982e-002
3.550066e+003, 9.346962e-003
3.551996e+003, 7.546425e-003
3.553926e+003, 6.715775e-003
3.555855e+003, 9.068489e-003
3.557784e+003, 8.941650e-003
3.559714e+003, 6.628036e-003
3.561643e+003, 7.425308e-003
3.563573e+003, 8.138657e-003
3.565502e+003, 7.854462e-003
3.567432e+003, 8.183479e-003
3.569361e+003, 9.170532e-003
3.571291e+003, 8.493423e-003
3.573220e+003, 8.602142e-003
3.575150e+003, 9.758949e-003
3.577079e+003, 9.268761e-003
3.579009e+003, 9.893417e-003
3.580938e+003, 9.944916e-003
3.582868e+003, 8.043289e-003
3.584797e+003, 7.220268e-003
3.586727e+003, 7.831573e-003
3.588656e+003, 8.745193e-003
3.590586e+003, 9.355545e-003
3.592515e+003, 8.858681e-003
3.594445e+003, 7.781029e-003
3.596375e+003, 7.969856e-003
3.598304e+003, 7.388115e-003
3.600233e+003, 7.690430e-003
3.602163e+003, 8.874893e-003
3.604093e+003, 8.770943e-003
3.606022e+003, 8.068085e-003
3.607951e+003, 9.343147e-003
3.609881e+003, 9.274483e-003
3.611811e+003, 9.391785e-003
3.613740e+003, 9.921074e-003
3.615669e+003, 1.039410e-002
3.617599e+003, 1.072407e-002
3.619529e+003, 9.097099e-003
3.621458e+003, 8.439064e-003
3.623387e+003, 9.937286e-003
3.625317e+003, 9.564400e-003
3.627246e+003, 8.152008e-003
3.629176e+003, 7.810593e-003
3.631105e+003, 9.388924e-003
3.633035e+003, 9.852409e-003
3.634964e+003, 9.097099e-003
3.636894e+003, 7.408142e-003
3.638823e+003, 7.544518e-003
3.640753e+003, 8.344650e-003
3.642682e+003, 7.578850e-003
3.644612e+003, 5.663872e-003
3.646542e+003, 3.921509e-003
3.648471e+003, 4.263878e-003
3.650400e+003, 5.795479e-003
3.652330e+003, 6.284714e-003
3.654260e+003, 6.749153e-003
3.656189e+003, 7.153511e-003
3.658118e+003, 6.183624e-003
3.660048e+003, 5.086899e-003
3.661978e+003, 5.453110e-003
3.663907e+003, 5.343437e-003
3.665836e+003, 5.682945e-003
3.667766e+003, 5.671501e-003
3.669696e+003, 5.399704e-003
3.671625e+003, 4.753113e-003
3.673554e+003, 2.813339e-003
3.675484e+003, 2.325058e-003
3.677414e+003, 4.645348e-003
3.679343e+003, 5.064964e-003
3.681272e+003, 3.661156e-003
3.683202e+003, 5.655289e-003
3.685132e+003, 8.315086e-003
3.687061e+003, 6.038666e-003
3.688990e+003, 4.007339e-003
3.690920e+003, 4.220009e-003
3.692849e+003, 4.702568e-003
3.694779e+003, 5.427361e-003
3.696708e+003, 6.216049e-003
3.698638e+003, 7.106781e-003
3.700567e+003, 6.917953e-003
3.702497e+003, 7.165909e-003
3.704427e+003, 7.129669e-003
3.706356e+003, 4.647255e-003
3.708285e+003, 4.803658e-003
3.710215e+003, 4.255295e-003
3.712145e+003, 3.201485e-003
3.714074e+003, 5.324364e-003
3.716003e+003, 6.143570e-003
3.717933e+003, 5.370140e-003
3.719863e+003, 4.736900e-003
3.721792e+003, 4.658699e-003
3.723721e+003, 4.952431e-003
3.725651e+003, 4.619598e-003
3.727581e+003, 3.235817e-003
3.729510e+003, 2.690315e-003
3.731439e+003, 4.427910e-003
3.733369e+003, 6.919861e-003
3.735299e+003, 6.867409e-003
3.737228e+003, 4.810333e-003
3.739157e+003, 3.309250e-003
3.741087e+003, 3.664017e-003
3.743017e+003, 7.512093e-003
3.744946e+003, 7.554054e-003
3.746875e+003, 4.252434e-003
3.748805e+003, 2.503395e-003
3.750735e+003, 2.646446e-003
3.752664e+003, 3.258705e-003
3.754594e+003, 5.030632e-003
3.756523e+003, 3.978729e-003
3.758452e+003, 3.732681e-003
3.760382e+003, 4.127502e-003
3.762312e+003, 3.998756e-003
3.764241e+003, 3.929138e-003
3.766170e+003, 4.189491e-003
3.768100e+003, 4.447937e-003
3.770030e+003, 3.857613e-003
3.771959e+003, 5.600929e-003
3.773888e+003, 6.246567e-003
3.775818e+003, 5.531311e-003
3.777748e+003, 4.823685e-003
3.779677e+003, 5.498886e-003
3.781606e+003, 5.412102e-003
3.783536e+003, 4.401207e-003
3.785466e+003, 5.028725e-003
3.787395e+003, 5.118370e-003
3.789324e+003, 5.671501e-003
3.791254e+003, 6.133080e-003
3.793184e+003, 5.427361e-003
3.795113e+003, 2.979279e-003
3.797042e+003, 2.962112e-003
3.798972e+003, 4.484177e-003
3.800902e+003, 3.734589e-003
3.802831e+003, 3.675461e-003
3.804760e+003, 5.017281e-003
3.806690e+003, 5.800247e-003
3.808620e+003, 5.474091e-003
3.810549e+003, 4.368782e-003
3.812479e+003, 5.943298e-003
3.814408e+003, 7.073402e-003
3.816338e+003, 5.499840e-003
3.818267e+003, 4.593849e-003
3.820197e+003, 2.873421e-003
3.822126e+003, 3.013611e-003
3.824055e+003, 5.457878e-003
3.825985e+003, 6.843567e-003
3.827915e+003, 6.580353e-003
3.829844e+003, 5.055428e-003
3.831773e+003, 6.216049e-003
3.833703e+003, 7.626534e-003
3.835633e+003, 6.982803e-003
3.837562e+003, 6.247520e-003
3.839491e+003, 5.038261e-003
3.841421e+003, 5.246162e-003
3.843351e+003, 7.170677e-003
3.845280e+003, 6.513596e-003
3.847209e+003, 4.335403e-003
3.849139e+003, 4.761696e-003
3.851069e+003, 6.212234e-003
3.852998e+003, 5.202293e-003
3.854927e+003, 4.919052e-003
3.856857e+003, 5.814552e-003
3.858787e+003, 2.629280e-003
3.860716e+003, 3.199577e-003
3.862646e+003, 6.517410e-003
3.864575e+003, 6.712914e-003
3.866505e+003, 6.956100e-003
3.868434e+003, 7.580757e-003
3.870364e+003, 7.241249e-003
3.872293e+003, 7.310867e-003
3.874223e+003, 7.974625e-003
3.876152e+003, 9.208679e-003
3.878082e+003, 8.778572e-003
3.880011e+003, 6.704330e-003
3.881941e+003, 4.415512e-003
3.883870e+003, 5.988121e-003
3.885800e+003, 7.031441e-003
3.887729e+003, 5.398750e-003
3.889659e+003, 4.014969e-003
3.891588e+003, 3.077507e-003
3.893518e+003, 2.310753e-003
3.895447e+003, 3.942490e-003
3.897376e+003, 6.146431e-003
3.899306e+003, 7.132530e-003
3.901236e+003, 7.048607e-003
3.903165e+003, 6.383896e-003
3.905094e+003, 4.872322e-003
3.907024e+003, 5.241394e-003
3.908954e+003, 6.310463e-003
3.910883e+003, 4.618645e-003
3.912813e+003, 3.887177e-003
3.914742e+003, 5.109787e-003
3.916672e+003, 4.305840e-003
3.918601e+003, 5.823135e-003
3.920531e+003, 6.207466e-003
3.922460e+003, 4.795074e-003
3.924390e+003, 3.468513e-003
3.926319e+003, 3.293037e-003
3.928249e+003, 3.077507e-003
3.930178e+003, 3.685951e-003
3.932108e+003, 4.242897e-003
3.934037e+003, 4.649162e-003
3.935967e+003, 6.547928e-003
3.937896e+003, 6.430626e-003
3.939826e+003, 3.830910e-003
3.941755e+003, 3.900528e-003
3.943685e+003, 6.338120e-003
3.945614e+003, 6.320953e-003
3.947544e+003, 4.985809e-003
3.949473e+003, 4.472733e-003
3.951403e+003, 4.046440e-003
3.953332e+003, 3.069878e-003
3.955262e+003, 3.824234e-003
3.957191e+003, 4.461288e-003
3.959121e+003, 5.846024e-003
3.961050e+003, 6.054878e-003
3.962979e+003, 5.926132e-003
3.964909e+003, 5.714417e-003
3.966839e+003, 6.540298e-003
3.968768e+003, 5.869865e-003
3.970698e+003, 3.666878e-003
3.972627e+003, 3.764153e-003
3.974557e+003, 4.343033e-003
3.976486e+003, 4.375458e-003
3.978416e+003, 3.557205e-003
3.980345e+003, 3.907204e-003
3.982275e+003, 5.242348e-003
3.984204e+003, 5.064011e-003
3.986134e+003, 4.828453e-003
3.988063e+003, 4.838943e-003
3.989993e+003, 5.185127e-003
3.991922e+003, 5.531311e-003
3.993852e+003, 6.811142e-003
3.995781e+003, 7.261276e-003
3.997711e+003, 6.174088e-003
3.999640e+003, 5.984306e-003
##END=



