##NAMES=Albite
##RRUFFID=R060054
##IDEAL CHEMISTRY=NaAlSi_3_O_8_
##LOCALITY=Mt. Erebus, Antarctica
##OWNER=RRUFF
##SOURCE=Marcus Origlieri
##DESCRIPTION=Dark gray bladed crystal
##STATUS=The identification of this mineral has been confirmed by X-ray diffraction and chemical analysis
##URL=rruff.info/R060054
##MEASURED CHEMISTRY=(Na_0.67_K_0.18_Ca_0.15_)_Σ=1_Al_1.00_(Si_2.85_Al_0.15_)_Σ=3_O_8_
3.721941e+002, 0.000000e+000
3.741225e+002, 0.000000e+000
3.760510e+002, 0.000000e+000
3.779795e+002, 0.000000e+000
3.799079e+002, 0.000000e+000
3.818364e+002, 0.000000e+000
3.837649e+002, 0.000000e+000
3.856933e+002, 0.000000e+000
3.876218e+002, 0.000000e+000
3.895503e+002, 0.000000e+000
3.914787e+002, 0.000000e+000
3.934072e+002, 0.000000e+000
3.953357e+002, 0.000000e+000
3.972641e+002, 0.000000e+000
3.991926e+002, 2.454274e-001
4.011211e+002, 2.321283e-001
4.030495e+002, 2.319738e-001
4.049780e+002, 2.391223e-001
4.069065e+002, 2.346224e-001
4.088349e+002, 2.247506e-001
4.107634e+002, 2.163986e-001
4.126919e+002, 2.080436e-001
4.146203e+002, 2.085798e-001
4.165488e+002, 2.032111e-001
4.184773e+002, 2.029669e-001
4.204057e+002, 2.068370e-001
4.223342e+002, 2.026739e-001
4.242627e+002, 1.941127e-001
4.261911e+002, 1.868565e-001
4.281196e+002, 1.842998e-001
4.300481e+002, 1.783258e-001
4.319765e+002, 1.676584e-001
4.339050e+002, 1.576229e-001
4.358335e+002, 1.531623e-001
4.377619e+002, 1.443933e-001
4.396904e+002, 1.389587e-001
4.416189e+002, 1.342875e-001
4.435473e+002, 1.294415e-001
4.454758e+002, 1.246161e-001
4.474043e+002, 1.173998e-001
4.493327e+002, 1.121046e-001
4.512612e+002, 1.077496e-001
4.531897e+002, 1.044670e-001
4.551181e+002, 1.036933e-001
4.570466e+002, 1.025863e-001
4.589751e+002, 1.003814e-001
4.609035e+002, 9.636313e-002
4.628320e+002, 9.290793e-002
4.647605e+002, 9.117541e-002
4.666889e+002, 8.934273e-002
4.686174e+002, 8.405943e-002
4.705459e+002, 7.798666e-002
4.724743e+002, 7.539684e-002
4.744028e+002, 7.311799e-002
4.763313e+002, 6.897465e-002
4.782597e+002, 6.605475e-002
4.801882e+002, 6.273352e-002
4.821167e+002, 6.083328e-002
4.840451e+002, 6.019707e-002
4.859736e+002, 5.936464e-002
4.879021e+002, 5.824001e-002
4.898305e+002, 5.721414e-002
4.917590e+002, 5.796880e-002
4.936875e+002, 5.887694e-002
4.956159e+002, 5.838889e-002
4.975444e+002, 6.002559e-002
4.994729e+002, 6.113698e-002
5.014013e+002, 6.227535e-002
5.033298e+002, 6.294539e-002
5.052583e+002, 6.530991e-002
5.071867e+002, 6.847110e-002
5.091152e+002, 7.086962e-002
5.110437e+002, 7.313142e-002
5.129721e+002, 7.571898e-002
5.149006e+002, 7.720812e-002
5.168290e+002, 7.940006e-002
5.187575e+002, 8.298544e-002
5.206860e+002, 8.704993e-002
5.226144e+002, 9.220968e-002
5.245429e+002, 9.880405e-002
5.264714e+002, 1.068785e-001
5.283998e+002, 1.145372e-001
5.303283e+002, 1.241172e-001
5.322568e+002, 1.364636e-001
5.341852e+002, 1.514186e-001
5.361137e+002, 1.648477e-001
5.380422e+002, 1.749335e-001
5.399706e+002, 1.815409e-001
5.418991e+002, 1.848224e-001
5.438276e+002, 1.834177e-001
5.457560e+002, 1.749186e-001
5.476845e+002, 1.649985e-001
5.496130e+002, 1.579471e-001
5.515414e+002, 1.510904e-001
5.534699e+002, 1.457619e-001
5.553984e+002, 1.463140e-001
5.573268e+002, 1.515761e-001
5.592553e+002, 1.566157e-001
5.611838e+002, 1.616176e-001
5.631122e+002, 1.661458e-001
5.650407e+002, 1.726891e-001
5.669692e+002, 1.802925e-001
5.688976e+002, 1.852293e-001
5.708261e+002, 1.891206e-001
5.727546e+002, 1.913903e-001
5.746830e+002, 1.930851e-001
5.766115e+002, 1.950089e-001
5.785400e+002, 1.974203e-001
5.804684e+002, 1.967977e-001
5.823969e+002, 1.935654e-001
5.843254e+002, 1.911621e-001
5.862538e+002, 1.877233e-001
5.881823e+002, 1.818191e-001
5.901108e+002, 1.748817e-001
5.920392e+002, 1.698564e-001
5.939677e+002, 1.632576e-001
5.958962e+002, 1.556602e-001
5.978246e+002, 1.488293e-001
5.997531e+002, 1.426965e-001
6.016816e+002, 1.364340e-001
6.036100e+002, 1.297111e-001
6.055385e+002, 1.230045e-001
6.074670e+002, 1.165681e-001
6.093954e+002, 1.113592e-001
6.113239e+002, 1.073458e-001
6.132524e+002, 1.033656e-001
6.151808e+002, 1.002755e-001
6.171093e+002, 9.838890e-002
6.190378e+002, 9.658105e-002
6.209662e+002, 9.553310e-002
6.228947e+002, 9.609376e-002
6.248232e+002, 9.766363e-002
6.267516e+002, 9.989388e-002
6.286801e+002, 1.030322e-001
6.306086e+002, 1.051677e-001
6.325370e+002, 1.062566e-001
6.344655e+002, 1.068807e-001
6.363940e+002, 1.060494e-001
6.383224e+002, 1.030648e-001
6.402509e+002, 9.798051e-002
6.421794e+002, 9.142376e-002
6.441078e+002, 8.458923e-002
6.460363e+002, 7.719757e-002
6.479648e+002, 7.047395e-002
6.498932e+002, 6.477857e-002
6.518217e+002, 6.039439e-002
6.537502e+002, 5.701087e-002
6.556786e+002, 5.443852e-002
6.576071e+002, 5.197769e-002
6.595356e+002, 5.089999e-002
6.614641e+002, 5.009068e-002
6.633925e+002, 4.921930e-002
6.653210e+002, 4.886303e-002
6.672495e+002, 4.886333e-002
6.691779e+002, 4.891352e-002
6.711064e+002, 4.889371e-002
6.730349e+002, 4.916050e-002
6.749633e+002, 5.001983e-002
6.768918e+002, 5.085566e-002
6.788203e+002, 5.143670e-002
6.807487e+002, 5.285749e-002
6.826772e+002, 5.425990e-002
6.846057e+002, 5.552420e-002
6.865341e+002, 5.683629e-002
6.884626e+002, 5.844562e-002
6.903911e+002, 5.988136e-002
6.923195e+002, 6.113078e-002
6.942480e+002, 6.301726e-002
6.961765e+002, 6.564507e-002
6.981049e+002, 6.746870e-002
7.000334e+002, 6.914140e-002
7.019619e+002, 7.106104e-002
7.038903e+002, 7.282270e-002
7.058188e+002, 7.407012e-002
7.077473e+002, 7.522138e-002
7.096757e+002, 7.638574e-002
7.116042e+002, 7.756229e-002
7.135327e+002, 7.842603e-002
7.154611e+002, 7.898398e-002
7.173896e+002, 7.926473e-002
7.193181e+002, 7.974721e-002
7.212465e+002, 7.994931e-002
7.231750e+002, 7.961395e-002
7.251035e+002, 7.967086e-002
7.270319e+002, 7.927640e-002
7.289604e+002, 7.834484e-002
7.308889e+002, 7.776213e-002
7.328173e+002, 7.776487e-002
7.347458e+002, 7.749738e-002
7.366743e+002, 7.695282e-002
7.386027e+002, 7.620098e-002
7.405312e+002, 7.516573e-002
7.424597e+002, 7.483388e-002
7.443881e+002, 7.486407e-002
7.463166e+002, 7.494017e-002
7.482451e+002, 7.462108e-002
7.501735e+002, 7.437941e-002
7.521020e+002, 7.454005e-002
7.540305e+002, 7.467447e-002
7.559589e+002, 7.444239e-002
7.578874e+002, 7.435358e-002
7.598159e+002, 7.420393e-002
7.617443e+002, 7.366113e-002
7.636728e+002, 7.351340e-002
7.656013e+002, 7.356741e-002
7.675297e+002, 7.342073e-002
7.694582e+002, 7.307125e-002
7.713867e+002, 7.233177e-002
7.733151e+002, 7.052569e-002
7.752436e+002, 6.916772e-002
7.771721e+002, 6.906529e-002
7.791005e+002, 6.847136e-002
7.810290e+002, 6.686524e-002
7.829575e+002, 6.523373e-002
7.848859e+002, 6.438440e-002
7.868144e+002, 6.332910e-002
7.887429e+002, 6.161366e-002
7.906713e+002, 6.001189e-002
7.925998e+002, 5.799552e-002
7.945283e+002, 5.570340e-002
7.964567e+002, 5.396498e-002
7.983852e+002, 5.135505e-002
8.003137e+002, 4.830582e-002
8.022421e+002, 4.587443e-002
8.041706e+002, 4.380833e-002
8.060991e+002, 4.137128e-002
8.080275e+002, 3.854566e-002
8.099560e+002, 3.628954e-002
8.118845e+002, 3.445271e-002
8.138129e+002, 3.280338e-002
8.157414e+002, 3.114517e-002
8.176699e+002, 2.981044e-002
8.195983e+002, 2.914470e-002
8.215268e+002, 2.890402e-002
8.234553e+002, 2.905689e-002
8.253837e+002, 2.940060e-002
8.273122e+002, 2.993932e-002
8.292407e+002, 3.103849e-002
8.311691e+002, 3.211158e-002
8.330976e+002, 3.291720e-002
8.350261e+002, 3.412443e-002
8.369545e+002, 3.560447e-002
8.388830e+002, 3.748490e-002
8.408115e+002, 3.999211e-002
8.427399e+002, 4.227981e-002
8.446684e+002, 4.441862e-002
8.465969e+002, 4.624840e-002
8.485253e+002, 4.794492e-002
8.504538e+002, 4.986206e-002
8.523823e+002, 5.193802e-002
8.543107e+002, 5.456191e-002
8.562392e+002, 5.709415e-002
8.581677e+002, 6.052583e-002
8.600961e+002, 6.283005e-002
8.620246e+002, 6.422378e-002
8.639531e+002, 6.610998e-002
8.658815e+002, 6.904549e-002
8.678100e+002, 7.196980e-002
8.697385e+002, 7.462440e-002
8.716669e+002, 7.704444e-002
8.735954e+002, 7.999577e-002
8.755239e+002, 8.363450e-002
8.774523e+002, 8.715075e-002
8.793808e+002, 9.075622e-002
8.813093e+002, 9.463299e-002
8.832377e+002, 9.869035e-002
8.851662e+002, 1.036478e-001
8.870947e+002, 1.092026e-001
8.890231e+002, 1.149391e-001
8.909516e+002, 1.211286e-001
8.928801e+002, 1.275383e-001
8.948085e+002, 1.340057e-001
8.967370e+002, 1.410653e-001
8.986655e+002, 1.486020e-001
9.005939e+002, 1.568861e-001
9.025224e+002, 1.650598e-001
9.044509e+002, 1.730228e-001
9.063793e+002, 1.812899e-001
9.083078e+002, 1.900227e-001
9.102363e+002, 1.985718e-001
9.121647e+002, 2.069440e-001
9.140932e+002, 2.155753e-001
9.160217e+002, 2.237757e-001
9.179501e+002, 2.317660e-001
9.198786e+002, 2.395210e-001
9.218071e+002, 2.467044e-001
9.237355e+002, 2.537501e-001
9.256640e+002, 2.612897e-001
9.275925e+002, 2.685345e-001
9.295209e+002, 2.741406e-001
9.314494e+002, 2.799866e-001
9.333779e+002, 2.864906e-001
9.353063e+002, 2.923865e-001
9.372348e+002, 2.972640e-001
9.391633e+002, 3.029118e-001
9.410917e+002, 3.087085e-001
9.430202e+002, 3.147921e-001
9.449487e+002, 3.204445e-001
9.468771e+002, 3.256283e-001
9.488056e+002, 3.310900e-001
9.507341e+002, 3.366066e-001
9.526625e+002, 3.419950e-001
9.545910e+002, 3.476060e-001
9.565195e+002, 3.531746e-001
9.584479e+002, 3.578857e-001
9.603764e+002, 3.624154e-001
9.623049e+002, 3.680516e-001
9.642333e+002, 3.728074e-001
9.661618e+002, 3.770113e-001
9.680903e+002, 3.811456e-001
9.700187e+002, 3.846043e-001
9.719472e+002, 3.872110e-001
9.738757e+002, 3.896365e-001
9.758041e+002, 3.917390e-001
9.777326e+002, 3.930729e-001
9.796611e+002, 3.946000e-001
9.815895e+002, 3.953460e-001
9.835180e+002, 3.952271e-001
9.854465e+002, 3.956126e-001
9.873749e+002, 3.955510e-001
9.893034e+002, 3.948810e-001
9.912319e+002, 3.937393e-001
9.931603e+002, 3.923011e-001
9.950888e+002, 3.911674e-001
9.970173e+002, 3.884845e-001
9.989457e+002, 3.852356e-001
1.000874e+003, 3.822173e-001
1.002803e+003, 3.784442e-001
1.004731e+003, 3.747646e-001
1.006660e+003, 3.701437e-001
1.008588e+003, 3.654964e-001
1.010517e+003, 3.606848e-001
1.012445e+003, 3.544351e-001
1.014373e+003, 3.478841e-001
1.016302e+003, 3.418637e-001
1.018230e+003, 3.356513e-001
1.020159e+003, 3.283479e-001
1.022087e+003, 3.218099e-001
1.024016e+003, 3.155146e-001
1.025944e+003, 3.091361e-001
1.027873e+003, 3.021356e-001
1.029801e+003, 2.945570e-001
1.031730e+003, 2.881368e-001
1.033658e+003, 2.819273e-001
1.035587e+003, 2.751645e-001
1.037515e+003, 2.684405e-001
1.039443e+003, 2.619392e-001
1.041372e+003, 2.549715e-001
1.043300e+003, 2.483243e-001
1.045229e+003, 2.426674e-001
1.047157e+003, 2.370619e-001
1.049086e+003, 2.311004e-001
1.051014e+003, 2.253527e-001
1.052943e+003, 2.198094e-001
1.054871e+003, 2.146859e-001
1.056800e+003, 2.098370e-001
1.058728e+003, 2.047007e-001
1.060657e+003, 2.002005e-001
1.062585e+003, 1.964263e-001
1.064514e+003, 1.932158e-001
1.066442e+003, 1.905532e-001
1.068370e+003, 1.882726e-001
1.070299e+003, 1.865344e-001
1.072227e+003, 1.850251e-001
1.074156e+003, 1.840425e-001
1.076084e+003, 1.834286e-001
1.078013e+003, 1.837050e-001
1.079941e+003, 1.846509e-001
1.081870e+003, 1.854554e-001
1.083798e+003, 1.858707e-001
1.085727e+003, 1.865032e-001
1.087655e+003, 1.876399e-001
1.089584e+003, 1.884208e-001
1.091512e+003, 1.889212e-001
1.093441e+003, 1.900814e-001
1.095369e+003, 1.906110e-001
1.097297e+003, 1.906465e-001
1.099226e+003, 1.904459e-001
1.101154e+003, 1.897928e-001
1.103083e+003, 1.896781e-001
1.105011e+003, 1.891343e-001
1.106940e+003, 1.881095e-001
1.108868e+003, 1.871487e-001
1.110797e+003, 1.858695e-001
1.112725e+003, 1.839312e-001
1.114654e+003, 1.814550e-001
1.116582e+003, 1.794637e-001
1.118511e+003, 1.774253e-001
1.120439e+003, 1.749219e-001
1.122368e+003, 1.726129e-001
1.124296e+003, 1.702752e-001
1.126224e+003, 1.675659e-001
1.128153e+003, 1.645728e-001
1.130081e+003, 1.614486e-001
1.132010e+003, 1.588215e-001
1.133938e+003, 1.563609e-001
1.135867e+003, 1.531161e-001
1.137795e+003, 1.497025e-001
1.139724e+003, 1.470464e-001
1.141652e+003, 1.440771e-001
1.143581e+003, 1.404700e-001
1.145509e+003, 1.366959e-001
1.147438e+003, 1.326205e-001
1.149366e+003, 1.283509e-001
1.151295e+003, 1.246233e-001
1.153223e+003, 1.206598e-001
1.155151e+003, 1.165003e-001
1.157080e+003, 1.125470e-001
1.159008e+003, 1.081678e-001
1.160937e+003, 1.034398e-001
1.162865e+003, 9.915346e-002
1.164794e+003, 9.471686e-002
1.166722e+003, 9.047624e-002
1.168651e+003, 8.630187e-002
1.170579e+003, 8.245204e-002
1.172508e+003, 7.866725e-002
1.174436e+003, 7.447076e-002
1.176365e+003, 7.038306e-002
1.178293e+003, 6.675265e-002
1.180222e+003, 6.335038e-002
1.182150e+003, 5.974880e-002
1.184078e+003, 5.641174e-002
1.186007e+003, 5.287069e-002
1.187935e+003, 4.940895e-002
1.189864e+003, 4.672268e-002
1.191792e+003, 4.375653e-002
1.193721e+003, 4.008218e-002
1.195649e+003, 3.644086e-002
1.197578e+003, 3.327033e-002
1.199506e+003, 3.033771e-002
1.201435e+003, 2.737536e-002
1.203363e+003, 2.485386e-002
1.205292e+003, 2.257578e-002
1.207220e+003, 2.024748e-002
1.209149e+003, 1.785343e-002
1.211077e+003, 1.586827e-002
1.213005e+003, 1.413584e-002
1.214934e+003, 1.258198e-002
1.216862e+003, 1.124714e-002
1.218791e+003, 9.902017e-003
1.220719e+003, 8.871593e-003
1.222648e+003, 7.747514e-003
1.224576e+003, 6.677051e-003
1.226505e+003, 5.893898e-003
1.228433e+003, 5.264446e-003
1.230362e+003, 4.478632e-003
1.232290e+003, 3.572149e-003
1.234219e+003, 3.058350e-003
1.236147e+003, 2.782188e-003
1.238076e+003, 2.206956e-003
1.240004e+003, 1.733685e-003
1.241932e+003, 1.197363e-003
1.243861e+003, 7.661697e-004
1.245789e+003, 8.275190e-004
1.247718e+003, 3.597093e-004
1.249646e+003, -3.505876e-004
1.251575e+003, -6.463949e-004
1.253503e+003, -7.226420e-004
1.255432e+003, -9.638857e-004
1.257360e+003, -1.256385e-003
1.259289e+003, -1.545054e-003
1.261217e+003, -1.935006e-003
1.263146e+003, -2.206932e-003
1.265074e+003, -1.771147e-003
1.267003e+003, -2.057635e-003
1.268931e+003, -2.633991e-003
1.270859e+003, -2.626359e-003
1.272788e+003, -2.525503e-003
1.274716e+003, -2.722097e-003
1.276645e+003, -3.009027e-003
1.278573e+003, -2.948656e-003
1.280502e+003, -2.984215e-003
1.282430e+003, -2.937786e-003
1.284359e+003, -3.125329e-003
1.286287e+003, -3.393170e-003
1.288216e+003, -3.676566e-003
1.290144e+003, -4.057536e-003
1.292073e+003, -4.136194e-003
1.294001e+003, -4.069376e-003
1.295930e+003, -4.005068e-003
1.297858e+003, -3.753946e-003
1.299786e+003, -3.793015e-003
1.301715e+003, -4.029918e-003
1.303643e+003, -4.072250e-003
1.305572e+003, -4.264972e-003
1.307500e+003, -4.633464e-003
1.309429e+003, -4.587413e-003
1.311357e+003, -4.515116e-003
1.313286e+003, -4.605358e-003
1.315214e+003, -4.647944e-003
1.317143e+003, -4.957145e-003
1.319071e+003, -5.361039e-003
1.321000e+003, -5.431084e-003
1.322928e+003, -5.211408e-003
1.324857e+003, -5.182941e-003
1.326785e+003, -5.416970e-003
1.328714e+003, -5.813258e-003
1.330642e+003, -5.872088e-003
1.332570e+003, -5.620982e-003
1.334499e+003, -5.010037e-003
1.336427e+003, -5.027446e-003
1.338356e+003, -5.347818e-003
1.340284e+003, -4.952120e-003
1.342213e+003, -4.991063e-003
1.344141e+003, -5.635014e-003
1.346070e+003, -6.042670e-003
1.347998e+003, -5.567941e-003
1.349927e+003, -5.087437e-003
1.351855e+003, -5.255096e-003
1.353784e+003, -5.919978e-003
1.355712e+003, -5.936180e-003
1.357641e+003, -5.507653e-003
1.359569e+003, -5.469935e-003
1.361497e+003, -5.782573e-003
1.363426e+003, -6.254751e-003
1.365354e+003, -6.348488e-003
1.367283e+003, -6.162083e-003
1.369211e+003, -6.006454e-003
1.371140e+003, -5.676121e-003
1.373068e+003, -5.952442e-003
1.374997e+003, -6.135526e-003
1.376925e+003, -5.913327e-003
1.378854e+003, -5.906933e-003
1.380782e+003, -5.641011e-003
1.382711e+003, -5.443060e-003
1.384639e+003, -5.728837e-003
1.386568e+003, -5.976269e-003
1.388496e+003, -6.020350e-003
1.390424e+003, -5.956393e-003
1.392353e+003, -6.314964e-003
1.394281e+003, -6.636380e-003
1.396210e+003, -6.254610e-003
1.398138e+003, -6.282938e-003
1.400067e+003, -6.536124e-003
1.401995e+003, -6.448582e-003
1.403924e+003, -6.444355e-003
1.405852e+003, -6.335357e-003
1.407781e+003, -6.417310e-003
1.409709e+003, -6.361355e-003
1.411638e+003, -6.285873e-003
1.413566e+003, -6.398436e-003
1.415495e+003, -6.345629e-003
1.417423e+003, -6.457094e-003
1.419351e+003, -6.445643e-003
1.421280e+003, -6.395828e-003
1.423208e+003, -6.767896e-003
1.425137e+003, -6.877999e-003
1.427065e+003, -6.623076e-003
1.428994e+003, -6.437277e-003
1.430922e+003, -6.831209e-003
1.432851e+003, -7.127570e-003
1.434779e+003, -6.611113e-003
1.436708e+003, -6.130550e-003
1.438636e+003, -6.469139e-003
1.440565e+003, -7.038546e-003
1.442493e+003, -6.993715e-003
1.444422e+003, -6.654522e-003
1.446350e+003, -6.449767e-003
1.448278e+003, -6.458982e-003
1.450207e+003, -6.485899e-003
1.452135e+003, -6.480759e-003
1.454064e+003, -6.512776e-003
1.455992e+003, -6.543038e-003
1.457921e+003, -6.683928e-003
1.459849e+003, -7.063189e-003
1.461778e+003, -7.148950e-003
1.463706e+003, -6.825892e-003
1.465635e+003, -6.431017e-003
1.467563e+003, -6.297219e-003
1.469492e+003, -6.394715e-003
1.471420e+003, -6.318977e-003
1.473349e+003, -6.321169e-003
1.475277e+003, -6.523039e-003
1.477205e+003, -7.006810e-003
1.479134e+003, -7.203129e-003
1.481062e+003, -6.977419e-003
1.482991e+003, -6.857096e-003
1.484919e+003, -6.771911e-003
1.486848e+003, -6.609178e-003
1.488776e+003, -6.480430e-003
1.490705e+003, -6.317607e-003
1.492633e+003, -6.580773e-003
1.494562e+003, -6.760214e-003
1.496490e+003, -6.778100e-003
1.498419e+003, -6.847797e-003
1.500347e+003, -6.913505e-003
1.502276e+003, -6.758112e-003
1.504204e+003, -6.779596e-003
1.506132e+003, -6.636391e-003
1.508061e+003, -6.674911e-003
1.509989e+003, -6.573581e-003
1.511918e+003, -6.543820e-003
1.513846e+003, -6.527517e-003
1.515775e+003, -6.349369e-003
1.517703e+003, -6.204218e-003
1.519632e+003, -6.801168e-003
1.521560e+003, -7.139027e-003
1.523489e+003, -6.781585e-003
1.525417e+003, -6.371155e-003
1.527346e+003, -6.231367e-003
1.529274e+003, -6.677167e-003
1.531203e+003, -7.090355e-003
1.533131e+003, -7.053677e-003
1.535059e+003, -6.627901e-003
1.536988e+003, -6.636407e-003
1.538916e+003, -7.184312e-003
1.540845e+003, -7.287729e-003
1.542773e+003, -7.281320e-003
1.544702e+003, -7.154129e-003
1.546630e+003, -6.983601e-003
1.548559e+003, -6.886420e-003
1.550487e+003, -6.789603e-003
1.552416e+003, -6.699536e-003
1.554344e+003, -6.424775e-003
1.556273e+003, -6.463772e-003
1.558201e+003, -6.708825e-003
1.560130e+003, -6.484663e-003
1.562058e+003, -6.596497e-003
1.563986e+003, -7.028411e-003
1.565915e+003, -6.943380e-003
1.567843e+003, -6.569493e-003
1.569772e+003, -6.698787e-003
1.571700e+003, -6.396284e-003
1.573629e+003, -6.120850e-003
1.575557e+003, -6.535675e-003
1.577486e+003, -6.701933e-003
1.579414e+003, -6.483495e-003
1.581343e+003, -6.395768e-003
1.583271e+003, -6.359926e-003
1.585200e+003, -6.342866e-003
1.587128e+003, -6.004650e-003
1.589057e+003, -5.849378e-003
1.590985e+003, -6.056599e-003
1.592913e+003, -6.372084e-003
1.594842e+003, -6.316458e-003
1.596770e+003, -6.274410e-003
1.598699e+003, -6.327142e-003
1.600627e+003, -6.543072e-003
1.602556e+003, -6.423419e-003
1.604484e+003, -6.175336e-003
1.606413e+003, -6.250031e-003
1.608341e+003, -6.414225e-003
1.610270e+003, -5.937464e-003
1.612198e+003, -5.708163e-003
1.614127e+003, -5.821562e-003
1.616055e+003, -5.878988e-003
1.617984e+003, -5.618243e-003
1.619912e+003, -5.633095e-003
1.621840e+003, -5.575838e-003
1.623769e+003, -5.681801e-003
1.625697e+003, -5.784032e-003
1.627626e+003, -6.037774e-003
1.629554e+003, -5.940272e-003
1.631483e+003, -5.419865e-003
1.633411e+003, -5.840507e-003
1.635340e+003, -6.328908e-003
1.637268e+003, -6.330464e-003
1.639197e+003, -6.562629e-003
1.641125e+003, -6.543864e-003
1.643054e+003, -6.015734e-003
1.644982e+003, -5.588195e-003
1.646911e+003, -5.605037e-003
1.648839e+003, -5.900454e-003
1.650767e+003, -6.407817e-003
1.652696e+003, -6.944365e-003
1.654624e+003, -6.720720e-003
1.656553e+003, -6.616314e-003
1.658481e+003, -6.679988e-003
1.660410e+003, -6.264554e-003
1.662338e+003, -5.948024e-003
1.664267e+003, -6.281019e-003
1.666195e+003, -6.426144e-003
1.668124e+003, -6.210166e-003
1.670052e+003, -6.409224e-003
1.671981e+003, -6.696173e-003
1.673909e+003, -6.710434e-003
1.675838e+003, -6.387281e-003
1.677766e+003, -6.465544e-003
1.679694e+003, -6.625257e-003
1.681623e+003, -6.533210e-003
1.683551e+003, -7.287264e-003
1.685480e+003, -7.308323e-003
1.687408e+003, -6.783932e-003
1.689337e+003, -6.910238e-003
1.691265e+003, -7.243457e-003
1.693194e+003, -6.778104e-003
1.695122e+003, -6.373637e-003
1.697051e+003, -6.943846e-003
1.698979e+003, -7.579651e-003
1.700908e+003, -7.519244e-003
1.702836e+003, -7.333270e-003
1.704765e+003, -6.704231e-003
1.706693e+003, -6.595294e-003
1.708621e+003, -7.059522e-003
1.710550e+003, -6.847213e-003
1.712478e+003, -6.668197e-003
1.714407e+003, -6.751017e-003
1.716335e+003, -6.892825e-003
1.718264e+003, -7.206789e-003
1.720192e+003, -7.073395e-003
1.722121e+003, -6.273031e-003
1.724049e+003, -6.526867e-003
1.725978e+003, -6.609097e-003
1.727906e+003, -6.319275e-003
1.729835e+003, -6.479298e-003
1.731763e+003, -6.541401e-003
1.733692e+003, -6.746531e-003
1.735620e+003, -6.563142e-003
1.737548e+003, -6.455315e-003
1.739477e+003, -6.797653e-003
1.741405e+003, -7.128809e-003
1.743334e+003, -7.063729e-003
1.745262e+003, -6.925597e-003
1.747191e+003, -7.606955e-003
1.749119e+003, -7.464440e-003
1.751048e+003, -7.164483e-003
1.752976e+003, -7.314287e-003
1.754905e+003, -7.742720e-003
1.756833e+003, -7.796097e-003
1.758762e+003, -7.138591e-003
1.760690e+003, -6.973804e-003
1.762619e+003, -7.186567e-003
1.764547e+003, -6.858233e-003
1.766475e+003, -6.875570e-003
1.768404e+003, -7.823220e-003
1.770332e+003, -8.416662e-003
1.772261e+003, -8.216572e-003
1.774189e+003, -7.952379e-003
1.776118e+003, -7.721539e-003
1.778046e+003, -7.721035e-003
1.779975e+003, -7.605650e-003
1.781903e+003, -8.084930e-003
1.783832e+003, -7.782838e-003
1.785760e+003, -7.496004e-003
1.787689e+003, -7.882137e-003
1.789617e+003, -7.811489e-003
1.791546e+003, -8.068308e-003
1.793474e+003, -8.245267e-003
1.795402e+003, -8.709443e-003
1.797331e+003, -8.940641e-003
1.799259e+003, -9.245955e-003
1.801188e+003, -8.910763e-003
1.803116e+003, -8.428391e-003
1.805045e+003, -8.796796e-003
1.806973e+003, -9.012878e-003
1.808902e+003, -8.813286e-003
1.810830e+003, -8.577823e-003
1.812759e+003, -9.370117e-003
1.814687e+003, -1.043393e-002
1.816616e+003, -1.091725e-002
1.818544e+003, -9.663917e-003
1.820473e+003, -8.985152e-003
1.822401e+003, -9.390414e-003
1.824329e+003, -1.026240e-002
1.826258e+003, -9.953951e-003
1.828186e+003, -9.402911e-003
1.830115e+003, -8.781846e-003
1.832043e+003, -8.921874e-003
1.833972e+003, -9.584864e-003
1.835900e+003, -1.011216e-002
1.837829e+003, -1.010489e-002
1.839757e+003, -9.591454e-003
1.841686e+003, -9.844196e-003
1.843614e+003, -1.015327e-002
1.845543e+003, -1.071167e-002
1.847471e+003, -1.073956e-002
1.849400e+003, -1.016894e-002
1.851328e+003, -1.014825e-002
1.853256e+003, -1.009803e-002
1.855185e+003, -1.115326e-002
1.857113e+003, -1.161408e-002
1.859042e+003, -1.076937e-002
1.860970e+003, -1.033854e-002
1.862899e+003, -1.079779e-002
1.864827e+003, -1.085539e-002
1.866756e+003, -1.163683e-002
1.868684e+003, -1.201446e-002
1.870613e+003, -1.091894e-002
1.872541e+003, -9.893847e-003
1.874470e+003, -9.930012e-003
1.876398e+003, -1.031271e-002
1.878327e+003, -1.151510e-002
1.880255e+003, -1.241070e-002
1.882183e+003, -1.076662e-002
1.884112e+003, -1.069878e-002
1.886040e+003, -1.121327e-002
1.887969e+003, -1.122442e-002
1.889897e+003, -1.112551e-002
1.891826e+003, -1.129682e-002
1.893754e+003, -1.237638e-002
1.895683e+003, -1.210196e-002
1.897611e+003, -1.192570e-002
1.899540e+003, -1.235100e-002
1.901468e+003, -1.212450e-002
1.903397e+003, -1.236326e-002
1.905325e+003, -1.270597e-002
1.907254e+003, -1.353217e-002
1.909182e+003, -1.341339e-002
1.911110e+003, -1.082401e-002
1.913039e+003, -9.339764e-003
1.914967e+003, -1.072309e-002
1.916896e+003, -1.240054e-002
1.918824e+003, -1.263967e-002
1.920753e+003, -1.307235e-002
1.922681e+003, -1.217866e-002
1.924610e+003, -1.234967e-002
1.926538e+003, -1.325172e-002
1.928467e+003, -1.353933e-002
1.930395e+003, -1.274458e-002
1.932324e+003, -1.308007e-002
1.934252e+003, -1.273811e-002
1.936181e+003, -1.300229e-002
1.938109e+003, -1.250868e-002
1.940037e+003, -1.251963e-002
1.941966e+003, -1.460443e-002
1.943894e+003, -1.516729e-002
1.945823e+003, -1.302054e-002
1.947751e+003, -9.887774e-003
1.949680e+003, -1.038096e-002
1.951608e+003, -1.364810e-002
1.953537e+003, -1.213331e-002
1.955465e+003, -9.327529e-003
1.957394e+003, -1.234343e-002
1.959322e+003, -1.356008e-002
1.961251e+003, -1.229182e-002
1.963179e+003, -1.191896e-002
1.965108e+003, -1.235493e-002
1.967036e+003, -1.410063e-002
1.968964e+003, -1.469471e-002
1.970893e+003, -1.320965e-002
1.972821e+003, -1.360257e-002
1.974750e+003, -1.328071e-002
1.976678e+003, -1.048752e-002
1.978607e+003, -8.850327e-003
1.980535e+003, -1.017844e-002
1.982464e+003, -9.429025e-003
1.984392e+003, -8.296469e-003
1.986321e+003, -7.164392e-003
1.988249e+003, -8.683884e-003
1.990178e+003, -1.280031e-002
1.992106e+003, -1.695268e-002
1.994035e+003, -2.022360e-002
1.995963e+003, -1.723397e-002
1.997891e+003, -1.406187e-002
1.999820e+003, -1.339204e-002
2.001748e+003, -1.485612e-002
2.003677e+003, -1.622113e-002
2.005605e+003, -1.573429e-002
2.007534e+003, -1.256622e-002
2.009462e+003, -1.423684e-002
2.011391e+003, -1.545135e-002
2.013319e+003, -1.657551e-002
2.015248e+003, -1.388340e-002
2.017176e+003, -1.179891e-002
2.019105e+003, -1.306687e-002
2.021033e+003, -1.258272e-002
2.022962e+003, -1.117704e-002
2.024890e+003, -1.310031e-002
2.026818e+003, -1.524417e-002
2.028747e+003, -1.068523e-002
2.030675e+003, -9.703292e-003
2.032604e+003, -1.663637e-002
2.034532e+003, -1.824923e-002
2.036461e+003, -1.618294e-002
2.038389e+003, -1.289399e-002
2.040318e+003, -9.642454e-003
2.042246e+003, -9.135669e-003
2.044175e+003, -1.111864e-002
2.046103e+003, -1.313284e-002
2.048031e+003, -1.060968e-002
2.049960e+003, -8.733659e-003
2.051888e+003, -1.045144e-002
2.053817e+003, -1.000098e-002
2.055745e+003, -1.020083e-002
2.057674e+003, -1.112083e-002
2.059602e+003, -1.126626e-002
2.061531e+003, -1.213530e-002
2.063459e+003, -1.331429e-002
2.065388e+003, -1.372358e-002
2.067316e+003, -1.310100e-002
2.069245e+003, -1.252705e-002
2.071173e+003, -1.035336e-002
2.073102e+003, -9.120462e-003
2.075030e+003, -1.186360e-002
2.076958e+003, -1.426654e-002
2.078887e+003, -1.301441e-002
2.080815e+003, -1.309831e-002
2.082744e+003, -1.438046e-002
2.084672e+003, -1.380893e-002
2.086601e+003, -1.395066e-002
2.088529e+003, -1.304661e-002
2.090458e+003, -1.426074e-002
2.092386e+003, -1.370282e-002
2.094315e+003, -1.286506e-002
2.096243e+003, -1.109607e-002
2.098172e+003, -1.173742e-002
2.100100e+003, -1.270720e-002
2.102029e+003, -1.354476e-002
2.103957e+003, -1.229144e-002
2.105885e+003, -1.059319e-002
2.107814e+003, -8.855265e-003
2.109742e+003, -1.194176e-002
2.111671e+003, -1.343941e-002
2.113599e+003, -1.256607e-002
2.115528e+003, -1.285518e-002
2.117456e+003, -1.250433e-002
2.119385e+003, -1.174113e-002
2.121313e+003, -1.271435e-002
2.123242e+003, -1.302209e-002
2.125170e+003, -1.343239e-002
2.127099e+003, -1.297609e-002
2.129027e+003, -1.242901e-002
2.130956e+003, -1.195156e-002
2.132884e+003, -1.422226e-002
2.134813e+003, -1.614560e-002
2.136741e+003, -1.811618e-002
2.138669e+003, -1.665150e-002
2.140598e+003, -1.570666e-002
2.142526e+003, -1.591779e-002
2.144455e+003, -1.272398e-002
2.146383e+003, -1.092353e-002
2.148312e+003, -1.205571e-002
2.150240e+003, -1.373105e-002
2.152169e+003, -1.382543e-002
2.154097e+003, -1.459856e-002
2.156026e+003, -1.461508e-002
2.157954e+003, -1.235032e-002
2.159883e+003, -1.185748e-002
2.161811e+003, -8.326812e-003
2.163740e+003, -1.000415e-002
2.165668e+003, -9.930739e-003
2.167596e+003, -7.660906e-003
2.169525e+003, -1.042920e-002
2.171453e+003, -1.236952e-002
2.173382e+003, -1.294953e-002
2.175310e+003, -1.046243e-002
2.177239e+003, -7.380355e-003
2.179167e+003, -8.082150e-003
2.181096e+003, -1.078786e-002
2.183024e+003, -1.296227e-002
2.184953e+003, -1.296539e-002
2.186881e+003, -1.332730e-002
2.188810e+003, -1.164450e-002
2.190738e+003, -9.135134e-003
2.192667e+003, -1.106278e-002
2.194595e+003, -1.531246e-002
2.196523e+003, -1.556285e-002
2.198452e+003, -1.415910e-002
2.200380e+003, -1.153231e-002
2.202309e+003, -8.804084e-003
2.204237e+003, -1.072530e-002
2.206166e+003, -1.323566e-002
2.208094e+003, -1.439048e-002
2.210023e+003, -1.415208e-002
2.211951e+003, -1.162691e-002
2.213880e+003, -1.146245e-002
2.215808e+003, -1.272928e-002
2.217737e+003, -1.335437e-002
2.219665e+003, -1.067007e-002
2.221594e+003, -9.409491e-003
2.223522e+003, -1.321315e-002
2.225450e+003, -1.623998e-002
2.227379e+003, -1.308332e-002
2.229307e+003, -1.021738e-002
2.231236e+003, -1.112975e-002
2.233164e+003, -1.127669e-002
2.235093e+003, -1.134139e-002
2.237021e+003, -1.223953e-002
2.238950e+003, -1.201138e-002
2.240878e+003, -1.183139e-002
2.242807e+003, -9.975283e-003
2.244735e+003, -1.305300e-002
2.246664e+003, -1.560045e-002
2.248592e+003, -1.372380e-002
2.250521e+003, -1.270176e-002
2.252449e+003, -1.264711e-002
2.254377e+003, -1.235492e-002
2.256306e+003, -1.403783e-002
2.258234e+003, -1.611128e-002
2.260163e+003, -1.469823e-002
2.262091e+003, -1.277622e-002
2.264020e+003, -1.383487e-002
2.265948e+003, -1.459077e-002
2.267877e+003, -1.495517e-002
2.269805e+003, -1.365648e-002
2.271734e+003, -1.173890e-002
2.273662e+003, -1.117070e-002
2.275591e+003, -1.023751e-002
2.277519e+003, -9.894225e-003
2.279448e+003, -1.028616e-002
2.281376e+003, -1.051788e-002
2.283304e+003, -1.047435e-002
2.285233e+003, -9.904648e-003
2.287161e+003, -1.034048e-002
2.289090e+003, -1.121516e-002
2.291018e+003, -1.211476e-002
2.292947e+003, -1.238693e-002
2.294875e+003, -1.229969e-002
2.296804e+003, -1.242767e-002
2.298732e+003, -1.289032e-002
2.300661e+003, -1.204351e-002
2.302589e+003, -1.133737e-002
2.304518e+003, -1.221167e-002
2.306446e+003, -1.331447e-002
2.308375e+003, -1.402055e-002
2.310303e+003, -1.248617e-002
2.312231e+003, -1.119772e-002
2.314160e+003, -1.218855e-002
2.316088e+003, -1.201351e-002
2.318017e+003, -1.091098e-002
2.319945e+003, -1.101319e-002
2.321874e+003, -1.099328e-002
2.323802e+003, -1.018633e-002
2.325731e+003, -1.133642e-002
2.327659e+003, -1.187491e-002
2.329588e+003, -1.171048e-002
2.331516e+003, -1.147230e-002
2.333445e+003, -1.161739e-002
2.335373e+003, -1.147495e-002
2.337302e+003, -1.246257e-002
2.339230e+003, -1.385124e-002
2.341158e+003, -1.374409e-002
2.343087e+003, -1.312002e-002
2.345015e+003, -1.278586e-002
2.346944e+003, -1.268331e-002
2.348872e+003, -1.330393e-002
2.350801e+003, -1.329623e-002
2.352729e+003, -1.307726e-002
2.354658e+003, -1.234022e-002
2.356586e+003, -1.251273e-002
2.358515e+003, -1.300477e-002
2.360443e+003, -1.274147e-002
2.362372e+003, -1.211924e-002
2.364300e+003, -1.324198e-002
2.366229e+003, -1.297926e-002
2.368157e+003, -1.232373e-002
2.370085e+003, -1.280018e-002
2.372014e+003, -1.224338e-002
2.373942e+003, -1.193972e-002
2.375871e+003, -1.288663e-002
2.377799e+003, -1.284083e-002
2.379728e+003, -1.224363e-002
2.381656e+003, -1.184171e-002
2.383585e+003, -1.258301e-002
2.385513e+003, -1.339764e-002
2.387442e+003, -1.339185e-002
2.389370e+003, -1.283071e-002
2.391299e+003, -1.270038e-002
2.393227e+003, -1.275522e-002
2.395156e+003, -1.300641e-002
2.397084e+003, -1.272947e-002
2.399012e+003, -1.170241e-002
2.400941e+003, -1.057724e-002
2.402869e+003, -1.232507e-002
2.404798e+003, -1.284556e-002
2.406726e+003, -1.232533e-002
2.408655e+003, -1.299171e-002
2.410583e+003, -1.223376e-002
2.412512e+003, -1.075044e-002
2.414440e+003, -1.137502e-002
2.416369e+003, -1.233613e-002
2.418297e+003, -1.236541e-002
2.420226e+003, -1.152954e-002
2.422154e+003, -1.156502e-002
2.424083e+003, -1.231202e-002
2.426011e+003, -1.247840e-002
2.427939e+003, -1.170745e-002
2.429868e+003, -1.252615e-002
2.431796e+003, -1.194740e-002
2.433725e+003, -1.217980e-002
2.435653e+003, -1.274997e-002
2.437582e+003, -1.209029e-002
2.439510e+003, -1.050122e-002
2.441439e+003, -9.941950e-003
2.443367e+003, -1.040828e-002
2.445296e+003, -9.754766e-003
2.447224e+003, -9.771305e-003
2.449153e+003, -1.027273e-002
2.451081e+003, -1.086403e-002
2.453010e+003, -1.108945e-002
2.454938e+003, -1.080290e-002
2.456866e+003, -1.060347e-002
2.458795e+003, -1.064150e-002
2.460723e+003, -1.142699e-002
2.462652e+003, -1.139097e-002
2.464580e+003, -1.156770e-002
2.466509e+003, -1.147667e-002
2.468437e+003, -1.020219e-002
2.470366e+003, -1.007736e-002
2.472294e+003, -1.057956e-002
2.474223e+003, -1.042335e-002
2.476151e+003, -1.042133e-002
2.478080e+003, -9.199490e-003
2.480008e+003, -1.006108e-002
2.481937e+003, -1.090111e-002
2.483865e+003, -1.071226e-002
2.485793e+003, -1.139436e-002
2.487722e+003, -1.201610e-002
2.489650e+003, -1.220615e-002
2.491579e+003, -1.258671e-002
2.493507e+003, -1.234639e-002
2.495436e+003, -1.210057e-002
2.497364e+003, -1.203685e-002
2.499293e+003, -1.100358e-002
2.501221e+003, -1.158174e-002
2.503150e+003, -1.220304e-002
2.505078e+003, -1.226310e-002
2.507007e+003, -1.181194e-002
2.508935e+003, -1.215369e-002
2.510864e+003, -1.309842e-002
2.512792e+003, -1.232256e-002
2.514720e+003, -1.225999e-002
2.516649e+003, -1.298856e-002
2.518577e+003, -1.215777e-002
2.520506e+003, -1.018412e-002
2.522434e+003, -1.101010e-002
2.524363e+003, -1.182966e-002
2.526291e+003, -1.062325e-002
2.528220e+003, -9.599540e-003
2.530148e+003, -1.006549e-002
2.532077e+003, -1.215919e-002
2.534005e+003, -1.262355e-002
2.535934e+003, -1.252602e-002
2.537862e+003, -1.263572e-002
2.539791e+003, -1.231376e-002
2.541719e+003, -1.316489e-002
2.543647e+003, -1.384358e-002
2.545576e+003, -1.282322e-002
2.547504e+003, -1.188550e-002
2.549433e+003, -1.012695e-002
2.551361e+003, -1.051709e-002
2.553290e+003, -1.135325e-002
2.555218e+003, -1.093940e-002
2.557147e+003, -1.127607e-002
2.559075e+003, -1.158743e-002
2.561004e+003, -1.171959e-002
2.562932e+003, -1.263512e-002
2.564861e+003, -1.215989e-002
2.566789e+003, -1.095882e-002
2.568718e+003, -1.147141e-002
2.570646e+003, -1.219719e-002
2.572574e+003, -1.297320e-002
2.574503e+003, -1.283867e-002
2.576431e+003, -1.082664e-002
2.578360e+003, -9.633565e-003
2.580288e+003, -1.071534e-002
2.582217e+003, -1.161700e-002
2.584145e+003, -1.233970e-002
2.586074e+003, -1.201352e-002
2.588002e+003, -1.154884e-002
2.589931e+003, -1.239406e-002
2.591859e+003, -1.252999e-002
2.593788e+003, -1.281355e-002
2.595716e+003, -1.272299e-002
2.597645e+003, -1.125510e-002
2.599573e+003, -1.019343e-002
2.601501e+003, -1.015462e-002
2.603430e+003, -1.075432e-002
2.605358e+003, -1.101287e-002
2.607287e+003, -1.219329e-002
2.609215e+003, -1.315156e-002
2.611144e+003, -1.292523e-002
2.613072e+003, -1.174043e-002
2.615001e+003, -1.162854e-002
2.616929e+003, -1.184126e-002
2.618858e+003, -1.173757e-002
2.620786e+003, -1.129882e-002
2.622715e+003, -1.119269e-002
2.624643e+003, -1.223946e-002
2.626572e+003, -1.191194e-002
2.628500e+003, -1.073945e-002
2.630428e+003, -1.054927e-002
2.632357e+003, -1.148401e-002
2.634285e+003, -1.222874e-002
2.636214e+003, -1.093839e-002
2.638142e+003, -1.046969e-002
2.640071e+003, -1.123775e-002
2.641999e+003, -1.149998e-002
2.643928e+003, -1.118425e-002
2.645856e+003, -1.223475e-002
2.647785e+003, -1.190631e-002
2.649713e+003, -1.122785e-002
2.651642e+003, -1.140332e-002
2.653570e+003, -1.119091e-002
2.655499e+003, -1.090494e-002
2.657427e+003, -1.139429e-002
2.659355e+003, -1.169487e-002
2.661284e+003, -1.234334e-002
2.663212e+003, -1.221187e-002
2.665141e+003, -1.196232e-002
2.667069e+003, -1.248651e-002
2.668998e+003, -1.276356e-002
2.670926e+003, -1.344931e-002
2.672855e+003, -1.411737e-002
2.674783e+003, -1.315623e-002
2.676712e+003, -1.237055e-002
2.678640e+003, -1.219585e-002
2.680569e+003, -1.269818e-002
2.682497e+003, -1.382240e-002
2.684426e+003, -1.375622e-002
2.686354e+003, -1.315522e-002
2.688282e+003, -1.194980e-002
2.690211e+003, -1.166427e-002
2.692139e+003, -1.238438e-002
2.694068e+003, -1.265508e-002
2.695996e+003, -1.206843e-002
2.697925e+003, -1.272643e-002
2.699853e+003, -1.345080e-002
2.701782e+003, -1.337501e-002
2.703710e+003, -1.293836e-002
2.705639e+003, -1.254962e-002
2.707567e+003, -1.299807e-002
2.709496e+003, -1.216615e-002
2.711424e+003, -1.230363e-002
2.713353e+003, -1.290108e-002
2.715281e+003, -1.264068e-002
2.717209e+003, -1.301388e-002
2.719138e+003, -1.453147e-002
2.721066e+003, -1.485857e-002
2.722995e+003, -1.320932e-002
2.724923e+003, -1.219731e-002
2.726852e+003, -1.271071e-002
2.728780e+003, -1.255080e-002
2.730709e+003, -1.268239e-002
2.732637e+003, -1.275279e-002
2.734566e+003, -1.296613e-002
2.736494e+003, -1.237264e-002
2.738423e+003, -1.178284e-002
2.740351e+003, -1.201378e-002
2.742280e+003, -1.259729e-002
2.744208e+003, -1.349754e-002
2.746136e+003, -1.394784e-002
2.748065e+003, -1.329736e-002
2.749993e+003, -1.250630e-002
2.751922e+003, -1.303015e-002
2.753850e+003, -1.350453e-002
2.755779e+003, -1.393154e-002
2.757707e+003, -1.333061e-002
2.759636e+003, -1.170681e-002
2.761564e+003, -1.244804e-002
2.763493e+003, -1.321930e-002
2.765421e+003, -1.188474e-002
2.767350e+003, -1.222635e-002
2.769278e+003, -1.422906e-002
2.771207e+003, -1.398395e-002
2.773135e+003, -1.166120e-002
2.775063e+003, -1.150911e-002
2.776992e+003, -1.290237e-002
2.778920e+003, -1.382380e-002
2.780849e+003, -1.321722e-002
2.782777e+003, -1.201623e-002
2.784706e+003, -1.240496e-002
2.786634e+003, -1.231458e-002
2.788563e+003, -1.228412e-002
2.790491e+003, -1.210808e-002
2.792420e+003, -1.249990e-002
2.794348e+003, -1.304402e-002
2.796277e+003, -1.303449e-002
2.798205e+003, -1.350062e-002
2.800134e+003, -1.333108e-002
2.802062e+003, -1.190957e-002
2.803990e+003, -1.177240e-002
2.805919e+003, -1.273039e-002
2.807847e+003, -1.342335e-002
2.809776e+003, -1.284727e-002
2.811704e+003, -1.254539e-002
2.813633e+003, -1.286996e-002
2.815561e+003, -1.312493e-002
2.817490e+003, -1.398981e-002
2.819418e+003, -1.385576e-002
2.821347e+003, -1.229798e-002
2.823275e+003, -1.136715e-002
2.825204e+003, -1.227046e-002
2.827132e+003, -1.312384e-002
2.829061e+003, -1.325185e-002
2.830989e+003, -1.307018e-002
2.832917e+003, -1.327556e-002
2.834846e+003, -1.367813e-002
2.836774e+003, -1.263393e-002
2.838703e+003, -1.261615e-002
2.840631e+003, -1.326902e-002
2.842560e+003, -1.289444e-002
2.844488e+003, -1.226592e-002
2.846417e+003, -1.218495e-002
2.848345e+003, -1.218862e-002
2.850274e+003, -1.224847e-002
2.852202e+003, -1.233300e-002
2.854131e+003, -1.159837e-002
2.856059e+003, -1.334228e-002
2.857988e+003, -1.496920e-002
2.859916e+003, -1.379376e-002
2.861844e+003, -1.169796e-002
2.863773e+003, -1.071246e-002
2.865701e+003, -1.085286e-002
2.867630e+003, -1.086135e-002
2.869558e+003, -1.058567e-002
2.871487e+003, -1.114018e-002
2.873415e+003, -1.232314e-002
2.875344e+003, -1.310648e-002
2.877272e+003, -1.316553e-002
2.879201e+003, -1.324873e-002
2.881129e+003, -1.271001e-002
2.883058e+003, -1.308968e-002
2.884986e+003, -1.304716e-002
2.886915e+003, -1.154797e-002
2.888843e+003, -1.185447e-002
2.890771e+003, -1.202602e-002
2.892700e+003, -1.180790e-002
2.894628e+003, -1.054624e-002
2.896557e+003, -1.056448e-002
2.898485e+003, -1.243094e-002
2.900414e+003, -1.276277e-002
2.902342e+003, -1.183783e-002
2.904271e+003, -1.112594e-002
2.906199e+003, -1.089479e-002
2.908128e+003, -1.181470e-002
2.910056e+003, -1.196931e-002
2.911985e+003, -1.231714e-002
2.913913e+003, -1.265021e-002
2.915842e+003, -1.198704e-002
2.917770e+003, -1.247777e-002
2.919698e+003, -1.370606e-002
2.921627e+003, -1.311176e-002
2.923555e+003, -1.147095e-002
2.925484e+003, -1.036818e-002
2.927412e+003, -1.032188e-002
2.929341e+003, -9.560774e-003
2.931269e+003, -1.074972e-002
2.933198e+003, -1.302229e-002
2.935126e+003, -1.332900e-002
2.937055e+003, -1.179564e-002
2.938983e+003, -1.021690e-002
2.940912e+003, -1.072304e-002
2.942840e+003, -1.155339e-002
2.944769e+003, -1.323364e-002
2.946697e+003, -1.301124e-002
2.948625e+003, -1.125303e-002
2.950554e+003, -1.073815e-002
2.952482e+003, -9.787719e-003
2.954411e+003, -9.237047e-003
2.956339e+003, -1.056156e-002
2.958268e+003, -1.185915e-002
2.960196e+003, -1.191506e-002
2.962125e+003, -1.161394e-002
2.964053e+003, -1.111015e-002
2.965982e+003, -1.094341e-002
2.967910e+003, -1.228842e-002
2.969839e+003, -1.256722e-002
2.971767e+003, -1.264449e-002
2.973696e+003, -1.352082e-002
2.975624e+003, -1.310802e-002
2.977552e+003, -1.181573e-002
2.979481e+003, -1.299911e-002
2.981409e+003, -1.418909e-002
2.983338e+003, -1.289866e-002
2.985266e+003, -1.231034e-002
2.987195e+003, -1.290491e-002
2.989123e+003, -1.244471e-002
2.991052e+003, -1.162971e-002
2.992980e+003, -1.266774e-002
2.994909e+003, -1.323273e-002
2.996837e+003, -1.289866e-002
2.998766e+003, -1.230256e-002
3.000694e+003, -1.243150e-002
3.002623e+003, -1.304357e-002
3.004551e+003, -1.381916e-002
3.006479e+003, -1.389129e-002
3.008408e+003, -1.304210e-002
3.010336e+003, -1.239032e-002
3.012265e+003, -1.235196e-002
3.014193e+003, -1.298148e-002
3.016122e+003, -1.287536e-002
3.018050e+003, -1.206018e-002
3.019979e+003, -1.249956e-002
3.021907e+003, -1.306616e-002
3.023836e+003, -1.330071e-002
3.025764e+003, -1.298391e-002
3.027693e+003, -1.127952e-002
3.029621e+003, -1.275708e-002
3.031550e+003, -1.325511e-002
3.033478e+003, -1.204307e-002
3.035406e+003, -1.218253e-002
3.037335e+003, -1.270685e-002
3.039263e+003, -1.311835e-002
3.041192e+003, -1.246624e-002
3.043120e+003, -1.292388e-002
3.045049e+003, -1.263669e-002
3.046977e+003, -1.151945e-002
3.048906e+003, -1.216747e-002
3.050834e+003, -1.304033e-002
3.052763e+003, -1.236701e-002
3.054691e+003, -1.178077e-002
3.056620e+003, -1.219646e-002
3.058548e+003, -1.316131e-002
3.060477e+003, -1.264025e-002
3.062405e+003, -1.167605e-002
3.064333e+003, -1.257679e-002
3.066262e+003, -1.508187e-002
3.068190e+003, -1.435738e-002
3.070119e+003, -1.252315e-002
3.072047e+003, -1.328915e-002
3.073976e+003, -1.393885e-002
3.075904e+003, -1.380838e-002
3.077833e+003, -1.266827e-002
3.079761e+003, -1.055225e-002
3.081690e+003, -1.107528e-002
3.083618e+003, -1.283711e-002
3.085547e+003, -1.346053e-002
3.087475e+003, -1.276811e-002
3.089404e+003, -1.139909e-002
3.091332e+003, -1.150629e-002
3.093260e+003, -1.377314e-002
3.095189e+003, -1.534805e-002
3.097117e+003, -1.390392e-002
3.099046e+003, -1.163151e-002
3.100974e+003, -1.108754e-002
3.102903e+003, -1.335980e-002
3.104831e+003, -1.525191e-002
3.106760e+003, -1.575580e-002
3.108688e+003, -1.567455e-002
3.110617e+003, -1.490397e-002
3.112545e+003, -1.379220e-002
3.114474e+003, -1.143331e-002
3.116402e+003, -1.296659e-002
3.118331e+003, -1.443183e-002
3.120259e+003, -1.293156e-002
3.122188e+003, -1.342010e-002
3.124116e+003, -1.432496e-002
3.126044e+003, -1.314647e-002
3.127973e+003, -1.095299e-002
3.129901e+003, -1.090922e-002
3.131830e+003, -1.344671e-002
3.133758e+003, -1.341425e-002
3.135687e+003, -1.333370e-002
3.137615e+003, -1.385824e-002
3.139544e+003, -1.263848e-002
3.141472e+003, -1.194106e-002
3.143401e+003, -1.099634e-002
3.145329e+003, -1.159228e-002
3.147258e+003, -1.351117e-002
3.149186e+003, -1.399943e-002
3.151115e+003, -1.181712e-002
3.153043e+003, -1.046606e-002
3.154971e+003, -1.117371e-002
3.156900e+003, -1.131871e-002
3.158828e+003, -1.239732e-002
3.160757e+003, -1.391759e-002
3.162685e+003, -1.432805e-002
3.164614e+003, -1.293252e-002
3.166542e+003, -1.271867e-002
3.168471e+003, -1.206291e-002
3.170399e+003, -1.079793e-002
3.172328e+003, -1.018663e-002
3.174256e+003, -1.173879e-002
3.176185e+003, -1.302048e-002
3.178113e+003, -1.375207e-002
3.180042e+003, -1.342945e-002
3.181970e+003, -1.285223e-002
3.183898e+003, -1.195575e-002
3.185827e+003, -1.151395e-002
3.187755e+003, -1.022912e-002
3.189684e+003, -1.036062e-002
3.191612e+003, -1.100338e-002
3.193541e+003, -1.093432e-002
3.195469e+003, -1.073948e-002
3.197398e+003, -9.942893e-003
3.199326e+003, -9.358821e-003
3.201255e+003, -1.009256e-002
3.203183e+003, -1.198164e-002
3.205112e+003, -1.353541e-002
3.207040e+003, -1.262320e-002
3.208969e+003, -1.204144e-002
3.210897e+003, -1.191913e-002
3.212825e+003, -1.281633e-002
3.214754e+003, -1.444202e-002
3.216682e+003, -1.425045e-002
3.218611e+003, -1.421821e-002
3.220539e+003, -1.371790e-002
3.222468e+003, -1.320463e-002
3.224396e+003, -1.231129e-002
3.226325e+003, -1.383050e-002
3.228253e+003, -1.561311e-002
3.230182e+003, -1.449040e-002
3.232110e+003, -1.065241e-002
3.234039e+003, -8.934824e-003
3.235967e+003, -1.180367e-002
3.237896e+003, -1.202758e-002
3.239824e+003, -1.152342e-002
3.241752e+003, -1.264170e-002
3.243681e+003, -1.294502e-002
3.245609e+003, -1.202312e-002
3.247538e+003, -1.298668e-002
3.249466e+003, -1.379612e-002
3.251395e+003, -1.279761e-002
3.253323e+003, -1.307165e-002
3.255252e+003, -1.331284e-002
3.257180e+003, -1.344961e-002
3.259109e+003, -1.177478e-002
3.261037e+003, -1.192015e-002
3.262966e+003, -1.447175e-002
3.264894e+003, -1.578782e-002
3.266823e+003, -1.525869e-002
3.268751e+003, -1.422229e-002
3.270679e+003, -1.328513e-002
3.272608e+003, -1.236784e-002
3.274536e+003, -1.140537e-002
3.276465e+003, -1.152048e-002
3.278393e+003, -1.162927e-002
3.280322e+003, -1.135791e-002
3.282250e+003, -1.209034e-002
3.284179e+003, -1.315223e-002
3.286107e+003, -1.206540e-002
3.288036e+003, -1.151254e-002
3.289964e+003, -1.327669e-002
3.291893e+003, -1.376567e-002
3.293821e+003, -1.384036e-002
3.295750e+003, -1.373737e-002
3.297678e+003, -1.284276e-002
3.299606e+003, -1.274113e-002
3.301535e+003, -1.275015e-002
3.303463e+003, -1.049790e-002
3.305392e+003, -1.017247e-002
3.307320e+003, -1.312043e-002
3.309249e+003, -1.667429e-002
3.311177e+003, -1.725058e-002
3.313106e+003, -1.325510e-002
3.315034e+003, -1.139263e-002
3.316963e+003, -1.181261e-002
3.318891e+003, -1.217801e-002
3.320820e+003, -1.214836e-002
3.322748e+003, -1.239784e-002
3.324677e+003, -1.177184e-002
3.326605e+003, -1.139234e-002
3.328533e+003, -1.264955e-002
3.330462e+003, -1.376034e-002
3.332390e+003, -1.325209e-002
3.334319e+003, -1.268357e-002
3.336247e+003, -1.331696e-002
3.338176e+003, -1.144588e-002
3.340104e+003, -8.938784e-003
3.342033e+003, -1.161447e-002
3.343961e+003, -1.475046e-002
3.345890e+003, -1.349089e-002
3.347818e+003, -1.193184e-002
3.349747e+003, -9.984441e-003
3.351675e+003, -9.885802e-003
3.353604e+003, -1.226254e-002
3.355532e+003, -1.422698e-002
3.357460e+003, -1.463538e-002
3.359389e+003, -1.538199e-002
3.361317e+003, -1.629161e-002
3.363246e+003, -1.668723e-002
3.365174e+003, -1.748535e-002
3.367103e+003, -1.608045e-002
3.369031e+003, -1.090653e-002
3.370960e+003, -8.748556e-003
3.372888e+003, -1.052276e-002
3.374817e+003, -1.385314e-002
3.376745e+003, -1.525935e-002
3.378674e+003, -1.244389e-002
3.380602e+003, -1.125966e-002
3.382531e+003, -1.030759e-002
3.384459e+003, -1.240760e-002
3.386387e+003, -1.481961e-002
3.388316e+003, -1.471585e-002
3.390244e+003, -1.276747e-002
3.392173e+003, -1.190299e-002
3.394101e+003, -1.194509e-002
3.396030e+003, -1.616453e-002
3.397958e+003, -1.684977e-002
3.399887e+003, -1.459765e-002
3.401815e+003, -1.573398e-002
3.403744e+003, -1.783755e-002
3.405672e+003, -1.614914e-002
3.407601e+003, -1.405878e-002
3.409529e+003, -1.386178e-002
3.411458e+003, -1.364929e-002
3.413386e+003, -1.636743e-002
3.415314e+003, -1.689169e-002
3.417243e+003, -1.503205e-002
3.419171e+003, -1.473497e-002
3.421100e+003, -1.461292e-002
3.423028e+003, -1.470781e-002
3.424957e+003, -1.420663e-002
3.426885e+003, -1.422470e-002
3.428814e+003, -1.525348e-002
3.430742e+003, -1.655378e-002
3.432671e+003, -1.560441e-002
3.434599e+003, -1.319777e-002
3.436528e+003, -1.351997e-002
3.438456e+003, -1.541051e-002
3.440385e+003, -1.558629e-002
3.442313e+003, -1.657132e-002
3.444241e+003, -1.813802e-002
3.446170e+003, -1.562262e-002
3.448098e+003, -1.284839e-002
3.450027e+003, -1.152769e-002
3.451955e+003, -1.294023e-002
3.453884e+003, -1.748143e-002
3.455812e+003, -1.880780e-002
3.457741e+003, -1.728717e-002
3.459669e+003, -1.399787e-002
3.461598e+003, -1.364971e-002
3.463526e+003, -1.424314e-002
3.465455e+003, -1.423568e-002
3.467383e+003, -1.400511e-002
3.469312e+003, -1.297341e-002
3.471240e+003, -1.300440e-002
3.473168e+003, -1.477400e-002
3.475097e+003, -1.610363e-002
3.477025e+003, -1.586652e-002
3.478954e+003, -1.450373e-002
3.480882e+003, -1.378412e-002
3.482811e+003, -1.574730e-002
3.484739e+003, -1.743917e-002
3.486668e+003, -1.660322e-002
3.488596e+003, -1.584572e-002
3.490525e+003, -1.519483e-002
3.492453e+003, -1.722454e-002
3.494382e+003, -1.552717e-002
3.496310e+003, -1.449418e-002
3.498239e+003, -1.491043e-002
3.500167e+003, -1.555742e-002
3.502095e+003, -1.754417e-002
3.504024e+003, -1.652384e-002
3.505952e+003, -1.573741e-002
3.507881e+003, -1.534910e-002
3.509809e+003, -1.595694e-002
3.511738e+003, -1.728797e-002
3.513666e+003, -1.684578e-002
3.515595e+003, -1.658746e-002
3.517523e+003, -1.580093e-002
3.519452e+003, -1.618540e-002
3.521380e+003, -1.900189e-002
3.523309e+003, -1.818998e-002
3.525237e+003, -1.525611e-002
3.527166e+003, -1.351692e-002
3.529094e+003, -1.341381e-002
3.531022e+003, -1.682601e-002
3.532951e+003, -1.719600e-002
3.534879e+003, -1.619879e-002
3.536808e+003, -1.750203e-002
3.538736e+003, -1.587976e-002
3.540665e+003, -1.378457e-002
3.542593e+003, -1.657572e-002
3.544522e+003, -1.743653e-002
3.546450e+003, -1.638221e-002
3.548379e+003, -1.678719e-002
3.550307e+003, -1.692019e-002
3.552236e+003, -1.537514e-002
3.554164e+003, -1.788674e-002
3.556093e+003, -1.920121e-002
3.558021e+003, -1.712487e-002
3.559949e+003, -1.643100e-002
3.561878e+003, -1.872810e-002
3.563806e+003, -1.680465e-002
3.565735e+003, -1.674134e-002
3.567663e+003, -2.013149e-002
3.569592e+003, -2.068230e-002
3.571520e+003, -1.758207e-002
3.573449e+003, -1.912476e-002
3.575377e+003, -2.103508e-002
3.577306e+003, -1.974310e-002
3.579234e+003, -2.161506e-002
3.581163e+003, -2.334630e-002
3.583091e+003, -1.925127e-002
3.585020e+003, -1.699537e-002
3.586948e+003, -1.938353e-002
3.588876e+003, -2.058533e-002
3.590805e+003, -2.086133e-002
3.592733e+003, -2.095763e-002
3.594662e+003, -2.171016e-002
3.596590e+003, -1.997183e-002
3.598519e+003, -1.989841e-002
3.600447e+003, -1.779184e-002
3.602376e+003, -1.473885e-002
3.604304e+003, -1.781138e-002
3.606233e+003, -2.169238e-002
3.608161e+003, -2.210182e-002
3.610090e+003, -2.124790e-002
3.612018e+003, -2.155610e-002
3.613947e+003, -2.210286e-002
3.615875e+003, -1.935845e-002
3.617803e+003, -1.813605e-002
3.619732e+003, -1.935447e-002
3.621660e+003, -1.860822e-002
3.623589e+003, -1.900290e-002
3.625517e+003, -1.815512e-002
3.627446e+003, -1.831775e-002
3.629374e+003, -2.049031e-002
3.631303e+003, -2.372570e-002
3.633231e+003, -2.154815e-002
3.635160e+003, -1.890368e-002
3.637088e+003, -2.098726e-002
3.639017e+003, -2.301994e-002
3.640945e+003, -2.154061e-002
3.642874e+003, -1.930691e-002
3.644802e+003, -1.933367e-002
3.646730e+003, -2.064505e-002
3.648659e+003, -2.377964e-002
3.650587e+003, -2.289347e-002
3.652516e+003, -2.409659e-002
3.654444e+003, -2.322496e-002
3.656373e+003, -2.378803e-002
3.658301e+003, -2.325940e-002
3.660230e+003, -1.842396e-002
3.662158e+003, -1.828909e-002
3.664087e+003, -1.625193e-002
3.666015e+003, -1.519793e-002
3.667944e+003, -2.158949e-002
3.669872e+003, -2.531249e-002
3.671801e+003, -2.228153e-002
3.673729e+003, -2.045006e-002
3.675657e+003, -2.225593e-002
3.677586e+003, -2.223210e-002
3.679514e+003, -2.366944e-002
3.681443e+003, -2.161377e-002
3.683371e+003, -1.940181e-002
3.685300e+003, -1.859997e-002
3.687228e+003, -1.953994e-002
3.689157e+003, -2.061948e-002
3.691085e+003, -2.150105e-002
3.693014e+003, -2.042986e-002
3.694942e+003, -2.302816e-002
3.696871e+003, -2.562448e-002
3.698799e+003, -2.476093e-002
3.700728e+003, -2.194159e-002
3.702656e+003, -1.917347e-002
3.704584e+003, -1.886328e-002
3.706513e+003, -2.213999e-002
3.708441e+003, -2.452159e-002
3.710370e+003, -2.215878e-002
3.712298e+003, -1.975525e-002
3.714227e+003, -2.188052e-002
3.716155e+003, -2.240301e-002
3.718084e+003, -1.977892e-002
3.720012e+003, -1.878652e-002
3.721941e+003, -2.078685e-002
3.723869e+003, -2.279893e-002
3.725798e+003, -2.184090e-002
3.727726e+003, -1.984698e-002
3.729655e+003, -2.086043e-002
3.731583e+003, -2.356454e-002
3.733511e+003, -2.525058e-002
3.735440e+003, -2.432110e-002
3.737368e+003, -2.478519e-002
3.739297e+003, -2.584101e-002
3.741225e+003, -2.812868e-002
3.743154e+003, -2.579710e-002
3.745082e+003, -2.330289e-002
3.747011e+003, -2.475080e-002
3.748939e+003, -2.379272e-002
3.750868e+003, -2.306000e-002
3.752796e+003, -2.529467e-002
3.754725e+003, -2.464448e-002
3.756653e+003, -2.311270e-002
3.758582e+003, -2.232590e-002
3.760510e+003, -2.336919e-002
3.762438e+003, -2.288263e-002
3.764367e+003, -2.247758e-002
3.766295e+003, -2.288009e-002
3.768224e+003, -2.338136e-002
3.770152e+003, -2.302445e-002
3.772081e+003, -2.213374e-002
3.774009e+003, -2.435566e-002
3.775938e+003, -2.574105e-002
3.777866e+003, -2.381113e-002
3.779795e+003, -2.085350e-002
3.781723e+003, -2.358209e-002
3.783652e+003, -2.648428e-002
3.785580e+003, -2.319616e-002
3.787509e+003, -2.288907e-002
3.789437e+003, -2.558916e-002
3.791365e+003, -2.349559e-002
3.793294e+003, -2.206576e-002
3.795222e+003, -2.445910e-002
3.797151e+003, -2.427304e-002
3.799079e+003, -2.524734e-002
3.801008e+003, -2.688858e-002
3.802936e+003, -2.528422e-002
3.804865e+003, -2.384862e-002
3.806793e+003, -2.175439e-002
3.808722e+003, -2.437904e-002
3.810650e+003, -2.608999e-002
3.812579e+003, -2.619181e-002
3.814507e+003, -2.589773e-002
3.816436e+003, -2.250831e-002
3.818364e+003, -2.309915e-002
3.820292e+003, -2.645422e-002
3.822221e+003, -2.495882e-002
3.824149e+003, -2.195956e-002
3.826078e+003, -2.423236e-002
3.828006e+003, -2.695647e-002
3.829935e+003, -2.592435e-002
3.831863e+003, -2.334346e-002
3.833792e+003, -2.650146e-002
3.835720e+003, -2.621051e-002
3.837649e+003, -2.323265e-002
3.839577e+003, -2.278152e-002
3.841506e+003, -2.293104e-002
3.843434e+003, -2.411290e-002
3.845363e+003, -2.689469e-002
3.847291e+003, -2.791999e-002
3.849219e+003, -2.552038e-002
3.851148e+003, -2.174150e-002
3.853076e+003, -2.186562e-002
3.855005e+003, -2.551332e-002
3.856933e+003, -2.536417e-002
3.858862e+003, -2.537178e-002
3.860790e+003, -2.536966e-002
3.862719e+003, -2.613548e-002
3.864647e+003, -2.656776e-002
3.866576e+003, -2.576058e-002
3.868504e+003, -2.320762e-002
3.870433e+003, -2.326745e-002
3.872361e+003, -2.500329e-002
3.874290e+003, -2.442911e-002
3.876218e+003, -2.251667e-002
3.878146e+003, -2.134471e-002
3.880075e+003, -2.084665e-002
3.882003e+003, -2.218254e-002
3.883932e+003, -2.167866e-002
3.885860e+003, -2.183083e-002
3.887789e+003, -2.633185e-002
3.889717e+003, -2.826814e-002
3.891646e+003, -2.406955e-002
3.893574e+003, -2.265633e-002
3.895503e+003, -2.635999e-002
3.897431e+003, -2.784883e-002
3.899360e+003, -2.509665e-002
3.901288e+003, -2.588842e-002
3.903217e+003, -2.702417e-002
3.905145e+003, -2.795846e-002
3.907073e+003, -2.776628e-002
3.909002e+003, -2.822826e-002
3.910930e+003, -2.874267e-002
3.912859e+003, -2.849927e-002
3.914787e+003, -2.777913e-002
3.916716e+003, -2.762063e-002
3.918644e+003, -2.884200e-002
3.920573e+003, -3.035186e-002
3.922501e+003, -2.634924e-002
3.924430e+003, -2.271017e-002
3.926358e+003, -2.249223e-002
3.928287e+003, -2.477972e-002
3.930215e+003, -2.640796e-002
3.932144e+003, -2.612988e-002
3.934072e+003, -2.509606e-002
3.936000e+003, -2.539885e-002
3.937929e+003, -2.706160e-002
3.939857e+003, -2.773616e-002
3.941786e+003, -2.608003e-002
3.943714e+003, -2.491383e-002
3.945643e+003, -2.550631e-002
3.947571e+003, -2.461033e-002
3.949500e+003, -2.634382e-002
3.951428e+003, -2.997244e-002
3.953357e+003, -2.874759e-002
3.955285e+003, -2.604026e-002
3.957214e+003, -2.510598e-002
3.959142e+003, -2.796011e-002
3.961071e+003, -2.718280e-002
3.962999e+003, -2.465542e-002
3.964927e+003, -2.489020e-002
3.966856e+003, -2.574089e-002
3.968784e+003, -2.667136e-002
3.970713e+003, -2.691223e-002
3.972641e+003, -2.732950e-002
3.974570e+003, -2.921179e-002
3.976498e+003, -3.098751e-002
3.978427e+003, -2.973127e-002
3.980355e+003, -2.992657e-002
3.982284e+003, -2.776178e-002
3.984212e+003, -2.668377e-002
3.986141e+003, -2.965108e-002
3.988069e+003, -3.132985e-002
3.989998e+003, -3.131493e-002
3.991926e+003, -2.717058e-002
3.993854e+003, -2.419940e-002
3.995783e+003, -2.508256e-002
3.997711e+003, -2.700366e-002
3.999640e+003, -3.033888e-002
4.001568e+003, 0.000000e+000
##END=



