##NAMES=Allanite-(Ce)
##RRUFFID=R050043
##IDEAL CHEMISTRY=CaCeAl_2_Fe^2+^(Si_2_O_7_)(SiO_4_)O(OH)
##LOCALITY=Arendal, Norway
##OWNER=RRUFF
##SOURCE=University of Arizona Mineral Museum
##DESCRIPTION=Black patially metamict fragment, note that a fragment of this sample was heated and is posted at R080092
##STATUS=The identification of this mineral has been confirmed by X-ray diffraction and chemical analysis
##URL=rruff.info/R050043
##MEASURED CHEMISTRY=Ca_1.00_(Ce^3+^_0.22_Ca_0.21_La_0.11_Nd_0.11_Mn_0.08_Gd_0.07_Th_0.06_Y_0.06_Ti_0.05_Mg_0.03_)_Σ=1_(Al_1.82_Fe^3+^_0.40_Fe^2+^_0.78_)_Σ=3_[Si_2.00_O_7_][Si_1.00_O_4_]O(OH)
3.991926e+002, 1.746912e-001
4.011211e+002, 1.747548e-001
4.030495e+002, 1.742702e-001
4.049780e+002, 1.698450e-001
4.069065e+002, 1.674255e-001
4.088349e+002, 1.691688e-001
4.107634e+002, 1.693965e-001
4.126919e+002, 1.689083e-001
4.146203e+002, 1.693236e-001
4.165488e+002, 1.698917e-001
4.184773e+002, 1.707567e-001
4.204057e+002, 1.708595e-001
4.223342e+002, 1.700789e-001
4.242627e+002, 1.705002e-001
4.261911e+002, 1.714737e-001
4.281196e+002, 1.726129e-001
4.300481e+002, 1.734800e-001
4.319765e+002, 1.706579e-001
4.339050e+002, 1.694784e-001
4.358335e+002, 1.700757e-001
4.377619e+002, 1.702419e-001
4.396904e+002, 1.704506e-001
4.416189e+002, 1.704264e-001
4.435473e+002, 1.697461e-001
4.454758e+002, 1.683553e-001
4.474043e+002, 1.683296e-001
4.493327e+002, 1.687094e-001
4.512612e+002, 1.672471e-001
4.531897e+002, 1.661693e-001
4.551181e+002, 1.656317e-001
4.570466e+002, 1.652732e-001
4.589751e+002, 1.645973e-001
4.609035e+002, 1.642162e-001
4.628320e+002, 1.643096e-001
4.647605e+002, 1.634082e-001
4.666889e+002, 1.618743e-001
4.686174e+002, 1.601877e-001
4.705459e+002, 1.585456e-001
4.724743e+002, 1.566809e-001
4.744028e+002, 1.549139e-001
4.763313e+002, 1.536181e-001
4.782597e+002, 1.528100e-001
4.801882e+002, 1.528632e-001
4.821167e+002, 1.528420e-001
4.840451e+002, 1.516488e-001
4.859736e+002, 1.508255e-001
4.879021e+002, 1.503864e-001
4.898305e+002, 1.500435e-001
4.917590e+002, 1.486247e-001
4.936875e+002, 1.472079e-001
4.956159e+002, 1.464440e-001
4.975444e+002, 1.457368e-001
4.994729e+002, 1.443811e-001
5.014013e+002, 1.429472e-001
5.033298e+002, 1.418881e-001
5.052583e+002, 1.407491e-001
5.071867e+002, 1.395752e-001
5.091152e+002, 1.386466e-001
5.110437e+002, 1.374287e-001
5.129721e+002, 1.362232e-001
5.149006e+002, 1.351088e-001
5.168290e+002, 1.337718e-001
5.187575e+002, 1.323048e-001
5.206860e+002, 1.308267e-001
5.226144e+002, 1.297363e-001
5.245429e+002, 1.288441e-001
5.264714e+002, 1.275238e-001
5.283998e+002, 1.267133e-001
5.303283e+002, 1.257034e-001
5.322568e+002, 1.246039e-001
5.341852e+002, 1.236628e-001
5.361137e+002, 1.226205e-001
5.380422e+002, 1.215247e-001
5.399706e+002, 1.206594e-001
5.418991e+002, 1.198854e-001
5.438276e+002, 1.190405e-001
5.457560e+002, 1.184028e-001
5.476845e+002, 1.175822e-001
5.496130e+002, 1.169473e-001
5.515414e+002, 1.164209e-001
5.534699e+002, 1.158973e-001
5.553984e+002, 1.154890e-001
5.573268e+002, 1.146146e-001
5.592553e+002, 1.140645e-001
5.611838e+002, 1.136334e-001
5.631122e+002, 1.131666e-001
5.650407e+002, 1.126565e-001
5.669692e+002, 1.121560e-001
5.688976e+002, 1.113890e-001
5.708261e+002, 1.105247e-001
5.727546e+002, 1.103250e-001
5.746830e+002, 1.100824e-001
5.766115e+002, 1.093387e-001
5.785400e+002, 1.085383e-001
5.804684e+002, 1.079712e-001
5.823969e+002, 1.077167e-001
5.843254e+002, 1.075370e-001
5.862538e+002, 1.073751e-001
5.881823e+002, 1.071500e-001
5.901108e+002, 1.066457e-001
5.920392e+002, 1.060703e-001
5.939677e+002, 1.055971e-001
5.958962e+002, 1.052621e-001
5.978246e+002, 1.050712e-001
5.997531e+002, 1.048905e-001
6.016816e+002, 1.047784e-001
6.036100e+002, 1.045880e-001
6.055385e+002, 1.043524e-001
6.074670e+002, 1.043820e-001
6.093954e+002, 1.041688e-001
6.113239e+002, 1.036330e-001
6.132524e+002, 1.033146e-001
6.151808e+002, 1.029474e-001
6.171093e+002, 1.025444e-001
6.190378e+002, 1.024057e-001
6.209662e+002, 1.022495e-001
6.228947e+002, 1.018606e-001
6.248232e+002, 1.015395e-001
6.267516e+002, 1.012230e-001
6.286801e+002, 1.007022e-001
6.306086e+002, 1.002598e-001
6.325370e+002, 1.002188e-001
6.344655e+002, 1.002367e-001
6.363940e+002, 1.000881e-001
6.383224e+002, 9.965219e-002
6.402509e+002, 9.940314e-002
6.421794e+002, 9.932517e-002
6.441078e+002, 9.904429e-002
6.460363e+002, 9.847642e-002
6.479648e+002, 9.796464e-002
6.498932e+002, 9.772240e-002
6.518217e+002, 9.754860e-002
6.537502e+002, 9.718786e-002
6.556786e+002, 9.685079e-002
6.576071e+002, 9.664427e-002
6.595356e+002, 9.629598e-002
6.614641e+002, 9.593944e-002
6.633925e+002, 9.581453e-002
6.653210e+002, 9.556986e-002
6.672495e+002, 9.534121e-002
6.691779e+002, 9.497643e-002
6.711064e+002, 9.461679e-002
6.730349e+002, 9.428745e-002
6.749633e+002, 9.392452e-002
6.768918e+002, 9.346768e-002
6.788203e+002, 9.299928e-002
6.807487e+002, 9.265884e-002
6.826772e+002, 9.230463e-002
6.846057e+002, 9.200428e-002
6.865341e+002, 9.176017e-002
6.884626e+002, 9.147991e-002
6.903911e+002, 9.128056e-002
6.923195e+002, 9.103563e-002
6.942480e+002, 9.075747e-002
6.961765e+002, 9.048601e-002
6.981049e+002, 9.006774e-002
7.000334e+002, 8.974273e-002
7.019619e+002, 8.934376e-002
7.038903e+002, 8.897033e-002
7.058188e+002, 8.884639e-002
7.077473e+002, 8.851037e-002
7.096757e+002, 8.820853e-002
7.116042e+002, 8.796138e-002
7.135327e+002, 8.778891e-002
7.154611e+002, 8.749275e-002
7.173896e+002, 8.721654e-002
7.193181e+002, 8.707310e-002
7.212465e+002, 8.676747e-002
7.231750e+002, 8.646275e-002
7.251035e+002, 8.620717e-002
7.270319e+002, 8.593587e-002
7.289604e+002, 8.579085e-002
7.308889e+002, 8.577357e-002
7.328173e+002, 8.570845e-002
7.347458e+002, 8.565290e-002
7.366743e+002, 8.542570e-002
7.386027e+002, 8.511174e-002
7.405312e+002, 8.503339e-002
7.424597e+002, 8.488987e-002
7.443881e+002, 8.473974e-002
7.463166e+002, 8.476618e-002
7.482451e+002, 8.464816e-002
7.501735e+002, 8.450343e-002
7.521020e+002, 8.421218e-002
7.540305e+002, 8.395897e-002
7.559589e+002, 8.387689e-002
7.578874e+002, 8.381707e-002
7.598159e+002, 8.382967e-002
7.617443e+002, 8.390947e-002
7.636728e+002, 8.393429e-002
7.656013e+002, 8.397029e-002
7.675297e+002, 8.428349e-002
7.694582e+002, 8.458230e-002
7.713867e+002, 8.473095e-002
7.733151e+002, 8.479232e-002
7.752436e+002, 8.499087e-002
7.771721e+002, 8.552895e-002
7.791005e+002, 8.598463e-002
7.810290e+002, 8.647621e-002
7.829575e+002, 8.700027e-002
7.848859e+002, 8.739652e-002
7.868144e+002, 8.795489e-002
7.887429e+002, 8.892085e-002
7.906713e+002, 9.000506e-002
7.925998e+002, 9.114352e-002
7.945283e+002, 9.229063e-002
7.964567e+002, 9.363080e-002
7.983852e+002, 9.498412e-002
8.003137e+002, 9.636624e-002
8.022421e+002, 9.770900e-002
8.041706e+002, 9.900884e-002
8.060991e+002, 1.004793e-001
8.080275e+002, 1.023193e-001
8.099560e+002, 1.041668e-001
8.118845e+002, 1.059251e-001
8.138129e+002, 1.078982e-001
8.157414e+002, 1.102017e-001
8.176699e+002, 1.123692e-001
8.195983e+002, 1.144542e-001
8.215268e+002, 1.167194e-001
8.234553e+002, 1.190774e-001
8.253837e+002, 1.214752e-001
8.273122e+002, 1.237644e-001
8.292407e+002, 1.259181e-001
8.311691e+002, 1.281424e-001
8.330976e+002, 1.305107e-001
8.350261e+002, 1.329006e-001
8.369545e+002, 1.350586e-001
8.388830e+002, 1.371696e-001
8.408115e+002, 1.392475e-001
8.427399e+002, 1.414272e-001
8.446684e+002, 1.434689e-001
8.465969e+002, 1.453431e-001
8.485253e+002, 1.472572e-001
8.504538e+002, 1.492045e-001
8.523823e+002, 1.509648e-001
8.543107e+002, 1.525919e-001
8.562392e+002, 1.542422e-001
8.581677e+002, 1.558034e-001
8.600961e+002, 1.572900e-001
8.620246e+002, 1.586796e-001
8.639531e+002, 1.600078e-001
8.658815e+002, 1.613179e-001
8.678100e+002, 1.623394e-001
8.697385e+002, 1.633736e-001
8.716669e+002, 1.646687e-001
8.735954e+002, 1.657929e-001
8.755239e+002, 1.665533e-001
8.774523e+002, 1.672468e-001
8.793808e+002, 1.678149e-001
8.813093e+002, 1.685107e-001
8.832377e+002, 1.693507e-001
8.851662e+002, 1.699678e-001
8.870947e+002, 1.702840e-001
8.890231e+002, 1.706351e-001
8.909516e+002, 1.710986e-001
8.928801e+002, 1.715514e-001
8.948085e+002, 1.717888e-001
8.967370e+002, 1.718754e-001
8.986655e+002, 1.719975e-001
9.005939e+002, 1.723211e-001
9.025224e+002, 1.725331e-001
9.044509e+002, 1.725261e-001
9.063793e+002, 1.726220e-001
9.083078e+002, 1.726175e-001
9.102363e+002, 1.724419e-001
9.121647e+002, 1.721609e-001
9.140932e+002, 1.719569e-001
9.160217e+002, 1.717144e-001
9.179501e+002, 1.713414e-001
9.198786e+002, 1.710395e-001
9.218071e+002, 1.705853e-001
9.237355e+002, 1.701512e-001
9.256640e+002, 1.696720e-001
9.275925e+002, 1.692944e-001
9.295209e+002, 1.688019e-001
9.314494e+002, 1.680627e-001
9.333779e+002, 1.674839e-001
9.353063e+002, 1.667982e-001
9.372348e+002, 1.659869e-001
9.391633e+002, 1.652576e-001
9.410917e+002, 1.645850e-001
9.430202e+002, 1.636879e-001
9.449487e+002, 1.626830e-001
9.468771e+002, 1.618308e-001
9.488056e+002, 1.609347e-001
9.507341e+002, 1.598624e-001
9.526625e+002, 1.588584e-001
9.545910e+002, 1.577738e-001
9.565195e+002, 1.568025e-001
9.584479e+002, 1.558521e-001
9.603764e+002, 1.548233e-001
9.623049e+002, 1.537906e-001
9.642333e+002, 1.526760e-001
9.661618e+002, 1.516581e-001
9.680903e+002, 1.506283e-001
9.700187e+002, 1.493493e-001
9.719472e+002, 1.480808e-001
9.738757e+002, 1.468846e-001
9.758041e+002, 1.456287e-001
9.777326e+002, 1.443982e-001
9.796611e+002, 1.433242e-001
9.815895e+002, 1.422074e-001
9.835180e+002, 1.410587e-001
9.854465e+002, 1.397838e-001
9.873749e+002, 1.385340e-001
9.893034e+002, 1.373797e-001
9.912319e+002, 1.363665e-001
9.931603e+002, 1.351222e-001
9.950888e+002, 1.337187e-001
9.970173e+002, 1.323896e-001
9.989457e+002, 1.312279e-001
1.000874e+003, 1.299155e-001
1.002803e+003, 1.284892e-001
1.004731e+003, 1.270710e-001
1.006660e+003, 1.258238e-001
1.008588e+003, 1.246081e-001
1.010517e+003, 1.232331e-001
1.012445e+003, 1.218032e-001
1.014373e+003, 1.204278e-001
1.016302e+003, 1.190738e-001
1.018230e+003, 1.176721e-001
1.020159e+003, 1.163235e-001
1.022087e+003, 1.148895e-001
1.024016e+003, 1.135179e-001
1.025944e+003, 1.121604e-001
1.027873e+003, 1.105837e-001
1.029801e+003, 1.090550e-001
1.031730e+003, 1.075679e-001
1.033658e+003, 1.060023e-001
1.035587e+003, 1.045367e-001
1.037515e+003, 1.029751e-001
1.039443e+003, 1.013266e-001
1.041372e+003, 9.973636e-002
1.043300e+003, 9.826288e-002
1.045229e+003, 9.661067e-002
1.047157e+003, 9.477612e-002
1.049086e+003, 9.310905e-002
1.051014e+003, 9.160472e-002
1.052943e+003, 9.007743e-002
1.054871e+003, 8.838931e-002
1.056800e+003, 8.662856e-002
1.058728e+003, 8.489028e-002
1.060657e+003, 8.323059e-002
1.062585e+003, 8.164139e-002
1.064514e+003, 7.996847e-002
1.066442e+003, 7.834564e-002
1.068370e+003, 7.671553e-002
1.070299e+003, 7.508243e-002
1.072227e+003, 7.340413e-002
1.074156e+003, 7.182018e-002
1.076084e+003, 7.022697e-002
1.078013e+003, 6.867531e-002
1.079941e+003, 6.703959e-002
1.081870e+003, 6.541844e-002
1.083798e+003, 6.401906e-002
1.085727e+003, 6.264015e-002
1.087655e+003, 6.119859e-002
1.089584e+003, 5.964748e-002
1.091512e+003, 5.808345e-002
1.093441e+003, 5.670588e-002
1.095369e+003, 5.526942e-002
1.097297e+003, 5.366090e-002
1.099226e+003, 5.225042e-002
1.101154e+003, 5.086479e-002
1.103083e+003, 4.954757e-002
1.105011e+003, 4.824745e-002
1.106940e+003, 4.701731e-002
1.108868e+003, 4.566433e-002
1.110797e+003, 4.437257e-002
1.112725e+003, 4.319026e-002
1.114654e+003, 4.204619e-002
1.116582e+003, 4.091985e-002
1.118511e+003, 3.970807e-002
1.120439e+003, 3.849448e-002
1.122368e+003, 3.740753e-002
1.124296e+003, 3.644974e-002
1.126224e+003, 3.540701e-002
1.128153e+003, 3.438661e-002
1.130081e+003, 3.331520e-002
1.132010e+003, 3.224830e-002
1.133938e+003, 3.120940e-002
1.135867e+003, 3.028137e-002
1.137795e+003, 2.948768e-002
1.139724e+003, 2.873643e-002
1.141652e+003, 2.774444e-002
1.143581e+003, 2.677923e-002
1.145509e+003, 2.602427e-002
1.147438e+003, 2.532939e-002
1.149366e+003, 2.449358e-002
1.151295e+003, 2.361250e-002
1.153223e+003, 2.283344e-002
1.155151e+003, 2.194576e-002
1.157080e+003, 2.123120e-002
1.159008e+003, 2.057235e-002
1.160937e+003, 1.986577e-002
1.162865e+003, 1.924407e-002
1.164794e+003, 1.862740e-002
1.166722e+003, 1.782436e-002
1.168651e+003, 1.726865e-002
1.170579e+003, 1.676492e-002
1.172508e+003, 1.607512e-002
1.174436e+003, 1.548505e-002
1.176365e+003, 1.491597e-002
1.178293e+003, 1.436711e-002
1.180222e+003, 1.393523e-002
1.182150e+003, 1.351026e-002
1.184078e+003, 1.297840e-002
1.186007e+003, 1.249078e-002
1.187935e+003, 1.218945e-002
1.189864e+003, 1.184949e-002
1.191792e+003, 1.135791e-002
1.193721e+003, 1.097715e-002
1.195649e+003, 1.066819e-002
1.197578e+003, 1.027327e-002
1.199506e+003, 9.949697e-003
1.201435e+003, 9.698811e-003
1.203363e+003, 9.408557e-003
1.205292e+003, 9.088122e-003
1.207220e+003, 8.853716e-003
1.209149e+003, 8.587518e-003
1.211077e+003, 8.303983e-003
1.213005e+003, 7.983883e-003
1.214934e+003, 7.685276e-003
1.216862e+003, 7.502201e-003
1.218791e+003, 7.456216e-003
1.220719e+003, 7.378923e-003
1.222648e+003, 7.129874e-003
1.224576e+003, 6.903108e-003
1.226505e+003, 6.806741e-003
1.228433e+003, 6.638180e-003
1.230362e+003, 6.535142e-003
1.232290e+003, 6.596310e-003
1.234219e+003, 6.631102e-003
1.236147e+003, 6.464672e-003
1.238076e+003, 6.307418e-003
1.240004e+003, 6.255929e-003
1.241932e+003, 6.253128e-003
1.243861e+003, 6.234612e-003
1.245789e+003, 6.131252e-003
1.247718e+003, 5.980330e-003
1.249646e+003, 5.920583e-003
1.251575e+003, 6.036052e-003
1.253503e+003, 6.194463e-003
1.255432e+003, 6.185355e-003
1.257360e+003, 6.007085e-003
1.259289e+003, 5.907846e-003
1.261217e+003, 5.886902e-003
1.263146e+003, 5.871536e-003
1.265074e+003, 5.949056e-003
1.267003e+003, 6.049883e-003
1.268931e+003, 6.036391e-003
1.270859e+003, 5.975496e-003
1.272788e+003, 5.958346e-003
1.274716e+003, 6.019719e-003
1.276645e+003, 6.068512e-003
1.278573e+003, 6.016006e-003
1.280502e+003, 5.989396e-003
1.282430e+003, 6.099062e-003
1.284359e+003, 6.083754e-003
1.286287e+003, 5.919705e-003
1.288216e+003, 5.984490e-003
1.290144e+003, 6.066042e-003
1.292073e+003, 5.928763e-003
1.294001e+003, 5.970544e-003
1.295930e+003, 6.150630e-003
1.297858e+003, 6.154914e-003
1.299786e+003, 6.074156e-003
1.301715e+003, 6.059321e-003
1.303643e+003, 6.145189e-003
1.305572e+003, 6.216599e-003
1.307500e+003, 6.219123e-003
1.309429e+003, 6.243167e-003
1.311357e+003, 6.281533e-003
1.313286e+003, 6.227022e-003
1.315214e+003, 6.162684e-003
1.317143e+003, 6.297199e-003
1.319071e+003, 6.356400e-003
1.321000e+003, 6.265102e-003
1.322928e+003, 6.309480e-003
1.324857e+003, 6.439456e-003
1.326785e+003, 6.425889e-003
1.328714e+003, 6.443020e-003
1.330642e+003, 6.553365e-003
1.332570e+003, 6.603099e-003
1.334499e+003, 6.621869e-003
1.336427e+003, 6.597936e-003
1.338356e+003, 6.609071e-003
1.340284e+003, 6.609521e-003
1.342213e+003, 6.630456e-003
1.344141e+003, 6.683859e-003
1.346070e+003, 6.749168e-003
1.347998e+003, 6.761729e-003
1.349927e+003, 6.850773e-003
1.351855e+003, 6.933120e-003
1.353784e+003, 7.020722e-003
1.355712e+003, 7.065592e-003
1.357641e+003, 7.132372e-003
1.359569e+003, 7.285693e-003
1.361497e+003, 7.317219e-003
1.363426e+003, 7.178770e-003
1.365354e+003, 7.219376e-003
1.367283e+003, 7.351936e-003
1.369211e+003, 7.437869e-003
1.371140e+003, 7.570634e-003
1.373068e+003, 7.696671e-003
1.374997e+003, 7.736049e-003
1.376925e+003, 7.731324e-003
1.378854e+003, 7.748354e-003
1.380782e+003, 7.875671e-003
1.382711e+003, 8.078325e-003
1.384639e+003, 8.091965e-003
1.386568e+003, 8.060722e-003
1.388496e+003, 8.223535e-003
1.390424e+003, 8.366252e-003
1.392353e+003, 8.444564e-003
1.394281e+003, 8.462304e-003
1.396210e+003, 8.578493e-003
1.398138e+003, 8.726288e-003
1.400067e+003, 8.913748e-003
1.401995e+003, 9.014466e-003
1.403924e+003, 8.966673e-003
1.405852e+003, 8.904636e-003
1.407781e+003, 8.980893e-003
1.409709e+003, 9.171448e-003
1.411638e+003, 9.253839e-003
1.413566e+003, 9.256116e-003
1.415495e+003, 9.331549e-003
1.417423e+003, 9.334534e-003
1.419351e+003, 9.405011e-003
1.421280e+003, 9.472161e-003
1.423208e+003, 9.530268e-003
1.425137e+003, 9.576415e-003
1.427065e+003, 9.565410e-003
1.428994e+003, 9.562421e-003
1.430922e+003, 9.596366e-003
1.432851e+003, 9.692138e-003
1.434779e+003, 9.733914e-003
1.436708e+003, 9.762713e-003
1.438636e+003, 9.779545e-003
1.440565e+003, 9.791540e-003
1.442493e+003, 9.837419e-003
1.444422e+003, 9.814546e-003
1.446350e+003, 9.771963e-003
1.448278e+003, 9.695026e-003
1.450207e+003, 9.649282e-003
1.452135e+003, 9.604904e-003
1.454064e+003, 9.659829e-003
1.455992e+003, 9.775471e-003
1.457921e+003, 9.760113e-003
1.459849e+003, 9.690209e-003
1.461778e+003, 9.628456e-003
1.463706e+003, 9.575428e-003
1.465635e+003, 9.579465e-003
1.467563e+003, 9.662121e-003
1.469492e+003, 9.718766e-003
1.471420e+003, 9.746864e-003
1.473349e+003, 9.920211e-003
1.475277e+003, 9.960005e-003
1.477205e+003, 9.911733e-003
1.479134e+003, 9.989131e-003
1.481062e+003, 1.010604e-002
1.482991e+003, 1.013691e-002
1.484919e+003, 1.015095e-002
1.486848e+003, 1.014941e-002
1.488776e+003, 1.021845e-002
1.490705e+003, 1.028182e-002
1.492633e+003, 1.031924e-002
1.494562e+003, 1.034027e-002
1.496490e+003, 1.038798e-002
1.498419e+003, 1.050953e-002
1.500347e+003, 1.059769e-002
1.502276e+003, 1.064404e-002
1.504204e+003, 1.074976e-002
1.506132e+003, 1.078379e-002
1.508061e+003, 1.076630e-002
1.509989e+003, 1.080957e-002
1.511918e+003, 1.078274e-002
1.513846e+003, 1.076936e-002
1.515775e+003, 1.091905e-002
1.517703e+003, 1.099496e-002
1.519632e+003, 1.104544e-002
1.521560e+003, 1.106674e-002
1.523489e+003, 1.097344e-002
1.525417e+003, 1.099334e-002
1.527346e+003, 1.105669e-002
1.529274e+003, 1.113557e-002
1.531203e+003, 1.123526e-002
1.533131e+003, 1.130774e-002
1.535059e+003, 1.132673e-002
1.536988e+003, 1.128621e-002
1.538916e+003, 1.137993e-002
1.540845e+003, 1.139580e-002
1.542773e+003, 1.145966e-002
1.544702e+003, 1.154241e-002
1.546630e+003, 1.152908e-002
1.548559e+003, 1.160834e-002
1.550487e+003, 1.166169e-002
1.552416e+003, 1.165541e-002
1.554344e+003, 1.165192e-002
1.556273e+003, 1.170693e-002
1.558201e+003, 1.181364e-002
1.560130e+003, 1.176393e-002
1.562058e+003, 1.172254e-002
1.563986e+003, 1.173417e-002
1.565915e+003, 1.178205e-002
1.567843e+003, 1.174767e-002
1.569772e+003, 1.175889e-002
1.571700e+003, 1.186522e-002
1.573629e+003, 1.185829e-002
1.575557e+003, 1.183776e-002
1.577486e+003, 1.185656e-002
1.579414e+003, 1.184986e-002
1.581343e+003, 1.176758e-002
1.583271e+003, 1.179127e-002
1.585200e+003, 1.196066e-002
1.587128e+003, 1.204264e-002
1.589057e+003, 1.206863e-002
1.590985e+003, 1.213338e-002
1.592913e+003, 1.216082e-002
1.594842e+003, 1.201519e-002
1.596770e+003, 1.196409e-002
1.598699e+003, 1.211712e-002
1.600627e+003, 1.228049e-002
1.602556e+003, 1.229085e-002
1.604484e+003, 1.230440e-002
1.606413e+003, 1.224378e-002
1.608341e+003, 1.226065e-002
1.610270e+003, 1.230847e-002
1.612198e+003, 1.242848e-002
1.614127e+003, 1.243975e-002
1.616055e+003, 1.249326e-002
1.617984e+003, 1.263151e-002
1.619912e+003, 1.267406e-002
1.621840e+003, 1.271032e-002
1.623769e+003, 1.279304e-002
1.625697e+003, 1.291734e-002
1.627626e+003, 1.300621e-002
1.629554e+003, 1.311397e-002
1.631483e+003, 1.294541e-002
1.633411e+003, 1.285225e-002
1.635340e+003, 1.300505e-002
1.637268e+003, 1.300392e-002
1.639197e+003, 1.295026e-002
1.641125e+003, 1.289484e-002
1.643054e+003, 1.294419e-002
1.644982e+003, 1.311998e-002
1.646911e+003, 1.334370e-002
1.648839e+003, 1.319270e-002
1.650767e+003, 1.309732e-002
1.652696e+003, 1.319003e-002
1.654624e+003, 1.299812e-002
1.656553e+003, 1.287808e-002
1.658481e+003, 1.297593e-002
1.660410e+003, 1.304491e-002
1.662338e+003, 1.289625e-002
1.664267e+003, 1.267368e-002
1.666195e+003, 1.257404e-002
1.668124e+003, 1.271435e-002
1.670052e+003, 1.268789e-002
1.671981e+003, 1.241135e-002
1.673909e+003, 1.243255e-002
1.675838e+003, 1.247986e-002
1.677766e+003, 1.241183e-002
1.679694e+003, 1.238030e-002
1.681623e+003, 1.230475e-002
1.683551e+003, 1.223343e-002
1.685480e+003, 1.212354e-002
1.687408e+003, 1.207955e-002
1.689337e+003, 1.214218e-002
1.691265e+003, 1.209200e-002
1.693194e+003, 1.185597e-002
1.695122e+003, 1.171891e-002
1.697051e+003, 1.186303e-002
1.698979e+003, 1.199706e-002
1.700908e+003, 1.197654e-002
1.702836e+003, 1.174587e-002
1.704765e+003, 1.159769e-002
1.706693e+003, 1.148457e-002
1.708621e+003, 1.152986e-002
1.710550e+003, 1.150292e-002
1.712478e+003, 1.137069e-002
1.714407e+003, 1.134940e-002
1.716335e+003, 1.151127e-002
1.718264e+003, 1.142835e-002
1.720192e+003, 1.130315e-002
1.722121e+003, 1.126080e-002
1.724049e+003, 1.122185e-002
1.725978e+003, 1.116573e-002
1.727906e+003, 1.115572e-002
1.729835e+003, 1.095854e-002
1.731763e+003, 1.073667e-002
1.733692e+003, 1.062761e-002
1.735620e+003, 1.054157e-002
1.737548e+003, 1.041580e-002
1.739477e+003, 1.034637e-002
1.741405e+003, 1.030889e-002
1.743334e+003, 1.034794e-002
1.745262e+003, 1.039796e-002
1.747191e+003, 1.043440e-002
1.749119e+003, 1.051613e-002
1.751048e+003, 1.061321e-002
1.752976e+003, 1.072120e-002
1.754905e+003, 1.082659e-002
1.756833e+003, 1.089435e-002
1.758762e+003, 1.098251e-002
1.760690e+003, 1.115466e-002
1.762619e+003, 1.137159e-002
1.764547e+003, 1.152724e-002
1.766475e+003, 1.143289e-002
1.768404e+003, 1.123790e-002
1.770332e+003, 1.131027e-002
1.772261e+003, 1.129387e-002
1.774189e+003, 1.129989e-002
1.776118e+003, 1.147164e-002
1.778046e+003, 1.146126e-002
1.779975e+003, 1.133207e-002
1.781903e+003, 1.141739e-002
1.783832e+003, 1.156778e-002
1.785760e+003, 1.164840e-002
1.787689e+003, 1.156417e-002
1.789617e+003, 1.147554e-002
1.791546e+003, 1.150550e-002
1.793474e+003, 1.174993e-002
1.795402e+003, 1.201360e-002
1.797331e+003, 1.200455e-002
1.799259e+003, 1.184400e-002
1.801188e+003, 1.163532e-002
1.803116e+003, 1.153512e-002
1.805045e+003, 1.157064e-002
1.806973e+003, 1.157480e-002
1.808902e+003, 1.156532e-002
1.810830e+003, 1.159409e-002
1.812759e+003, 1.139903e-002
1.814687e+003, 1.127513e-002
1.816616e+003, 1.143202e-002
1.818544e+003, 1.171998e-002
1.820473e+003, 1.197666e-002
1.822401e+003, 1.202803e-002
1.824329e+003, 1.186163e-002
1.826258e+003, 1.179856e-002
1.828186e+003, 1.193522e-002
1.830115e+003, 1.188767e-002
1.832043e+003, 1.172935e-002
1.833972e+003, 1.175108e-002
1.835900e+003, 1.166948e-002
1.837829e+003, 1.170058e-002
1.839757e+003, 1.174323e-002
1.841686e+003, 1.167999e-002
1.843614e+003, 1.167053e-002
1.845543e+003, 1.159426e-002
1.847471e+003, 1.160855e-002
1.849400e+003, 1.177300e-002
1.851328e+003, 1.204390e-002
1.853256e+003, 1.201213e-002
1.855185e+003, 1.181046e-002
1.857113e+003, 1.184334e-002
1.859042e+003, 1.202324e-002
1.860970e+003, 1.233287e-002
1.862899e+003, 1.232797e-002
1.864827e+003, 1.188237e-002
1.866756e+003, 1.195530e-002
1.868684e+003, 1.230471e-002
1.870613e+003, 1.216325e-002
1.872541e+003, 1.208366e-002
1.874470e+003, 1.216242e-002
1.876398e+003, 1.200437e-002
1.878327e+003, 1.198424e-002
1.880255e+003, 1.194780e-002
1.882183e+003, 1.173220e-002
1.884112e+003, 1.158452e-002
1.886040e+003, 1.190442e-002
1.887969e+003, 1.179644e-002
1.889897e+003, 1.181910e-002
1.891826e+003, 1.204111e-002
1.893754e+003, 1.231965e-002
1.895683e+003, 1.230420e-002
1.897611e+003, 1.213734e-002
1.899540e+003, 1.218346e-002
1.901468e+003, 1.219602e-002
1.903397e+003, 1.224315e-002
1.905325e+003, 1.198245e-002
1.907254e+003, 1.195534e-002
1.909182e+003, 1.202436e-002
1.911110e+003, 1.213346e-002
1.913039e+003, 1.225699e-002
1.914967e+003, 1.218744e-002
1.916896e+003, 1.205819e-002
1.918824e+003, 1.242305e-002
1.920753e+003, 1.199980e-002
1.922681e+003, 1.184848e-002
1.924610e+003, 1.203140e-002
1.926538e+003, 1.169791e-002
1.928467e+003, 1.138977e-002
1.930395e+003, 1.150536e-002
1.932324e+003, 1.160975e-002
1.934252e+003, 1.128395e-002
1.936181e+003, 1.137869e-002
1.938109e+003, 1.120674e-002
1.940037e+003, 1.116826e-002
1.941966e+003, 1.138986e-002
1.943894e+003, 1.157132e-002
1.945823e+003, 1.119718e-002
1.947751e+003, 1.132692e-002
1.949680e+003, 1.165547e-002
1.951608e+003, 1.159679e-002
1.953537e+003, 1.108889e-002
1.955465e+003, 1.061814e-002
1.957394e+003, 1.024714e-002
1.959322e+003, 1.047732e-002
1.961251e+003, 1.037547e-002
1.963179e+003, 1.048879e-002
1.965108e+003, 1.057477e-002
1.967036e+003, 1.076525e-002
1.968964e+003, 1.091396e-002
1.970893e+003, 1.144694e-002
1.972821e+003, 1.107723e-002
1.974750e+003, 1.083046e-002
1.976678e+003, 1.195699e-002
1.978607e+003, 1.362225e-002
1.980535e+003, 1.359325e-002
1.982464e+003, 1.287207e-002
1.984392e+003, 1.285369e-002
1.986321e+003, 1.293372e-002
1.988249e+003, 1.280064e-002
1.990178e+003, 1.221273e-002
1.992106e+003, 1.204349e-002
1.994035e+003, 1.285137e-002
1.995963e+003, 1.216580e-002
1.997891e+003, 1.163629e-002
1.999820e+003, 1.147407e-002
2.001748e+003, 1.118530e-002
2.003677e+003, 1.127665e-002
2.005605e+003, 1.083502e-002
2.007534e+003, 1.096008e-002
2.009462e+003, 1.117951e-002
2.011391e+003, 1.153465e-002
2.013319e+003, 1.211343e-002
2.015248e+003, 1.179699e-002
2.017176e+003, 1.192474e-002
2.019105e+003, 1.215584e-002
2.021033e+003, 1.168787e-002
2.022962e+003, 1.136230e-002
2.024890e+003, 1.244091e-002
2.026818e+003, 1.354482e-002
2.028747e+003, 1.415221e-002
2.030675e+003, 1.340280e-002
2.032604e+003, 1.315285e-002
2.034532e+003, 1.383381e-002
2.036461e+003, 1.347469e-002
2.038389e+003, 1.321716e-002
2.040318e+003, 1.347845e-002
2.042246e+003, 1.376619e-002
2.044175e+003, 1.402997e-002
2.046103e+003, 1.386615e-002
2.048031e+003, 1.374681e-002
2.049960e+003, 1.456044e-002
2.051888e+003, 1.428476e-002
2.053817e+003, 1.344707e-002
2.055745e+003, 1.358396e-002
2.057674e+003, 1.353607e-002
2.059602e+003, 1.305101e-002
2.061531e+003, 1.347698e-002
2.063459e+003, 1.396737e-002
2.065388e+003, 1.374559e-002
2.067316e+003, 1.380266e-002
2.069245e+003, 1.390717e-002
2.071173e+003, 1.389294e-002
2.073102e+003, 1.403711e-002
2.075030e+003, 1.429672e-002
2.076958e+003, 1.456573e-002
2.078887e+003, 1.441525e-002
2.080815e+003, 1.399074e-002
2.082744e+003, 1.419409e-002
2.084672e+003, 1.459435e-002
2.086601e+003, 1.400970e-002
2.088529e+003, 1.398955e-002
2.090458e+003, 1.393614e-002
2.092386e+003, 1.363956e-002
2.094315e+003, 1.385327e-002
2.096243e+003, 1.432567e-002
2.098172e+003, 1.497906e-002
2.100100e+003, 1.501065e-002
2.102029e+003, 1.492617e-002
2.103957e+003, 1.477002e-002
2.105885e+003, 1.453178e-002
2.107814e+003, 1.503618e-002
2.109742e+003, 1.541797e-002
2.111671e+003, 1.499079e-002
2.113599e+003, 1.477444e-002
2.115528e+003, 1.495170e-002
2.117456e+003, 1.457370e-002
2.119385e+003, 1.417868e-002
2.121313e+003, 1.414847e-002
2.123242e+003, 1.406611e-002
2.125170e+003, 1.369359e-002
2.127099e+003, 1.310126e-002
2.129027e+003, 1.277720e-002
2.130956e+003, 1.276128e-002
2.132884e+003, 1.257567e-002
2.134813e+003, 1.209716e-002
2.136741e+003, 1.233506e-002
2.138669e+003, 1.295363e-002
2.140598e+003, 1.302572e-002
2.142526e+003, 1.229854e-002
2.144455e+003, 1.170630e-002
2.146383e+003, 1.236831e-002
2.148312e+003, 1.346479e-002
2.150240e+003, 1.381970e-002
2.152169e+003, 1.284039e-002
2.154097e+003, 1.107725e-002
2.156026e+003, 1.032649e-002
2.157954e+003, 1.185855e-002
2.159883e+003, 1.603436e-002
2.161811e+003, 1.757278e-002
2.163740e+003, 1.793564e-002
2.165668e+003, 1.827130e-002
2.167596e+003, 1.705138e-002
2.169525e+003, 1.576860e-002
2.171453e+003, 1.528115e-002
2.173382e+003, 1.569939e-002
2.175310e+003, 1.544799e-002
2.177239e+003, 1.542202e-002
2.179167e+003, 1.581651e-002
2.181096e+003, 1.523582e-002
2.183024e+003, 1.517035e-002
2.184953e+003, 1.653572e-002
2.186881e+003, 1.735605e-002
2.188810e+003, 1.689736e-002
2.190738e+003, 1.707629e-002
2.192667e+003, 1.717262e-002
2.194595e+003, 1.655631e-002
2.196523e+003, 1.681638e-002
2.198452e+003, 1.737911e-002
2.200380e+003, 1.794551e-002
2.202309e+003, 1.843067e-002
2.204237e+003, 1.805250e-002
2.206166e+003, 1.771289e-002
2.208094e+003, 1.810452e-002
2.210023e+003, 1.837938e-002
2.211951e+003, 1.829068e-002
2.213880e+003, 1.810456e-002
2.215808e+003, 1.777752e-002
2.217737e+003, 1.743077e-002
2.219665e+003, 1.688292e-002
2.221594e+003, 1.711238e-002
2.223522e+003, 1.773907e-002
2.225450e+003, 1.827951e-002
2.227379e+003, 1.851281e-002
2.229307e+003, 1.854397e-002
2.231236e+003, 1.816250e-002
2.233164e+003, 1.826189e-002
2.235093e+003, 1.889025e-002
2.237021e+003, 1.888191e-002
2.238950e+003, 1.850395e-002
2.240878e+003, 1.833685e-002
2.242807e+003, 1.843835e-002
2.244735e+003, 1.868519e-002
2.246664e+003, 1.865329e-002
2.248592e+003, 1.872148e-002
2.250521e+003, 1.832989e-002
2.252449e+003, 1.793526e-002
2.254377e+003, 1.840415e-002
2.256306e+003, 1.886054e-002
2.258234e+003, 1.859661e-002
2.260163e+003, 1.903067e-002
2.262091e+003, 1.908252e-002
2.264020e+003, 1.880221e-002
2.265948e+003, 1.911888e-002
2.267877e+003, 1.970037e-002
2.269805e+003, 1.979700e-002
2.271734e+003, 1.971790e-002
2.273662e+003, 1.964733e-002
2.275591e+003, 1.981753e-002
2.277519e+003, 1.981909e-002
2.279448e+003, 1.989150e-002
2.281376e+003, 1.999549e-002
2.283304e+003, 2.052449e-002
2.285233e+003, 2.108588e-002
2.287161e+003, 2.079640e-002
2.289090e+003, 2.035971e-002
2.291018e+003, 1.988614e-002
2.292947e+003, 1.954346e-002
2.294875e+003, 1.961084e-002
2.296804e+003, 1.973056e-002
2.298732e+003, 1.990492e-002
2.300661e+003, 1.955354e-002
2.302589e+003, 1.937218e-002
2.304518e+003, 1.964013e-002
2.306446e+003, 1.969959e-002
2.308375e+003, 1.945111e-002
2.310303e+003, 1.943942e-002
2.312231e+003, 1.979862e-002
2.314160e+003, 2.007254e-002
2.316088e+003, 2.012512e-002
2.318017e+003, 2.005381e-002
2.319945e+003, 2.042280e-002
2.321874e+003, 2.095029e-002
2.323802e+003, 2.094827e-002
2.325731e+003, 2.008234e-002
2.327659e+003, 1.933056e-002
2.329588e+003, 1.904064e-002
2.331516e+003, 1.880839e-002
2.333445e+003, 1.889507e-002
2.335373e+003, 1.904575e-002
2.337302e+003, 1.890705e-002
2.339230e+003, 1.891657e-002
2.341158e+003, 1.904732e-002
2.343087e+003, 1.888085e-002
2.345015e+003, 1.886924e-002
2.346944e+003, 1.895637e-002
2.348872e+003, 1.878619e-002
2.350801e+003, 1.877210e-002
2.352729e+003, 1.876773e-002
2.354658e+003, 1.874188e-002
2.356586e+003, 1.882976e-002
2.358515e+003, 1.900605e-002
2.360443e+003, 1.901776e-002
2.362372e+003, 1.871112e-002
2.364300e+003, 1.840955e-002
2.366229e+003, 1.820923e-002
2.368157e+003, 1.826824e-002
2.370085e+003, 1.838065e-002
2.372014e+003, 1.863126e-002
2.373942e+003, 1.864457e-002
2.375871e+003, 1.848009e-002
2.377799e+003, 1.850640e-002
2.379728e+003, 1.843825e-002
2.381656e+003, 1.825534e-002
2.383585e+003, 1.828604e-002
2.385513e+003, 1.832079e-002
2.387442e+003, 1.838786e-002
2.389370e+003, 1.846420e-002
2.391299e+003, 1.860017e-002
2.393227e+003, 1.841111e-002
2.395156e+003, 1.848992e-002
2.397084e+003, 1.866361e-002
2.399012e+003, 1.882382e-002
2.400941e+003, 1.900000e-002
2.402869e+003, 1.887946e-002
2.404798e+003, 1.858650e-002
2.406726e+003, 1.847145e-002
2.408655e+003, 1.881870e-002
2.410583e+003, 1.928114e-002
2.412512e+003, 1.906698e-002
2.414440e+003, 1.898919e-002
2.416369e+003, 1.907585e-002
2.418297e+003, 1.931027e-002
2.420226e+003, 1.920112e-002
2.422154e+003, 1.900965e-002
2.424083e+003, 1.913610e-002
2.426011e+003, 1.919307e-002
2.427939e+003, 1.936859e-002
2.429868e+003, 1.960598e-002
2.431796e+003, 1.968277e-002
2.433725e+003, 1.969107e-002
2.435653e+003, 1.963367e-002
2.437582e+003, 1.985707e-002
2.439510e+003, 2.019684e-002
2.441439e+003, 1.987085e-002
2.443367e+003, 1.924645e-002
2.445296e+003, 1.961598e-002
2.447224e+003, 2.029335e-002
2.449153e+003, 2.062130e-002
2.451081e+003, 2.063224e-002
2.453010e+003, 2.058624e-002
2.454938e+003, 2.051693e-002
2.456866e+003, 2.040824e-002
2.458795e+003, 2.044901e-002
2.460723e+003, 2.039257e-002
2.462652e+003, 2.039492e-002
2.464580e+003, 2.018860e-002
2.466509e+003, 1.954542e-002
2.468437e+003, 1.983545e-002
2.470366e+003, 2.023949e-002
2.472294e+003, 2.012699e-002
2.474223e+003, 1.997489e-002
2.476151e+003, 2.011526e-002
2.478080e+003, 1.987930e-002
2.480008e+003, 2.004822e-002
2.481937e+003, 2.030404e-002
2.483865e+003, 2.023050e-002
2.485793e+003, 2.016514e-002
2.487722e+003, 1.997437e-002
2.489650e+003, 1.998524e-002
2.491579e+003, 2.021914e-002
2.493507e+003, 2.058216e-002
2.495436e+003, 2.081763e-002
2.497364e+003, 2.080385e-002
2.499293e+003, 2.064646e-002
2.501221e+003, 2.073343e-002
2.503150e+003, 2.095038e-002
2.505078e+003, 2.074459e-002
2.507007e+003, 2.095285e-002
2.508935e+003, 2.093795e-002
2.510864e+003, 2.092818e-002
2.512792e+003, 2.132166e-002
2.514720e+003, 2.123054e-002
2.516649e+003, 2.067817e-002
2.518577e+003, 2.066365e-002
2.520506e+003, 2.094947e-002
2.522434e+003, 2.122469e-002
2.524363e+003, 2.097752e-002
2.526291e+003, 2.121131e-002
2.528220e+003, 2.155551e-002
2.530148e+003, 2.159204e-002
2.532077e+003, 2.150275e-002
2.534005e+003, 2.143959e-002
2.535934e+003, 2.149052e-002
2.537862e+003, 2.158661e-002
2.539791e+003, 2.133710e-002
2.541719e+003, 2.127628e-002
2.543647e+003, 2.148001e-002
2.545576e+003, 2.137142e-002
2.547504e+003, 2.136868e-002
2.549433e+003, 2.172758e-002
2.551361e+003, 2.217120e-002
2.553290e+003, 2.235800e-002
2.555218e+003, 2.206980e-002
2.557147e+003, 2.211757e-002
2.559075e+003, 2.250314e-002
2.561004e+003, 2.230027e-002
2.562932e+003, 2.209052e-002
2.564861e+003, 2.207871e-002
2.566789e+003, 2.207145e-002
2.568718e+003, 2.226211e-002
2.570646e+003, 2.207282e-002
2.572574e+003, 2.203156e-002
2.574503e+003, 2.236855e-002
2.576431e+003, 2.268512e-002
2.578360e+003, 2.258738e-002
2.580288e+003, 2.246426e-002
2.582217e+003, 2.243313e-002
2.584145e+003, 2.247469e-002
2.586074e+003, 2.247870e-002
2.588002e+003, 2.260631e-002
2.589931e+003, 2.278743e-002
2.591859e+003, 2.281185e-002
2.593788e+003, 2.283478e-002
2.595716e+003, 2.264939e-002
2.597645e+003, 2.268018e-002
2.599573e+003, 2.290347e-002
2.601501e+003, 2.271394e-002
2.603430e+003, 2.268528e-002
2.605358e+003, 2.311937e-002
2.607287e+003, 2.348429e-002
2.609215e+003, 2.335824e-002
2.611144e+003, 2.311093e-002
2.613072e+003, 2.306800e-002
2.615001e+003, 2.330841e-002
2.616929e+003, 2.363365e-002
2.618858e+003, 2.398769e-002
2.620786e+003, 2.393503e-002
2.622715e+003, 2.346339e-002
2.624643e+003, 2.317112e-002
2.626572e+003, 2.292350e-002
2.628500e+003, 2.295349e-002
2.630428e+003, 2.354984e-002
2.632357e+003, 2.380298e-002
2.634285e+003, 2.354774e-002
2.636214e+003, 2.345211e-002
2.638142e+003, 2.352878e-002
2.640071e+003, 2.371653e-002
2.641999e+003, 2.352663e-002
2.643928e+003, 2.346681e-002
2.645856e+003, 2.343248e-002
2.647785e+003, 2.357089e-002
2.649713e+003, 2.395070e-002
2.651642e+003, 2.389196e-002
2.653570e+003, 2.371609e-002
2.655499e+003, 2.338336e-002
2.657427e+003, 2.318004e-002
2.659355e+003, 2.321556e-002
2.661284e+003, 2.302891e-002
2.663212e+003, 2.292281e-002
2.665141e+003, 2.311949e-002
2.667069e+003, 2.314757e-002
2.668998e+003, 2.309990e-002
2.670926e+003, 2.289289e-002
2.672855e+003, 2.287537e-002
2.674783e+003, 2.312185e-002
2.676712e+003, 2.312405e-002
2.678640e+003, 2.278459e-002
2.680569e+003, 2.278396e-002
2.682497e+003, 2.294248e-002
2.684426e+003, 2.297839e-002
2.686354e+003, 2.317493e-002
2.688282e+003, 2.320601e-002
2.690211e+003, 2.313610e-002
2.692139e+003, 2.334841e-002
2.694068e+003, 2.345339e-002
2.695996e+003, 2.352850e-002
2.697925e+003, 2.356631e-002
2.699853e+003, 2.343895e-002
2.701782e+003, 2.323178e-002
2.703710e+003, 2.328756e-002
2.705639e+003, 2.334596e-002
2.707567e+003, 2.330220e-002
2.709496e+003, 2.347906e-002
2.711424e+003, 2.367836e-002
2.713353e+003, 2.351753e-002
2.715281e+003, 2.350580e-002
2.717209e+003, 2.366523e-002
2.719138e+003, 2.363100e-002
2.721066e+003, 2.352930e-002
2.722995e+003, 2.355481e-002
2.724923e+003, 2.354644e-002
2.726852e+003, 2.360688e-002
2.728780e+003, 2.380899e-002
2.730709e+003, 2.393503e-002
2.732637e+003, 2.391026e-002
2.734566e+003, 2.393768e-002
2.736494e+003, 2.397278e-002
2.738423e+003, 2.383868e-002
2.740351e+003, 2.390754e-002
2.742280e+003, 2.410784e-002
2.744208e+003, 2.409343e-002
2.746136e+003, 2.397639e-002
2.748065e+003, 2.403466e-002
2.749993e+003, 2.411940e-002
2.751922e+003, 2.410254e-002
2.753850e+003, 2.426310e-002
2.755779e+003, 2.446395e-002
2.757707e+003, 2.447809e-002
2.759636e+003, 2.458863e-002
2.761564e+003, 2.454258e-002
2.763493e+003, 2.430909e-002
2.765421e+003, 2.427631e-002
2.767350e+003, 2.439130e-002
2.769278e+003, 2.450044e-002
2.771207e+003, 2.465414e-002
2.773135e+003, 2.490251e-002
2.775063e+003, 2.494977e-002
2.776992e+003, 2.486622e-002
2.778920e+003, 2.514304e-002
2.780849e+003, 2.522033e-002
2.782777e+003, 2.510262e-002
2.784706e+003, 2.505860e-002
2.786634e+003, 2.526676e-002
2.788563e+003, 2.514028e-002
2.790491e+003, 2.513851e-002
2.792420e+003, 2.525913e-002
2.794348e+003, 2.510746e-002
2.796277e+003, 2.499531e-002
2.798205e+003, 2.513454e-002
2.800134e+003, 2.520207e-002
2.802062e+003, 2.524701e-002
2.803990e+003, 2.548779e-002
2.805919e+003, 2.560197e-002
2.807847e+003, 2.545369e-002
2.809776e+003, 2.546299e-002
2.811704e+003, 2.558435e-002
2.813633e+003, 2.574442e-002
2.815561e+003, 2.584115e-002
2.817490e+003, 2.577953e-002
2.819418e+003, 2.557203e-002
2.821347e+003, 2.554093e-002
2.823275e+003, 2.560472e-002
2.825204e+003, 2.552959e-002
2.827132e+003, 2.580059e-002
2.829061e+003, 2.627251e-002
2.830989e+003, 2.608939e-002
2.832917e+003, 2.578533e-002
2.834846e+003, 2.614373e-002
2.836774e+003, 2.638707e-002
2.838703e+003, 2.632304e-002
2.840631e+003, 2.613623e-002
2.842560e+003, 2.616475e-002
2.844488e+003, 2.590230e-002
2.846417e+003, 2.554603e-002
2.848345e+003, 2.524823e-002
2.850274e+003, 2.520190e-002
2.852202e+003, 2.513437e-002
2.854131e+003, 2.511546e-002
2.856059e+003, 2.515000e-002
2.857988e+003, 2.502919e-002
2.859916e+003, 2.501108e-002
2.861844e+003, 2.514231e-002
2.863773e+003, 2.532465e-002
2.865701e+003, 2.554725e-002
2.867630e+003, 2.571071e-002
2.869558e+003, 2.628070e-002
2.871487e+003, 2.636756e-002
2.873415e+003, 2.620625e-002
2.875344e+003, 2.649834e-002
2.877272e+003, 2.644415e-002
2.879201e+003, 2.612448e-002
2.881129e+003, 2.630244e-002
2.883058e+003, 2.643536e-002
2.884986e+003, 2.644465e-002
2.886915e+003, 2.646741e-002
2.888843e+003, 2.630932e-002
2.890771e+003, 2.607456e-002
2.892700e+003, 2.644566e-002
2.894628e+003, 2.653450e-002
2.896557e+003, 2.645955e-002
2.898485e+003, 2.649139e-002
2.900414e+003, 2.656692e-002
2.902342e+003, 2.673605e-002
2.904271e+003, 2.670457e-002
2.906199e+003, 2.659749e-002
2.908128e+003, 2.665854e-002
2.910056e+003, 2.635453e-002
2.911985e+003, 2.590757e-002
2.913913e+003, 2.569878e-002
2.915842e+003, 2.581369e-002
2.917770e+003, 2.572687e-002
2.919698e+003, 2.524609e-002
2.921627e+003, 2.512996e-002
2.923555e+003, 2.536601e-002
2.925484e+003, 2.510470e-002
2.927412e+003, 2.501916e-002
2.929341e+003, 2.545572e-002
2.931269e+003, 2.587702e-002
2.933198e+003, 2.596069e-002
2.935126e+003, 2.602015e-002
2.937055e+003, 2.612832e-002
2.938983e+003, 2.606060e-002
2.940912e+003, 2.619994e-002
2.942840e+003, 2.663730e-002
2.944769e+003, 2.664748e-002
2.946697e+003, 2.654641e-002
2.948625e+003, 2.633827e-002
2.950554e+003, 2.645849e-002
2.952482e+003, 2.678761e-002
2.954411e+003, 2.713251e-002
2.956339e+003, 2.730100e-002
2.958268e+003, 2.717974e-002
2.960196e+003, 2.693582e-002
2.962125e+003, 2.697141e-002
2.964053e+003, 2.706750e-002
2.965982e+003, 2.728575e-002
2.967910e+003, 2.735954e-002
2.969839e+003, 2.746627e-002
2.971767e+003, 2.761951e-002
2.973696e+003, 2.756676e-002
2.975624e+003, 2.759824e-002
2.977552e+003, 2.780774e-002
2.979481e+003, 2.780114e-002
2.981409e+003, 2.796620e-002
2.983338e+003, 2.797742e-002
2.985266e+003, 2.767716e-002
2.987195e+003, 2.758301e-002
2.989123e+003, 2.801599e-002
2.991052e+003, 2.807740e-002
2.992980e+003, 2.809713e-002
2.994909e+003, 2.844889e-002
2.996837e+003, 2.855662e-002
2.998766e+003, 2.860659e-002
3.000694e+003, 2.861868e-002
3.002623e+003, 2.853986e-002
3.004551e+003, 2.870625e-002
3.006479e+003, 2.871510e-002
3.008408e+003, 2.861522e-002
3.010336e+003, 2.888062e-002
3.012265e+003, 2.936695e-002
3.014193e+003, 2.938105e-002
3.016122e+003, 2.931839e-002
3.018050e+003, 2.946549e-002
3.019979e+003, 2.952740e-002
3.021907e+003, 2.956305e-002
3.023836e+003, 2.948990e-002
3.025764e+003, 2.931534e-002
3.027693e+003, 2.946904e-002
3.029621e+003, 2.955422e-002
3.031550e+003, 2.987417e-002
3.033478e+003, 3.008443e-002
3.035406e+003, 2.988039e-002
3.037335e+003, 2.985747e-002
3.039263e+003, 2.986376e-002
3.041192e+003, 2.953489e-002
3.043120e+003, 2.958145e-002
3.045049e+003, 2.965984e-002
3.046977e+003, 2.983154e-002
3.048906e+003, 2.991273e-002
3.050834e+003, 2.990218e-002
3.052763e+003, 3.007949e-002
3.054691e+003, 3.033116e-002
3.056620e+003, 3.073998e-002
3.058548e+003, 3.052676e-002
3.060477e+003, 3.047451e-002
3.062405e+003, 3.096869e-002
3.064333e+003, 3.136820e-002
3.066262e+003, 3.091036e-002
3.068190e+003, 3.033373e-002
3.070119e+003, 3.023770e-002
3.072047e+003, 3.055661e-002
3.073976e+003, 3.111979e-002
3.075904e+003, 3.111626e-002
3.077833e+003, 3.091553e-002
3.079761e+003, 3.119141e-002
3.081690e+003, 3.126248e-002
3.083618e+003, 3.118624e-002
3.085547e+003, 3.141003e-002
3.087475e+003, 3.142850e-002
3.089404e+003, 3.130657e-002
3.091332e+003, 3.098394e-002
3.093260e+003, 3.086199e-002
3.095189e+003, 3.092909e-002
3.097117e+003, 3.111922e-002
3.099046e+003, 3.122571e-002
3.100974e+003, 3.191118e-002
3.102903e+003, 3.217371e-002
3.104831e+003, 3.150787e-002
3.106760e+003, 3.167160e-002
3.108688e+003, 3.197432e-002
3.110617e+003, 3.183058e-002
3.112545e+003, 3.220778e-002
3.114474e+003, 3.208412e-002
3.116402e+003, 3.202405e-002
3.118331e+003, 3.221474e-002
3.120259e+003, 3.221539e-002
3.122188e+003, 3.215586e-002
3.124116e+003, 3.199161e-002
3.126044e+003, 3.202377e-002
3.127973e+003, 3.253875e-002
3.129901e+003, 3.267619e-002
3.131830e+003, 3.269441e-002
3.133758e+003, 3.268497e-002
3.135687e+003, 3.228680e-002
3.137615e+003, 3.260423e-002
3.139544e+003, 3.266764e-002
3.141472e+003, 3.257683e-002
3.143401e+003, 3.275962e-002
3.145329e+003, 3.284761e-002
3.147258e+003, 3.292917e-002
3.149186e+003, 3.294144e-002
3.151115e+003, 3.305958e-002
3.153043e+003, 3.304685e-002
3.154971e+003, 3.354595e-002
3.156900e+003, 3.377185e-002
3.158828e+003, 3.315928e-002
3.160757e+003, 3.285908e-002
3.162685e+003, 3.297026e-002
3.164614e+003, 3.322731e-002
3.166542e+003, 3.353190e-002
3.168471e+003, 3.372101e-002
3.170399e+003, 3.340957e-002
3.172328e+003, 3.355794e-002
3.174256e+003, 3.367210e-002
3.176185e+003, 3.361028e-002
3.178113e+003, 3.395022e-002
3.180042e+003, 3.389069e-002
3.181970e+003, 3.362202e-002
3.183898e+003, 3.398066e-002
3.185827e+003, 3.429176e-002
3.187755e+003, 3.422222e-002
3.189684e+003, 3.399475e-002
3.191612e+003, 3.378361e-002
3.193541e+003, 3.384241e-002
3.195469e+003, 3.437699e-002
3.197398e+003, 3.474605e-002
3.199326e+003, 3.429091e-002
3.201255e+003, 3.379982e-002
3.203183e+003, 3.418377e-002
3.205112e+003, 3.472971e-002
3.207040e+003, 3.486490e-002
3.208969e+003, 3.447916e-002
3.210897e+003, 3.395569e-002
3.212825e+003, 3.436806e-002
3.214754e+003, 3.465739e-002
3.216682e+003, 3.486864e-002
3.218611e+003, 3.476446e-002
3.220539e+003, 3.400004e-002
3.222468e+003, 3.378138e-002
3.224396e+003, 3.434971e-002
3.226325e+003, 3.466619e-002
3.228253e+003, 3.461093e-002
3.230182e+003, 3.436790e-002
3.232110e+003, 3.444077e-002
3.234039e+003, 3.458894e-002
3.235967e+003, 3.503470e-002
3.237896e+003, 3.516689e-002
3.239824e+003, 3.477097e-002
3.241752e+003, 3.433989e-002
3.243681e+003, 3.492606e-002
3.245609e+003, 3.564779e-002
3.247538e+003, 3.545555e-002
3.249466e+003, 3.534787e-002
3.251395e+003, 3.546054e-002
3.253323e+003, 3.541724e-002
3.255252e+003, 3.527655e-002
3.257180e+003, 3.530597e-002
3.259109e+003, 3.540881e-002
3.261037e+003, 3.548249e-002
3.262966e+003, 3.576047e-002
3.264894e+003, 3.533490e-002
3.266823e+003, 3.503155e-002
3.268751e+003, 3.538675e-002
3.270679e+003, 3.547396e-002
3.272608e+003, 3.516128e-002
3.274536e+003, 3.448072e-002
3.276465e+003, 3.448579e-002
3.278393e+003, 3.511243e-002
3.280322e+003, 3.548728e-002
3.282250e+003, 3.574108e-002
3.284179e+003, 3.545124e-002
3.286107e+003, 3.506793e-002
3.288036e+003, 3.519336e-002
3.289964e+003, 3.521546e-002
3.291893e+003, 3.495205e-002
3.293821e+003, 3.501045e-002
3.295750e+003, 3.505523e-002
3.297678e+003, 3.540028e-002
3.299606e+003, 3.553820e-002
3.301535e+003, 3.535007e-002
3.303463e+003, 3.537465e-002
3.305392e+003, 3.539047e-002
3.307320e+003, 3.561039e-002
3.309249e+003, 3.566768e-002
3.311177e+003, 3.579374e-002
3.313106e+003, 3.594762e-002
3.315034e+003, 3.579513e-002
3.316963e+003, 3.554095e-002
3.318891e+003, 3.544191e-002
3.320820e+003, 3.578100e-002
3.322748e+003, 3.607380e-002
3.324677e+003, 3.644718e-002
3.326605e+003, 3.647895e-002
3.328533e+003, 3.625071e-002
3.330462e+003, 3.633633e-002
3.332390e+003, 3.603336e-002
3.334319e+003, 3.583234e-002
3.336247e+003, 3.556778e-002
3.338176e+003, 3.541140e-002
3.340104e+003, 3.569884e-002
3.342033e+003, 3.607121e-002
3.343961e+003, 3.608964e-002
3.345890e+003, 3.577090e-002
3.347818e+003, 3.563360e-002
3.349747e+003, 3.575969e-002
3.351675e+003, 3.611972e-002
3.353604e+003, 3.594448e-002
3.355532e+003, 3.569418e-002
3.357460e+003, 3.569372e-002
3.359389e+003, 3.568376e-002
3.361317e+003, 3.561888e-002
3.363246e+003, 3.579816e-002
3.365174e+003, 3.580097e-002
3.367103e+003, 3.538709e-002
3.369031e+003, 3.546180e-002
3.370960e+003, 3.574498e-002
3.372888e+003, 3.531234e-002
3.374817e+003, 3.494300e-002
3.376745e+003, 3.520923e-002
3.378674e+003, 3.489683e-002
3.380602e+003, 3.497055e-002
3.382531e+003, 3.556990e-002
3.384459e+003, 3.541085e-002
3.386387e+003, 3.495215e-002
3.388316e+003, 3.469489e-002
3.390244e+003, 3.436504e-002
3.392173e+003, 3.436227e-002
3.394101e+003, 3.484337e-002
3.396030e+003, 3.482699e-002
3.397958e+003, 3.502350e-002
3.399887e+003, 3.533156e-002
3.401815e+003, 3.536084e-002
3.403744e+003, 3.504860e-002
3.405672e+003, 3.457918e-002
3.407601e+003, 3.469827e-002
3.409529e+003, 3.480905e-002
3.411458e+003, 3.518023e-002
3.413386e+003, 3.533945e-002
3.415314e+003, 3.506612e-002
3.417243e+003, 3.522401e-002
3.419171e+003, 3.514621e-002
3.421100e+003, 3.500957e-002
3.423028e+003, 3.506717e-002
3.424957e+003, 3.488069e-002
3.426885e+003, 3.453271e-002
3.428814e+003, 3.427078e-002
3.430742e+003, 3.433368e-002
3.432671e+003, 3.407646e-002
3.434599e+003, 3.422322e-002
3.436528e+003, 3.427401e-002
3.438456e+003, 3.445798e-002
3.440385e+003, 3.404667e-002
3.442313e+003, 3.340674e-002
3.444241e+003, 3.368257e-002
3.446170e+003, 3.443374e-002
3.448098e+003, 3.449965e-002
3.450027e+003, 3.411286e-002
3.451955e+003, 3.391255e-002
3.453884e+003, 3.398968e-002
3.455812e+003, 3.372722e-002
3.457741e+003, 3.360064e-002
3.459669e+003, 3.371750e-002
3.461598e+003, 3.406183e-002
3.463526e+003, 3.435083e-002
3.465455e+003, 3.410894e-002
3.467383e+003, 3.374438e-002
3.469312e+003, 3.337843e-002
3.471240e+003, 3.317464e-002
3.473168e+003, 3.381893e-002
3.475097e+003, 3.346588e-002
3.477025e+003, 3.279718e-002
3.478954e+003, 3.315421e-002
3.480882e+003, 3.292197e-002
3.482811e+003, 3.228071e-002
3.484739e+003, 3.257320e-002
3.486668e+003, 3.282155e-002
3.488596e+003, 3.228474e-002
3.490525e+003, 3.161737e-002
3.492453e+003, 3.188843e-002
3.494382e+003, 3.263341e-002
3.496310e+003, 3.268941e-002
3.498239e+003, 3.236556e-002
3.500167e+003, 3.200955e-002
3.502095e+003, 3.196841e-002
3.504024e+003, 3.250318e-002
3.505952e+003, 3.265078e-002
3.507881e+003, 3.253242e-002
3.509809e+003, 3.228956e-002
3.511738e+003, 3.206855e-002
3.513666e+003, 3.217902e-002
3.515595e+003, 3.219157e-002
3.517523e+003, 3.163321e-002
3.519452e+003, 3.127749e-002
3.521380e+003, 3.127986e-002
3.523309e+003, 3.137015e-002
3.525237e+003, 3.113232e-002
3.527166e+003, 3.100850e-002
3.529094e+003, 3.111961e-002
3.531022e+003, 3.128395e-002
3.532951e+003, 3.094828e-002
3.534879e+003, 3.054072e-002
3.536808e+003, 3.081167e-002
3.538736e+003, 3.069067e-002
3.540665e+003, 3.075024e-002
3.542593e+003, 3.102352e-002
3.544522e+003, 2.985316e-002
3.546450e+003, 2.917335e-002
3.548379e+003, 2.981025e-002
3.550307e+003, 3.023644e-002
3.552236e+003, 3.008207e-002
3.554164e+003, 2.983448e-002
3.556093e+003, 2.925315e-002
3.558021e+003, 2.894982e-002
3.559949e+003, 2.908835e-002
3.561878e+003, 2.941741e-002
3.563806e+003, 3.001438e-002
3.565735e+003, 2.961641e-002
3.567663e+003, 2.901731e-002
3.569592e+003, 2.896202e-002
3.571520e+003, 2.886638e-002
3.573449e+003, 2.882757e-002
3.575377e+003, 2.852551e-002
3.577306e+003, 2.821158e-002
3.579234e+003, 2.803176e-002
3.581163e+003, 2.755280e-002
3.583091e+003, 2.741587e-002
3.585020e+003, 2.819040e-002
3.586948e+003, 2.865983e-002
3.588876e+003, 2.813803e-002
3.590805e+003, 2.694774e-002
3.592733e+003, 2.647382e-002
3.594662e+003, 2.700407e-002
3.596590e+003, 2.694314e-002
3.598519e+003, 2.615243e-002
3.600447e+003, 2.578134e-002
3.602376e+003, 2.537607e-002
3.604304e+003, 2.578977e-002
3.606233e+003, 2.660623e-002
3.608161e+003, 2.671312e-002
3.610090e+003, 2.558676e-002
3.612018e+003, 2.466242e-002
3.613947e+003, 2.412806e-002
3.615875e+003, 2.352883e-002
3.617803e+003, 2.393081e-002
3.619732e+003, 2.447644e-002
3.621660e+003, 2.474301e-002
3.623589e+003, 2.462166e-002
3.625517e+003, 2.424300e-002
3.627446e+003, 2.399081e-002
3.629374e+003, 2.398330e-002
3.631303e+003, 2.397490e-002
3.633231e+003, 2.381469e-002
3.635160e+003, 2.392137e-002
3.637088e+003, 2.388537e-002
3.639017e+003, 2.341996e-002
3.640945e+003, 2.313671e-002
3.642874e+003, 2.285540e-002
3.644802e+003, 2.282020e-002
3.646730e+003, 2.228356e-002
3.648659e+003, 2.304367e-002
3.650587e+003, 2.364322e-002
3.652516e+003, 2.304556e-002
3.654444e+003, 2.251454e-002
3.656373e+003, 2.199591e-002
3.658301e+003, 2.221412e-002
3.660230e+003, 2.223543e-002
3.662158e+003, 2.124570e-002
3.664087e+003, 2.160168e-002
3.666015e+003, 2.210158e-002
3.667944e+003, 2.204567e-002
3.669872e+003, 2.206146e-002
3.671801e+003, 2.209525e-002
3.673729e+003, 2.238286e-002
3.675657e+003, 2.206561e-002
3.677586e+003, 2.163507e-002
3.679514e+003, 2.195218e-002
3.681443e+003, 2.181133e-002
3.683371e+003, 2.176374e-002
3.685300e+003, 2.183913e-002
3.687228e+003, 2.290550e-002
3.689157e+003, 2.304037e-002
3.691085e+003, 2.218749e-002
3.693014e+003, 2.216372e-002
3.694942e+003, 2.262373e-002
3.696871e+003, 2.237417e-002
3.698799e+003, 2.253013e-002
3.700728e+003, 2.262856e-002
3.702656e+003, 2.260626e-002
3.704584e+003, 2.261915e-002
3.706513e+003, 2.275760e-002
3.708441e+003, 2.263996e-002
3.710370e+003, 2.231925e-002
3.712298e+003, 2.228682e-002
3.714227e+003, 2.253026e-002
3.716155e+003, 2.305248e-002
3.718084e+003, 2.332589e-002
3.720012e+003, 2.290699e-002
3.721941e+003, 2.207965e-002
3.723869e+003, 2.181042e-002
3.725798e+003, 2.247439e-002
3.727726e+003, 2.285578e-002
3.729655e+003, 2.273036e-002
3.731583e+003, 2.222434e-002
3.733511e+003, 2.228097e-002
3.735440e+003, 2.287558e-002
3.737368e+003, 2.279018e-002
3.739297e+003, 2.282695e-002
3.741225e+003, 2.306641e-002
3.743154e+003, 2.266887e-002
3.745082e+003, 2.241520e-002
3.747011e+003, 2.264238e-002
3.748939e+003, 2.270253e-002
3.750868e+003, 2.231777e-002
3.752796e+003, 2.201803e-002
3.754725e+003, 2.192393e-002
3.756653e+003, 2.272109e-002
3.758582e+003, 2.284149e-002
3.760510e+003, 2.270475e-002
3.762438e+003, 2.349501e-002
3.764367e+003, 2.341835e-002
3.766295e+003, 2.311073e-002
3.768224e+003, 2.287299e-002
3.770152e+003, 2.273636e-002
3.772081e+003, 2.358540e-002
3.774009e+003, 2.368779e-002
3.775938e+003, 2.339439e-002
3.777866e+003, 2.336913e-002
3.779795e+003, 2.320627e-002
3.781723e+003, 2.315635e-002
3.783652e+003, 2.333447e-002
3.785580e+003, 2.262681e-002
3.787509e+003, 2.183289e-002
3.789437e+003, 2.182212e-002
3.791365e+003, 2.257606e-002
3.793294e+003, 2.225296e-002
3.795222e+003, 2.156785e-002
3.797151e+003, 2.185889e-002
3.799079e+003, 2.292524e-002
3.801008e+003, 2.313457e-002
3.802936e+003, 2.264061e-002
3.804865e+003, 2.314795e-002
3.806793e+003, 2.301962e-002
3.808722e+003, 2.232415e-002
3.810650e+003, 2.263905e-002
3.812579e+003, 2.293228e-002
3.814507e+003, 2.279651e-002
3.816436e+003, 2.262778e-002
3.818364e+003, 2.245800e-002
3.820292e+003, 2.289499e-002
3.822221e+003, 2.311099e-002
3.824149e+003, 2.324844e-002
3.826078e+003, 2.318303e-002
3.828006e+003, 2.317439e-002
3.829935e+003, 2.329390e-002
3.831863e+003, 2.367958e-002
3.833792e+003, 2.399535e-002
3.835720e+003, 2.415506e-002
3.837649e+003, 2.376951e-002
3.839577e+003, 2.328172e-002
3.841506e+003, 2.311285e-002
3.843434e+003, 2.295143e-002
3.845363e+003, 2.290224e-002
3.847291e+003, 2.276072e-002
3.849219e+003, 2.341391e-002
3.851148e+003, 2.419344e-002
3.853076e+003, 2.430400e-002
3.855005e+003, 2.372918e-002
3.856933e+003, 2.349388e-002
3.858862e+003, 2.341759e-002
3.860790e+003, 2.322356e-002
3.862719e+003, 2.302676e-002
3.864647e+003, 2.304994e-002
3.866576e+003, 2.359484e-002
3.868504e+003, 2.391316e-002
3.870433e+003, 2.348169e-002
3.872361e+003, 2.286455e-002
3.874290e+003, 2.267100e-002
3.876218e+003, 2.293888e-002
3.878146e+003, 2.306115e-002
3.880075e+003, 2.283125e-002
3.882003e+003, 2.294599e-002
3.883932e+003, 2.325590e-002
3.885860e+003, 2.314513e-002
3.887789e+003, 2.356805e-002
3.889717e+003, 2.352733e-002
3.891646e+003, 2.312534e-002
3.893574e+003, 2.351089e-002
3.895503e+003, 2.338839e-002
3.897431e+003, 2.272212e-002
3.899360e+003, 2.319764e-002
3.901288e+003, 2.353414e-002
3.903217e+003, 2.289742e-002
3.905145e+003, 2.290322e-002
3.907073e+003, 2.317410e-002
3.909002e+003, 2.376613e-002
3.910930e+003, 2.349797e-002
3.912859e+003, 2.329398e-002
3.914787e+003, 2.359453e-002
3.916716e+003, 2.358773e-002
3.918644e+003, 2.330381e-002
3.920573e+003, 2.327208e-002
3.922501e+003, 2.326600e-002
3.924430e+003, 2.354994e-002
3.926358e+003, 2.377798e-002
3.928287e+003, 2.334109e-002
3.930215e+003, 2.328641e-002
3.932144e+003, 2.308190e-002
3.934072e+003, 2.325046e-002
3.936000e+003, 2.359041e-002
3.937929e+003, 2.294527e-002
3.939857e+003, 2.281785e-002
3.941786e+003, 2.356735e-002
3.943714e+003, 2.338467e-002
3.945643e+003, 2.340989e-002
3.947571e+003, 2.356892e-002
3.949500e+003, 2.370940e-002
3.951428e+003, 2.398504e-002
3.953357e+003, 2.367438e-002
3.955285e+003, 2.346843e-002
3.957214e+003, 2.323771e-002
3.959142e+003, 2.353892e-002
3.961071e+003, 2.368664e-002
3.962999e+003, 2.384170e-002
3.964927e+003, 2.408483e-002
3.966856e+003, 2.369139e-002
3.968784e+003, 2.352747e-002
3.970713e+003, 2.380433e-002
3.972641e+003, 2.427412e-002
3.974570e+003, 2.421231e-002
3.976498e+003, 2.371478e-002
3.978427e+003, 2.372815e-002
3.980355e+003, 2.400362e-002
3.982284e+003, 2.411867e-002
3.984212e+003, 2.391966e-002
3.986141e+003, 2.362460e-002
3.988069e+003, 2.368063e-002
3.989998e+003, 2.404474e-002
3.991926e+003, 2.405676e-002
3.993854e+003, 2.371982e-002
3.995783e+003, 2.361638e-002
3.997711e+003, 2.398580e-002
3.999640e+003, 2.411924e-002
4.001568e+003, 0.000000e+000
##END=



