##NAMES=Alum-(K)
##RRUFFID=R060014
##IDEAL CHEMISTRY=KAl(S^6+^O_4_)_2_&#183;12H_2_O
##LOCALITY=Tolfa, Italy
##OWNER=RRUFF
##SOURCE=American Museum of Natural History
##DESCRIPTION=Colorless fragment
##STATUS=The identification of this mineral has been confirmed by X-ray diffraction.
##URL=rruff.info/R060014
3.991926e+002, 4.883238e-002
4.011211e+002, 5.212922e-002
4.030495e+002, 5.649620e-002
4.049780e+002, 5.723381e-002
4.069065e+002, 5.717583e-002
4.088349e+002, 5.922776e-002
4.107634e+002, 6.184474e-002
4.126919e+002, 6.258097e-002
4.146203e+002, 6.222316e-002
4.165488e+002, 6.349395e-002
4.184773e+002, 6.427008e-002
4.204057e+002, 6.463969e-002
4.223342e+002, 6.618238e-002
4.242627e+002, 6.779347e-002
4.261911e+002, 6.918033e-002
4.281196e+002, 7.085501e-002
4.300481e+002, 7.256202e-002
4.319765e+002, 7.380462e-002
4.339050e+002, 7.512118e-002
4.358335e+002, 7.643329e-002
4.377619e+002, 7.785135e-002
4.396904e+002, 7.969453e-002
4.416189e+002, 8.111248e-002
4.435473e+002, 8.253207e-002
4.454758e+002, 8.436770e-002
4.474043e+002, 8.633572e-002
4.493327e+002, 8.665866e-002
4.512612e+002, 8.817314e-002
4.531897e+002, 8.995123e-002
4.551181e+002, 9.172906e-002
4.570466e+002, 9.279471e-002
4.589751e+002, 9.348898e-002
4.609035e+002, 9.439761e-002
4.628320e+002, 9.496094e-002
4.647605e+002, 9.525573e-002
4.666889e+002, 9.556118e-002
4.686174e+002, 9.557901e-002
4.705459e+002, 9.534960e-002
4.724743e+002, 9.517204e-002
4.744028e+002, 9.544523e-002
4.763313e+002, 9.618291e-002
4.782597e+002, 9.685051e-002
4.801882e+002, 9.729447e-002
4.821167e+002, 9.781080e-002
4.840451e+002, 9.828296e-002
4.859736e+002, 9.901293e-002
4.879021e+002, 9.958670e-002
4.898305e+002, 1.002964e-001
4.917590e+002, 1.011591e-001
4.936875e+002, 1.027107e-001
4.956159e+002, 1.038204e-001
4.975444e+002, 1.050424e-001
4.994729e+002, 1.058623e-001
5.014013e+002, 1.069602e-001
5.033298e+002, 1.082368e-001
5.052583e+002, 1.090031e-001
5.071867e+002, 1.100741e-001
5.091152e+002, 1.110038e-001
5.110437e+002, 1.122203e-001
5.129721e+002, 1.134538e-001
5.149006e+002, 1.140960e-001
5.168290e+002, 1.147576e-001
5.187575e+002, 1.149346e-001
5.206860e+002, 1.157934e-001
5.226144e+002, 1.162081e-001
5.245429e+002, 1.166819e-001
5.264714e+002, 1.174612e-001
5.283998e+002, 1.182262e-001
5.303283e+002, 1.192083e-001
5.322568e+002, 1.200851e-001
5.341852e+002, 1.213795e-001
5.361137e+002, 1.226254e-001
5.380422e+002, 1.238688e-001
5.399706e+002, 1.261285e-001
5.418991e+002, 1.294429e-001
5.438276e+002, 1.323830e-001
5.457560e+002, 1.350923e-001
5.476845e+002, 1.386136e-001
5.496130e+002, 1.424008e-001
5.515414e+002, 1.469818e-001
5.534699e+002, 1.516233e-001
5.553984e+002, 1.560029e-001
5.573268e+002, 1.611862e-001
5.592553e+002, 1.663318e-001
5.611838e+002, 1.715442e-001
5.631122e+002, 1.766237e-001
5.650407e+002, 1.815333e-001
5.669692e+002, 1.859520e-001
5.688976e+002, 1.904400e-001
5.708261e+002, 1.947220e-001
5.727546e+002, 1.979980e-001
5.746830e+002, 2.007762e-001
5.766115e+002, 2.027555e-001
5.785400e+002, 2.044680e-001
5.804684e+002, 2.057634e-001
5.823969e+002, 2.068209e-001
5.843254e+002, 2.076584e-001
5.862538e+002, 2.081589e-001
5.881823e+002, 2.085724e-001
5.901108e+002, 2.086127e-001
5.920392e+002, 2.077796e-001
5.939677e+002, 2.057806e-001
5.958962e+002, 2.026769e-001
5.978246e+002, 1.991314e-001
5.997531e+002, 1.949580e-001
6.016816e+002, 1.908471e-001
6.036100e+002, 1.877593e-001
6.055385e+002, 1.861184e-001
6.074670e+002, 1.853597e-001
6.093954e+002, 1.846058e-001
6.113239e+002, 1.827793e-001
6.132524e+002, 1.780611e-001
6.151808e+002, 1.708616e-001
6.171093e+002, 1.639433e-001
6.190378e+002, 1.590994e-001
6.209662e+002, 1.565943e-001
6.228947e+002, 1.560878e-001
6.248232e+002, 1.563974e-001
6.267516e+002, 1.567629e-001
6.286801e+002, 1.569835e-001
6.306086e+002, 1.567162e-001
6.325370e+002, 1.557430e-001
6.344655e+002, 1.550220e-001
6.363940e+002, 1.543887e-001
6.383224e+002, 1.537451e-001
6.402509e+002, 1.534386e-001
6.421794e+002, 1.530412e-001
6.441078e+002, 1.527388e-001
6.460363e+002, 1.526726e-001
6.479648e+002, 1.523633e-001
6.498932e+002, 1.522144e-001
6.518217e+002, 1.521675e-001
6.537502e+002, 1.520197e-001
6.556786e+002, 1.521112e-001
6.576071e+002, 1.526292e-001
6.595356e+002, 1.531466e-001
6.614641e+002, 1.534256e-001
6.633925e+002, 1.535935e-001
6.653210e+002, 1.538537e-001
6.672495e+002, 1.540188e-001
6.691779e+002, 1.541616e-001
6.711064e+002, 1.541732e-001
6.730349e+002, 1.541467e-001
6.749633e+002, 1.545529e-001
6.768918e+002, 1.549499e-001
6.788203e+002, 1.551170e-001
6.807487e+002, 1.550047e-001
6.826772e+002, 1.545468e-001
6.846057e+002, 1.539967e-001
6.865341e+002, 1.535131e-001
6.884626e+002, 1.529154e-001
6.903911e+002, 1.519929e-001
6.923195e+002, 1.510409e-001
6.942480e+002, 1.498035e-001
6.961765e+002, 1.483953e-001
6.981049e+002, 1.469657e-001
7.000334e+002, 1.455825e-001
7.019619e+002, 1.435592e-001
7.038903e+002, 1.415422e-001
7.058188e+002, 1.392073e-001
7.077473e+002, 1.367028e-001
7.096757e+002, 1.341597e-001
7.116042e+002, 1.316521e-001
7.135327e+002, 1.290318e-001
7.154611e+002, 1.261490e-001
7.173896e+002, 1.231316e-001
7.193181e+002, 1.202327e-001
7.212465e+002, 1.172331e-001
7.231750e+002, 1.143753e-001
7.251035e+002, 1.117642e-001
7.270319e+002, 1.089187e-001
7.289604e+002, 1.062104e-001
7.308889e+002, 1.036068e-001
7.328173e+002, 1.010313e-001
7.347458e+002, 9.868015e-002
7.366743e+002, 9.637176e-002
7.386027e+002, 9.427530e-002
7.405312e+002, 9.230465e-002
7.424597e+002, 9.012026e-002
7.443881e+002, 8.796652e-002
7.463166e+002, 8.624873e-002
7.482451e+002, 8.453532e-002
7.501735e+002, 8.291133e-002
7.521020e+002, 8.150093e-002
7.540305e+002, 8.006778e-002
7.559589e+002, 7.863461e-002
7.578874e+002, 7.737748e-002
7.598159e+002, 7.623509e-002
7.617443e+002, 7.496540e-002
7.636728e+002, 7.378255e-002
7.656013e+002, 7.268950e-002
7.675297e+002, 7.175086e-002
7.694582e+002, 7.068999e-002
7.713867e+002, 6.961028e-002
7.733151e+002, 6.866585e-002
7.752436e+002, 6.803593e-002
7.771721e+002, 6.748906e-002
7.791005e+002, 6.688803e-002
7.810290e+002, 6.633398e-002
7.829575e+002, 6.605015e-002
7.848859e+002, 6.550095e-002
7.868144e+002, 6.514411e-002
7.887429e+002, 6.508347e-002
7.906713e+002, 6.519351e-002
7.925998e+002, 6.523635e-002
7.945283e+002, 6.525588e-002
7.964567e+002, 6.542835e-002
7.983852e+002, 6.557202e-002
8.003137e+002, 6.576315e-002
8.022421e+002, 6.603304e-002
8.041706e+002, 6.654965e-002
8.060991e+002, 6.694337e-002
8.080275e+002, 6.724195e-002
8.099560e+002, 6.778272e-002
8.118845e+002, 6.830104e-002
8.138129e+002, 6.862238e-002
8.157414e+002, 6.895880e-002
8.176699e+002, 6.933185e-002
8.195983e+002, 6.973294e-002
8.215268e+002, 7.001124e-002
8.234553e+002, 7.051087e-002
8.253837e+002, 7.121906e-002
8.273122e+002, 7.183561e-002
8.292407e+002, 7.224055e-002
8.311691e+002, 7.261478e-002
8.330976e+002, 7.321469e-002
8.350261e+002, 7.409790e-002
8.369545e+002, 7.487045e-002
8.388830e+002, 7.562196e-002
8.408115e+002, 7.649451e-002
8.427399e+002, 7.763104e-002
8.446684e+002, 7.889453e-002
8.465969e+002, 8.010644e-002
8.485253e+002, 8.117995e-002
8.504538e+002, 8.249405e-002
8.523823e+002, 8.392701e-002
8.543107e+002, 8.525414e-002
8.562392e+002, 8.659673e-002
8.581677e+002, 8.834811e-002
8.600961e+002, 8.984748e-002
8.620246e+002, 9.120513e-002
8.639531e+002, 9.279545e-002
8.658815e+002, 9.454804e-002
8.678100e+002, 9.606612e-002
8.697385e+002, 9.756056e-002
8.716669e+002, 9.918934e-002
8.735954e+002, 1.007750e-001
8.755239e+002, 1.024020e-001
8.774523e+002, 1.039991e-001
8.793808e+002, 1.055721e-001
8.813093e+002, 1.071661e-001
8.832377e+002, 1.086264e-001
8.851662e+002, 1.102412e-001
8.870947e+002, 1.121242e-001
8.890231e+002, 1.139639e-001
8.909516e+002, 1.156077e-001
8.928801e+002, 1.171699e-001
8.948085e+002, 1.188071e-001
8.967370e+002, 1.203253e-001
8.986655e+002, 1.220603e-001
9.005939e+002, 1.238882e-001
9.025224e+002, 1.256048e-001
9.044509e+002, 1.270642e-001
9.063793e+002, 1.283698e-001
9.083078e+002, 1.295493e-001
9.102363e+002, 1.305429e-001
9.121647e+002, 1.313250e-001
9.140932e+002, 1.318625e-001
9.160217e+002, 1.321349e-001
9.179501e+002, 1.320356e-001
9.198786e+002, 1.315743e-001
9.218071e+002, 1.308801e-001
9.237355e+002, 1.300541e-001
9.256640e+002, 1.290262e-001
9.275925e+002, 1.277420e-001
9.295209e+002, 1.262589e-001
9.314494e+002, 1.245935e-001
9.333779e+002, 1.227902e-001
9.353063e+002, 1.210332e-001
9.372348e+002, 1.192585e-001
9.391633e+002, 1.173308e-001
9.410917e+002, 1.155215e-001
9.430202e+002, 1.138741e-001
9.449487e+002, 1.120813e-001
9.468771e+002, 1.104895e-001
9.488056e+002, 1.091677e-001
9.507341e+002, 1.077587e-001
9.526625e+002, 1.063907e-001
9.545910e+002, 1.054293e-001
9.565195e+002, 1.045372e-001
9.584479e+002, 1.037401e-001
9.603764e+002, 1.032323e-001
9.623049e+002, 1.029495e-001
9.642333e+002, 1.030228e-001
9.661618e+002, 1.036485e-001
9.680903e+002, 1.051677e-001
9.700187e+002, 1.080902e-001
9.719472e+002, 1.119863e-001
9.738757e+002, 1.144622e-001
9.758041e+002, 1.133434e-001
9.777326e+002, 1.098196e-001
9.796611e+002, 1.063303e-001
9.815895e+002, 1.037776e-001
9.835180e+002, 1.021110e-001
9.854465e+002, 1.012304e-001
9.873749e+002, 1.012284e-001
9.893034e+002, 1.021840e-001
9.912319e+002, 1.031397e-001
9.931603e+002, 1.035762e-001
9.950888e+002, 1.040083e-001
9.970173e+002, 1.048304e-001
9.989457e+002, 1.059584e-001
1.000874e+003, 1.075413e-001
1.002803e+003, 1.095324e-001
1.004731e+003, 1.119076e-001
1.006660e+003, 1.144983e-001
1.008588e+003, 1.173831e-001
1.010517e+003, 1.207013e-001
1.012445e+003, 1.243857e-001
1.014373e+003, 1.285178e-001
1.016302e+003, 1.334329e-001
1.018230e+003, 1.388609e-001
1.020159e+003, 1.448222e-001
1.022087e+003, 1.516004e-001
1.024016e+003, 1.592713e-001
1.025944e+003, 1.674827e-001
1.027873e+003, 1.764151e-001
1.029801e+003, 1.861846e-001
1.031730e+003, 1.968253e-001
1.033658e+003, 2.085700e-001
1.035587e+003, 2.213144e-001
1.037515e+003, 2.350315e-001
1.039443e+003, 2.495931e-001
1.041372e+003, 2.648102e-001
1.043300e+003, 2.805467e-001
1.045229e+003, 2.964381e-001
1.047157e+003, 3.120090e-001
1.049086e+003, 3.268262e-001
1.051014e+003, 3.406550e-001
1.052943e+003, 3.529851e-001
1.054871e+003, 3.633735e-001
1.056800e+003, 3.717745e-001
1.058728e+003, 3.778563e-001
1.060657e+003, 3.811744e-001
1.062585e+003, 3.823289e-001
1.064514e+003, 3.819327e-001
1.066442e+003, 3.807791e-001
1.068370e+003, 3.797909e-001
1.070299e+003, 3.797876e-001
1.072227e+003, 3.809629e-001
1.074156e+003, 3.844522e-001
1.076084e+003, 3.903989e-001
1.078013e+003, 3.981436e-001
1.079941e+003, 4.064191e-001
1.081870e+003, 4.141583e-001
1.083798e+003, 4.196480e-001
1.085727e+003, 4.211301e-001
1.087655e+003, 4.180656e-001
1.089584e+003, 4.099379e-001
1.091512e+003, 3.970793e-001
1.093441e+003, 3.810310e-001
1.095369e+003, 3.628849e-001
1.097297e+003, 3.432994e-001
1.099226e+003, 3.228714e-001
1.101154e+003, 3.023500e-001
1.103083e+003, 2.820798e-001
1.105011e+003, 2.624459e-001
1.106940e+003, 2.439686e-001
1.108868e+003, 2.263883e-001
1.110797e+003, 2.095733e-001
1.112725e+003, 1.938590e-001
1.114654e+003, 1.793147e-001
1.116582e+003, 1.659518e-001
1.118511e+003, 1.538501e-001
1.120439e+003, 1.425806e-001
1.122368e+003, 1.319559e-001
1.124296e+003, 1.219323e-001
1.126224e+003, 1.124033e-001
1.128153e+003, 1.031594e-001
1.130081e+003, 9.437367e-002
1.132010e+003, 8.633672e-002
1.133938e+003, 7.904891e-002
1.135867e+003, 7.248488e-002
1.137795e+003, 6.687547e-002
1.139724e+003, 6.222020e-002
1.141652e+003, 5.858341e-002
1.143581e+003, 5.570753e-002
1.145509e+003, 5.327248e-002
1.147438e+003, 5.122362e-002
1.149366e+003, 4.972998e-002
1.151295e+003, 4.863246e-002
1.153223e+003, 4.772524e-002
1.155151e+003, 4.699059e-002
1.157080e+003, 4.644203e-002
1.159008e+003, 4.615745e-002
1.160937e+003, 4.601864e-002
1.162865e+003, 4.608618e-002
1.164794e+003, 4.620359e-002
1.166722e+003, 4.639073e-002
1.168651e+003, 4.694533e-002
1.170579e+003, 4.768990e-002
1.172508e+003, 4.849134e-002
1.174436e+003, 4.951455e-002
1.176365e+003, 5.072172e-002
1.178293e+003, 5.216438e-002
1.180222e+003, 5.369324e-002
1.182150e+003, 5.523924e-002
1.184078e+003, 5.680338e-002
1.186007e+003, 5.840734e-002
1.187935e+003, 5.970495e-002
1.189864e+003, 6.029782e-002
1.191792e+003, 6.004313e-002
1.193721e+003, 5.864399e-002
1.195649e+003, 5.610301e-002
1.197578e+003, 5.276530e-002
1.199506e+003, 4.900059e-002
1.201435e+003, 4.508078e-002
1.203363e+003, 4.150717e-002
1.205292e+003, 3.841425e-002
1.207220e+003, 3.587160e-002
1.209149e+003, 3.376475e-002
1.211077e+003, 3.195992e-002
1.213005e+003, 3.055321e-002
1.214934e+003, 2.940331e-002
1.216862e+003, 2.848160e-002
1.218791e+003, 2.787152e-002
1.220719e+003, 2.739717e-002
1.222648e+003, 2.690345e-002
1.224576e+003, 2.646064e-002
1.226505e+003, 2.615045e-002
1.228433e+003, 2.586502e-002
1.230362e+003, 2.558936e-002
1.232290e+003, 2.542143e-002
1.234219e+003, 2.534019e-002
1.236147e+003, 2.511219e-002
1.238076e+003, 2.476753e-002
1.240004e+003, 2.465770e-002
1.241932e+003, 2.463874e-002
1.243861e+003, 2.438869e-002
1.245789e+003, 2.418265e-002
1.247718e+003, 2.413652e-002
1.249646e+003, 2.406750e-002
1.251575e+003, 2.383951e-002
1.253503e+003, 2.368589e-002
1.255432e+003, 2.360456e-002
1.257360e+003, 2.334982e-002
1.259289e+003, 2.316067e-002
1.261217e+003, 2.309535e-002
1.263146e+003, 2.300276e-002
1.265074e+003, 2.290606e-002
1.267003e+003, 2.288780e-002
1.268931e+003, 2.296072e-002
1.270859e+003, 2.297045e-002
1.272788e+003, 2.293514e-002
1.274716e+003, 2.291843e-002
1.276645e+003, 2.291007e-002
1.278573e+003, 2.295870e-002
1.280502e+003, 2.306168e-002
1.282430e+003, 2.308158e-002
1.284359e+003, 2.309592e-002
1.286287e+003, 2.315165e-002
1.288216e+003, 2.325998e-002
1.290144e+003, 2.334912e-002
1.292073e+003, 2.347918e-002
1.294001e+003, 2.368484e-002
1.295930e+003, 2.379613e-002
1.297858e+003, 2.388605e-002
1.299786e+003, 2.406245e-002
1.301715e+003, 2.413839e-002
1.303643e+003, 2.432374e-002
1.305572e+003, 2.453029e-002
1.307500e+003, 2.467184e-002
1.309429e+003, 2.469273e-002
1.311357e+003, 2.479327e-002
1.313286e+003, 2.503520e-002
1.315214e+003, 2.520875e-002
1.317143e+003, 2.520518e-002
1.319071e+003, 2.529374e-002
1.321000e+003, 2.541435e-002
1.322928e+003, 2.565194e-002
1.324857e+003, 2.598394e-002
1.326785e+003, 2.620185e-002
1.328714e+003, 2.637075e-002
1.330642e+003, 2.658318e-002
1.332570e+003, 2.672356e-002
1.334499e+003, 2.683763e-002
1.336427e+003, 2.696228e-002
1.338356e+003, 2.714580e-002
1.340284e+003, 2.733315e-002
1.342213e+003, 2.766810e-002
1.344141e+003, 2.793150e-002
1.346070e+003, 2.809062e-002
1.347998e+003, 2.828090e-002
1.349927e+003, 2.851803e-002
1.351855e+003, 2.877164e-002
1.353784e+003, 2.897430e-002
1.355712e+003, 2.912960e-002
1.357641e+003, 2.927963e-002
1.359569e+003, 2.927224e-002
1.361497e+003, 2.926444e-002
1.363426e+003, 2.953735e-002
1.365354e+003, 3.001234e-002
1.367283e+003, 3.032043e-002
1.369211e+003, 3.061052e-002
1.371140e+003, 3.082753e-002
1.373068e+003, 3.082074e-002
1.374997e+003, 3.097901e-002
1.376925e+003, 3.144110e-002
1.378854e+003, 3.172522e-002
1.380782e+003, 3.204554e-002
1.382711e+003, 3.231509e-002
1.384639e+003, 3.242293e-002
1.386568e+003, 3.229121e-002
1.388496e+003, 3.263643e-002
1.390424e+003, 3.324848e-002
1.392353e+003, 3.342142e-002
1.394281e+003, 3.319065e-002
1.396210e+003, 3.349935e-002
1.398138e+003, 3.381030e-002
1.400067e+003, 3.419094e-002
1.401995e+003, 3.467407e-002
1.403924e+003, 3.484333e-002
1.405852e+003, 3.496239e-002
1.407781e+003, 3.532297e-002
1.409709e+003, 3.564589e-002
1.411638e+003, 3.598937e-002
1.413566e+003, 3.629361e-002
1.415495e+003, 3.640217e-002
1.417423e+003, 3.596488e-002
1.419351e+003, 3.573956e-002
1.421280e+003, 3.681482e-002
1.423208e+003, 3.742800e-002
1.425137e+003, 3.771718e-002
1.427065e+003, 3.822044e-002
1.428994e+003, 3.843646e-002
1.430922e+003, 3.875797e-002
1.432851e+003, 3.915838e-002
1.434779e+003, 3.901671e-002
1.436708e+003, 3.866269e-002
1.438636e+003, 3.966361e-002
1.440565e+003, 4.032725e-002
1.442493e+003, 4.060923e-002
1.444422e+003, 4.092894e-002
1.446350e+003, 4.097718e-002
1.448278e+003, 4.097409e-002
1.450207e+003, 4.150713e-002
1.452135e+003, 4.178329e-002
1.454064e+003, 4.143152e-002
1.455992e+003, 4.006419e-002
1.457921e+003, 4.058831e-002
1.459849e+003, 4.236756e-002
1.461778e+003, 4.299382e-002
1.463706e+003, 4.265817e-002
1.465635e+003, 4.277316e-002
1.467563e+003, 4.362013e-002
1.469492e+003, 4.394580e-002
1.471420e+003, 4.334721e-002
1.473349e+003, 4.343619e-002
1.475277e+003, 4.454886e-002
1.477205e+003, 4.532734e-002
1.479134e+003, 4.602396e-002
1.481062e+003, 4.638109e-002
1.482991e+003, 4.677342e-002
1.484919e+003, 4.687975e-002
1.486848e+003, 4.687579e-002
1.488776e+003, 4.698057e-002
1.490705e+003, 4.728179e-002
1.492633e+003, 4.808055e-002
1.494562e+003, 4.795609e-002
1.496490e+003, 4.759244e-002
1.498419e+003, 4.835168e-002
1.500347e+003, 4.919560e-002
1.502276e+003, 4.980222e-002
1.504204e+003, 4.883504e-002
1.506132e+003, 4.733333e-002
1.508061e+003, 4.852755e-002
1.509989e+003, 5.030057e-002
1.511918e+003, 5.091241e-002
1.513846e+003, 5.128123e-002
1.515775e+003, 5.110576e-002
1.517703e+003, 5.127307e-002
1.519632e+003, 5.098572e-002
1.521560e+003, 5.073674e-002
1.523489e+003, 5.228499e-002
1.525417e+003, 5.306028e-002
1.527346e+003, 5.383785e-002
1.529274e+003, 5.475562e-002
1.531203e+003, 5.505226e-002
1.533131e+003, 5.488266e-002
1.535059e+003, 5.572592e-002
1.536988e+003, 5.573173e-002
1.538916e+003, 5.407299e-002
1.540845e+003, 5.452925e-002
1.542773e+003, 5.651024e-002
1.544702e+003, 5.794192e-002
1.546630e+003, 5.937992e-002
1.548559e+003, 6.036848e-002
1.550487e+003, 6.090717e-002
1.552416e+003, 6.128290e-002
1.554344e+003, 6.141816e-002
1.556273e+003, 6.140669e-002
1.558201e+003, 6.003618e-002
1.560130e+003, 6.141807e-002
1.562058e+003, 6.505852e-002
1.563986e+003, 6.671610e-002
1.565915e+003, 6.769872e-002
1.567843e+003, 6.836464e-002
1.569772e+003, 6.909494e-002
1.571700e+003, 7.085691e-002
1.573629e+003, 7.169940e-002
1.575557e+003, 7.127810e-002
1.577486e+003, 7.303859e-002
1.579414e+003, 7.553366e-002
1.581343e+003, 7.691445e-002
1.583271e+003, 7.817226e-002
1.585200e+003, 7.916366e-002
1.587128e+003, 8.020379e-002
1.589057e+003, 8.130773e-002
1.590985e+003, 8.257384e-002
1.592913e+003, 8.377099e-002
1.594842e+003, 8.494077e-002
1.596770e+003, 8.600686e-002
1.598699e+003, 8.717462e-002
1.600627e+003, 8.821110e-002
1.602556e+003, 8.910421e-002
1.604484e+003, 8.992240e-002
1.606413e+003, 9.057327e-002
1.608341e+003, 9.097303e-002
1.610270e+003, 9.153599e-002
1.612198e+003, 9.214949e-002
1.614127e+003, 9.199291e-002
1.616055e+003, 9.077144e-002
1.617984e+003, 9.150135e-002
1.619912e+003, 9.274827e-002
1.621840e+003, 9.244666e-002
1.623769e+003, 9.217191e-002
1.625697e+003, 9.241936e-002
1.627626e+003, 9.231976e-002
1.629554e+003, 9.223546e-002
1.631483e+003, 9.210903e-002
1.633411e+003, 9.097073e-002
1.635340e+003, 8.937440e-002
1.637268e+003, 8.981652e-002
1.639197e+003, 9.044752e-002
1.641125e+003, 9.015108e-002
1.643054e+003, 8.960137e-002
1.644982e+003, 8.789661e-002
1.646911e+003, 8.684663e-002
1.648839e+003, 8.738973e-002
1.650767e+003, 8.557256e-002
1.652696e+003, 8.190662e-002
1.654624e+003, 8.316567e-002
1.656553e+003, 8.519119e-002
1.658481e+003, 8.489006e-002
1.660410e+003, 8.390819e-002
1.662338e+003, 8.272439e-002
1.664267e+003, 8.236493e-002
1.666195e+003, 8.183933e-002
1.668124e+003, 8.012235e-002
1.670052e+003, 7.899182e-002
1.671981e+003, 7.884709e-002
1.673909e+003, 7.769785e-002
1.675838e+003, 7.652190e-002
1.677766e+003, 7.639360e-002
1.679694e+003, 7.548775e-002
1.681623e+003, 7.396765e-002
1.683551e+003, 7.070213e-002
1.685480e+003, 6.987865e-002
1.687408e+003, 7.093059e-002
1.689337e+003, 7.030621e-002
1.691265e+003, 6.929289e-002
1.693194e+003, 6.769189e-002
1.695122e+003, 6.474108e-002
1.697051e+003, 6.370113e-002
1.698979e+003, 6.213234e-002
1.700908e+003, 6.067267e-002
1.702836e+003, 6.169627e-002
1.704765e+003, 6.077741e-002
1.706693e+003, 6.000042e-002
1.708621e+003, 5.955888e-002
1.710550e+003, 5.893030e-002
1.712478e+003, 5.767415e-002
1.714407e+003, 5.592040e-002
1.716335e+003, 5.362299e-002
1.718264e+003, 5.287013e-002
1.720192e+003, 5.378144e-002
1.722121e+003, 5.379223e-002
1.724049e+003, 5.307667e-002
1.725978e+003, 5.263042e-002
1.727906e+003, 5.199498e-002
1.729835e+003, 5.107014e-002
1.731763e+003, 4.917451e-002
1.733692e+003, 4.700751e-002
1.735620e+003, 4.764340e-002
1.737548e+003, 4.821151e-002
1.739477e+003, 4.714088e-002
1.741405e+003, 4.700769e-002
1.743334e+003, 4.685477e-002
1.745262e+003, 4.653388e-002
1.747191e+003, 4.582896e-002
1.749119e+003, 4.521808e-002
1.751048e+003, 4.480274e-002
1.752976e+003, 4.534823e-002
1.754905e+003, 4.550716e-002
1.756833e+003, 4.508337e-002
1.758762e+003, 4.485756e-002
1.760690e+003, 4.425098e-002
1.762619e+003, 4.416479e-002
1.764547e+003, 4.446281e-002
1.766475e+003, 4.377445e-002
1.768404e+003, 4.311401e-002
1.770332e+003, 4.256111e-002
1.772261e+003, 4.168234e-002
1.774189e+003, 4.208212e-002
1.776118e+003, 4.246720e-002
1.778046e+003, 4.224943e-002
1.779975e+003, 4.188982e-002
1.781903e+003, 4.165184e-002
1.783832e+003, 4.141797e-002
1.785760e+003, 4.131420e-002
1.787689e+003, 4.125479e-002
1.789617e+003, 4.045606e-002
1.791546e+003, 3.949005e-002
1.793474e+003, 3.957976e-002
1.795402e+003, 4.012218e-002
1.797331e+003, 3.983380e-002
1.799259e+003, 3.936478e-002
1.801188e+003, 3.904571e-002
1.803116e+003, 3.907287e-002
1.805045e+003, 3.893639e-002
1.806973e+003, 3.877623e-002
1.808902e+003, 3.842980e-002
1.810830e+003, 3.820512e-002
1.812759e+003, 3.816213e-002
1.814687e+003, 3.804331e-002
1.816616e+003, 3.751657e-002
1.818544e+003, 3.739604e-002
1.820473e+003, 3.725402e-002
1.822401e+003, 3.707312e-002
1.824329e+003, 3.665411e-002
1.826258e+003, 3.662480e-002
1.828186e+003, 3.633752e-002
1.830115e+003, 3.597966e-002
1.832043e+003, 3.626468e-002
1.833972e+003, 3.603907e-002
1.835900e+003, 3.552662e-002
1.837829e+003, 3.552771e-002
1.839757e+003, 3.567081e-002
1.841686e+003, 3.534303e-002
1.843614e+003, 3.428271e-002
1.845543e+003, 3.445696e-002
1.847471e+003, 3.490863e-002
1.849400e+003, 3.498022e-002
1.851328e+003, 3.504700e-002
1.853256e+003, 3.518352e-002
1.855185e+003, 3.525531e-002
1.857113e+003, 3.511384e-002
1.859042e+003, 3.482296e-002
1.860970e+003, 3.479974e-002
1.862899e+003, 3.475455e-002
1.864827e+003, 3.435649e-002
1.866756e+003, 3.412684e-002
1.868684e+003, 3.397948e-002
1.870613e+003, 3.413084e-002
1.872541e+003, 3.442483e-002
1.874470e+003, 3.426581e-002
1.876398e+003, 3.441646e-002
1.878327e+003, 3.460199e-002
1.880255e+003, 3.463047e-002
1.882183e+003, 3.439243e-002
1.884112e+003, 3.444659e-002
1.886040e+003, 3.435828e-002
1.887969e+003, 3.395720e-002
1.889897e+003, 3.370589e-002
1.891826e+003, 3.416748e-002
1.893754e+003, 3.452408e-002
1.895683e+003, 3.454574e-002
1.897611e+003, 3.478798e-002
1.899540e+003, 3.496656e-002
1.901468e+003, 3.484020e-002
1.903397e+003, 3.461267e-002
1.905325e+003, 3.482873e-002
1.907254e+003, 3.527697e-002
1.909182e+003, 3.538295e-002
1.911110e+003, 3.540185e-002
1.913039e+003, 3.535743e-002
1.914967e+003, 3.533490e-002
1.916896e+003, 3.480733e-002
1.918824e+003, 3.484235e-002
1.920753e+003, 3.546239e-002
1.922681e+003, 3.579858e-002
1.924610e+003, 3.573857e-002
1.926538e+003, 3.578510e-002
1.928467e+003, 3.588945e-002
1.930395e+003, 3.589105e-002
1.932324e+003, 3.611089e-002
1.934252e+003, 3.673087e-002
1.936181e+003, 3.626446e-002
1.938109e+003, 3.580534e-002
1.940037e+003, 3.578114e-002
1.941966e+003, 3.561489e-002
1.943894e+003, 3.624601e-002
1.945823e+003, 3.666694e-002
1.947751e+003, 3.635114e-002
1.949680e+003, 3.569242e-002
1.951608e+003, 3.543939e-002
1.953537e+003, 3.590497e-002
1.955465e+003, 3.628459e-002
1.957394e+003, 3.731882e-002
1.959322e+003, 3.800277e-002
1.961251e+003, 3.856754e-002
1.963179e+003, 3.827085e-002
1.965108e+003, 3.785175e-002
1.967036e+003, 3.762474e-002
1.968964e+003, 3.753560e-002
1.970893e+003, 3.816982e-002
1.972821e+003, 3.862984e-002
1.974750e+003, 3.823423e-002
1.976678e+003, 3.849724e-002
1.978607e+003, 3.968595e-002
1.980535e+003, 3.934583e-002
1.982464e+003, 3.834243e-002
1.984392e+003, 3.877154e-002
1.986321e+003, 3.900149e-002
1.988249e+003, 3.801438e-002
1.990178e+003, 3.691593e-002
1.992106e+003, 3.777907e-002
1.994035e+003, 3.870916e-002
1.995963e+003, 3.818946e-002
1.997891e+003, 3.832625e-002
1.999820e+003, 3.941856e-002
2.001748e+003, 3.873462e-002
2.003677e+003, 3.702446e-002
2.005605e+003, 3.727839e-002
2.007534e+003, 3.953905e-002
2.009462e+003, 4.054471e-002
2.011391e+003, 4.024342e-002
2.013319e+003, 3.948776e-002
2.015248e+003, 3.975847e-002
2.017176e+003, 3.981252e-002
2.019105e+003, 3.958360e-002
2.021033e+003, 3.959332e-002
2.022962e+003, 4.012638e-002
2.024890e+003, 3.987042e-002
2.026818e+003, 3.938470e-002
2.028747e+003, 4.023954e-002
2.030675e+003, 4.121786e-002
2.032604e+003, 4.116532e-002
2.034532e+003, 4.062181e-002
2.036461e+003, 3.963185e-002
2.038389e+003, 3.960130e-002
2.040318e+003, 3.987607e-002
2.042246e+003, 4.008291e-002
2.044175e+003, 4.008714e-002
2.046103e+003, 4.041244e-002
2.048031e+003, 4.097940e-002
2.049960e+003, 4.167778e-002
2.051888e+003, 4.094075e-002
2.053817e+003, 4.058063e-002
2.055745e+003, 4.066722e-002
2.057674e+003, 4.090405e-002
2.059602e+003, 4.072430e-002
2.061531e+003, 4.019959e-002
2.063459e+003, 3.971308e-002
2.065388e+003, 4.018575e-002
2.067316e+003, 4.052815e-002
2.069245e+003, 4.113840e-002
2.071173e+003, 4.144230e-002
2.073102e+003, 4.092945e-002
2.075030e+003, 4.120730e-002
2.076958e+003, 4.142705e-002
2.078887e+003, 4.160740e-002
2.080815e+003, 4.218660e-002
2.082744e+003, 4.219473e-002
2.084672e+003, 4.294423e-002
2.086601e+003, 4.295054e-002
2.088529e+003, 4.203987e-002
2.090458e+003, 4.176993e-002
2.092386e+003, 4.231368e-002
2.094315e+003, 4.239291e-002
2.096243e+003, 4.220194e-002
2.098172e+003, 4.216624e-002
2.100100e+003, 4.229144e-002
2.102029e+003, 4.238417e-002
2.103957e+003, 4.258232e-002
2.105885e+003, 4.253699e-002
2.107814e+003, 4.230640e-002
2.109742e+003, 4.223514e-002
2.111671e+003, 4.246748e-002
2.113599e+003, 4.245573e-002
2.115528e+003, 4.276270e-002
2.117456e+003, 4.232376e-002
2.119385e+003, 4.183252e-002
2.121313e+003, 4.157551e-002
2.123242e+003, 4.187732e-002
2.125170e+003, 4.220090e-002
2.127099e+003, 4.229273e-002
2.129027e+003, 4.190314e-002
2.130956e+003, 4.173459e-002
2.132884e+003, 4.150006e-002
2.134813e+003, 4.187230e-002
2.136741e+003, 4.227157e-002
2.138669e+003, 4.263591e-002
2.140598e+003, 4.258529e-002
2.142526e+003, 4.143576e-002
2.144455e+003, 4.151475e-002
2.146383e+003, 4.237711e-002
2.148312e+003, 4.286405e-002
2.150240e+003, 4.302181e-002
2.152169e+003, 4.257133e-002
2.154097e+003, 4.258848e-002
2.156026e+003, 4.285192e-002
2.157954e+003, 4.291619e-002
2.159883e+003, 4.338090e-002
2.161811e+003, 4.423092e-002
2.163740e+003, 4.386377e-002
2.165668e+003, 4.361900e-002
2.167596e+003, 4.321394e-002
2.169525e+003, 4.365821e-002
2.171453e+003, 4.405154e-002
2.173382e+003, 4.381850e-002
2.175310e+003, 4.377466e-002
2.177239e+003, 4.403115e-002
2.179167e+003, 4.444879e-002
2.181096e+003, 4.460627e-002
2.183024e+003, 4.429962e-002
2.184953e+003, 4.452431e-002
2.186881e+003, 4.528333e-002
2.188810e+003, 4.562675e-002
2.190738e+003, 4.528517e-002
2.192667e+003, 4.513905e-002
2.194595e+003, 4.540757e-002
2.196523e+003, 4.582729e-002
2.198452e+003, 4.578091e-002
2.200380e+003, 4.564583e-002
2.202309e+003, 4.575921e-002
2.204237e+003, 4.686534e-002
2.206166e+003, 4.733645e-002
2.208094e+003, 4.706943e-002
2.210023e+003, 4.791966e-002
2.211951e+003, 4.906001e-002
2.213880e+003, 4.870404e-002
2.215808e+003, 4.823560e-002
2.217737e+003, 4.882282e-002
2.219665e+003, 4.970066e-002
2.221594e+003, 4.987303e-002
2.223522e+003, 4.985170e-002
2.225450e+003, 4.999404e-002
2.227379e+003, 5.033604e-002
2.229307e+003, 5.052234e-002
2.231236e+003, 5.051383e-002
2.233164e+003, 5.070916e-002
2.235093e+003, 5.136753e-002
2.237021e+003, 5.190179e-002
2.238950e+003, 5.231417e-002
2.240878e+003, 5.269519e-002
2.242807e+003, 5.316209e-002
2.244735e+003, 5.333104e-002
2.246664e+003, 5.388311e-002
2.248592e+003, 5.415033e-002
2.250521e+003, 5.400895e-002
2.252449e+003, 5.378962e-002
2.254377e+003, 5.426974e-002
2.256306e+003, 5.461405e-002
2.258234e+003, 5.459841e-002
2.260163e+003, 5.533705e-002
2.262091e+003, 5.601972e-002
2.264020e+003, 5.604184e-002
2.265948e+003, 5.617818e-002
2.267877e+003, 5.657144e-002
2.269805e+003, 5.734444e-002
2.271734e+003, 5.795388e-002
2.273662e+003, 5.814205e-002
2.275591e+003, 5.868671e-002
2.277519e+003, 5.888034e-002
2.279448e+003, 5.874887e-002
2.281376e+003, 5.911276e-002
2.283304e+003, 5.905839e-002
2.285233e+003, 5.925450e-002
2.287161e+003, 5.980582e-002
2.289090e+003, 5.978432e-002
2.291018e+003, 5.986957e-002
2.292947e+003, 6.040329e-002
2.294875e+003, 6.085597e-002
2.296804e+003, 6.114269e-002
2.298732e+003, 6.150261e-002
2.300661e+003, 6.212845e-002
2.302589e+003, 6.262074e-002
2.304518e+003, 6.277212e-002
2.306446e+003, 6.313975e-002
2.308375e+003, 6.377195e-002
2.310303e+003, 6.408441e-002
2.312231e+003, 6.440879e-002
2.314160e+003, 6.496248e-002
2.316088e+003, 6.562911e-002
2.318017e+003, 6.618404e-002
2.319945e+003, 6.672546e-002
2.321874e+003, 6.706483e-002
2.323802e+003, 6.750691e-002
2.325731e+003, 6.774630e-002
2.327659e+003, 6.827108e-002
2.329588e+003, 6.916373e-002
2.331516e+003, 6.974448e-002
2.333445e+003, 7.022251e-002
2.335373e+003, 7.078916e-002
2.337302e+003, 7.132515e-002
2.339230e+003, 7.175748e-002
2.341158e+003, 7.239164e-002
2.343087e+003, 7.291695e-002
2.345015e+003, 7.325652e-002
2.346944e+003, 7.412826e-002
2.348872e+003, 7.492344e-002
2.350801e+003, 7.578744e-002
2.352729e+003, 7.642925e-002
2.354658e+003, 7.707670e-002
2.356586e+003, 7.815586e-002
2.358515e+003, 7.902905e-002
2.360443e+003, 7.965121e-002
2.362372e+003, 8.040590e-002
2.364300e+003, 8.112729e-002
2.366229e+003, 8.187281e-002
2.368157e+003, 8.275718e-002
2.370085e+003, 8.365971e-002
2.372014e+003, 8.454423e-002
2.373942e+003, 8.515663e-002
2.375871e+003, 8.594636e-002
2.377799e+003, 8.677881e-002
2.379728e+003, 8.758136e-002
2.381656e+003, 8.869866e-002
2.383585e+003, 8.969155e-002
2.385513e+003, 9.099707e-002
2.387442e+003, 9.240325e-002
2.389370e+003, 9.306339e-002
2.391299e+003, 9.327270e-002
2.393227e+003, 9.422234e-002
2.395156e+003, 9.555447e-002
2.397084e+003, 9.651005e-002
2.399012e+003, 9.772118e-002
2.400941e+003, 9.910543e-002
2.402869e+003, 9.969418e-002
2.404798e+003, 1.006173e-001
2.406726e+003, 1.018249e-001
2.408655e+003, 1.032007e-001
2.410583e+003, 1.047072e-001
2.412512e+003, 1.057332e-001
2.414440e+003, 1.067589e-001
2.416369e+003, 1.080576e-001
2.418297e+003, 1.091212e-001
2.420226e+003, 1.099002e-001
2.422154e+003, 1.108043e-001
2.424083e+003, 1.122553e-001
2.426011e+003, 1.133709e-001
2.427939e+003, 1.141389e-001
2.429868e+003, 1.148302e-001
2.431796e+003, 1.156690e-001
2.433725e+003, 1.163264e-001
2.435653e+003, 1.172770e-001
2.437582e+003, 1.183477e-001
2.439510e+003, 1.195469e-001
2.441439e+003, 1.203981e-001
2.443367e+003, 1.209527e-001
2.445296e+003, 1.214253e-001
2.447224e+003, 1.223707e-001
2.449153e+003, 1.232148e-001
2.451081e+003, 1.236235e-001
2.453010e+003, 1.241428e-001
2.454938e+003, 1.243677e-001
2.456866e+003, 1.245150e-001
2.458795e+003, 1.246090e-001
2.460723e+003, 1.251886e-001
2.462652e+003, 1.255634e-001
2.464580e+003, 1.255023e-001
2.466509e+003, 1.259675e-001
2.468437e+003, 1.261741e-001
2.470366e+003, 1.261211e-001
2.472294e+003, 1.260707e-001
2.474223e+003, 1.260072e-001
2.476151e+003, 1.257923e-001
2.478080e+003, 1.257451e-001
2.480008e+003, 1.258282e-001
2.481937e+003, 1.258584e-001
2.483865e+003, 1.253262e-001
2.485793e+003, 1.251486e-001
2.487722e+003, 1.253432e-001
2.489650e+003, 1.253319e-001
2.491579e+003, 1.249368e-001
2.493507e+003, 1.244173e-001
2.495436e+003, 1.239646e-001
2.497364e+003, 1.233587e-001
2.499293e+003, 1.231690e-001
2.501221e+003, 1.230331e-001
2.503150e+003, 1.225506e-001
2.505078e+003, 1.219812e-001
2.507007e+003, 1.213696e-001
2.508935e+003, 1.216368e-001
2.510864e+003, 1.215482e-001
2.512792e+003, 1.210310e-001
2.514720e+003, 1.207851e-001
2.516649e+003, 1.209379e-001
2.518577e+003, 1.208656e-001
2.520506e+003, 1.201650e-001
2.522434e+003, 1.197477e-001
2.524363e+003, 1.198465e-001
2.526291e+003, 1.198074e-001
2.528220e+003, 1.195633e-001
2.530148e+003, 1.191848e-001
2.532077e+003, 1.187182e-001
2.534005e+003, 1.182213e-001
2.535934e+003, 1.181192e-001
2.537862e+003, 1.178147e-001
2.539791e+003, 1.176919e-001
2.541719e+003, 1.179635e-001
2.543647e+003, 1.178882e-001
2.545576e+003, 1.175597e-001
2.547504e+003, 1.177579e-001
2.549433e+003, 1.177575e-001
2.551361e+003, 1.179838e-001
2.553290e+003, 1.179171e-001
2.555218e+003, 1.176617e-001
2.557147e+003, 1.176120e-001
2.559075e+003, 1.175541e-001
2.561004e+003, 1.177547e-001
2.562932e+003, 1.182785e-001
2.564861e+003, 1.187648e-001
2.566789e+003, 1.188358e-001
2.568718e+003, 1.186625e-001
2.570646e+003, 1.184301e-001
2.572574e+003, 1.182083e-001
2.574503e+003, 1.187018e-001
2.576431e+003, 1.193422e-001
2.578360e+003, 1.190742e-001
2.580288e+003, 1.190605e-001
2.582217e+003, 1.195115e-001
2.584145e+003, 1.198394e-001
2.586074e+003, 1.200621e-001
2.588002e+003, 1.206314e-001
2.589931e+003, 1.212674e-001
2.591859e+003, 1.216033e-001
2.593788e+003, 1.217456e-001
2.595716e+003, 1.216946e-001
2.597645e+003, 1.218060e-001
2.599573e+003, 1.223100e-001
2.601501e+003, 1.230640e-001
2.603430e+003, 1.238548e-001
2.605358e+003, 1.242893e-001
2.607287e+003, 1.242871e-001
2.609215e+003, 1.246504e-001
2.611144e+003, 1.252346e-001
2.613072e+003, 1.256485e-001
2.615001e+003, 1.258790e-001
2.616929e+003, 1.263560e-001
2.618858e+003, 1.270042e-001
2.620786e+003, 1.274924e-001
2.622715e+003, 1.279917e-001
2.624643e+003, 1.285762e-001
2.626572e+003, 1.291532e-001
2.628500e+003, 1.295050e-001
2.630428e+003, 1.299716e-001
2.632357e+003, 1.307337e-001
2.634285e+003, 1.314132e-001
2.636214e+003, 1.319443e-001
2.638142e+003, 1.325667e-001
2.640071e+003, 1.335157e-001
2.641999e+003, 1.343211e-001
2.643928e+003, 1.350325e-001
2.645856e+003, 1.356976e-001
2.647785e+003, 1.363270e-001
2.649713e+003, 1.369994e-001
2.651642e+003, 1.377600e-001
2.653570e+003, 1.385044e-001
2.655499e+003, 1.393253e-001
2.657427e+003, 1.401726e-001
2.659355e+003, 1.411917e-001
2.661284e+003, 1.422069e-001
2.663212e+003, 1.428135e-001
2.665141e+003, 1.433271e-001
2.667069e+003, 1.442162e-001
2.668998e+003, 1.454113e-001
2.670926e+003, 1.465220e-001
2.672855e+003, 1.475019e-001
2.674783e+003, 1.485088e-001
2.676712e+003, 1.492125e-001
2.678640e+003, 1.500565e-001
2.680569e+003, 1.510891e-001
2.682497e+003, 1.523778e-001
2.684426e+003, 1.534339e-001
2.686354e+003, 1.543044e-001
2.688282e+003, 1.553032e-001
2.690211e+003, 1.563159e-001
2.692139e+003, 1.573164e-001
2.694068e+003, 1.584416e-001
2.695996e+003, 1.595859e-001
2.697925e+003, 1.607094e-001
2.699853e+003, 1.617890e-001
2.701782e+003, 1.630082e-001
2.703710e+003, 1.643633e-001
2.705639e+003, 1.655008e-001
2.707567e+003, 1.663576e-001
2.709496e+003, 1.674393e-001
2.711424e+003, 1.688222e-001
2.713353e+003, 1.701799e-001
2.715281e+003, 1.713460e-001
2.717209e+003, 1.723725e-001
2.719138e+003, 1.733824e-001
2.721066e+003, 1.746526e-001
2.722995e+003, 1.759382e-001
2.724923e+003, 1.773414e-001
2.726852e+003, 1.786542e-001
2.728780e+003, 1.798180e-001
2.730709e+003, 1.810064e-001
2.732637e+003, 1.822638e-001
2.734566e+003, 1.833716e-001
2.736494e+003, 1.847627e-001
2.738423e+003, 1.861801e-001
2.740351e+003, 1.870708e-001
2.742280e+003, 1.882202e-001
2.744208e+003, 1.897470e-001
2.746136e+003, 1.914056e-001
2.748065e+003, 1.930111e-001
2.749993e+003, 1.940543e-001
2.751922e+003, 1.952236e-001
2.753850e+003, 1.967324e-001
2.755779e+003, 1.981412e-001
2.757707e+003, 1.993883e-001
2.759636e+003, 2.007626e-001
2.761564e+003, 2.024087e-001
2.763493e+003, 2.038500e-001
2.765421e+003, 2.049790e-001
2.767350e+003, 2.063174e-001
2.769278e+003, 2.078678e-001
2.771207e+003, 2.094314e-001
2.773135e+003, 2.108120e-001
2.775063e+003, 2.120334e-001
2.776992e+003, 2.132359e-001
2.778920e+003, 2.145701e-001
2.780849e+003, 2.159798e-001
2.782777e+003, 2.172940e-001
2.784706e+003, 2.186816e-001
2.786634e+003, 2.200722e-001
2.788563e+003, 2.215603e-001
2.790491e+003, 2.230110e-001
2.792420e+003, 2.244143e-001
2.794348e+003, 2.256030e-001
2.796277e+003, 2.266915e-001
2.798205e+003, 2.280360e-001
2.800134e+003, 2.292947e-001
2.802062e+003, 2.305026e-001
2.803990e+003, 2.320534e-001
2.805919e+003, 2.333038e-001
2.807847e+003, 2.344448e-001
2.809776e+003, 2.355342e-001
2.811704e+003, 2.368279e-001
2.813633e+003, 2.383427e-001
2.815561e+003, 2.395755e-001
2.817490e+003, 2.406374e-001
2.819418e+003, 2.420631e-001
2.821347e+003, 2.430364e-001
2.823275e+003, 2.439090e-001
2.825204e+003, 2.453985e-001
2.827132e+003, 2.465441e-001
2.829061e+003, 2.475998e-001
2.830989e+003, 2.487669e-001
2.832917e+003, 2.497748e-001
2.834846e+003, 2.508654e-001
2.836774e+003, 2.520518e-001
2.838703e+003, 2.530057e-001
2.840631e+003, 2.535535e-001
2.842560e+003, 2.538347e-001
2.844488e+003, 2.538621e-001
2.846417e+003, 2.537768e-001
2.848345e+003, 2.537016e-001
2.850274e+003, 2.540206e-001
2.852202e+003, 2.551467e-001
2.854131e+003, 2.564684e-001
2.856059e+003, 2.578402e-001
2.857988e+003, 2.591133e-001
2.859916e+003, 2.604527e-001
2.861844e+003, 2.619998e-001
2.863773e+003, 2.632649e-001
2.865701e+003, 2.640269e-001
2.867630e+003, 2.643173e-001
2.869558e+003, 2.646106e-001
2.871487e+003, 2.654383e-001
2.873415e+003, 2.661806e-001
2.875344e+003, 2.668288e-001
2.877272e+003, 2.674094e-001
2.879201e+003, 2.678203e-001
2.881129e+003, 2.680626e-001
2.883058e+003, 2.683949e-001
2.884986e+003, 2.686957e-001
2.886915e+003, 2.690490e-001
2.888843e+003, 2.694928e-001
2.890771e+003, 2.696724e-001
2.892700e+003, 2.696596e-001
2.894628e+003, 2.696767e-001
2.896557e+003, 2.698686e-001
2.898485e+003, 2.698547e-001
2.900414e+003, 2.698345e-001
2.902342e+003, 2.698317e-001
2.904271e+003, 2.697908e-001
2.906199e+003, 2.697528e-001
2.908128e+003, 2.691534e-001
2.910056e+003, 2.683471e-001
2.911985e+003, 2.673107e-001
2.913913e+003, 2.662764e-001
2.915842e+003, 2.653973e-001
2.917770e+003, 2.646993e-001
2.919698e+003, 2.643255e-001
2.921627e+003, 2.644502e-001
2.923555e+003, 2.647670e-001
2.925484e+003, 2.648925e-001
2.927412e+003, 2.649528e-001
2.929341e+003, 2.652544e-001
2.931269e+003, 2.653781e-001
2.933198e+003, 2.654120e-001
2.935126e+003, 2.651348e-001
2.937055e+003, 2.649915e-001
2.938983e+003, 2.648043e-001
2.940912e+003, 2.647022e-001
2.942840e+003, 2.641620e-001
2.944769e+003, 2.635781e-001
2.946697e+003, 2.632414e-001
2.948625e+003, 2.626257e-001
2.950554e+003, 2.620539e-001
2.952482e+003, 2.615805e-001
2.954411e+003, 2.612591e-001
2.956339e+003, 2.607246e-001
2.958268e+003, 2.593170e-001
2.960196e+003, 2.579895e-001
2.962125e+003, 2.575442e-001
2.964053e+003, 2.573737e-001
2.965982e+003, 2.565615e-001
2.967910e+003, 2.558121e-001
2.969839e+003, 2.550228e-001
2.971767e+003, 2.538742e-001
2.973696e+003, 2.530142e-001
2.975624e+003, 2.521674e-001
2.977552e+003, 2.510898e-001
2.979481e+003, 2.497739e-001
2.981409e+003, 2.492025e-001
2.983338e+003, 2.483800e-001
2.985266e+003, 2.474819e-001
2.987195e+003, 2.464972e-001
2.989123e+003, 2.452239e-001
2.991052e+003, 2.438007e-001
2.992980e+003, 2.426318e-001
2.994909e+003, 2.415416e-001
2.996837e+003, 2.402985e-001
2.998766e+003, 2.391581e-001
3.000694e+003, 2.381940e-001
3.002623e+003, 2.366884e-001
3.004551e+003, 2.355964e-001
3.006479e+003, 2.347615e-001
3.008408e+003, 2.338503e-001
3.010336e+003, 2.327785e-001
3.012265e+003, 2.314364e-001
3.014193e+003, 2.301030e-001
3.016122e+003, 2.288887e-001
3.018050e+003, 2.274818e-001
3.019979e+003, 2.259972e-001
3.021907e+003, 2.249352e-001
3.023836e+003, 2.237331e-001
3.025764e+003, 2.225034e-001
3.027693e+003, 2.210238e-001
3.029621e+003, 2.198273e-001
3.031550e+003, 2.188826e-001
3.033478e+003, 2.180160e-001
3.035406e+003, 2.168265e-001
3.037335e+003, 2.156436e-001
3.039263e+003, 2.146570e-001
3.041192e+003, 2.134638e-001
3.043120e+003, 2.121420e-001
3.045049e+003, 2.109279e-001
3.046977e+003, 2.102048e-001
3.048906e+003, 2.092534e-001
3.050834e+003, 2.078057e-001
3.052763e+003, 2.067378e-001
3.054691e+003, 2.057161e-001
3.056620e+003, 2.043856e-001
3.058548e+003, 2.032169e-001
3.060477e+003, 2.021239e-001
3.062405e+003, 2.010026e-001
3.064333e+003, 2.003692e-001
3.066262e+003, 1.993884e-001
3.068190e+003, 1.983584e-001
3.070119e+003, 1.971504e-001
3.072047e+003, 1.959823e-001
3.073976e+003, 1.950696e-001
3.075904e+003, 1.944433e-001
3.077833e+003, 1.934146e-001
3.079761e+003, 1.922469e-001
3.081690e+003, 1.914605e-001
3.083618e+003, 1.905607e-001
3.085547e+003, 1.894341e-001
3.087475e+003, 1.887668e-001
3.089404e+003, 1.879620e-001
3.091332e+003, 1.868158e-001
3.093260e+003, 1.860920e-001
3.095189e+003, 1.854565e-001
3.097117e+003, 1.841509e-001
3.099046e+003, 1.834929e-001
3.100974e+003, 1.828375e-001
3.102903e+003, 1.812731e-001
3.104831e+003, 1.800274e-001
3.106760e+003, 1.798159e-001
3.108688e+003, 1.793049e-001
3.110617e+003, 1.784598e-001
3.112545e+003, 1.776971e-001
3.114474e+003, 1.767844e-001
3.116402e+003, 1.760168e-001
3.118331e+003, 1.759097e-001
3.120259e+003, 1.754663e-001
3.122188e+003, 1.742712e-001
3.124116e+003, 1.731349e-001
3.126044e+003, 1.727049e-001
3.127973e+003, 1.720082e-001
3.129901e+003, 1.714430e-001
3.131830e+003, 1.706194e-001
3.133758e+003, 1.699674e-001
3.135687e+003, 1.691352e-001
3.137615e+003, 1.688273e-001
3.139544e+003, 1.687201e-001
3.141472e+003, 1.681306e-001
3.143401e+003, 1.677716e-001
3.145329e+003, 1.674155e-001
3.147258e+003, 1.667503e-001
3.149186e+003, 1.658986e-001
3.151115e+003, 1.653782e-001
3.153043e+003, 1.650559e-001
3.154971e+003, 1.644191e-001
3.156900e+003, 1.644145e-001
3.158828e+003, 1.645854e-001
3.160757e+003, 1.640872e-001
3.162685e+003, 1.634961e-001
3.164614e+003, 1.626947e-001
3.166542e+003, 1.621581e-001
3.168471e+003, 1.618191e-001
3.170399e+003, 1.613149e-001
3.172328e+003, 1.610256e-001
3.174256e+003, 1.610941e-001
3.176185e+003, 1.607992e-001
3.178113e+003, 1.605780e-001
3.180042e+003, 1.601755e-001
3.181970e+003, 1.599478e-001
3.183898e+003, 1.599125e-001
3.185827e+003, 1.599160e-001
3.187755e+003, 1.597328e-001
3.189684e+003, 1.590693e-001
3.191612e+003, 1.591332e-001
3.193541e+003, 1.587901e-001
3.195469e+003, 1.580959e-001
3.197398e+003, 1.582252e-001
3.199326e+003, 1.588888e-001
3.201255e+003, 1.586735e-001
3.203183e+003, 1.581269e-001
3.205112e+003, 1.580254e-001
3.207040e+003, 1.580691e-001
3.208969e+003, 1.581767e-001
3.210897e+003, 1.584463e-001
3.212825e+003, 1.584069e-001
3.214754e+003, 1.583226e-001
3.216682e+003, 1.584803e-001
3.218611e+003, 1.589137e-001
3.220539e+003, 1.594571e-001
3.222468e+003, 1.596403e-001
3.224396e+003, 1.594990e-001
3.226325e+003, 1.598812e-001
3.228253e+003, 1.610284e-001
3.230182e+003, 1.615111e-001
3.232110e+003, 1.620243e-001
3.234039e+003, 1.624603e-001
3.235967e+003, 1.624234e-001
3.237896e+003, 1.628709e-001
3.239824e+003, 1.636154e-001
3.241752e+003, 1.645193e-001
3.243681e+003, 1.653021e-001
3.245609e+003, 1.662080e-001
3.247538e+003, 1.668523e-001
3.249466e+003, 1.674893e-001
3.251395e+003, 1.684585e-001
3.253323e+003, 1.693370e-001
3.255252e+003, 1.704583e-001
3.257180e+003, 1.715740e-001
3.259109e+003, 1.727357e-001
3.261037e+003, 1.740546e-001
3.262966e+003, 1.754813e-001
3.264894e+003, 1.767061e-001
3.266823e+003, 1.783148e-001
3.268751e+003, 1.801335e-001
3.270679e+003, 1.819034e-001
3.272608e+003, 1.832464e-001
3.274536e+003, 1.846541e-001
3.276465e+003, 1.865806e-001
3.278393e+003, 1.882856e-001
3.280322e+003, 1.898816e-001
3.282250e+003, 1.919289e-001
3.284179e+003, 1.943409e-001
3.286107e+003, 1.968326e-001
3.288036e+003, 1.985385e-001
3.289964e+003, 2.008107e-001
3.291893e+003, 2.033613e-001
3.293821e+003, 2.055566e-001
3.295750e+003, 2.072737e-001
3.297678e+003, 2.095443e-001
3.299606e+003, 2.129482e-001
3.301535e+003, 2.160176e-001
3.303463e+003, 2.186359e-001
3.305392e+003, 2.213371e-001
3.307320e+003, 2.237608e-001
3.309249e+003, 2.263967e-001
3.311177e+003, 2.293757e-001
3.313106e+003, 2.327161e-001
3.315034e+003, 2.358225e-001
3.316963e+003, 2.383280e-001
3.318891e+003, 2.410187e-001
3.320820e+003, 2.437447e-001
3.322748e+003, 2.466558e-001
3.324677e+003, 2.494820e-001
3.326605e+003, 2.519130e-001
3.328533e+003, 2.544707e-001
3.330462e+003, 2.570238e-001
3.332390e+003, 2.594549e-001
3.334319e+003, 2.617931e-001
3.336247e+003, 2.638731e-001
3.338176e+003, 2.653256e-001
3.340104e+003, 2.663788e-001
3.342033e+003, 2.675425e-001
3.343961e+003, 2.689653e-001
3.345890e+003, 2.702143e-001
3.347818e+003, 2.709474e-001
3.349747e+003, 2.709628e-001
3.351675e+003, 2.705291e-001
3.353604e+003, 2.699476e-001
3.355532e+003, 2.695101e-001
3.357460e+003, 2.685877e-001
3.359389e+003, 2.676060e-001
3.361317e+003, 2.662822e-001
3.363246e+003, 2.648588e-001
3.365174e+003, 2.629001e-001
3.367103e+003, 2.602809e-001
3.369031e+003, 2.580019e-001
3.370960e+003, 2.557596e-001
3.372888e+003, 2.532945e-001
3.374817e+003, 2.508747e-001
3.376745e+003, 2.481791e-001
3.378674e+003, 2.446125e-001
3.380602e+003, 2.413196e-001
3.382531e+003, 2.384775e-001
3.384459e+003, 2.348434e-001
3.386387e+003, 2.310927e-001
3.388316e+003, 2.277210e-001
3.390244e+003, 2.248387e-001
3.392173e+003, 2.217840e-001
3.394101e+003, 2.185647e-001
3.396030e+003, 2.155160e-001
3.397958e+003, 2.123197e-001
3.399887e+003, 2.096027e-001
3.401815e+003, 2.060673e-001
3.403744e+003, 2.021225e-001
3.405672e+003, 1.990387e-001
3.407601e+003, 1.960096e-001
3.409529e+003, 1.927740e-001
3.411458e+003, 1.900109e-001
3.413386e+003, 1.874103e-001
3.415314e+003, 1.842842e-001
3.417243e+003, 1.814876e-001
3.419171e+003, 1.786224e-001
3.421100e+003, 1.757761e-001
3.423028e+003, 1.727707e-001
3.424957e+003, 1.703168e-001
3.426885e+003, 1.679569e-001
3.428814e+003, 1.652797e-001
3.430742e+003, 1.626800e-001
3.432671e+003, 1.601656e-001
3.434599e+003, 1.574029e-001
3.436528e+003, 1.551091e-001
3.438456e+003, 1.527723e-001
3.440385e+003, 1.503397e-001
3.442313e+003, 1.477808e-001
3.444241e+003, 1.448266e-001
3.446170e+003, 1.425222e-001
3.448098e+003, 1.404632e-001
3.450027e+003, 1.382015e-001
3.451955e+003, 1.367740e-001
3.453884e+003, 1.345098e-001
3.455812e+003, 1.321505e-001
3.457741e+003, 1.305890e-001
3.459669e+003, 1.286222e-001
3.461598e+003, 1.267809e-001
3.463526e+003, 1.254937e-001
3.465455e+003, 1.236933e-001
3.467383e+003, 1.215245e-001
3.469312e+003, 1.199277e-001
3.471240e+003, 1.181405e-001
3.473168e+003, 1.161120e-001
3.475097e+003, 1.142658e-001
3.477025e+003, 1.132492e-001
3.478954e+003, 1.121699e-001
3.480882e+003, 1.108314e-001
3.482811e+003, 1.095317e-001
3.484739e+003, 1.078286e-001
3.486668e+003, 1.060545e-001
3.488596e+003, 1.042958e-001
3.490525e+003, 1.028181e-001
3.492453e+003, 1.015212e-001
3.494382e+003, 1.004194e-001
3.496310e+003, 9.926752e-002
3.498239e+003, 9.813120e-002
3.500167e+003, 9.672136e-002
3.502095e+003, 9.511907e-002
3.504024e+003, 9.370198e-002
3.505952e+003, 9.300107e-002
3.507881e+003, 9.189954e-002
3.509809e+003, 9.017825e-002
3.511738e+003, 8.878051e-002
3.513666e+003, 8.789095e-002
3.515595e+003, 8.652931e-002
3.517523e+003, 8.485584e-002
3.519452e+003, 8.396339e-002
3.521380e+003, 8.266342e-002
3.523309e+003, 8.079446e-002
3.525237e+003, 7.961515e-002
3.527166e+003, 7.838431e-002
3.529094e+003, 7.686210e-002
3.531022e+003, 7.558434e-002
3.532951e+003, 7.477249e-002
3.534879e+003, 7.329163e-002
3.536808e+003, 7.177512e-002
3.538736e+003, 7.100563e-002
3.540665e+003, 6.996140e-002
3.542593e+003, 6.864865e-002
3.544522e+003, 6.719615e-002
3.546450e+003, 6.584560e-002
3.548379e+003, 6.527460e-002
3.550307e+003, 6.403495e-002
3.552236e+003, 6.170203e-002
3.554164e+003, 6.033175e-002
3.556093e+003, 5.982739e-002
3.558021e+003, 5.863555e-002
3.559949e+003, 5.687127e-002
3.561878e+003, 5.542123e-002
3.563806e+003, 5.386352e-002
3.565735e+003, 5.177924e-002
3.567663e+003, 5.007059e-002
3.569592e+003, 4.972909e-002
3.571520e+003, 4.940611e-002
3.573449e+003, 4.844578e-002
3.575377e+003, 4.676149e-002
3.577306e+003, 4.512652e-002
3.579234e+003, 4.403630e-002
3.581163e+003, 4.305986e-002
3.583091e+003, 4.238171e-002
3.585020e+003, 4.071566e-002
3.586948e+003, 3.802010e-002
3.588876e+003, 3.750932e-002
3.590805e+003, 3.759742e-002
3.592733e+003, 3.600337e-002
3.594662e+003, 3.475203e-002
3.596590e+003, 3.383584e-002
3.598519e+003, 3.284957e-002
3.600447e+003, 3.214251e-002
3.602376e+003, 3.180712e-002
3.604304e+003, 3.124103e-002
3.606233e+003, 2.972293e-002
3.608161e+003, 2.723390e-002
3.610090e+003, 2.606083e-002
3.612018e+003, 2.629716e-002
3.613947e+003, 2.627741e-002
3.615875e+003, 2.560418e-002
3.617803e+003, 2.390003e-002
3.619732e+003, 2.341451e-002
3.621660e+003, 2.427865e-002
3.623589e+003, 2.448347e-002
3.625517e+003, 2.358031e-002
3.627446e+003, 2.042342e-002
3.629374e+003, 1.957136e-002
3.631303e+003, 2.170913e-002
3.633231e+003, 2.138197e-002
3.635160e+003, 2.105779e-002
3.637088e+003, 2.174198e-002
3.639017e+003, 2.185076e-002
3.640945e+003, 2.132333e-002
3.642874e+003, 2.104967e-002
3.644802e+003, 2.037813e-002
3.646730e+003, 1.841919e-002
3.648659e+003, 1.601175e-002
3.650587e+003, 1.596054e-002
3.652516e+003, 1.780916e-002
3.654444e+003, 1.781899e-002
3.656373e+003, 1.730112e-002
3.658301e+003, 1.903133e-002
3.660230e+003, 1.995732e-002
3.662158e+003, 1.968592e-002
3.664087e+003, 1.956092e-002
3.666015e+003, 1.890407e-002
3.667944e+003, 1.728035e-002
3.669872e+003, 1.515752e-002
3.671801e+003, 1.619647e-002
3.673729e+003, 1.618331e-002
3.675657e+003, 1.355938e-002
3.677586e+003, 1.614763e-002
3.679514e+003, 1.812845e-002
3.681443e+003, 1.858641e-002
3.683371e+003, 1.854239e-002
3.685300e+003, 1.778139e-002
3.687228e+003, 1.424308e-002
3.689157e+003, 1.379817e-002
3.691085e+003, 1.637900e-002
3.693014e+003, 1.793348e-002
3.694942e+003, 1.837033e-002
3.696871e+003, 1.816987e-002
3.698799e+003, 1.774567e-002
3.700728e+003, 1.688477e-002
3.702656e+003, 1.773826e-002
3.704584e+003, 1.850878e-002
3.706513e+003, 1.805715e-002
3.708441e+003, 1.721344e-002
3.710370e+003, 1.593381e-002
3.712298e+003, 1.533059e-002
3.714227e+003, 1.679303e-002
3.716155e+003, 1.766388e-002
3.718084e+003, 1.852987e-002
3.720012e+003, 1.859928e-002
3.721941e+003, 1.752055e-002
3.723869e+003, 1.754157e-002
3.725798e+003, 1.726970e-002
3.727726e+003, 1.741692e-002
3.729655e+003, 1.775942e-002
3.731583e+003, 1.606429e-002
3.733511e+003, 1.519459e-002
3.735440e+003, 1.413819e-002
3.737368e+003, 1.571743e-002
3.739297e+003, 1.726625e-002
3.741225e+003, 1.607287e-002
3.743154e+003, 1.143089e-002
3.745082e+003, 1.101995e-002
3.747011e+003, 1.463898e-002
3.748939e+003, 1.276640e-002
3.750868e+003, 1.212564e-002
3.752796e+003, 1.417170e-002
3.754725e+003, 1.756580e-002
3.756653e+003, 1.775084e-002
3.758582e+003, 1.757741e-002
3.760510e+003, 1.745896e-002
3.762438e+003, 1.850815e-002
3.764367e+003, 1.822412e-002
3.766295e+003, 1.789428e-002
3.768224e+003, 1.723710e-002
3.770152e+003, 1.728265e-002
3.772081e+003, 1.849793e-002
3.774009e+003, 1.949045e-002
3.775938e+003, 1.928937e-002
3.777866e+003, 1.844251e-002
3.779795e+003, 1.784092e-002
3.781723e+003, 1.846894e-002
3.783652e+003, 1.850231e-002
3.785580e+003, 1.874240e-002
3.787509e+003, 1.917392e-002
3.789437e+003, 1.969418e-002
3.791365e+003, 1.982881e-002
3.793294e+003, 2.001890e-002
3.795222e+003, 1.834022e-002
3.797151e+003, 1.789720e-002
3.799079e+003, 1.745055e-002
3.801008e+003, 1.434627e-002
3.802936e+003, 1.611439e-002
3.804865e+003, 1.768637e-002
3.806793e+003, 1.651469e-002
3.808722e+003, 1.837769e-002
3.810650e+003, 1.974521e-002
3.812579e+003, 1.956628e-002
3.814507e+003, 1.623162e-002
3.816436e+003, 1.515936e-002
3.818364e+003, 1.768399e-002
3.820292e+003, 1.579413e-002
3.822221e+003, 1.606962e-002
3.824149e+003, 1.865801e-002
3.826078e+003, 1.897708e-002
3.828006e+003, 1.947783e-002
3.829935e+003, 1.922088e-002
3.831863e+003, 1.834946e-002
3.833792e+003, 1.826982e-002
3.835720e+003, 1.684745e-002
3.837649e+003, 1.471183e-002
3.839577e+003, 1.691878e-002
3.841506e+003, 1.846314e-002
3.843434e+003, 1.890540e-002
3.845363e+003, 1.947864e-002
3.847291e+003, 1.976522e-002
3.849219e+003, 1.872909e-002
3.851148e+003, 1.458504e-002
3.853076e+003, 1.005522e-002
3.855005e+003, 1.272918e-002
3.856933e+003, 1.797856e-002
3.858862e+003, 1.982895e-002
3.860790e+003, 1.923720e-002
3.862719e+003, 1.779177e-002
3.864647e+003, 1.729835e-002
3.866576e+003, 1.843613e-002
3.868504e+003, 1.760578e-002
3.870433e+003, 1.707647e-002
3.872361e+003, 1.849868e-002
3.874290e+003, 1.886501e-002
3.876218e+003, 1.954178e-002
3.878146e+003, 1.923409e-002
3.880075e+003, 1.912042e-002
3.882003e+003, 1.966237e-002
3.883932e+003, 1.855009e-002
3.885860e+003, 1.752304e-002
3.887789e+003, 1.927673e-002
3.889717e+003, 1.840935e-002
3.891646e+003, 1.789845e-002
3.893574e+003, 1.934897e-002
3.895503e+003, 1.937333e-002
3.897431e+003, 1.849402e-002
3.899360e+003, 1.804047e-002
3.901288e+003, 1.764368e-002
3.903217e+003, 1.730564e-002
3.905145e+003, 1.828209e-002
3.907073e+003, 1.996505e-002
3.909002e+003, 2.056819e-002
3.910930e+003, 2.019778e-002
3.912859e+003, 2.015515e-002
3.914787e+003, 1.975683e-002
3.916716e+003, 1.927025e-002
3.918644e+003, 1.962296e-002
3.920573e+003, 2.027591e-002
3.922501e+003, 2.097841e-002
3.924430e+003, 2.099930e-002
3.926358e+003, 2.084963e-002
3.928287e+003, 2.066137e-002
3.930215e+003, 2.030713e-002
3.932144e+003, 1.999954e-002
3.934072e+003, 2.027702e-002
3.936000e+003, 2.018419e-002
3.937929e+003, 1.982607e-002
3.939857e+003, 2.028371e-002
3.941786e+003, 2.072328e-002
3.943714e+003, 2.106787e-002
3.945643e+003, 2.111672e-002
3.947571e+003, 2.060821e-002
3.949500e+003, 2.079527e-002
3.951428e+003, 2.147713e-002
3.953357e+003, 2.152201e-002
3.955285e+003, 2.174518e-002
3.957214e+003, 2.199937e-002
3.959142e+003, 2.157478e-002
3.961071e+003, 2.106682e-002
3.962999e+003, 2.131654e-002
3.964927e+003, 2.178021e-002
3.966856e+003, 2.142323e-002
3.968784e+003, 2.109939e-002
3.970713e+003, 2.096066e-002
3.972641e+003, 2.090961e-002
3.974570e+003, 2.143217e-002
3.976498e+003, 2.224964e-002
3.978427e+003, 2.170028e-002
3.980355e+003, 2.078289e-002
3.982284e+003, 2.081358e-002
3.984212e+003, 2.137377e-002
3.986141e+003, 2.134540e-002
3.988069e+003, 2.171289e-002
3.989998e+003, 2.200245e-002
3.991926e+003, 2.176708e-002
3.993854e+003, 2.181396e-002
3.995783e+003, 2.201053e-002
3.997711e+003, 2.186331e-002
3.999640e+003, 2.172630e-002
4.001568e+003, 0.000000e+000
##END=



