##NAMES=Alunogen
##RRUFFID=R060015
##IDEAL CHEMISTRY=Al_2_(S^6+^O_4_)_3_(H_2_O)_12_&#183;5H_2_O
##LOCALITY=Saxony, Germany
##OWNER=RRUFF
##SOURCE=American Museum of Natural History
##DESCRIPTION=Colorless compact mass of fibers, along with some sprays of acicular single crystals
##STATUS=The identification of this mineral has been confirmed by X-ray diffraction and chemical analysis
##URL=rruff.info/R060015
##MEASURED CHEMISTRY=(Al_1.77_Fe^3+^_0.23_)_Σ=2_(S_1.00_O_4_)_3_·17H_2_O
3.991926e+002, 1.290688e-001
4.011211e+002, 1.363728e-001
4.030495e+002, 1.428064e-001
4.049780e+002, 1.425729e-001
4.069065e+002, 1.360064e-001
4.088349e+002, 1.332737e-001
4.107634e+002, 1.371171e-001
4.126919e+002, 1.403726e-001
4.146203e+002, 1.417625e-001
4.165488e+002, 1.432446e-001
4.184773e+002, 1.452721e-001
4.204057e+002, 1.497480e-001
4.223342e+002, 1.524501e-001
4.242627e+002, 1.539260e-001
4.261911e+002, 1.601072e-001
4.281196e+002, 1.596170e-001
4.300481e+002, 1.573558e-001
4.319765e+002, 1.620532e-001
4.339050e+002, 1.619364e-001
4.358335e+002, 1.629804e-001
4.377619e+002, 1.648705e-001
4.396904e+002, 1.681818e-001
4.416189e+002, 1.700672e-001
4.435473e+002, 1.726884e-001
4.454758e+002, 1.719995e-001
4.474043e+002, 1.704469e-001
4.493327e+002, 1.685281e-001
4.512612e+002, 1.706159e-001
4.531897e+002, 1.746606e-001
4.551181e+002, 1.757787e-001
4.570466e+002, 1.757074e-001
4.589751e+002, 1.765783e-001
4.609035e+002, 1.767998e-001
4.628320e+002, 1.803517e-001
4.647605e+002, 1.853686e-001
4.666889e+002, 1.863776e-001
4.686174e+002, 1.862426e-001
4.705459e+002, 1.857396e-001
4.724743e+002, 1.873655e-001
4.744028e+002, 1.872624e-001
4.763313e+002, 1.848138e-001
4.782597e+002, 1.871578e-001
4.801882e+002, 1.879914e-001
4.821167e+002, 1.867394e-001
4.840451e+002, 1.887450e-001
4.859736e+002, 1.918138e-001
4.879021e+002, 1.913832e-001
4.898305e+002, 1.918471e-001
4.917590e+002, 1.936301e-001
4.936875e+002, 1.958734e-001
4.956159e+002, 1.983235e-001
4.975444e+002, 2.002094e-001
4.994729e+002, 1.986097e-001
5.014013e+002, 1.980228e-001
5.033298e+002, 2.005264e-001
5.052583e+002, 2.037750e-001
5.071867e+002, 2.053690e-001
5.091152e+002, 2.055797e-001
5.110437e+002, 2.069128e-001
5.129721e+002, 2.086409e-001
5.149006e+002, 2.113548e-001
5.168290e+002, 2.151530e-001
5.187575e+002, 2.174561e-001
5.206860e+002, 2.187161e-001
5.226144e+002, 2.200546e-001
5.245429e+002, 2.201111e-001
5.264714e+002, 2.199359e-001
5.283998e+002, 2.211955e-001
5.303283e+002, 2.251661e-001
5.322568e+002, 2.277396e-001
5.341852e+002, 2.277065e-001
5.361137e+002, 2.287038e-001
5.380422e+002, 2.319748e-001
5.399706e+002, 2.349693e-001
5.418991e+002, 2.366802e-001
5.438276e+002, 2.391122e-001
5.457560e+002, 2.421686e-001
5.476845e+002, 2.465718e-001
5.496130e+002, 2.499547e-001
5.515414e+002, 2.529584e-001
5.534699e+002, 2.580739e-001
5.553984e+002, 2.617373e-001
5.573268e+002, 2.640775e-001
5.592553e+002, 2.660106e-001
5.611838e+002, 2.672581e-001
5.631122e+002, 2.688512e-001
5.650407e+002, 2.729861e-001
5.669692e+002, 2.778311e-001
5.688976e+002, 2.766848e-001
5.708261e+002, 2.751831e-001
5.727546e+002, 2.772491e-001
5.746830e+002, 2.767326e-001
5.766115e+002, 2.747857e-001
5.785400e+002, 2.750076e-001
5.804684e+002, 2.748247e-001
5.823969e+002, 2.731141e-001
5.843254e+002, 2.709771e-001
5.862538e+002, 2.697288e-001
5.881823e+002, 2.690191e-001
5.901108e+002, 2.658208e-001
5.920392e+002, 2.643537e-001
5.939677e+002, 2.650945e-001
5.958962e+002, 2.645866e-001
5.978246e+002, 2.615815e-001
5.997531e+002, 2.587848e-001
6.016816e+002, 2.558917e-001
6.036100e+002, 2.531724e-001
6.055385e+002, 2.511980e-001
6.074670e+002, 2.490718e-001
6.093954e+002, 2.463155e-001
6.113239e+002, 2.432532e-001
6.132524e+002, 2.400703e-001
6.151808e+002, 2.378088e-001
6.171093e+002, 2.355091e-001
6.190378e+002, 2.322963e-001
6.209662e+002, 2.282382e-001
6.228947e+002, 2.242142e-001
6.248232e+002, 2.212599e-001
6.267516e+002, 2.194934e-001
6.286801e+002, 2.167347e-001
6.306086e+002, 2.140187e-001
6.325370e+002, 2.115497e-001
6.344655e+002, 2.094912e-001
6.363940e+002, 2.072584e-001
6.383224e+002, 2.045592e-001
6.402509e+002, 2.013306e-001
6.421794e+002, 1.988522e-001
6.441078e+002, 1.972981e-001
6.460363e+002, 1.956584e-001
6.479648e+002, 1.939322e-001
6.498932e+002, 1.924540e-001
6.518217e+002, 1.911312e-001
6.537502e+002, 1.899827e-001
6.556786e+002, 1.891048e-001
6.576071e+002, 1.902898e-001
6.595356e+002, 1.913837e-001
6.614641e+002, 1.903703e-001
6.633925e+002, 1.894619e-001
6.653210e+002, 1.897926e-001
6.672495e+002, 1.901524e-001
6.691779e+002, 1.898011e-001
6.711064e+002, 1.889774e-001
6.730349e+002, 1.889342e-001
6.749633e+002, 1.893222e-001
6.768918e+002, 1.889517e-001
6.788203e+002, 1.882960e-001
6.807487e+002, 1.880480e-001
6.826772e+002, 1.883612e-001
6.846057e+002, 1.883671e-001
6.865341e+002, 1.877249e-001
6.884626e+002, 1.874230e-001
6.903911e+002, 1.870859e-001
6.923195e+002, 1.866323e-001
6.942480e+002, 1.863713e-001
6.961765e+002, 1.864249e-001
6.981049e+002, 1.859298e-001
7.000334e+002, 1.857944e-001
7.019619e+002, 1.851405e-001
7.038903e+002, 1.846630e-001
7.058188e+002, 1.843149e-001
7.077473e+002, 1.838832e-001
7.096757e+002, 1.831595e-001
7.116042e+002, 1.822640e-001
7.135327e+002, 1.810044e-001
7.154611e+002, 1.796091e-001
7.173896e+002, 1.780497e-001
7.193181e+002, 1.772488e-001
7.212465e+002, 1.760470e-001
7.231750e+002, 1.740081e-001
7.251035e+002, 1.724751e-001
7.270319e+002, 1.713059e-001
7.289604e+002, 1.695706e-001
7.308889e+002, 1.680036e-001
7.328173e+002, 1.665815e-001
7.347458e+002, 1.643126e-001
7.366743e+002, 1.624176e-001
7.386027e+002, 1.608382e-001
7.405312e+002, 1.590051e-001
7.424597e+002, 1.575192e-001
7.443881e+002, 1.562739e-001
7.463166e+002, 1.545191e-001
7.482451e+002, 1.524234e-001
7.501735e+002, 1.509686e-001
7.521020e+002, 1.493858e-001
7.540305e+002, 1.480904e-001
7.559589e+002, 1.468855e-001
7.578874e+002, 1.459470e-001
7.598159e+002, 1.442341e-001
7.617443e+002, 1.429339e-001
7.636728e+002, 1.418976e-001
7.656013e+002, 1.408522e-001
7.675297e+002, 1.401717e-001
7.694582e+002, 1.396381e-001
7.713867e+002, 1.384698e-001
7.733151e+002, 1.370073e-001
7.752436e+002, 1.361671e-001
7.771721e+002, 1.360375e-001
7.791005e+002, 1.360323e-001
7.810290e+002, 1.350644e-001
7.829575e+002, 1.339240e-001
7.848859e+002, 1.338816e-001
7.868144e+002, 1.342855e-001
7.887429e+002, 1.341742e-001
7.906713e+002, 1.341573e-001
7.925998e+002, 1.340925e-001
7.945283e+002, 1.335747e-001
7.964567e+002, 1.336277e-001
7.983852e+002, 1.340947e-001
8.003137e+002, 1.342251e-001
8.022421e+002, 1.346451e-001
8.041706e+002, 1.353013e-001
8.060991e+002, 1.356437e-001
8.080275e+002, 1.358954e-001
8.099560e+002, 1.362963e-001
8.118845e+002, 1.371683e-001
8.138129e+002, 1.379801e-001
8.157414e+002, 1.385881e-001
8.176699e+002, 1.394558e-001
8.195983e+002, 1.401712e-001
8.215268e+002, 1.402661e-001
8.234553e+002, 1.408056e-001
8.253837e+002, 1.416981e-001
8.273122e+002, 1.429149e-001
8.292407e+002, 1.434506e-001
8.311691e+002, 1.437135e-001
8.330976e+002, 1.445628e-001
8.350261e+002, 1.450163e-001
8.369545e+002, 1.453797e-001
8.388830e+002, 1.465686e-001
8.408115e+002, 1.475310e-001
8.427399e+002, 1.481200e-001
8.446684e+002, 1.484130e-001
8.465969e+002, 1.489052e-001
8.485253e+002, 1.489521e-001
8.504538e+002, 1.493731e-001
8.523823e+002, 1.500726e-001
8.543107e+002, 1.509937e-001
8.562392e+002, 1.516236e-001
8.581677e+002, 1.527964e-001
8.600961e+002, 1.533373e-001
8.620246e+002, 1.536703e-001
8.639531e+002, 1.548690e-001
8.658815e+002, 1.561033e-001
8.678100e+002, 1.571390e-001
8.697385e+002, 1.582628e-001
8.716669e+002, 1.586957e-001
8.735954e+002, 1.597908e-001
8.755239e+002, 1.612429e-001
8.774523e+002, 1.622187e-001
8.793808e+002, 1.627923e-001
8.813093e+002, 1.627658e-001
8.832377e+002, 1.633068e-001
8.851662e+002, 1.645323e-001
8.870947e+002, 1.654280e-001
8.890231e+002, 1.659413e-001
8.909516e+002, 1.661354e-001
8.928801e+002, 1.666847e-001
8.948085e+002, 1.670592e-001
8.967370e+002, 1.677011e-001
8.986655e+002, 1.687725e-001
9.005939e+002, 1.694389e-001
9.025224e+002, 1.701224e-001
9.044509e+002, 1.710889e-001
9.063793e+002, 1.726273e-001
9.083078e+002, 1.747251e-001
9.102363e+002, 1.764337e-001
9.121647e+002, 1.782018e-001
9.140932e+002, 1.803977e-001
9.160217e+002, 1.824191e-001
9.179501e+002, 1.845434e-001
9.198786e+002, 1.867288e-001
9.218071e+002, 1.893935e-001
9.237355e+002, 1.924597e-001
9.256640e+002, 1.952222e-001
9.275925e+002, 1.978237e-001
9.295209e+002, 2.002483e-001
9.314494e+002, 2.025062e-001
9.333779e+002, 2.048235e-001
9.353063e+002, 2.067702e-001
9.372348e+002, 2.088865e-001
9.391633e+002, 2.116752e-001
9.410917e+002, 2.139179e-001
9.430202e+002, 2.159711e-001
9.449487e+002, 2.172046e-001
9.468771e+002, 2.178362e-001
9.488056e+002, 2.183152e-001
9.507341e+002, 2.184953e-001
9.526625e+002, 2.180583e-001
9.545910e+002, 2.178390e-001
9.565195e+002, 2.171785e-001
9.584479e+002, 2.152627e-001
9.603764e+002, 2.136995e-001
9.623049e+002, 2.123589e-001
9.642333e+002, 2.111442e-001
9.661618e+002, 2.104004e-001
9.680903e+002, 2.097095e-001
9.700187e+002, 2.094431e-001
9.719472e+002, 2.100051e-001
9.738757e+002, 2.117966e-001
9.758041e+002, 2.150620e-001
9.777326e+002, 2.183596e-001
9.796611e+002, 2.210460e-001
9.815895e+002, 2.255152e-001
9.835180e+002, 2.309941e-001
9.854465e+002, 2.355328e-001
9.873749e+002, 2.385263e-001
9.893034e+002, 2.402408e-001
9.912319e+002, 2.401056e-001
9.931603e+002, 2.385507e-001
9.950888e+002, 2.362721e-001
9.970173e+002, 2.340358e-001
9.989457e+002, 2.323723e-001
1.000874e+003, 2.315726e-001
1.002803e+003, 2.319254e-001
1.004731e+003, 2.349318e-001
1.006660e+003, 2.380277e-001
1.008588e+003, 2.421349e-001
1.010517e+003, 2.475848e-001
1.012445e+003, 2.530857e-001
1.014373e+003, 2.594393e-001
1.016302e+003, 2.667032e-001
1.018230e+003, 2.745347e-001
1.020159e+003, 2.830276e-001
1.022087e+003, 2.925348e-001
1.024016e+003, 3.030399e-001
1.025944e+003, 3.133196e-001
1.027873e+003, 3.244921e-001
1.029801e+003, 3.368488e-001
1.031730e+003, 3.499674e-001
1.033658e+003, 3.634756e-001
1.035587e+003, 3.775996e-001
1.037515e+003, 3.920933e-001
1.039443e+003, 4.068267e-001
1.041372e+003, 4.209177e-001
1.043300e+003, 4.347776e-001
1.045229e+003, 4.474338e-001
1.047157e+003, 4.574948e-001
1.049086e+003, 4.663105e-001
1.051014e+003, 4.742838e-001
1.052943e+003, 4.809693e-001
1.054871e+003, 4.858829e-001
1.056800e+003, 4.891041e-001
1.058728e+003, 4.915992e-001
1.060657e+003, 4.945743e-001
1.062585e+003, 4.960309e-001
1.064514e+003, 4.962927e-001
1.066442e+003, 4.946768e-001
1.068370e+003, 4.915523e-001
1.070299e+003, 4.884181e-001
1.072227e+003, 4.838378e-001
1.074156e+003, 4.785103e-001
1.076084e+003, 4.716032e-001
1.078013e+003, 4.635964e-001
1.079941e+003, 4.552048e-001
1.081870e+003, 4.458250e-001
1.083798e+003, 4.353105e-001
1.085727e+003, 4.250280e-001
1.087655e+003, 4.146327e-001
1.089584e+003, 4.050101e-001
1.091512e+003, 3.960984e-001
1.093441e+003, 3.894966e-001
1.095369e+003, 3.847945e-001
1.097297e+003, 3.806225e-001
1.099226e+003, 3.768109e-001
1.101154e+003, 3.725135e-001
1.103083e+003, 3.675336e-001
1.105011e+003, 3.612138e-001
1.106940e+003, 3.528984e-001
1.108868e+003, 3.430132e-001
1.110797e+003, 3.307547e-001
1.112725e+003, 3.168748e-001
1.114654e+003, 3.028588e-001
1.116582e+003, 2.892114e-001
1.118511e+003, 2.759344e-001
1.120439e+003, 2.625110e-001
1.122368e+003, 2.502601e-001
1.124296e+003, 2.400637e-001
1.126224e+003, 2.298969e-001
1.128153e+003, 2.206217e-001
1.130081e+003, 2.119654e-001
1.132010e+003, 2.034040e-001
1.133938e+003, 1.955269e-001
1.135867e+003, 1.878899e-001
1.137795e+003, 1.802527e-001
1.139724e+003, 1.740176e-001
1.141652e+003, 1.681657e-001
1.143581e+003, 1.620129e-001
1.145509e+003, 1.559288e-001
1.147438e+003, 1.503495e-001
1.149366e+003, 1.446663e-001
1.151295e+003, 1.391535e-001
1.153223e+003, 1.337605e-001
1.155151e+003, 1.288167e-001
1.157080e+003, 1.245156e-001
1.159008e+003, 1.200887e-001
1.160937e+003, 1.154865e-001
1.162865e+003, 1.113157e-001
1.164794e+003, 1.070298e-001
1.166722e+003, 1.028193e-001
1.168651e+003, 9.863968e-002
1.170579e+003, 9.495445e-002
1.172508e+003, 9.133357e-002
1.174436e+003, 8.752662e-002
1.176365e+003, 8.406506e-002
1.178293e+003, 8.089332e-002
1.180222e+003, 7.806408e-002
1.182150e+003, 7.566760e-002
1.184078e+003, 7.364072e-002
1.186007e+003, 7.186511e-002
1.187935e+003, 7.001931e-002
1.189864e+003, 6.877989e-002
1.191792e+003, 6.740945e-002
1.193721e+003, 6.577411e-002
1.195649e+003, 6.425560e-002
1.197578e+003, 6.280744e-002
1.199506e+003, 6.141243e-002
1.201435e+003, 6.004183e-002
1.203363e+003, 5.923404e-002
1.205292e+003, 5.803137e-002
1.207220e+003, 5.652707e-002
1.209149e+003, 5.543588e-002
1.211077e+003, 5.434637e-002
1.213005e+003, 5.332134e-002
1.214934e+003, 5.222613e-002
1.216862e+003, 5.099064e-002
1.218791e+003, 4.964025e-002
1.220719e+003, 4.852344e-002
1.222648e+003, 4.706124e-002
1.224576e+003, 4.575254e-002
1.226505e+003, 4.435199e-002
1.228433e+003, 4.282900e-002
1.230362e+003, 4.142667e-002
1.232290e+003, 3.987204e-002
1.234219e+003, 3.870769e-002
1.236147e+003, 3.732096e-002
1.238076e+003, 3.573104e-002
1.240004e+003, 3.445937e-002
1.241932e+003, 3.285624e-002
1.243861e+003, 3.148244e-002
1.245789e+003, 3.052713e-002
1.247718e+003, 2.921232e-002
1.249646e+003, 2.789031e-002
1.251575e+003, 2.696866e-002
1.253503e+003, 2.597225e-002
1.255432e+003, 2.486345e-002
1.257360e+003, 2.386387e-002
1.259289e+003, 2.316413e-002
1.261217e+003, 2.236135e-002
1.263146e+003, 2.165833e-002
1.265074e+003, 2.144412e-002
1.267003e+003, 2.112143e-002
1.268931e+003, 2.093993e-002
1.270859e+003, 2.091599e-002
1.272788e+003, 2.063971e-002
1.274716e+003, 2.057226e-002
1.276645e+003, 2.058556e-002
1.278573e+003, 2.038842e-002
1.280502e+003, 2.010187e-002
1.282430e+003, 2.008135e-002
1.284359e+003, 1.983390e-002
1.286287e+003, 1.975275e-002
1.288216e+003, 1.977409e-002
1.290144e+003, 1.986955e-002
1.292073e+003, 2.008372e-002
1.294001e+003, 2.010846e-002
1.295930e+003, 2.037229e-002
1.297858e+003, 2.099880e-002
1.299786e+003, 2.106867e-002
1.301715e+003, 2.073731e-002
1.303643e+003, 2.066987e-002
1.305572e+003, 2.107211e-002
1.307500e+003, 2.119897e-002
1.309429e+003, 2.126059e-002
1.311357e+003, 2.139277e-002
1.313286e+003, 2.132308e-002
1.315214e+003, 2.145058e-002
1.317143e+003, 2.171186e-002
1.319071e+003, 2.174959e-002
1.321000e+003, 2.205364e-002
1.322928e+003, 2.217067e-002
1.324857e+003, 2.238323e-002
1.326785e+003, 2.260040e-002
1.328714e+003, 2.264602e-002
1.330642e+003, 2.266059e-002
1.332570e+003, 2.303674e-002
1.334499e+003, 2.395024e-002
1.336427e+003, 2.438820e-002
1.338356e+003, 2.430209e-002
1.340284e+003, 2.486143e-002
1.342213e+003, 2.489293e-002
1.344141e+003, 2.432152e-002
1.346070e+003, 2.419750e-002
1.347998e+003, 2.516162e-002
1.349927e+003, 2.562506e-002
1.351855e+003, 2.573266e-002
1.353784e+003, 2.565320e-002
1.355712e+003, 2.593539e-002
1.357641e+003, 2.630488e-002
1.359569e+003, 2.663765e-002
1.361497e+003, 2.687694e-002
1.363426e+003, 2.672164e-002
1.365354e+003, 2.680676e-002
1.367283e+003, 2.720970e-002
1.369211e+003, 2.760207e-002
1.371140e+003, 2.804279e-002
1.373068e+003, 2.815477e-002
1.374997e+003, 2.862371e-002
1.376925e+003, 2.933546e-002
1.378854e+003, 2.946211e-002
1.380782e+003, 2.945295e-002
1.382711e+003, 2.986656e-002
1.384639e+003, 3.033621e-002
1.386568e+003, 3.061823e-002
1.388496e+003, 3.085766e-002
1.390424e+003, 3.113583e-002
1.392353e+003, 3.120005e-002
1.394281e+003, 3.154581e-002
1.396210e+003, 3.188447e-002
1.398138e+003, 3.209444e-002
1.400067e+003, 3.257087e-002
1.401995e+003, 3.299450e-002
1.403924e+003, 3.359467e-002
1.405852e+003, 3.400879e-002
1.407781e+003, 3.416015e-002
1.409709e+003, 3.462293e-002
1.411638e+003, 3.485043e-002
1.413566e+003, 3.532614e-002
1.415495e+003, 3.604731e-002
1.417423e+003, 3.641712e-002
1.419351e+003, 3.694450e-002
1.421280e+003, 3.742135e-002
1.423208e+003, 3.756793e-002
1.425137e+003, 3.777050e-002
1.427065e+003, 3.792063e-002
1.428994e+003, 3.855610e-002
1.430922e+003, 3.903686e-002
1.432851e+003, 3.914184e-002
1.434779e+003, 3.937929e-002
1.436708e+003, 3.977486e-002
1.438636e+003, 3.979599e-002
1.440565e+003, 3.979398e-002
1.442493e+003, 4.038220e-002
1.444422e+003, 4.109932e-002
1.446350e+003, 4.139417e-002
1.448278e+003, 4.123591e-002
1.450207e+003, 4.114830e-002
1.452135e+003, 4.158698e-002
1.454064e+003, 4.193726e-002
1.455992e+003, 4.218759e-002
1.457921e+003, 4.240759e-002
1.459849e+003, 4.276426e-002
1.461778e+003, 4.300197e-002
1.463706e+003, 4.357031e-002
1.465635e+003, 4.380280e-002
1.467563e+003, 4.407378e-002
1.469492e+003, 4.468725e-002
1.471420e+003, 4.541535e-002
1.473349e+003, 4.582923e-002
1.475277e+003, 4.589258e-002
1.477205e+003, 4.584279e-002
1.479134e+003, 4.633285e-002
1.481062e+003, 4.662263e-002
1.482991e+003, 4.668286e-002
1.484919e+003, 4.710021e-002
1.486848e+003, 4.799489e-002
1.488776e+003, 4.863971e-002
1.490705e+003, 4.926456e-002
1.492633e+003, 4.943722e-002
1.494562e+003, 4.968866e-002
1.496490e+003, 5.006868e-002
1.498419e+003, 5.068893e-002
1.500347e+003, 5.152433e-002
1.502276e+003, 5.220893e-002
1.504204e+003, 5.266038e-002
1.506132e+003, 5.300405e-002
1.508061e+003, 5.346819e-002
1.509989e+003, 5.431715e-002
1.511918e+003, 5.486065e-002
1.513846e+003, 5.531310e-002
1.515775e+003, 5.603456e-002
1.517703e+003, 5.651966e-002
1.519632e+003, 5.652257e-002
1.521560e+003, 5.686024e-002
1.523489e+003, 5.742257e-002
1.525417e+003, 5.822492e-002
1.527346e+003, 5.890629e-002
1.529274e+003, 5.915491e-002
1.531203e+003, 5.972756e-002
1.533131e+003, 6.041297e-002
1.535059e+003, 6.116068e-002
1.536988e+003, 6.189825e-002
1.538916e+003, 6.240493e-002
1.540845e+003, 6.293696e-002
1.542773e+003, 6.335642e-002
1.544702e+003, 6.396601e-002
1.546630e+003, 6.493478e-002
1.548559e+003, 6.609225e-002
1.550487e+003, 6.677688e-002
1.552416e+003, 6.724213e-002
1.554344e+003, 6.801607e-002
1.556273e+003, 6.869901e-002
1.558201e+003, 6.906876e-002
1.560130e+003, 6.989509e-002
1.562058e+003, 7.069293e-002
1.563986e+003, 7.128725e-002
1.565915e+003, 7.206155e-002
1.567843e+003, 7.314639e-002
1.569772e+003, 7.380911e-002
1.571700e+003, 7.484228e-002
1.573629e+003, 7.564309e-002
1.575557e+003, 7.654217e-002
1.577486e+003, 7.789344e-002
1.579414e+003, 7.921381e-002
1.581343e+003, 8.056680e-002
1.583271e+003, 8.126323e-002
1.585200e+003, 8.182239e-002
1.587128e+003, 8.331079e-002
1.589057e+003, 8.494095e-002
1.590985e+003, 8.608585e-002
1.592913e+003, 8.721837e-002
1.594842e+003, 8.838278e-002
1.596770e+003, 8.966970e-002
1.598699e+003, 9.112966e-002
1.600627e+003, 9.247839e-002
1.602556e+003, 9.406614e-002
1.604484e+003, 9.552477e-002
1.606413e+003, 9.662639e-002
1.608341e+003, 9.733536e-002
1.610270e+003, 9.862851e-002
1.612198e+003, 1.003817e-001
1.614127e+003, 1.022611e-001
1.616055e+003, 1.034441e-001
1.617984e+003, 1.041936e-001
1.619912e+003, 1.053085e-001
1.621840e+003, 1.067345e-001
1.623769e+003, 1.078989e-001
1.625697e+003, 1.088019e-001
1.627626e+003, 1.093957e-001
1.629554e+003, 1.098350e-001
1.631483e+003, 1.104887e-001
1.633411e+003, 1.112854e-001
1.635340e+003, 1.110744e-001
1.637268e+003, 1.108242e-001
1.639197e+003, 1.108472e-001
1.641125e+003, 1.107784e-001
1.643054e+003, 1.112202e-001
1.644982e+003, 1.117986e-001
1.646911e+003, 1.113406e-001
1.648839e+003, 1.107349e-001
1.650767e+003, 1.103340e-001
1.652696e+003, 1.096696e-001
1.654624e+003, 1.086555e-001
1.656553e+003, 1.073780e-001
1.658481e+003, 1.063042e-001
1.660410e+003, 1.055218e-001
1.662338e+003, 1.047314e-001
1.664267e+003, 1.030986e-001
1.666195e+003, 1.013943e-001
1.668124e+003, 1.000827e-001
1.670052e+003, 9.855580e-002
1.671981e+003, 9.651361e-002
1.673909e+003, 9.445938e-002
1.675838e+003, 9.269314e-002
1.677766e+003, 9.051860e-002
1.679694e+003, 8.821779e-002
1.681623e+003, 8.575230e-002
1.683551e+003, 8.341733e-002
1.685480e+003, 8.114077e-002
1.687408e+003, 7.890401e-002
1.689337e+003, 7.644577e-002
1.691265e+003, 7.394963e-002
1.693194e+003, 7.242806e-002
1.695122e+003, 7.050853e-002
1.697051e+003, 6.701957e-002
1.698979e+003, 6.460921e-002
1.700908e+003, 6.378865e-002
1.702836e+003, 6.203698e-002
1.704765e+003, 6.007054e-002
1.706693e+003, 5.836233e-002
1.708621e+003, 5.629069e-002
1.710550e+003, 5.496619e-002
1.712478e+003, 5.364580e-002
1.714407e+003, 5.215261e-002
1.716335e+003, 5.055532e-002
1.718264e+003, 4.902207e-002
1.720192e+003, 4.737420e-002
1.722121e+003, 4.637713e-002
1.724049e+003, 4.534130e-002
1.725978e+003, 4.463959e-002
1.727906e+003, 4.333282e-002
1.729835e+003, 4.183754e-002
1.731763e+003, 4.112963e-002
1.733692e+003, 4.043461e-002
1.735620e+003, 3.988145e-002
1.737548e+003, 3.899477e-002
1.739477e+003, 3.789402e-002
1.741405e+003, 3.776927e-002
1.743334e+003, 3.729630e-002
1.745262e+003, 3.662653e-002
1.747191e+003, 3.579095e-002
1.749119e+003, 3.542607e-002
1.751048e+003, 3.498668e-002
1.752976e+003, 3.498422e-002
1.754905e+003, 3.449517e-002
1.756833e+003, 3.416389e-002
1.758762e+003, 3.425186e-002
1.760690e+003, 3.377584e-002
1.762619e+003, 3.346462e-002
1.764547e+003, 3.355572e-002
1.766475e+003, 3.318775e-002
1.768404e+003, 3.259128e-002
1.770332e+003, 3.197671e-002
1.772261e+003, 3.194072e-002
1.774189e+003, 3.202316e-002
1.776118e+003, 3.185401e-002
1.778046e+003, 3.156369e-002
1.779975e+003, 3.168505e-002
1.781903e+003, 3.115834e-002
1.783832e+003, 3.088870e-002
1.785760e+003, 3.053143e-002
1.787689e+003, 3.044987e-002
1.789617e+003, 3.040194e-002
1.791546e+003, 3.024990e-002
1.793474e+003, 3.006299e-002
1.795402e+003, 2.946774e-002
1.797331e+003, 2.937553e-002
1.799259e+003, 2.986824e-002
1.801188e+003, 2.999748e-002
1.803116e+003, 2.978020e-002
1.805045e+003, 2.913944e-002
1.806973e+003, 2.888130e-002
1.808902e+003, 2.903539e-002
1.810830e+003, 2.903316e-002
1.812759e+003, 2.832652e-002
1.814687e+003, 2.801802e-002
1.816616e+003, 2.784425e-002
1.818544e+003, 2.837570e-002
1.820473e+003, 2.856856e-002
1.822401e+003, 2.790515e-002
1.824329e+003, 2.753429e-002
1.826258e+003, 2.834378e-002
1.828186e+003, 2.900929e-002
1.830115e+003, 2.937205e-002
1.832043e+003, 2.895188e-002
1.833972e+003, 2.902735e-002
1.835900e+003, 2.851480e-002
1.837829e+003, 2.841463e-002
1.839757e+003, 2.905412e-002
1.841686e+003, 2.927628e-002
1.843614e+003, 2.848028e-002
1.845543e+003, 2.767188e-002
1.847471e+003, 2.721867e-002
1.849400e+003, 2.739378e-002
1.851328e+003, 2.714776e-002
1.853256e+003, 2.778067e-002
1.855185e+003, 2.740519e-002
1.857113e+003, 2.669751e-002
1.859042e+003, 2.651514e-002
1.860970e+003, 2.728240e-002
1.862899e+003, 2.745689e-002
1.864827e+003, 2.750615e-002
1.866756e+003, 2.718106e-002
1.868684e+003, 2.643611e-002
1.870613e+003, 2.641620e-002
1.872541e+003, 2.772295e-002
1.874470e+003, 2.806980e-002
1.876398e+003, 2.839276e-002
1.878327e+003, 2.788383e-002
1.880255e+003, 2.716762e-002
1.882183e+003, 2.761822e-002
1.884112e+003, 2.731933e-002
1.886040e+003, 2.739071e-002
1.887969e+003, 2.756122e-002
1.889897e+003, 2.682795e-002
1.891826e+003, 2.589993e-002
1.893754e+003, 2.489158e-002
1.895683e+003, 2.564948e-002
1.897611e+003, 2.692258e-002
1.899540e+003, 2.744106e-002
1.901468e+003, 2.612961e-002
1.903397e+003, 2.567409e-002
1.905325e+003, 2.549825e-002
1.907254e+003, 2.392353e-002
1.909182e+003, 2.336451e-002
1.911110e+003, 2.425053e-002
1.913039e+003, 2.544938e-002
1.914967e+003, 2.708098e-002
1.916896e+003, 2.661942e-002
1.918824e+003, 2.599533e-002
1.920753e+003, 2.537497e-002
1.922681e+003, 2.507096e-002
1.924610e+003, 2.433719e-002
1.926538e+003, 2.434547e-002
1.928467e+003, 2.384787e-002
1.930395e+003, 2.387751e-002
1.932324e+003, 2.374486e-002
1.934252e+003, 2.295473e-002
1.936181e+003, 2.206919e-002
1.938109e+003, 2.306644e-002
1.940037e+003, 2.304929e-002
1.941966e+003, 2.209213e-002
1.943894e+003, 2.230094e-002
1.945823e+003, 2.443002e-002
1.947751e+003, 2.293886e-002
1.949680e+003, 2.142933e-002
1.951608e+003, 2.198552e-002
1.953537e+003, 2.339569e-002
1.955465e+003, 2.337716e-002
1.957394e+003, 2.074105e-002
1.959322e+003, 2.310608e-002
1.961251e+003, 2.497657e-002
1.963179e+003, 2.302873e-002
1.965108e+003, 2.214507e-002
1.967036e+003, 2.173722e-002
1.968964e+003, 1.929517e-002
1.970893e+003, 1.874864e-002
1.972821e+003, 1.939488e-002
1.974750e+003, 1.813323e-002
1.976678e+003, 1.782181e-002
1.978607e+003, 2.102153e-002
1.980535e+003, 2.393816e-002
1.982464e+003, 2.524252e-002
1.984392e+003, 2.413055e-002
1.986321e+003, 2.398745e-002
1.988249e+003, 2.237016e-002
1.990178e+003, 1.898912e-002
1.992106e+003, 1.750937e-002
1.994035e+003, 1.801290e-002
1.995963e+003, 2.093752e-002
1.997891e+003, 2.048262e-002
1.999820e+003, 2.092829e-002
2.001748e+003, 2.302895e-002
2.003677e+003, 1.972905e-002
2.005605e+003, 1.618725e-002
2.007534e+003, 1.864429e-002
2.009462e+003, 1.926549e-002
2.011391e+003, 1.928452e-002
2.013319e+003, 1.881900e-002
2.015248e+003, 1.887988e-002
2.017176e+003, 2.017051e-002
2.019105e+003, 2.202464e-002
2.021033e+003, 2.156458e-002
2.022962e+003, 2.325737e-002
2.024890e+003, 2.421264e-002
2.026818e+003, 2.306832e-002
2.028747e+003, 2.403145e-002
2.030675e+003, 2.451416e-002
2.032604e+003, 1.926451e-002
2.034532e+003, 1.875221e-002
2.036461e+003, 2.058923e-002
2.038389e+003, 2.225661e-002
2.040318e+003, 2.485553e-002
2.042246e+003, 2.445147e-002
2.044175e+003, 2.369441e-002
2.046103e+003, 2.483432e-002
2.048031e+003, 2.873317e-002
2.049960e+003, 2.940616e-002
2.051888e+003, 2.679044e-002
2.053817e+003, 2.972345e-002
2.055745e+003, 3.192586e-002
2.057674e+003, 3.143766e-002
2.059602e+003, 3.042560e-002
2.061531e+003, 2.971469e-002
2.063459e+003, 2.819978e-002
2.065388e+003, 2.753621e-002
2.067316e+003, 2.817233e-002
2.069245e+003, 2.801462e-002
2.071173e+003, 2.943996e-002
2.073102e+003, 3.061841e-002
2.075030e+003, 2.976613e-002
2.076958e+003, 3.079442e-002
2.078887e+003, 3.013392e-002
2.080815e+003, 2.841478e-002
2.082744e+003, 2.902846e-002
2.084672e+003, 3.136698e-002
2.086601e+003, 3.100693e-002
2.088529e+003, 3.069206e-002
2.090458e+003, 2.938950e-002
2.092386e+003, 2.912097e-002
2.094315e+003, 2.945490e-002
2.096243e+003, 3.119449e-002
2.098172e+003, 3.214014e-002
2.100100e+003, 3.179868e-002
2.102029e+003, 3.200041e-002
2.103957e+003, 3.349551e-002
2.105885e+003, 3.329252e-002
2.107814e+003, 3.368885e-002
2.109742e+003, 3.326187e-002
2.111671e+003, 3.163350e-002
2.113599e+003, 3.138436e-002
2.115528e+003, 3.253004e-002
2.117456e+003, 3.305389e-002
2.119385e+003, 3.247885e-002
2.121313e+003, 3.175684e-002
2.123242e+003, 3.125429e-002
2.125170e+003, 2.956402e-002
2.127099e+003, 3.004091e-002
2.129027e+003, 3.144177e-002
2.130956e+003, 3.204591e-002
2.132884e+003, 2.811768e-002
2.134813e+003, 2.605593e-002
2.136741e+003, 2.533478e-002
2.138669e+003, 2.712676e-002
2.140598e+003, 2.892042e-002
2.142526e+003, 2.965521e-002
2.144455e+003, 2.959711e-002
2.146383e+003, 2.953724e-002
2.148312e+003, 2.766553e-002
2.150240e+003, 2.764766e-002
2.152169e+003, 2.932233e-002
2.154097e+003, 2.540921e-002
2.156026e+003, 2.167596e-002
2.157954e+003, 2.415451e-002
2.159883e+003, 2.928559e-002
2.161811e+003, 3.424508e-002
2.163740e+003, 3.199149e-002
2.165668e+003, 2.971323e-002
2.167596e+003, 3.379453e-002
2.169525e+003, 3.837517e-002
2.171453e+003, 3.793990e-002
2.173382e+003, 3.652899e-002
2.175310e+003, 3.650087e-002
2.177239e+003, 3.519020e-002
2.179167e+003, 3.552786e-002
2.181096e+003, 3.878317e-002
2.183024e+003, 3.679384e-002
2.184953e+003, 3.347900e-002
2.186881e+003, 3.237795e-002
2.188810e+003, 3.632094e-002
2.190738e+003, 3.953876e-002
2.192667e+003, 3.711785e-002
2.194595e+003, 3.258757e-002
2.196523e+003, 3.410438e-002
2.198452e+003, 3.746621e-002
2.200380e+003, 3.972114e-002
2.202309e+003, 4.045185e-002
2.204237e+003, 4.212189e-002
2.206166e+003, 4.188173e-002
2.208094e+003, 4.270033e-002
2.210023e+003, 4.162889e-002
2.211951e+003, 4.341236e-002
2.213880e+003, 4.523675e-002
2.215808e+003, 4.447307e-002
2.217737e+003, 4.270349e-002
2.219665e+003, 4.600304e-002
2.221594e+003, 5.017407e-002
2.223522e+003, 4.992866e-002
2.225450e+003, 4.786487e-002
2.227379e+003, 4.945298e-002
2.229307e+003, 4.980580e-002
2.231236e+003, 4.899146e-002
2.233164e+003, 4.996379e-002
2.235093e+003, 5.061485e-002
2.237021e+003, 4.976973e-002
2.238950e+003, 5.051651e-002
2.240878e+003, 5.287846e-002
2.242807e+003, 5.405606e-002
2.244735e+003, 5.309600e-002
2.246664e+003, 5.345483e-002
2.248592e+003, 5.477422e-002
2.250521e+003, 5.728902e-002
2.252449e+003, 5.977162e-002
2.254377e+003, 6.028472e-002
2.256306e+003, 5.986730e-002
2.258234e+003, 6.124296e-002
2.260163e+003, 6.140224e-002
2.262091e+003, 6.230956e-002
2.264020e+003, 6.265606e-002
2.265948e+003, 6.177788e-002
2.267877e+003, 6.075591e-002
2.269805e+003, 6.088958e-002
2.271734e+003, 6.262016e-002
2.273662e+003, 6.521832e-002
2.275591e+003, 6.676038e-002
2.277519e+003, 6.726572e-002
2.279448e+003, 6.870572e-002
2.281376e+003, 7.138259e-002
2.283304e+003, 7.307138e-002
2.285233e+003, 7.367602e-002
2.287161e+003, 7.340563e-002
2.289090e+003, 7.455613e-002
2.291018e+003, 7.422922e-002
2.292947e+003, 7.361561e-002
2.294875e+003, 7.388207e-002
2.296804e+003, 7.543312e-002
2.298732e+003, 7.577918e-002
2.300661e+003, 7.574645e-002
2.302589e+003, 7.731237e-002
2.304518e+003, 7.887544e-002
2.306446e+003, 7.931163e-002
2.308375e+003, 7.972297e-002
2.310303e+003, 8.149035e-002
2.312231e+003, 8.394005e-002
2.314160e+003, 8.508484e-002
2.316088e+003, 8.483240e-002
2.318017e+003, 8.537561e-002
2.319945e+003, 8.716876e-002
2.321874e+003, 8.891764e-002
2.323802e+003, 9.010653e-002
2.325731e+003, 8.918294e-002
2.327659e+003, 8.891734e-002
2.329588e+003, 8.987261e-002
2.331516e+003, 9.109665e-002
2.333445e+003, 9.158143e-002
2.335373e+003, 9.234419e-002
2.337302e+003, 9.273443e-002
2.339230e+003, 9.315612e-002
2.341158e+003, 9.389596e-002
2.343087e+003, 9.494223e-002
2.345015e+003, 9.617332e-002
2.346944e+003, 9.741685e-002
2.348872e+003, 9.792764e-002
2.350801e+003, 9.781034e-002
2.352729e+003, 9.955873e-002
2.354658e+003, 1.010749e-001
2.356586e+003, 1.010663e-001
2.358515e+003, 1.018530e-001
2.360443e+003, 1.025891e-001
2.362372e+003, 1.025527e-001
2.364300e+003, 1.028519e-001
2.366229e+003, 1.042330e-001
2.368157e+003, 1.055617e-001
2.370085e+003, 1.060481e-001
2.372014e+003, 1.069883e-001
2.373942e+003, 1.079462e-001
2.375871e+003, 1.085876e-001
2.377799e+003, 1.099976e-001
2.379728e+003, 1.117928e-001
2.381656e+003, 1.123954e-001
2.383585e+003, 1.107408e-001
2.385513e+003, 1.108529e-001
2.387442e+003, 1.136506e-001
2.389370e+003, 1.153817e-001
2.391299e+003, 1.156804e-001
2.393227e+003, 1.153720e-001
2.395156e+003, 1.161843e-001
2.397084e+003, 1.177404e-001
2.399012e+003, 1.186876e-001
2.400941e+003, 1.193172e-001
2.402869e+003, 1.200932e-001
2.404798e+003, 1.214702e-001
2.406726e+003, 1.216363e-001
2.408655e+003, 1.218747e-001
2.410583e+003, 1.223688e-001
2.412512e+003, 1.235311e-001
2.414440e+003, 1.251813e-001
2.416369e+003, 1.259477e-001
2.418297e+003, 1.271776e-001
2.420226e+003, 1.285075e-001
2.422154e+003, 1.283638e-001
2.424083e+003, 1.285218e-001
2.426011e+003, 1.296996e-001
2.427939e+003, 1.300825e-001
2.429868e+003, 1.299766e-001
2.431796e+003, 1.306688e-001
2.433725e+003, 1.317016e-001
2.435653e+003, 1.328367e-001
2.437582e+003, 1.345499e-001
2.439510e+003, 1.367466e-001
2.441439e+003, 1.377183e-001
2.443367e+003, 1.377340e-001
2.445296e+003, 1.391272e-001
2.447224e+003, 1.394689e-001
2.449153e+003, 1.385641e-001
2.451081e+003, 1.398985e-001
2.453010e+003, 1.405008e-001
2.454938e+003, 1.404234e-001
2.456866e+003, 1.409216e-001
2.458795e+003, 1.414429e-001
2.460723e+003, 1.411776e-001
2.462652e+003, 1.419589e-001
2.464580e+003, 1.416902e-001
2.466509e+003, 1.435039e-001
2.468437e+003, 1.457617e-001
2.470366e+003, 1.447127e-001
2.472294e+003, 1.440774e-001
2.474223e+003, 1.445366e-001
2.476151e+003, 1.459839e-001
2.478080e+003, 1.496633e-001
2.480008e+003, 1.507842e-001
2.481937e+003, 1.494674e-001
2.483865e+003, 1.495089e-001
2.485793e+003, 1.501877e-001
2.487722e+003, 1.500597e-001
2.489650e+003, 1.493154e-001
2.491579e+003, 1.493415e-001
2.493507e+003, 1.514040e-001
2.495436e+003, 1.522962e-001
2.497364e+003, 1.523782e-001
2.499293e+003, 1.529630e-001
2.501221e+003, 1.522926e-001
2.503150e+003, 1.523492e-001
2.505078e+003, 1.543060e-001
2.507007e+003, 1.548065e-001
2.508935e+003, 1.544870e-001
2.510864e+003, 1.532106e-001
2.512792e+003, 1.513480e-001
2.514720e+003, 1.508942e-001
2.516649e+003, 1.533104e-001
2.518577e+003, 1.559804e-001
2.520506e+003, 1.567245e-001
2.522434e+003, 1.550946e-001
2.524363e+003, 1.548401e-001
2.526291e+003, 1.573501e-001
2.528220e+003, 1.573857e-001
2.530148e+003, 1.565068e-001
2.532077e+003, 1.560663e-001
2.534005e+003, 1.565641e-001
2.535934e+003, 1.548889e-001
2.537862e+003, 1.550191e-001
2.539791e+003, 1.570804e-001
2.541719e+003, 1.566206e-001
2.543647e+003, 1.554137e-001
2.545576e+003, 1.556258e-001
2.547504e+003, 1.552576e-001
2.549433e+003, 1.572990e-001
2.551361e+003, 1.583815e-001
2.553290e+003, 1.576069e-001
2.555218e+003, 1.567328e-001
2.557147e+003, 1.552488e-001
2.559075e+003, 1.546017e-001
2.561004e+003, 1.560245e-001
2.562932e+003, 1.570382e-001
2.564861e+003, 1.568964e-001
2.566789e+003, 1.564409e-001
2.568718e+003, 1.553267e-001
2.570646e+003, 1.552059e-001
2.572574e+003, 1.560135e-001
2.574503e+003, 1.568545e-001
2.576431e+003, 1.571819e-001
2.578360e+003, 1.566867e-001
2.580288e+003, 1.567916e-001
2.582217e+003, 1.577048e-001
2.584145e+003, 1.573472e-001
2.586074e+003, 1.566297e-001
2.588002e+003, 1.564867e-001
2.589931e+003, 1.575672e-001
2.591859e+003, 1.585007e-001
2.593788e+003, 1.572913e-001
2.595716e+003, 1.576384e-001
2.597645e+003, 1.596730e-001
2.599573e+003, 1.607706e-001
2.601501e+003, 1.601976e-001
2.603430e+003, 1.587982e-001
2.605358e+003, 1.588582e-001
2.607287e+003, 1.590405e-001
2.609215e+003, 1.594875e-001
2.611144e+003, 1.591702e-001
2.613072e+003, 1.608038e-001
2.615001e+003, 1.613228e-001
2.616929e+003, 1.616303e-001
2.618858e+003, 1.625609e-001
2.620786e+003, 1.629594e-001
2.622715e+003, 1.630639e-001
2.624643e+003, 1.634240e-001
2.626572e+003, 1.654045e-001
2.628500e+003, 1.668397e-001
2.630428e+003, 1.677324e-001
2.632357e+003, 1.679791e-001
2.634285e+003, 1.683250e-001
2.636214e+003, 1.697440e-001
2.638142e+003, 1.706767e-001
2.640071e+003, 1.709014e-001
2.641999e+003, 1.719005e-001
2.643928e+003, 1.733132e-001
2.645856e+003, 1.729450e-001
2.647785e+003, 1.736848e-001
2.649713e+003, 1.754876e-001
2.651642e+003, 1.765805e-001
2.653570e+003, 1.774143e-001
2.655499e+003, 1.789227e-001
2.657427e+003, 1.800369e-001
2.659355e+003, 1.809277e-001
2.661284e+003, 1.816589e-001
2.663212e+003, 1.827026e-001
2.665141e+003, 1.833040e-001
2.667069e+003, 1.836030e-001
2.668998e+003, 1.847133e-001
2.670926e+003, 1.861420e-001
2.672855e+003, 1.873889e-001
2.674783e+003, 1.886888e-001
2.676712e+003, 1.896096e-001
2.678640e+003, 1.907572e-001
2.680569e+003, 1.914480e-001
2.682497e+003, 1.923451e-001
2.684426e+003, 1.948430e-001
2.686354e+003, 1.970211e-001
2.688282e+003, 1.989428e-001
2.690211e+003, 2.008868e-001
2.692139e+003, 2.021695e-001
2.694068e+003, 2.036977e-001
2.695996e+003, 2.057808e-001
2.697925e+003, 2.069179e-001
2.699853e+003, 2.070872e-001
2.701782e+003, 2.080148e-001
2.703710e+003, 2.103808e-001
2.705639e+003, 2.116412e-001
2.707567e+003, 2.125491e-001
2.709496e+003, 2.154215e-001
2.711424e+003, 2.174218e-001
2.713353e+003, 2.192898e-001
2.715281e+003, 2.216995e-001
2.717209e+003, 2.234558e-001
2.719138e+003, 2.235938e-001
2.721066e+003, 2.254210e-001
2.722995e+003, 2.276189e-001
2.724923e+003, 2.300691e-001
2.726852e+003, 2.321354e-001
2.728780e+003, 2.345920e-001
2.730709e+003, 2.368746e-001
2.732637e+003, 2.382005e-001
2.734566e+003, 2.395261e-001
2.736494e+003, 2.414226e-001
2.738423e+003, 2.440016e-001
2.740351e+003, 2.461282e-001
2.742280e+003, 2.472677e-001
2.744208e+003, 2.489771e-001
2.746136e+003, 2.514813e-001
2.748065e+003, 2.538141e-001
2.749993e+003, 2.558462e-001
2.751922e+003, 2.576351e-001
2.753850e+003, 2.602076e-001
2.755779e+003, 2.626081e-001
2.757707e+003, 2.648444e-001
2.759636e+003, 2.670967e-001
2.761564e+003, 2.678183e-001
2.763493e+003, 2.690741e-001
2.765421e+003, 2.727854e-001
2.767350e+003, 2.756671e-001
2.769278e+003, 2.760315e-001
2.771207e+003, 2.784806e-001
2.773135e+003, 2.823167e-001
2.775063e+003, 2.835956e-001
2.776992e+003, 2.842689e-001
2.778920e+003, 2.866458e-001
2.780849e+003, 2.907237e-001
2.782777e+003, 2.932638e-001
2.784706e+003, 2.934907e-001
2.786634e+003, 2.959883e-001
2.788563e+003, 2.985997e-001
2.790491e+003, 3.012601e-001
2.792420e+003, 3.029854e-001
2.794348e+003, 3.047477e-001
2.796277e+003, 3.065323e-001
2.798205e+003, 3.078963e-001
2.800134e+003, 3.098939e-001
2.802062e+003, 3.139026e-001
2.803990e+003, 3.155872e-001
2.805919e+003, 3.172001e-001
2.807847e+003, 3.191840e-001
2.809776e+003, 3.212594e-001
2.811704e+003, 3.230520e-001
2.813633e+003, 3.250367e-001
2.815561e+003, 3.278849e-001
2.817490e+003, 3.308678e-001
2.819418e+003, 3.324087e-001
2.821347e+003, 3.349466e-001
2.823275e+003, 3.383344e-001
2.825204e+003, 3.401152e-001
2.827132e+003, 3.404293e-001
2.829061e+003, 3.414637e-001
2.830989e+003, 3.442185e-001
2.832917e+003, 3.464476e-001
2.834846e+003, 3.487559e-001
2.836774e+003, 3.518634e-001
2.838703e+003, 3.523687e-001
2.840631e+003, 3.525290e-001
2.842560e+003, 3.563943e-001
2.844488e+003, 3.606812e-001
2.846417e+003, 3.631757e-001
2.848345e+003, 3.652903e-001
2.850274e+003, 3.666995e-001
2.852202e+003, 3.681043e-001
2.854131e+003, 3.708394e-001
2.856059e+003, 3.722531e-001
2.857988e+003, 3.735519e-001
2.859916e+003, 3.764235e-001
2.861844e+003, 3.781753e-001
2.863773e+003, 3.795915e-001
2.865701e+003, 3.814469e-001
2.867630e+003, 3.828611e-001
2.869558e+003, 3.850624e-001
2.871487e+003, 3.870153e-001
2.873415e+003, 3.886568e-001
2.875344e+003, 3.905762e-001
2.877272e+003, 3.910812e-001
2.879201e+003, 3.929856e-001
2.881129e+003, 3.943709e-001
2.883058e+003, 3.949460e-001
2.884986e+003, 3.978447e-001
2.886915e+003, 4.022589e-001
2.888843e+003, 4.027977e-001
2.890771e+003, 4.019576e-001
2.892700e+003, 4.028686e-001
2.894628e+003, 4.058253e-001
2.896557e+003, 4.090552e-001
2.898485e+003, 4.085306e-001
2.900414e+003, 4.088415e-001
2.902342e+003, 4.101117e-001
2.904271e+003, 4.112871e-001
2.906199e+003, 4.127466e-001
2.908128e+003, 4.142689e-001
2.910056e+003, 4.150755e-001
2.911985e+003, 4.153821e-001
2.913913e+003, 4.166515e-001
2.915842e+003, 4.173341e-001
2.917770e+003, 4.179402e-001
2.919698e+003, 4.184338e-001
2.921627e+003, 4.200537e-001
2.923555e+003, 4.224388e-001
2.925484e+003, 4.248595e-001
2.927412e+003, 4.262372e-001
2.929341e+003, 4.271902e-001
2.931269e+003, 4.271965e-001
2.933198e+003, 4.274904e-001
2.935126e+003, 4.267226e-001
2.937055e+003, 4.282931e-001
2.938983e+003, 4.294257e-001
2.940912e+003, 4.285893e-001
2.942840e+003, 4.278766e-001
2.944769e+003, 4.288374e-001
2.946697e+003, 4.295670e-001
2.948625e+003, 4.309637e-001
2.950554e+003, 4.331661e-001
2.952482e+003, 4.336881e-001
2.954411e+003, 4.344992e-001
2.956339e+003, 4.349287e-001
2.958268e+003, 4.341901e-001
2.960196e+003, 4.346037e-001
2.962125e+003, 4.333073e-001
2.964053e+003, 4.321081e-001
2.965982e+003, 4.339217e-001
2.967910e+003, 4.343202e-001
2.969839e+003, 4.333351e-001
2.971767e+003, 4.333028e-001
2.973696e+003, 4.323333e-001
2.975624e+003, 4.333042e-001
2.977552e+003, 4.340454e-001
2.979481e+003, 4.332274e-001
2.981409e+003, 4.314983e-001
2.983338e+003, 4.318976e-001
2.985266e+003, 4.325227e-001
2.987195e+003, 4.324140e-001
2.989123e+003, 4.321673e-001
2.991052e+003, 4.320189e-001
2.992980e+003, 4.312106e-001
2.994909e+003, 4.311185e-001
2.996837e+003, 4.301126e-001
2.998766e+003, 4.295498e-001
3.000694e+003, 4.294532e-001
3.002623e+003, 4.285342e-001
3.004551e+003, 4.276554e-001
3.006479e+003, 4.286058e-001
3.008408e+003, 4.289676e-001
3.010336e+003, 4.274665e-001
3.012265e+003, 4.255884e-001
3.014193e+003, 4.246417e-001
3.016122e+003, 4.249644e-001
3.018050e+003, 4.251364e-001
3.019979e+003, 4.224650e-001
3.021907e+003, 4.208308e-001
3.023836e+003, 4.221028e-001
3.025764e+003, 4.218886e-001
3.027693e+003, 4.211409e-001
3.029621e+003, 4.200252e-001
3.031550e+003, 4.183583e-001
3.033478e+003, 4.170548e-001
3.035406e+003, 4.162813e-001
3.037335e+003, 4.170153e-001
3.039263e+003, 4.164017e-001
3.041192e+003, 4.138471e-001
3.043120e+003, 4.116802e-001
3.045049e+003, 4.107126e-001
3.046977e+003, 4.114164e-001
3.048906e+003, 4.101875e-001
3.050834e+003, 4.082005e-001
3.052763e+003, 4.077637e-001
3.054691e+003, 4.062463e-001
3.056620e+003, 4.036067e-001
3.058548e+003, 4.019618e-001
3.060477e+003, 4.020213e-001
3.062405e+003, 4.024416e-001
3.064333e+003, 4.020562e-001
3.066262e+003, 3.984319e-001
3.068190e+003, 3.957567e-001
3.070119e+003, 3.961101e-001
3.072047e+003, 3.954986e-001
3.073976e+003, 3.934733e-001
3.075904e+003, 3.926866e-001
3.077833e+003, 3.918446e-001
3.079761e+003, 3.898883e-001
3.081690e+003, 3.872660e-001
3.083618e+003, 3.853965e-001
3.085547e+003, 3.835427e-001
3.087475e+003, 3.829843e-001
3.089404e+003, 3.841287e-001
3.091332e+003, 3.835346e-001
3.093260e+003, 3.809213e-001
3.095189e+003, 3.786305e-001
3.097117e+003, 3.776326e-001
3.099046e+003, 3.760779e-001
3.100974e+003, 3.762604e-001
3.102903e+003, 3.762943e-001
3.104831e+003, 3.731084e-001
3.106760e+003, 3.704778e-001
3.108688e+003, 3.688409e-001
3.110617e+003, 3.675696e-001
3.112545e+003, 3.669246e-001
3.114474e+003, 3.666160e-001
3.116402e+003, 3.625915e-001
3.118331e+003, 3.600918e-001
3.120259e+003, 3.603751e-001
3.122188e+003, 3.592102e-001
3.124116e+003, 3.583252e-001
3.126044e+003, 3.592879e-001
3.127973e+003, 3.586963e-001
3.129901e+003, 3.560368e-001
3.131830e+003, 3.540953e-001
3.133758e+003, 3.524689e-001
3.135687e+003, 3.499889e-001
3.137615e+003, 3.478875e-001
3.139544e+003, 3.490686e-001
3.141472e+003, 3.478745e-001
3.143401e+003, 3.467241e-001
3.145329e+003, 3.458222e-001
3.147258e+003, 3.420322e-001
3.149186e+003, 3.418467e-001
3.151115e+003, 3.433919e-001
3.153043e+003, 3.426853e-001
3.154971e+003, 3.419797e-001
3.156900e+003, 3.400132e-001
3.158828e+003, 3.368192e-001
3.160757e+003, 3.342263e-001
3.162685e+003, 3.326528e-001
3.164614e+003, 3.332637e-001
3.166542e+003, 3.330999e-001
3.168471e+003, 3.335949e-001
3.170399e+003, 3.319755e-001
3.172328e+003, 3.290245e-001
3.174256e+003, 3.269794e-001
3.176185e+003, 3.276009e-001
3.178113e+003, 3.275239e-001
3.180042e+003, 3.244622e-001
3.181970e+003, 3.219222e-001
3.183898e+003, 3.218411e-001
3.185827e+003, 3.212016e-001
3.187755e+003, 3.223812e-001
3.189684e+003, 3.233040e-001
3.191612e+003, 3.199431e-001
3.193541e+003, 3.172952e-001
3.195469e+003, 3.186218e-001
3.197398e+003, 3.179564e-001
3.199326e+003, 3.174249e-001
3.201255e+003, 3.164849e-001
3.203183e+003, 3.129754e-001
3.205112e+003, 3.105361e-001
3.207040e+003, 3.098485e-001
3.208969e+003, 3.078094e-001
3.210897e+003, 3.075072e-001
3.212825e+003, 3.069780e-001
3.214754e+003, 3.048957e-001
3.216682e+003, 3.021716e-001
3.218611e+003, 3.023495e-001
3.220539e+003, 3.018394e-001
3.222468e+003, 2.999317e-001
3.224396e+003, 2.997822e-001
3.226325e+003, 2.988644e-001
3.228253e+003, 2.961343e-001
3.230182e+003, 2.956682e-001
3.232110e+003, 2.960242e-001
3.234039e+003, 2.968200e-001
3.235967e+003, 2.949474e-001
3.237896e+003, 2.926855e-001
3.239824e+003, 2.936671e-001
3.241752e+003, 2.946652e-001
3.243681e+003, 2.915807e-001
3.245609e+003, 2.871964e-001
3.247538e+003, 2.859471e-001
3.249466e+003, 2.850739e-001
3.251395e+003, 2.840082e-001
3.253323e+003, 2.845765e-001
3.255252e+003, 2.807310e-001
3.257180e+003, 2.771322e-001
3.259109e+003, 2.790532e-001
3.261037e+003, 2.799055e-001
3.262966e+003, 2.764531e-001
3.264894e+003, 2.727093e-001
3.266823e+003, 2.710176e-001
3.268751e+003, 2.698964e-001
3.270679e+003, 2.691398e-001
3.272608e+003, 2.694150e-001
3.274536e+003, 2.688544e-001
3.276465e+003, 2.664554e-001
3.278393e+003, 2.657796e-001
3.280322e+003, 2.670548e-001
3.282250e+003, 2.659176e-001
3.284179e+003, 2.615971e-001
3.286107e+003, 2.575472e-001
3.288036e+003, 2.571260e-001
3.289964e+003, 2.570568e-001
3.291893e+003, 2.556880e-001
3.293821e+003, 2.532862e-001
3.295750e+003, 2.526959e-001
3.297678e+003, 2.499531e-001
3.299606e+003, 2.462182e-001
3.301535e+003, 2.470181e-001
3.303463e+003, 2.490370e-001
3.305392e+003, 2.469194e-001
3.307320e+003, 2.448139e-001
3.309249e+003, 2.424974e-001
3.311177e+003, 2.388998e-001
3.313106e+003, 2.392128e-001
3.315034e+003, 2.406132e-001
3.316963e+003, 2.382824e-001
3.318891e+003, 2.349901e-001
3.320820e+003, 2.349576e-001
3.322748e+003, 2.336913e-001
3.324677e+003, 2.304830e-001
3.326605e+003, 2.279620e-001
3.328533e+003, 2.276620e-001
3.330462e+003, 2.271135e-001
3.332390e+003, 2.248422e-001
3.334319e+003, 2.250759e-001
3.336247e+003, 2.257761e-001
3.338176e+003, 2.253698e-001
3.340104e+003, 2.255273e-001
3.342033e+003, 2.225721e-001
3.343961e+003, 2.179505e-001
3.345890e+003, 2.175715e-001
3.347818e+003, 2.187231e-001
3.349747e+003, 2.186138e-001
3.351675e+003, 2.178970e-001
3.353604e+003, 2.163289e-001
3.355532e+003, 2.118039e-001
3.357460e+003, 2.091807e-001
3.359389e+003, 2.071383e-001
3.361317e+003, 2.052475e-001
3.363246e+003, 2.054885e-001
3.365174e+003, 2.052204e-001
3.367103e+003, 2.037693e-001
3.369031e+003, 2.033100e-001
3.370960e+003, 2.018161e-001
3.372888e+003, 2.016631e-001
3.374817e+003, 2.002956e-001
3.376745e+003, 1.972631e-001
3.378674e+003, 1.958945e-001
3.380602e+003, 1.945585e-001
3.382531e+003, 1.944442e-001
3.384459e+003, 1.913182e-001
3.386387e+003, 1.888219e-001
3.388316e+003, 1.902137e-001
3.390244e+003, 1.906848e-001
3.392173e+003, 1.891838e-001
3.394101e+003, 1.871427e-001
3.396030e+003, 1.831676e-001
3.397958e+003, 1.801877e-001
3.399887e+003, 1.797966e-001
3.401815e+003, 1.797956e-001
3.403744e+003, 1.783920e-001
3.405672e+003, 1.762328e-001
3.407601e+003, 1.769404e-001
3.409529e+003, 1.754031e-001
3.411458e+003, 1.725826e-001
3.413386e+003, 1.687117e-001
3.415314e+003, 1.663280e-001
3.417243e+003, 1.665346e-001
3.419171e+003, 1.656685e-001
3.421100e+003, 1.621083e-001
3.423028e+003, 1.611120e-001
3.424957e+003, 1.622960e-001
3.426885e+003, 1.634047e-001
3.428814e+003, 1.599572e-001
3.430742e+003, 1.558498e-001
3.432671e+003, 1.531276e-001
3.434599e+003, 1.526981e-001
3.436528e+003, 1.522415e-001
3.438456e+003, 1.503606e-001
3.440385e+003, 1.483423e-001
3.442313e+003, 1.458745e-001
3.444241e+003, 1.435658e-001
3.446170e+003, 1.465170e-001
3.448098e+003, 1.496274e-001
3.450027e+003, 1.463681e-001
3.451955e+003, 1.422935e-001
3.453884e+003, 1.386057e-001
3.455812e+003, 1.379493e-001
3.457741e+003, 1.380509e-001
3.459669e+003, 1.393327e-001
3.461598e+003, 1.386055e-001
3.463526e+003, 1.346790e-001
3.465455e+003, 1.331416e-001
3.467383e+003, 1.333281e-001
3.469312e+003, 1.315322e-001
3.471240e+003, 1.296051e-001
3.473168e+003, 1.270025e-001
3.475097e+003, 1.236039e-001
3.477025e+003, 1.234882e-001
3.478954e+003, 1.225603e-001
3.480882e+003, 1.226261e-001
3.482811e+003, 1.220978e-001
3.484739e+003, 1.216474e-001
3.486668e+003, 1.207600e-001
3.488596e+003, 1.208159e-001
3.490525e+003, 1.175612e-001
3.492453e+003, 1.130666e-001
3.494382e+003, 1.130751e-001
3.496310e+003, 1.126296e-001
3.498239e+003, 1.118677e-001
3.500167e+003, 1.118267e-001
3.502095e+003, 1.081778e-001
3.504024e+003, 1.068823e-001
3.505952e+003, 1.055199e-001
3.507881e+003, 1.031583e-001
3.509809e+003, 1.016197e-001
3.511738e+003, 9.947481e-002
3.513666e+003, 9.986848e-002
3.515595e+003, 9.924267e-002
3.517523e+003, 9.542618e-002
3.519452e+003, 9.346445e-002
3.521380e+003, 9.147863e-002
3.523309e+003, 8.913822e-002
3.525237e+003, 8.599414e-002
3.527166e+003, 8.581214e-002
3.529094e+003, 8.689266e-002
3.531022e+003, 8.534121e-002
3.532951e+003, 8.498553e-002
3.534879e+003, 8.263105e-002
3.536808e+003, 8.148887e-002
3.538736e+003, 8.316672e-002
3.540665e+003, 8.222858e-002
3.542593e+003, 7.885752e-002
3.544522e+003, 7.790723e-002
3.546450e+003, 7.526570e-002
3.548379e+003, 6.929585e-002
3.550307e+003, 6.750870e-002
3.552236e+003, 6.904126e-002
3.554164e+003, 6.831845e-002
3.556093e+003, 6.531610e-002
3.558021e+003, 6.247500e-002
3.559949e+003, 6.383346e-002
3.561878e+003, 6.226109e-002
3.563806e+003, 6.214053e-002
3.565735e+003, 6.349511e-002
3.567663e+003, 6.295231e-002
3.569592e+003, 6.128937e-002
3.571520e+003, 5.991177e-002
3.573449e+003, 5.710341e-002
3.575377e+003, 5.489955e-002
3.577306e+003, 5.506915e-002
3.579234e+003, 5.335256e-002
3.581163e+003, 4.760905e-002
3.583091e+003, 4.383401e-002
3.585020e+003, 4.222333e-002
3.586948e+003, 4.053563e-002
3.588876e+003, 3.842729e-002
3.590805e+003, 3.858124e-002
3.592733e+003, 3.746914e-002
3.594662e+003, 3.603093e-002
3.596590e+003, 3.585808e-002
3.598519e+003, 3.211294e-002
3.600447e+003, 3.231684e-002
3.602376e+003, 3.250341e-002
3.604304e+003, 2.878841e-002
3.606233e+003, 2.326900e-002
3.608161e+003, 2.000450e-002
3.610090e+003, 1.944575e-002
3.612018e+003, 1.770058e-002
3.613947e+003, 1.482400e-002
3.615875e+003, 1.669037e-002
3.617803e+003, 1.536195e-002
3.619732e+003, 1.449956e-002
3.621660e+003, 1.452994e-002
3.623589e+003, 1.171421e-002
3.625517e+003, 1.071782e-002
3.627446e+003, 9.174592e-003
3.629374e+003, 7.954760e-003
3.631303e+003, 7.045999e-003
3.633231e+003, 5.644157e-003
3.635160e+003, 5.053264e-003
3.637088e+003, 1.840679e-003
3.639017e+003, -8.639271e-004
3.640945e+003, -1.604050e-003
3.642874e+003, -1.538458e-003
3.644802e+003, 3.712813e-004
3.646730e+003, -3.309213e-004
3.648659e+003, -3.437178e-003
3.650587e+003, -3.505980e-003
3.652516e+003, -5.620848e-003
3.654444e+003, -8.318238e-003
3.656373e+003, -7.100958e-003
3.658301e+003, -3.820078e-003
3.660230e+003, -2.064391e-003
3.662158e+003, -3.742032e-003
3.664087e+003, -2.383235e-003
3.666015e+003, -3.307346e-003
3.667944e+003, -7.422614e-003
3.669872e+003, -9.342276e-003
3.671801e+003, -8.210328e-003
3.673729e+003, -9.238579e-003
3.675657e+003, -1.155353e-002
3.677586e+003, -9.771196e-003
3.679514e+003, -9.535287e-003
3.681443e+003, -9.844244e-003
3.683371e+003, -8.229645e-003
3.685300e+003, -8.530343e-003
3.687228e+003, -8.210550e-003
3.689157e+003, -9.485910e-003
3.691085e+003, -1.239809e-002
3.693014e+003, -1.017761e-002
3.694942e+003, -1.009776e-002
3.696871e+003, -1.084805e-002
3.698799e+003, -1.249831e-002
3.700728e+003, -1.226378e-002
3.702656e+003, -9.734767e-003
3.704584e+003, -9.534731e-003
3.706513e+003, -1.009887e-002
3.708441e+003, -1.344542e-002
3.710370e+003, -1.194127e-002
3.712298e+003, -7.758808e-003
3.714227e+003, -9.680171e-003
3.716155e+003, -1.265836e-002
3.718084e+003, -1.358007e-002
3.720012e+003, -1.469838e-002
3.721941e+003, -1.319899e-002
3.723869e+003, -9.811266e-003
3.725798e+003, -1.161578e-002
3.727726e+003, -1.192601e-002
3.729655e+003, -8.868266e-003
3.731583e+003, -9.473067e-003
3.733511e+003, -1.171070e-002
3.735440e+003, -1.347469e-002
3.737368e+003, -1.603200e-002
3.739297e+003, -1.833045e-002
3.741225e+003, -1.823375e-002
3.743154e+003, -1.497588e-002
3.745082e+003, -1.429996e-002
3.747011e+003, -1.546989e-002
3.748939e+003, -1.238890e-002
3.750868e+003, -1.101576e-002
3.752796e+003, -1.137894e-002
3.754725e+003, -1.196015e-002
3.756653e+003, -1.590223e-002
3.758582e+003, -1.523626e-002
3.760510e+003, -1.382670e-002
3.762438e+003, -1.276839e-002
3.764367e+003, -1.423722e-002
3.766295e+003, -1.424390e-002
3.768224e+003, -1.563316e-002
3.770152e+003, -1.375550e-002
3.772081e+003, -1.129678e-002
3.774009e+003, -1.266062e-002
3.775938e+003, -1.346989e-002
3.777866e+003, -1.210842e-002
3.779795e+003, -1.159748e-002
3.781723e+003, -1.475545e-002
3.783652e+003, -1.735767e-002
3.785580e+003, -1.620304e-002
3.787509e+003, -1.387657e-002
3.789437e+003, -1.621022e-002
3.791365e+003, -1.779054e-002
3.793294e+003, -1.336663e-002
3.795222e+003, -1.290248e-002
3.797151e+003, -1.162312e-002
3.799079e+003, -1.031806e-002
3.801008e+003, -1.300637e-002
3.802936e+003, -1.284294e-002
3.804865e+003, -1.131283e-002
3.806793e+003, -1.237979e-002
3.808722e+003, -1.494334e-002
3.810650e+003, -1.533562e-002
3.812579e+003, -1.380695e-002
3.814507e+003, -1.295362e-002
3.816436e+003, -1.112869e-002
3.818364e+003, -1.299685e-002
3.820292e+003, -1.455853e-002
3.822221e+003, -1.286848e-002
3.824149e+003, -1.093809e-002
3.826078e+003, -1.011697e-002
3.828006e+003, -1.314985e-002
3.829935e+003, -1.267407e-002
3.831863e+003, -1.122702e-002
3.833792e+003, -1.329851e-002
3.835720e+003, -1.376849e-002
3.837649e+003, -1.175365e-002
3.839577e+003, -9.492600e-003
3.841506e+003, -1.296435e-002
3.843434e+003, -1.489741e-002
3.845363e+003, -1.480891e-002
3.847291e+003, -1.693024e-002
3.849219e+003, -1.456977e-002
3.851148e+003, -1.055166e-002
3.853076e+003, -9.031076e-003
3.855005e+003, -1.243870e-002
3.856933e+003, -1.396656e-002
3.858862e+003, -1.562656e-002
3.860790e+003, -1.535032e-002
3.862719e+003, -1.690551e-002
3.864647e+003, -1.651243e-002
3.866576e+003, -1.513630e-002
3.868504e+003, -1.262641e-002
3.870433e+003, -1.104779e-002
3.872361e+003, -1.024496e-002
3.874290e+003, -8.393484e-003
3.876218e+003, -1.152485e-002
3.878146e+003, -1.315469e-002
3.880075e+003, -1.146929e-002
3.882003e+003, -1.283897e-002
3.883932e+003, -1.021623e-002
3.885860e+003, -8.542305e-003
3.887789e+003, -1.300052e-002
3.889717e+003, -1.585812e-002
3.891646e+003, -1.477127e-002
3.893574e+003, -1.295739e-002
3.895503e+003, -1.366200e-002
3.897431e+003, -1.138706e-002
3.899360e+003, -8.947173e-003
3.901288e+003, -1.423037e-002
3.903217e+003, -1.983859e-002
3.905145e+003, -1.917186e-002
3.907073e+003, -1.777169e-002
3.909002e+003, -1.702062e-002
3.910930e+003, -1.434726e-002
3.912859e+003, -1.540716e-002
3.914787e+003, -1.498228e-002
3.916716e+003, -1.174206e-002
3.918644e+003, -1.232323e-002
3.920573e+003, -1.275716e-002
3.922501e+003, -1.189492e-002
3.924430e+003, -1.213499e-002
3.926358e+003, -1.199008e-002
3.928287e+003, -1.500027e-002
3.930215e+003, -1.602206e-002
3.932144e+003, -1.442147e-002
3.934072e+003, -1.313407e-002
3.936000e+003, -1.415251e-002
3.937929e+003, -1.384639e-002
3.939857e+003, -1.641361e-002
3.941786e+003, -1.599134e-002
3.943714e+003, -1.014812e-002
3.945643e+003, -9.618589e-003
3.947571e+003, -9.253339e-003
3.949500e+003, -1.338075e-002
3.951428e+003, -1.796774e-002
3.953357e+003, -1.355926e-002
3.955285e+003, -1.142670e-002
3.957214e+003, -1.470556e-002
3.959142e+003, -1.549372e-002
3.961071e+003, -1.617554e-002
3.962999e+003, -1.785636e-002
3.964927e+003, -1.785894e-002
3.966856e+003, -1.657426e-002
3.968784e+003, -1.741541e-002
3.970713e+003, -1.677149e-002
3.972641e+003, -1.197024e-002
3.974570e+003, -1.121368e-002
3.976498e+003, -1.577630e-002
3.978427e+003, -1.615945e-002
3.980355e+003, -1.437634e-002
3.982284e+003, -1.479978e-002
3.984212e+003, -1.619890e-002
3.986141e+003, -1.764179e-002
3.988069e+003, -1.623343e-002
3.989998e+003, -1.697064e-002
3.991926e+003, -1.519661e-002
3.993854e+003, -1.339616e-002
3.995783e+003, -1.222180e-002
3.997711e+003, -1.520655e-002
3.999640e+003, -1.836178e-002
4.001568e+003, 0.000000e+000
##END=



