##NAMES=Analcime
##RRUFFID=R060023
##IDEAL CHEMISTRY=NaAlSi_2_O_6_&#183;H_2_O
##LOCALITY=Dallas, Oregon, USA
##OWNER=RRUFF
##SOURCE=Bob Downs
##DESCRIPTION=White trapezohedral crystal associated with levyne-Na, R060021
##STATUS=The identification of this mineral has been confirmed by X-ray diffraction and chemical analysis
##URL=rruff.info/R060023
##MEASURED CHEMISTRY=(Na_0.98_[box]_0.02_)_Σ=1_(Si_2.02_Al_0.98_)O_6_·H_2_O
3.721941e+002, 0.000000e+000
3.741225e+002, 0.000000e+000
3.760510e+002, 0.000000e+000
3.779795e+002, 0.000000e+000
3.799079e+002, 0.000000e+000
3.818364e+002, 0.000000e+000
3.837649e+002, 0.000000e+000
3.856933e+002, 0.000000e+000
3.876218e+002, 0.000000e+000
3.895503e+002, 0.000000e+000
3.914787e+002, 0.000000e+000
3.934072e+002, 0.000000e+000
3.953357e+002, 0.000000e+000
3.972641e+002, 0.000000e+000
3.991926e+002, 1.926605e-001
4.011211e+002, 1.925450e-001
4.030495e+002, 1.875286e-001
4.049780e+002, 1.868467e-001
4.069065e+002, 1.992844e-001
4.088349e+002, 2.040344e-001
4.107634e+002, 2.031831e-001
4.126919e+002, 2.034435e-001
4.146203e+002, 2.065928e-001
4.165488e+002, 2.017717e-001
4.184773e+002, 1.916511e-001
4.204057e+002, 1.922941e-001
4.223342e+002, 1.980372e-001
4.242627e+002, 2.000123e-001
4.261911e+002, 2.025845e-001
4.281196e+002, 2.078764e-001
4.300481e+002, 2.090620e-001
4.319765e+002, 2.103221e-001
4.339050e+002, 2.103665e-001
4.358335e+002, 2.077721e-001
4.377619e+002, 2.039922e-001
4.396904e+002, 2.041828e-001
4.416189e+002, 2.034023e-001
4.435473e+002, 1.986729e-001
4.454758e+002, 1.910182e-001
4.474043e+002, 1.827582e-001
4.493327e+002, 1.689791e-001
4.512612e+002, 1.565303e-001
4.531897e+002, 1.477643e-001
4.551181e+002, 1.401919e-001
4.570466e+002, 1.331951e-001
4.589751e+002, 1.250934e-001
4.609035e+002, 1.155374e-001
4.628320e+002, 1.074952e-001
4.647605e+002, 1.024532e-001
4.666889e+002, 9.750900e-002
4.686174e+002, 9.080888e-002
4.705459e+002, 8.394637e-002
4.724743e+002, 8.024409e-002
4.744028e+002, 7.744981e-002
4.763313e+002, 7.398336e-002
4.782597e+002, 7.095823e-002
4.801882e+002, 6.805524e-002
4.821167e+002, 6.625903e-002
4.840451e+002, 6.387398e-002
4.859736e+002, 6.103740e-002
4.879021e+002, 5.885024e-002
4.898305e+002, 5.683826e-002
4.917590e+002, 5.496118e-002
4.936875e+002, 5.341742e-002
4.956159e+002, 5.216092e-002
4.975444e+002, 5.084553e-002
4.994729e+002, 4.889472e-002
5.014013e+002, 4.700393e-002
5.033298e+002, 4.447536e-002
5.052583e+002, 4.394752e-002
5.071867e+002, 4.450855e-002
5.091152e+002, 4.451756e-002
5.110437e+002, 4.386735e-002
5.129721e+002, 4.302815e-002
5.149006e+002, 4.232965e-002
5.168290e+002, 4.176515e-002
5.187575e+002, 4.178208e-002
5.206860e+002, 4.139663e-002
5.226144e+002, 4.030975e-002
5.245429e+002, 3.948528e-002
5.264714e+002, 4.021002e-002
5.283998e+002, 3.973122e-002
5.303283e+002, 3.915160e-002
5.322568e+002, 3.879420e-002
5.341852e+002, 3.786070e-002
5.361137e+002, 3.738367e-002
5.380422e+002, 3.829939e-002
5.399706e+002, 3.897654e-002
5.418991e+002, 3.854374e-002
5.438276e+002, 3.839220e-002
5.457560e+002, 3.870750e-002
5.476845e+002, 3.905348e-002
5.496130e+002, 3.997010e-002
5.515414e+002, 3.953606e-002
5.534699e+002, 3.783278e-002
5.553984e+002, 3.757677e-002
5.573268e+002, 3.811133e-002
5.592553e+002, 3.820834e-002
5.611838e+002, 3.804098e-002
5.631122e+002, 3.749134e-002
5.650407e+002, 3.761505e-002
5.669692e+002, 3.800597e-002
5.688976e+002, 3.809308e-002
5.708261e+002, 3.793769e-002
5.727546e+002, 3.784982e-002
5.746830e+002, 3.716068e-002
5.766115e+002, 3.682193e-002
5.785400e+002, 3.734461e-002
5.804684e+002, 3.784106e-002
5.823969e+002, 3.773839e-002
5.843254e+002, 3.805047e-002
5.862538e+002, 3.893156e-002
5.881823e+002, 3.946805e-002
5.901108e+002, 3.941858e-002
5.920392e+002, 4.075003e-002
5.939677e+002, 4.205257e-002
5.958962e+002, 4.207272e-002
5.978246e+002, 4.252581e-002
5.997531e+002, 4.330644e-002
6.016816e+002, 4.398031e-002
6.036100e+002, 4.544420e-002
6.055385e+002, 4.669637e-002
6.074670e+002, 4.751842e-002
6.093954e+002, 4.861596e-002
6.113239e+002, 4.994430e-002
6.132524e+002, 5.092346e-002
6.151808e+002, 5.157529e-002
6.171093e+002, 5.204691e-002
6.190378e+002, 5.204054e-002
6.209662e+002, 5.216334e-002
6.228947e+002, 5.200543e-002
6.248232e+002, 5.117258e-002
6.267516e+002, 5.043380e-002
6.286801e+002, 4.977269e-002
6.306086e+002, 4.785618e-002
6.325370e+002, 4.638971e-002
6.344655e+002, 4.519598e-002
6.363940e+002, 4.393666e-002
6.383224e+002, 4.244631e-002
6.402509e+002, 4.190264e-002
6.421794e+002, 4.180636e-002
6.441078e+002, 4.122660e-002
6.460363e+002, 4.076326e-002
6.479648e+002, 4.033982e-002
6.498932e+002, 3.997411e-002
6.518217e+002, 4.001939e-002
6.537502e+002, 4.027784e-002
6.556786e+002, 4.069063e-002
6.576071e+002, 4.128966e-002
6.595356e+002, 4.258153e-002
6.614641e+002, 4.352725e-002
6.633925e+002, 4.425799e-002
6.653210e+002, 4.544323e-002
6.672495e+002, 4.654777e-002
6.691779e+002, 4.716293e-002
6.711064e+002, 4.770406e-002
6.730349e+002, 4.819350e-002
6.749633e+002, 4.873313e-002
6.768918e+002, 4.947227e-002
6.788203e+002, 5.032252e-002
6.807487e+002, 5.159258e-002
6.826772e+002, 5.351393e-002
6.846057e+002, 5.581779e-002
6.865341e+002, 5.768678e-002
6.884626e+002, 5.999335e-002
6.903911e+002, 6.206464e-002
6.923195e+002, 6.382710e-002
6.942480e+002, 6.579307e-002
6.961765e+002, 6.748204e-002
6.981049e+002, 6.839553e-002
7.000334e+002, 6.936203e-002
7.019619e+002, 7.056219e-002
7.038903e+002, 7.160409e-002
7.058188e+002, 7.278954e-002
7.077473e+002, 7.388701e-002
7.096757e+002, 7.517898e-002
7.116042e+002, 7.721736e-002
7.135327e+002, 7.919580e-002
7.154611e+002, 8.143174e-002
7.173896e+002, 8.354039e-002
7.193181e+002, 8.580565e-002
7.212465e+002, 8.845843e-002
7.231750e+002, 9.100594e-002
7.251035e+002, 9.334264e-002
7.270319e+002, 9.536576e-002
7.289604e+002, 9.674361e-002
7.308889e+002, 9.809387e-002
7.328173e+002, 9.903927e-002
7.347458e+002, 9.933953e-002
7.366743e+002, 9.934108e-002
7.386027e+002, 9.884167e-002
7.405312e+002, 9.733792e-002
7.424597e+002, 9.581178e-002
7.443881e+002, 9.351604e-002
7.463166e+002, 9.066464e-002
7.482451e+002, 8.764149e-002
7.501735e+002, 8.445738e-002
7.521020e+002, 8.184741e-002
7.540305e+002, 8.048315e-002
7.559589e+002, 8.014002e-002
7.578874e+002, 8.111043e-002
7.598159e+002, 8.236908e-002
7.617443e+002, 8.381414e-002
7.636728e+002, 8.516743e-002
7.656013e+002, 8.548628e-002
7.675297e+002, 8.468031e-002
7.694582e+002, 8.212531e-002
7.713867e+002, 7.732917e-002
7.733151e+002, 7.071416e-002
7.752436e+002, 6.403594e-002
7.771721e+002, 5.815386e-002
7.791005e+002, 5.238323e-002
7.810290e+002, 4.642349e-002
7.829575e+002, 4.113354e-002
7.848859e+002, 3.725864e-002
7.868144e+002, 3.437168e-002
7.887429e+002, 3.183970e-002
7.906713e+002, 2.917631e-002
7.925998e+002, 2.654508e-002
7.945283e+002, 2.431005e-002
7.964567e+002, 2.279856e-002
7.983852e+002, 2.103188e-002
8.003137e+002, 1.938098e-002
8.022421e+002, 1.833190e-002
8.041706e+002, 1.778306e-002
8.060991e+002, 1.740111e-002
8.080275e+002, 1.670440e-002
8.099560e+002, 1.591138e-002
8.118845e+002, 1.582699e-002
8.138129e+002, 1.586095e-002
8.157414e+002, 1.542791e-002
8.176699e+002, 1.504281e-002
8.195983e+002, 1.488223e-002
8.215268e+002, 1.468260e-002
8.234553e+002, 1.492479e-002
8.253837e+002, 1.501943e-002
8.273122e+002, 1.497855e-002
8.292407e+002, 1.506056e-002
8.311691e+002, 1.513044e-002
8.330976e+002, 1.517833e-002
8.350261e+002, 1.535525e-002
8.369545e+002, 1.560061e-002
8.388830e+002, 1.607552e-002
8.408115e+002, 1.679160e-002
8.427399e+002, 1.737914e-002
8.446684e+002, 1.765515e-002
8.465969e+002, 1.780950e-002
8.485253e+002, 1.820605e-002
8.504538e+002, 1.881328e-002
8.523823e+002, 1.940840e-002
8.543107e+002, 1.998120e-002
8.562392e+002, 2.071908e-002
8.581677e+002, 2.176530e-002
8.600961e+002, 2.247650e-002
8.620246e+002, 2.304141e-002
8.639531e+002, 2.391004e-002
8.658815e+002, 2.472198e-002
8.678100e+002, 2.533121e-002
8.697385e+002, 2.642374e-002
8.716669e+002, 2.737629e-002
8.735954e+002, 2.845172e-002
8.755239e+002, 2.954078e-002
8.774523e+002, 3.070734e-002
8.793808e+002, 3.136851e-002
8.813093e+002, 3.140933e-002
8.832377e+002, 3.194451e-002
8.851662e+002, 3.327282e-002
8.870947e+002, 3.495098e-002
8.890231e+002, 3.652818e-002
8.909516e+002, 3.790343e-002
8.928801e+002, 3.930359e-002
8.948085e+002, 4.078126e-002
8.967370e+002, 4.240897e-002
8.986655e+002, 4.408406e-002
9.005939e+002, 4.595347e-002
9.025224e+002, 4.785964e-002
9.044509e+002, 5.024839e-002
9.063793e+002, 5.293129e-002
9.083078e+002, 5.546407e-002
9.102363e+002, 5.823717e-002
9.121647e+002, 6.141979e-002
9.140932e+002, 6.483562e-002
9.160217e+002, 6.840697e-002
9.179501e+002, 7.223928e-002
9.198786e+002, 7.663874e-002
9.218071e+002, 8.121884e-002
9.237355e+002, 8.603076e-002
9.256640e+002, 9.101014e-002
9.275925e+002, 9.704172e-002
9.295209e+002, 1.034856e-001
9.314494e+002, 1.100324e-001
9.333779e+002, 1.169754e-001
9.353063e+002, 1.246841e-001
9.372348e+002, 1.329429e-001
9.391633e+002, 1.418189e-001
9.410917e+002, 1.511621e-001
9.430202e+002, 1.612720e-001
9.449487e+002, 1.712988e-001
9.468771e+002, 1.814483e-001
9.488056e+002, 1.922020e-001
9.507341e+002, 2.034303e-001
9.526625e+002, 2.152963e-001
9.545910e+002, 2.279039e-001
9.565195e+002, 2.407747e-001
9.584479e+002, 2.536213e-001
9.603764e+002, 2.663235e-001
9.623049e+002, 2.794505e-001
9.642333e+002, 2.925949e-001
9.661618e+002, 3.058192e-001
9.680903e+002, 3.183172e-001
9.700187e+002, 3.299393e-001
9.719472e+002, 3.405173e-001
9.738757e+002, 3.499948e-001
9.758041e+002, 3.584189e-001
9.777326e+002, 3.646578e-001
9.796611e+002, 3.691343e-001
9.815895e+002, 3.723583e-001
9.835180e+002, 3.744831e-001
9.854465e+002, 3.756942e-001
9.873749e+002, 3.756858e-001
9.893034e+002, 3.754619e-001
9.912319e+002, 3.744701e-001
9.931603e+002, 3.729520e-001
9.950888e+002, 3.720214e-001
9.970173e+002, 3.707341e-001
9.989457e+002, 3.686518e-001
1.000874e+003, 3.670292e-001
1.002803e+003, 3.648782e-001
1.004731e+003, 3.619343e-001
1.006660e+003, 3.594732e-001
1.008588e+003, 3.569040e-001
1.010517e+003, 3.530646e-001
1.012445e+003, 3.482870e-001
1.014373e+003, 3.438323e-001
1.016302e+003, 3.393458e-001
1.018230e+003, 3.342681e-001
1.020159e+003, 3.277678e-001
1.022087e+003, 3.215455e-001
1.024016e+003, 3.165015e-001
1.025944e+003, 3.109291e-001
1.027873e+003, 3.045043e-001
1.029801e+003, 2.979941e-001
1.031730e+003, 2.914540e-001
1.033658e+003, 2.849686e-001
1.035587e+003, 2.781453e-001
1.037515e+003, 2.710797e-001
1.039443e+003, 2.642345e-001
1.041372e+003, 2.567399e-001
1.043300e+003, 2.489317e-001
1.045229e+003, 2.407307e-001
1.047157e+003, 2.323325e-001
1.049086e+003, 2.237923e-001
1.051014e+003, 2.152809e-001
1.052943e+003, 2.076605e-001
1.054871e+003, 1.998941e-001
1.056800e+003, 1.916000e-001
1.058728e+003, 1.833688e-001
1.060657e+003, 1.753246e-001
1.062585e+003, 1.677859e-001
1.064514e+003, 1.608758e-001
1.066442e+003, 1.543051e-001
1.068370e+003, 1.479650e-001
1.070299e+003, 1.422325e-001
1.072227e+003, 1.369068e-001
1.074156e+003, 1.322531e-001
1.076084e+003, 1.277369e-001
1.078013e+003, 1.237656e-001
1.079941e+003, 1.206853e-001
1.081870e+003, 1.176870e-001
1.083798e+003, 1.147731e-001
1.085727e+003, 1.127843e-001
1.087655e+003, 1.113006e-001
1.089584e+003, 1.097522e-001
1.091512e+003, 1.078975e-001
1.093441e+003, 1.065098e-001
1.095369e+003, 1.051954e-001
1.097297e+003, 1.039002e-001
1.099226e+003, 1.029179e-001
1.101154e+003, 1.016751e-001
1.103083e+003, 1.001284e-001
1.105011e+003, 9.828827e-002
1.106940e+003, 9.641297e-002
1.108868e+003, 9.514656e-002
1.110797e+003, 9.362908e-002
1.112725e+003, 9.170354e-002
1.114654e+003, 8.945083e-002
1.116582e+003, 8.727089e-002
1.118511e+003, 8.536029e-002
1.120439e+003, 8.309422e-002
1.122368e+003, 8.033397e-002
1.124296e+003, 7.777996e-002
1.126224e+003, 7.542519e-002
1.128153e+003, 7.321018e-002
1.130081e+003, 7.074264e-002
1.132010e+003, 6.813411e-002
1.133938e+003, 6.587718e-002
1.135867e+003, 6.364198e-002
1.137795e+003, 6.122386e-002
1.139724e+003, 5.906094e-002
1.141652e+003, 5.703340e-002
1.143581e+003, 5.488439e-002
1.145509e+003, 5.261611e-002
1.147438e+003, 5.030362e-002
1.149366e+003, 4.838125e-002
1.151295e+003, 4.669234e-002
1.153223e+003, 4.462858e-002
1.155151e+003, 4.280317e-002
1.157080e+003, 4.134527e-002
1.159008e+003, 3.949541e-002
1.160937e+003, 3.758285e-002
1.162865e+003, 3.579833e-002
1.164794e+003, 3.363068e-002
1.166722e+003, 3.166412e-002
1.168651e+003, 3.003515e-002
1.170579e+003, 2.845399e-002
1.172508e+003, 2.668751e-002
1.174436e+003, 2.468382e-002
1.176365e+003, 2.283020e-002
1.178293e+003, 2.114885e-002
1.180222e+003, 1.939164e-002
1.182150e+003, 1.768239e-002
1.184078e+003, 1.622104e-002
1.186007e+003, 1.468144e-002
1.187935e+003, 1.319008e-002
1.189864e+003, 1.245219e-002
1.191792e+003, 1.145891e-002
1.193721e+003, 1.003396e-002
1.195649e+003, 8.669265e-003
1.197578e+003, 7.788882e-003
1.199506e+003, 7.120940e-003
1.201435e+003, 6.271654e-003
1.203363e+003, 5.616256e-003
1.205292e+003, 5.113846e-003
1.207220e+003, 4.399536e-003
1.209149e+003, 3.545384e-003
1.211077e+003, 2.984778e-003
1.213005e+003, 2.602566e-003
1.214934e+003, 2.001317e-003
1.216862e+003, 1.528991e-003
1.218791e+003, 1.020464e-003
1.220719e+003, 7.411899e-004
1.222648e+003, 2.780206e-004
1.224576e+003, -2.496004e-004
1.226505e+003, -7.644002e-004
1.228433e+003, -1.168482e-003
1.230362e+003, -1.407536e-003
1.232290e+003, -1.927696e-003
1.234219e+003, -2.105655e-003
1.236147e+003, -2.172790e-003
1.238076e+003, -2.641010e-003
1.240004e+003, -2.936473e-003
1.241932e+003, -3.082791e-003
1.243861e+003, -3.023195e-003
1.245789e+003, -2.709998e-003
1.247718e+003, -3.008478e-003
1.249646e+003, -3.370629e-003
1.251575e+003, -3.513877e-003
1.253503e+003, -3.714568e-003
1.255432e+003, -3.805012e-003
1.257360e+003, -4.229254e-003
1.259289e+003, -4.531984e-003
1.261217e+003, -4.528356e-003
1.263146e+003, -4.726311e-003
1.265074e+003, -4.636523e-003
1.267003e+003, -4.694375e-003
1.268931e+003, -4.720029e-003
1.270859e+003, -4.544977e-003
1.272788e+003, -4.651957e-003
1.274716e+003, -4.642210e-003
1.276645e+003, -4.561472e-003
1.278573e+003, -4.815284e-003
1.280502e+003, -4.889253e-003
1.282430e+003, -4.919109e-003
1.284359e+003, -5.378385e-003
1.286287e+003, -5.560849e-003
1.288216e+003, -5.659279e-003
1.290144e+003, -5.864238e-003
1.292073e+003, -5.981578e-003
1.294001e+003, -5.852919e-003
1.295930e+003, -5.593224e-003
1.297858e+003, -5.376903e-003
1.299786e+003, -5.581683e-003
1.301715e+003, -5.781728e-003
1.303643e+003, -5.764897e-003
1.305572e+003, -5.788882e-003
1.307500e+003, -5.973011e-003
1.309429e+003, -6.039777e-003
1.311357e+003, -6.164006e-003
1.313286e+003, -6.165925e-003
1.315214e+003, -6.293735e-003
1.317143e+003, -6.526509e-003
1.319071e+003, -6.605327e-003
1.321000e+003, -6.604815e-003
1.322928e+003, -6.522673e-003
1.324857e+003, -6.449494e-003
1.326785e+003, -6.579851e-003
1.328714e+003, -6.696086e-003
1.330642e+003, -6.795094e-003
1.332570e+003, -6.825190e-003
1.334499e+003, -6.372286e-003
1.336427e+003, -6.178898e-003
1.338356e+003, -6.512534e-003
1.340284e+003, -6.381288e-003
1.342213e+003, -6.439557e-003
1.344141e+003, -6.986295e-003
1.346070e+003, -7.262133e-003
1.347998e+003, -6.671186e-003
1.349927e+003, -6.273572e-003
1.351855e+003, -6.622868e-003
1.353784e+003, -7.030118e-003
1.355712e+003, -6.858742e-003
1.357641e+003, -6.702984e-003
1.359569e+003, -6.779220e-003
1.361497e+003, -6.825761e-003
1.363426e+003, -7.213512e-003
1.365354e+003, -7.186842e-003
1.367283e+003, -6.963669e-003
1.369211e+003, -7.161425e-003
1.371140e+003, -7.141840e-003
1.373068e+003, -7.179125e-003
1.374997e+003, -7.032630e-003
1.376925e+003, -6.919704e-003
1.378854e+003, -7.008467e-003
1.380782e+003, -6.727624e-003
1.382711e+003, -6.329420e-003
1.384639e+003, -6.464396e-003
1.386568e+003, -6.794109e-003
1.388496e+003, -7.098764e-003
1.390424e+003, -7.056669e-003
1.392353e+003, -6.930604e-003
1.394281e+003, -6.888959e-003
1.396210e+003, -6.739889e-003
1.398138e+003, -6.732201e-003
1.400067e+003, -6.786813e-003
1.401995e+003, -6.654012e-003
1.403924e+003, -6.639561e-003
1.405852e+003, -6.689964e-003
1.407781e+003, -6.911473e-003
1.409709e+003, -6.864501e-003
1.411638e+003, -6.602010e-003
1.413566e+003, -6.448278e-003
1.415495e+003, -6.283427e-003
1.417423e+003, -6.198587e-003
1.419351e+003, -6.212980e-003
1.421280e+003, -6.522935e-003
1.423208e+003, -6.867513e-003
1.425137e+003, -6.807608e-003
1.427065e+003, -6.577560e-003
1.428994e+003, -6.260109e-003
1.430922e+003, -6.377581e-003
1.432851e+003, -6.284619e-003
1.434779e+003, -6.133658e-003
1.436708e+003, -6.160238e-003
1.438636e+003, -6.336845e-003
1.440565e+003, -6.572618e-003
1.442493e+003, -6.313616e-003
1.444422e+003, -5.970782e-003
1.446350e+003, -5.930902e-003
1.448278e+003, -6.161383e-003
1.450207e+003, -6.205273e-003
1.452135e+003, -5.840891e-003
1.454064e+003, -5.905640e-003
1.455992e+003, -6.373513e-003
1.457921e+003, -6.576944e-003
1.459849e+003, -6.393461e-003
1.461778e+003, -6.143746e-003
1.463706e+003, -5.767581e-003
1.465635e+003, -5.615822e-003
1.467563e+003, -5.670059e-003
1.469492e+003, -5.659798e-003
1.471420e+003, -5.637748e-003
1.473349e+003, -5.688492e-003
1.475277e+003, -5.716286e-003
1.477205e+003, -5.978391e-003
1.479134e+003, -6.430855e-003
1.481062e+003, -6.429425e-003
1.482991e+003, -6.146616e-003
1.484919e+003, -6.229607e-003
1.486848e+003, -6.325078e-003
1.488776e+003, -6.094955e-003
1.490705e+003, -5.834219e-003
1.492633e+003, -6.301299e-003
1.494562e+003, -6.630045e-003
1.496490e+003, -6.445587e-003
1.498419e+003, -6.338113e-003
1.500347e+003, -6.249574e-003
1.502276e+003, -6.412197e-003
1.504204e+003, -6.744449e-003
1.506132e+003, -6.769543e-003
1.508061e+003, -6.579970e-003
1.509989e+003, -6.401524e-003
1.511918e+003, -6.617480e-003
1.513846e+003, -6.835290e-003
1.515775e+003, -6.866911e-003
1.517703e+003, -6.838123e-003
1.519632e+003, -7.368246e-003
1.521560e+003, -7.493202e-003
1.523489e+003, -7.269328e-003
1.525417e+003, -7.238686e-003
1.527346e+003, -7.286930e-003
1.529274e+003, -7.518515e-003
1.531203e+003, -7.809255e-003
1.533131e+003, -8.010949e-003
1.535059e+003, -7.660101e-003
1.536988e+003, -7.286441e-003
1.538916e+003, -7.327105e-003
1.540845e+003, -7.618207e-003
1.542773e+003, -7.691266e-003
1.544702e+003, -7.565011e-003
1.546630e+003, -7.490944e-003
1.548559e+003, -7.160437e-003
1.550487e+003, -7.075566e-003
1.552416e+003, -7.373417e-003
1.554344e+003, -7.136587e-003
1.556273e+003, -6.764701e-003
1.558201e+003, -6.848576e-003
1.560130e+003, -6.850655e-003
1.562058e+003, -7.059787e-003
1.563986e+003, -7.485627e-003
1.565915e+003, -7.240691e-003
1.567843e+003, -6.692114e-003
1.569772e+003, -6.707659e-003
1.571700e+003, -6.535752e-003
1.573629e+003, -6.485308e-003
1.575557e+003, -6.600497e-003
1.577486e+003, -6.401064e-003
1.579414e+003, -6.076374e-003
1.581343e+003, -5.736058e-003
1.583271e+003, -5.711109e-003
1.585200e+003, -5.593508e-003
1.587128e+003, -5.160809e-003
1.589057e+003, -4.985665e-003
1.590985e+003, -5.191088e-003
1.592913e+003, -5.169929e-003
1.594842e+003, -4.966356e-003
1.596770e+003, -4.759007e-003
1.598699e+003, -4.674577e-003
1.600627e+003, -4.534963e-003
1.602556e+003, -3.770269e-003
1.604484e+003, -3.122489e-003
1.606413e+003, -2.689424e-003
1.608341e+003, -2.141192e-003
1.610270e+003, -1.207176e-003
1.612198e+003, 1.750747e-004
1.614127e+003, 1.996187e-003
1.616055e+003, 4.004736e-003
1.617984e+003, 6.368245e-003
1.619912e+003, 9.486670e-003
1.621840e+003, 1.277604e-002
1.623769e+003, 1.524864e-002
1.625697e+003, 1.748937e-002
1.627626e+003, 1.953813e-002
1.629554e+003, 2.085255e-002
1.631483e+003, 2.139095e-002
1.633411e+003, 2.052086e-002
1.635340e+003, 1.809279e-002
1.637268e+003, 1.539176e-002
1.639197e+003, 1.243982e-002
1.641125e+003, 9.427279e-003
1.643054e+003, 7.424832e-003
1.644982e+003, 5.957355e-003
1.646911e+003, 4.202332e-003
1.648839e+003, 2.554532e-003
1.650767e+003, 1.113448e-003
1.652696e+003, -3.663383e-005
1.654624e+003, -8.284122e-004
1.656553e+003, -1.603694e-003
1.658481e+003, -2.381259e-003
1.660410e+003, -3.002241e-003
1.662338e+003, -3.685781e-003
1.664267e+003, -4.588540e-003
1.666195e+003, -5.322832e-003
1.668124e+003, -5.324987e-003
1.670052e+003, -5.348556e-003
1.671981e+003, -5.882632e-003
1.673909e+003, -6.583442e-003
1.675838e+003, -6.818635e-003
1.677766e+003, -6.773390e-003
1.679694e+003, -6.574426e-003
1.681623e+003, -6.957368e-003
1.683551e+003, -7.413153e-003
1.685480e+003, -7.465925e-003
1.687408e+003, -7.357296e-003
1.689337e+003, -7.637467e-003
1.691265e+003, -8.034290e-003
1.693194e+003, -7.824724e-003
1.695122e+003, -7.821410e-003
1.697051e+003, -8.318073e-003
1.698979e+003, -8.497444e-003
1.700908e+003, -8.158747e-003
1.702836e+003, -8.085684e-003
1.704765e+003, -8.114843e-003
1.706693e+003, -8.349343e-003
1.708621e+003, -8.681485e-003
1.710550e+003, -8.612853e-003
1.712478e+003, -8.441828e-003
1.714407e+003, -8.186080e-003
1.716335e+003, -8.385438e-003
1.718264e+003, -8.923179e-003
1.720192e+003, -8.968112e-003
1.722121e+003, -8.415113e-003
1.724049e+003, -8.556758e-003
1.725978e+003, -8.712693e-003
1.727906e+003, -8.766906e-003
1.729835e+003, -8.958123e-003
1.731763e+003, -9.086546e-003
1.733692e+003, -9.231615e-003
1.735620e+003, -8.985411e-003
1.737548e+003, -8.898847e-003
1.739477e+003, -9.274206e-003
1.741405e+003, -9.275141e-003
1.743334e+003, -9.173738e-003
1.745262e+003, -8.965271e-003
1.747191e+003, -9.526317e-003
1.749119e+003, -9.722586e-003
1.751048e+003, -9.844538e-003
1.752976e+003, -9.900673e-003
1.754905e+003, -1.022408e-002
1.756833e+003, -9.779084e-003
1.758762e+003, -9.343926e-003
1.760690e+003, -9.504683e-003
1.762619e+003, -9.585404e-003
1.764547e+003, -9.250072e-003
1.766475e+003, -9.281809e-003
1.768404e+003, -1.007577e-002
1.770332e+003, -1.050065e-002
1.772261e+003, -1.011757e-002
1.774189e+003, -1.019803e-002
1.776118e+003, -1.018896e-002
1.778046e+003, -1.006076e-002
1.779975e+003, -1.009094e-002
1.781903e+003, -1.048954e-002
1.783832e+003, -1.022790e-002
1.785760e+003, -1.006311e-002
1.787689e+003, -1.016197e-002
1.789617e+003, -9.978957e-003
1.791546e+003, -1.006806e-002
1.793474e+003, -1.037866e-002
1.795402e+003, -1.069923e-002
1.797331e+003, -1.067348e-002
1.799259e+003, -1.053613e-002
1.801188e+003, -1.052276e-002
1.803116e+003, -1.051127e-002
1.805045e+003, -1.068932e-002
1.806973e+003, -1.090034e-002
1.808902e+003, -1.095128e-002
1.810830e+003, -1.098112e-002
1.812759e+003, -1.125356e-002
1.814687e+003, -1.194607e-002
1.816616e+003, -1.246029e-002
1.818544e+003, -1.160887e-002
1.820473e+003, -1.124764e-002
1.822401e+003, -1.121073e-002
1.824329e+003, -1.153113e-002
1.826258e+003, -1.150122e-002
1.828186e+003, -1.109873e-002
1.830115e+003, -1.061612e-002
1.832043e+003, -1.123994e-002
1.833972e+003, -1.119222e-002
1.835900e+003, -1.100908e-002
1.837829e+003, -1.169171e-002
1.839757e+003, -1.148895e-002
1.841686e+003, -1.130584e-002
1.843614e+003, -1.147607e-002
1.845543e+003, -1.141109e-002
1.847471e+003, -1.184281e-002
1.849400e+003, -1.220415e-002
1.851328e+003, -1.205652e-002
1.853256e+003, -1.102970e-002
1.855185e+003, -1.111260e-002
1.857113e+003, -1.205400e-002
1.859042e+003, -1.248701e-002
1.860970e+003, -1.206422e-002
1.862899e+003, -1.217176e-002
1.864827e+003, -1.237613e-002
1.866756e+003, -1.324768e-002
1.868684e+003, -1.360405e-002
1.870613e+003, -1.282437e-002
1.872541e+003, -1.215512e-002
1.874470e+003, -1.193050e-002
1.876398e+003, -1.186515e-002
1.878327e+003, -1.217790e-002
1.880255e+003, -1.216468e-002
1.882183e+003, -1.164256e-002
1.884112e+003, -1.254389e-002
1.886040e+003, -1.302124e-002
1.887969e+003, -1.305758e-002
1.889897e+003, -1.313328e-002
1.891826e+003, -1.241825e-002
1.893754e+003, -1.262304e-002
1.895683e+003, -1.262136e-002
1.897611e+003, -1.254874e-002
1.899540e+003, -1.369015e-002
1.901468e+003, -1.503872e-002
1.903397e+003, -1.431477e-002
1.905325e+003, -1.336201e-002
1.907254e+003, -1.422091e-002
1.909182e+003, -1.505221e-002
1.911110e+003, -1.460383e-002
1.913039e+003, -1.411986e-002
1.914967e+003, -1.367271e-002
1.916896e+003, -1.411117e-002
1.918824e+003, -1.413268e-002
1.920753e+003, -1.404939e-002
1.922681e+003, -1.430808e-002
1.924610e+003, -1.490070e-002
1.926538e+003, -1.446716e-002
1.928467e+003, -1.465735e-002
1.930395e+003, -1.513987e-002
1.932324e+003, -1.643243e-002
1.934252e+003, -1.579025e-002
1.936181e+003, -1.446535e-002
1.938109e+003, -1.417969e-002
1.940037e+003, -1.648574e-002
1.941966e+003, -1.855405e-002
1.943894e+003, -1.716813e-002
1.945823e+003, -1.547885e-002
1.947751e+003, -1.538462e-002
1.949680e+003, -1.684744e-002
1.951608e+003, -1.751950e-002
1.953537e+003, -1.594006e-002
1.955465e+003, -1.476882e-002
1.957394e+003, -1.761394e-002
1.959322e+003, -1.817385e-002
1.961251e+003, -1.704801e-002
1.963179e+003, -1.560523e-002
1.965108e+003, -1.440545e-002
1.967036e+003, -1.523737e-002
1.968964e+003, -1.802346e-002
1.970893e+003, -1.992155e-002
1.972821e+003, -1.855273e-002
1.974750e+003, -1.762334e-002
1.976678e+003, -1.942462e-002
1.978607e+003, -2.126865e-002
1.980535e+003, -1.925790e-002
1.982464e+003, -1.481185e-002
1.984392e+003, -1.583873e-002
1.986321e+003, -1.704185e-002
1.988249e+003, -1.716083e-002
1.990178e+003, -1.982529e-002
1.992106e+003, -2.194870e-002
1.994035e+003, -2.315965e-002
1.995963e+003, -2.125428e-002
1.997891e+003, -2.050871e-002
1.999820e+003, -1.952641e-002
2.001748e+003, -1.980895e-002
2.003677e+003, -2.183297e-002
2.005605e+003, -2.204819e-002
2.007534e+003, -1.974929e-002
2.009462e+003, -2.095054e-002
2.011391e+003, -1.998775e-002
2.013319e+003, -1.987070e-002
2.015248e+003, -1.986643e-002
2.017176e+003, -2.034320e-002
2.019105e+003, -2.040965e-002
2.021033e+003, -1.911916e-002
2.022962e+003, -1.787760e-002
2.024890e+003, -1.966630e-002
2.026818e+003, -2.043953e-002
2.028747e+003, -1.987990e-002
2.030675e+003, -1.998399e-002
2.032604e+003, -2.260190e-002
2.034532e+003, -2.184804e-002
2.036461e+003, -1.880276e-002
2.038389e+003, -1.754030e-002
2.040318e+003, -1.878787e-002
2.042246e+003, -1.879231e-002
2.044175e+003, -1.868280e-002
2.046103e+003, -2.035874e-002
2.048031e+003, -1.975295e-002
2.049960e+003, -1.690366e-002
2.051888e+003, -1.692664e-002
2.053817e+003, -1.541071e-002
2.055745e+003, -1.540523e-002
2.057674e+003, -1.741356e-002
2.059602e+003, -1.686157e-002
2.061531e+003, -1.676809e-002
2.063459e+003, -1.739097e-002
2.065388e+003, -1.668144e-002
2.067316e+003, -1.646233e-002
2.069245e+003, -1.677363e-002
2.071173e+003, -1.456514e-002
2.073102e+003, -1.499717e-002
2.075030e+003, -1.824437e-002
2.076958e+003, -1.685055e-002
2.078887e+003, -1.537010e-002
2.080815e+003, -1.740667e-002
2.082744e+003, -1.715896e-002
2.084672e+003, -1.549306e-002
2.086601e+003, -1.535807e-002
2.088529e+003, -1.500968e-002
2.090458e+003, -1.696836e-002
2.092386e+003, -1.831863e-002
2.094315e+003, -1.831301e-002
2.096243e+003, -1.610069e-002
2.098172e+003, -1.666435e-002
2.100100e+003, -1.905649e-002
2.102029e+003, -1.876454e-002
2.103957e+003, -1.590396e-002
2.105885e+003, -1.466609e-002
2.107814e+003, -1.495261e-002
2.109742e+003, -1.689523e-002
2.111671e+003, -1.835772e-002
2.113599e+003, -1.830556e-002
2.115528e+003, -1.757087e-002
2.117456e+003, -1.745582e-002
2.119385e+003, -1.743155e-002
2.121313e+003, -1.774110e-002
2.123242e+003, -1.840245e-002
2.125170e+003, -1.855810e-002
2.127099e+003, -1.772422e-002
2.129027e+003, -1.715050e-002
2.130956e+003, -1.706913e-002
2.132884e+003, -1.989774e-002
2.134813e+003, -2.159944e-002
2.136741e+003, -2.235157e-002
2.138669e+003, -2.184634e-002
2.140598e+003, -2.106179e-002
2.142526e+003, -2.095757e-002
2.144455e+003, -2.039004e-002
2.146383e+003, -1.861732e-002
2.148312e+003, -1.698164e-002
2.150240e+003, -1.702487e-002
2.152169e+003, -1.945438e-002
2.154097e+003, -2.099594e-002
2.156026e+003, -2.044002e-002
2.157954e+003, -1.864296e-002
2.159883e+003, -1.786772e-002
2.161811e+003, -1.392607e-002
2.163740e+003, -1.595692e-002
2.165668e+003, -1.909410e-002
2.167596e+003, -1.720298e-002
2.169525e+003, -1.420004e-002
2.171453e+003, -1.536414e-002
2.173382e+003, -1.685051e-002
2.175310e+003, -1.609858e-002
2.177239e+003, -1.658989e-002
2.179167e+003, -1.601510e-002
2.181096e+003, -1.617536e-002
2.183024e+003, -1.925704e-002
2.184953e+003, -2.159261e-002
2.186881e+003, -2.221353e-002
2.188810e+003, -2.130811e-002
2.190738e+003, -1.570753e-002
2.192667e+003, -1.536891e-002
2.194595e+003, -2.027250e-002
2.196523e+003, -1.944002e-002
2.198452e+003, -1.788649e-002
2.200380e+003, -1.664579e-002
2.202309e+003, -1.618754e-002
2.204237e+003, -1.589648e-002
2.206166e+003, -1.628640e-002
2.208094e+003, -1.714249e-002
2.210023e+003, -1.854578e-002
2.211951e+003, -1.823288e-002
2.213880e+003, -1.809862e-002
2.215808e+003, -1.610809e-002
2.217737e+003, -1.581494e-002
2.219665e+003, -1.590690e-002
2.221594e+003, -1.543744e-002
2.223522e+003, -1.647211e-002
2.225450e+003, -1.839624e-002
2.227379e+003, -1.832926e-002
2.229307e+003, -1.587726e-002
2.231236e+003, -1.545591e-002
2.233164e+003, -1.603785e-002
2.235093e+003, -1.638563e-002
2.237021e+003, -1.745152e-002
2.238950e+003, -1.643564e-002
2.240878e+003, -1.386660e-002
2.242807e+003, -1.427253e-002
2.244735e+003, -1.720666e-002
2.246664e+003, -1.823549e-002
2.248592e+003, -1.626281e-002
2.250521e+003, -1.536563e-002
2.252449e+003, -1.592768e-002
2.254377e+003, -1.623523e-002
2.256306e+003, -1.561589e-002
2.258234e+003, -1.600584e-002
2.260163e+003, -1.614880e-002
2.262091e+003, -1.586563e-002
2.264020e+003, -1.635883e-002
2.265948e+003, -1.717487e-002
2.267877e+003, -1.794764e-002
2.269805e+003, -1.657229e-002
2.271734e+003, -1.566443e-002
2.273662e+003, -1.705675e-002
2.275591e+003, -1.690231e-002
2.277519e+003, -1.562396e-002
2.279448e+003, -1.539234e-002
2.281376e+003, -1.486914e-002
2.283304e+003, -1.437881e-002
2.285233e+003, -1.410359e-002
2.287161e+003, -1.408336e-002
2.289090e+003, -1.472789e-002
2.291018e+003, -1.625493e-002
2.292947e+003, -1.620575e-002
2.294875e+003, -1.604693e-002
2.296804e+003, -1.644428e-002
2.298732e+003, -1.673534e-002
2.300661e+003, -1.635492e-002
2.302589e+003, -1.562545e-002
2.304518e+003, -1.612555e-002
2.306446e+003, -1.639311e-002
2.308375e+003, -1.629996e-002
2.310303e+003, -1.566581e-002
2.312231e+003, -1.524200e-002
2.314160e+003, -1.509837e-002
2.316088e+003, -1.535722e-002
2.318017e+003, -1.483962e-002
2.319945e+003, -1.410666e-002
2.321874e+003, -1.397591e-002
2.323802e+003, -1.383837e-002
2.325731e+003, -1.488057e-002
2.327659e+003, -1.568843e-002
2.329588e+003, -1.609299e-002
2.331516e+003, -1.558534e-002
2.333445e+003, -1.531330e-002
2.335373e+003, -1.583071e-002
2.337302e+003, -1.627584e-002
2.339230e+003, -1.664763e-002
2.341158e+003, -1.655687e-002
2.343087e+003, -1.644982e-002
2.345015e+003, -1.601792e-002
2.346944e+003, -1.550843e-002
2.348872e+003, -1.574321e-002
2.350801e+003, -1.597884e-002
2.352729e+003, -1.558766e-002
2.354658e+003, -1.548133e-002
2.356586e+003, -1.600679e-002
2.358515e+003, -1.596288e-002
2.360443e+003, -1.595283e-002
2.362372e+003, -1.645011e-002
2.364300e+003, -1.658881e-002
2.366229e+003, -1.634803e-002
2.368157e+003, -1.652522e-002
2.370085e+003, -1.628185e-002
2.372014e+003, -1.557802e-002
2.373942e+003, -1.574478e-002
2.375871e+003, -1.587184e-002
2.377799e+003, -1.534398e-002
2.379728e+003, -1.528596e-002
2.381656e+003, -1.532719e-002
2.383585e+003, -1.640078e-002
2.385513e+003, -1.725915e-002
2.387442e+003, -1.597477e-002
2.389370e+003, -1.502771e-002
2.391299e+003, -1.584335e-002
2.393227e+003, -1.686394e-002
2.395156e+003, -1.726834e-002
2.397084e+003, -1.682719e-002
2.399012e+003, -1.595231e-002
2.400941e+003, -1.409691e-002
2.402869e+003, -1.424921e-002
2.404798e+003, -1.507400e-002
2.406726e+003, -1.546755e-002
2.408655e+003, -1.607938e-002
2.410583e+003, -1.592313e-002
2.412512e+003, -1.530734e-002
2.414440e+003, -1.514280e-002
2.416369e+003, -1.576159e-002
2.418297e+003, -1.536647e-002
2.420226e+003, -1.516438e-002
2.422154e+003, -1.605505e-002
2.424083e+003, -1.634418e-002
2.426011e+003, -1.603335e-002
2.427939e+003, -1.594927e-002
2.429868e+003, -1.583830e-002
2.431796e+003, -1.607024e-002
2.433725e+003, -1.661815e-002
2.435653e+003, -1.646248e-002
2.437582e+003, -1.702620e-002
2.439510e+003, -1.677055e-002
2.441439e+003, -1.607356e-002
2.443367e+003, -1.538144e-002
2.445296e+003, -1.422927e-002
2.447224e+003, -1.469132e-002
2.449153e+003, -1.550783e-002
2.451081e+003, -1.504747e-002
2.453010e+003, -1.494118e-002
2.454938e+003, -1.541507e-002
2.456866e+003, -1.567228e-002
2.458795e+003, -1.642388e-002
2.460723e+003, -1.677730e-002
2.462652e+003, -1.667220e-002
2.464580e+003, -1.600873e-002
2.466509e+003, -1.454356e-002
2.468437e+003, -1.456066e-002
2.470366e+003, -1.593631e-002
2.472294e+003, -1.638361e-002
2.474223e+003, -1.639816e-002
2.476151e+003, -1.588406e-002
2.478080e+003, -1.453459e-002
2.480008e+003, -1.527974e-002
2.481937e+003, -1.593609e-002
2.483865e+003, -1.562316e-002
2.485793e+003, -1.509660e-002
2.487722e+003, -1.588811e-002
2.489650e+003, -1.675021e-002
2.491579e+003, -1.726997e-002
2.493507e+003, -1.697365e-002
2.495436e+003, -1.706394e-002
2.497364e+003, -1.745086e-002
2.499293e+003, -1.699543e-002
2.501221e+003, -1.766162e-002
2.503150e+003, -1.769531e-002
2.505078e+003, -1.689552e-002
2.507007e+003, -1.682117e-002
2.508935e+003, -1.787696e-002
2.510864e+003, -1.905811e-002
2.512792e+003, -1.855907e-002
2.514720e+003, -1.773202e-002
2.516649e+003, -1.745473e-002
2.518577e+003, -1.671753e-002
2.520506e+003, -1.515093e-002
2.522434e+003, -1.587160e-002
2.524363e+003, -1.643091e-002
2.526291e+003, -1.561359e-002
2.528220e+003, -1.551187e-002
2.530148e+003, -1.597897e-002
2.532077e+003, -1.691933e-002
2.534005e+003, -1.635057e-002
2.535934e+003, -1.706234e-002
2.537862e+003, -1.747681e-002
2.539791e+003, -1.624968e-002
2.541719e+003, -1.676330e-002
2.543647e+003, -1.761478e-002
2.545576e+003, -1.703195e-002
2.547504e+003, -1.658345e-002
2.549433e+003, -1.523342e-002
2.551361e+003, -1.578879e-002
2.553290e+003, -1.709023e-002
2.555218e+003, -1.650180e-002
2.557147e+003, -1.661642e-002
2.559075e+003, -1.659136e-002
2.561004e+003, -1.732309e-002
2.562932e+003, -1.708603e-002
2.564861e+003, -1.628077e-002
2.566789e+003, -1.577811e-002
2.568718e+003, -1.683196e-002
2.570646e+003, -1.789462e-002
2.572574e+003, -1.707611e-002
2.574503e+003, -1.676702e-002
2.576431e+003, -1.630046e-002
2.578360e+003, -1.657330e-002
2.580288e+003, -1.722018e-002
2.582217e+003, -1.750103e-002
2.584145e+003, -1.795261e-002
2.586074e+003, -1.876532e-002
2.588002e+003, -1.895689e-002
2.589931e+003, -1.840419e-002
2.591859e+003, -1.741342e-002
2.593788e+003, -1.655044e-002
2.595716e+003, -1.708275e-002
2.597645e+003, -1.720327e-002
2.599573e+003, -1.642158e-002
2.601501e+003, -1.646468e-002
2.603430e+003, -1.774340e-002
2.605358e+003, -1.775034e-002
2.607287e+003, -1.762910e-002
2.609215e+003, -1.800570e-002
2.611144e+003, -1.795352e-002
2.613072e+003, -1.604084e-002
2.615001e+003, -1.586506e-002
2.616929e+003, -1.682865e-002
2.618858e+003, -1.685841e-002
2.620786e+003, -1.679467e-002
2.622715e+003, -1.702476e-002
2.624643e+003, -1.717127e-002
2.626572e+003, -1.628193e-002
2.628500e+003, -1.579623e-002
2.630428e+003, -1.636934e-002
2.632357e+003, -1.800700e-002
2.634285e+003, -1.877690e-002
2.636214e+003, -1.712074e-002
2.638142e+003, -1.595909e-002
2.640071e+003, -1.648875e-002
2.641999e+003, -1.684271e-002
2.643928e+003, -1.634029e-002
2.645856e+003, -1.700103e-002
2.647785e+003, -1.722570e-002
2.649713e+003, -1.689353e-002
2.651642e+003, -1.663004e-002
2.653570e+003, -1.633349e-002
2.655499e+003, -1.580739e-002
2.657427e+003, -1.663239e-002
2.659355e+003, -1.768520e-002
2.661284e+003, -1.798404e-002
2.663212e+003, -1.742117e-002
2.665141e+003, -1.733896e-002
2.667069e+003, -1.766444e-002
2.668998e+003, -1.807030e-002
2.670926e+003, -1.800589e-002
2.672855e+003, -1.828630e-002
2.674783e+003, -1.814856e-002
2.676712e+003, -1.806314e-002
2.678640e+003, -1.803238e-002
2.680569e+003, -1.871007e-002
2.682497e+003, -1.925921e-002
2.684426e+003, -1.877550e-002
2.686354e+003, -1.776937e-002
2.688282e+003, -1.687564e-002
2.690211e+003, -1.747774e-002
2.692139e+003, -1.850507e-002
2.694068e+003, -1.843793e-002
2.695996e+003, -1.708201e-002
2.697925e+003, -1.698022e-002
2.699853e+003, -1.843913e-002
2.701782e+003, -1.971770e-002
2.703710e+003, -1.988575e-002
2.705639e+003, -1.946275e-002
2.707567e+003, -1.913976e-002
2.709496e+003, -1.812933e-002
2.711424e+003, -1.820478e-002
2.713353e+003, -1.807448e-002
2.715281e+003, -1.768644e-002
2.717209e+003, -1.801027e-002
2.719138e+003, -1.893406e-002
2.721066e+003, -1.833627e-002
2.722995e+003, -1.790332e-002
2.724923e+003, -1.853934e-002
2.726852e+003, -1.857941e-002
2.728780e+003, -1.752940e-002
2.730709e+003, -1.767899e-002
2.732637e+003, -1.824111e-002
2.734566e+003, -1.829671e-002
2.736494e+003, -1.801092e-002
2.738423e+003, -1.732158e-002
2.740351e+003, -1.729781e-002
2.742280e+003, -1.837168e-002
2.744208e+003, -1.935432e-002
2.746136e+003, -1.892791e-002
2.748065e+003, -1.852341e-002
2.749993e+003, -1.896795e-002
2.751922e+003, -1.990402e-002
2.753850e+003, -1.983657e-002
2.755779e+003, -1.896318e-002
2.757707e+003, -1.771622e-002
2.759636e+003, -1.668773e-002
2.761564e+003, -1.796159e-002
2.763493e+003, -1.908260e-002
2.765421e+003, -1.787005e-002
2.767350e+003, -1.759113e-002
2.769278e+003, -1.839813e-002
2.771207e+003, -1.813656e-002
2.773135e+003, -1.745240e-002
2.775063e+003, -1.803762e-002
2.776992e+003, -1.904486e-002
2.778920e+003, -1.953001e-002
2.780849e+003, -1.909017e-002
2.782777e+003, -1.860840e-002
2.784706e+003, -1.838204e-002
2.786634e+003, -1.733331e-002
2.788563e+003, -1.723783e-002
2.790491e+003, -1.699650e-002
2.792420e+003, -1.760988e-002
2.794348e+003, -1.829093e-002
2.796277e+003, -1.821393e-002
2.798205e+003, -1.846677e-002
2.800134e+003, -1.833008e-002
2.802062e+003, -1.814350e-002
2.803990e+003, -1.870753e-002
2.805919e+003, -1.897919e-002
2.807847e+003, -1.912202e-002
2.809776e+003, -1.909501e-002
2.811704e+003, -1.919680e-002
2.813633e+003, -1.875019e-002
2.815561e+003, -1.893474e-002
2.817490e+003, -1.931432e-002
2.819418e+003, -1.985792e-002
2.821347e+003, -1.944400e-002
2.823275e+003, -1.881979e-002
2.825204e+003, -1.835753e-002
2.827132e+003, -1.922080e-002
2.829061e+003, -1.968011e-002
2.830989e+003, -1.866723e-002
2.832917e+003, -1.822769e-002
2.834846e+003, -1.841916e-002
2.836774e+003, -1.875482e-002
2.838703e+003, -1.953288e-002
2.840631e+003, -1.969048e-002
2.842560e+003, -1.833427e-002
2.844488e+003, -1.746264e-002
2.846417e+003, -1.829791e-002
2.848345e+003, -1.889201e-002
2.850274e+003, -1.898023e-002
2.852202e+003, -1.787754e-002
2.854131e+003, -1.661921e-002
2.856059e+003, -1.704924e-002
2.857988e+003, -1.821740e-002
2.859916e+003, -1.784546e-002
2.861844e+003, -1.723968e-002
2.863773e+003, -1.719683e-002
2.865701e+003, -1.729644e-002
2.867630e+003, -1.695195e-002
2.869558e+003, -1.687574e-002
2.871487e+003, -1.719211e-002
2.873415e+003, -1.721098e-002
2.875344e+003, -1.682329e-002
2.877272e+003, -1.699814e-002
2.879201e+003, -1.704284e-002
2.881129e+003, -1.671303e-002
2.883058e+003, -1.762125e-002
2.884986e+003, -1.800369e-002
2.886915e+003, -1.706803e-002
2.888843e+003, -1.741988e-002
2.890771e+003, -1.765310e-002
2.892700e+003, -1.776410e-002
2.894628e+003, -1.684765e-002
2.896557e+003, -1.592841e-002
2.898485e+003, -1.646351e-002
2.900414e+003, -1.668748e-002
2.902342e+003, -1.715535e-002
2.904271e+003, -1.698836e-002
2.906199e+003, -1.733715e-002
2.908128e+003, -1.838573e-002
2.910056e+003, -1.785101e-002
2.911985e+003, -1.735025e-002
2.913913e+003, -1.708763e-002
2.915842e+003, -1.696606e-002
2.917770e+003, -1.734897e-002
2.919698e+003, -1.870770e-002
2.921627e+003, -1.892579e-002
2.923555e+003, -1.803821e-002
2.925484e+003, -1.618396e-002
2.927412e+003, -1.543514e-002
2.929341e+003, -1.554513e-002
2.931269e+003, -1.542026e-002
2.933198e+003, -1.677511e-002
2.935126e+003, -1.809637e-002
2.937055e+003, -1.749301e-002
2.938983e+003, -1.655589e-002
2.940912e+003, -1.650443e-002
2.942840e+003, -1.788809e-002
2.944769e+003, -1.920230e-002
2.946697e+003, -1.849273e-002
2.948625e+003, -1.700652e-002
2.950554e+003, -1.659482e-002
2.952482e+003, -1.638992e-002
2.954411e+003, -1.546231e-002
2.956339e+003, -1.592207e-002
2.958268e+003, -1.653177e-002
2.960196e+003, -1.679341e-002
2.962125e+003, -1.696738e-002
2.964053e+003, -1.635447e-002
2.965982e+003, -1.641906e-002
2.967910e+003, -1.752118e-002
2.969839e+003, -1.860295e-002
2.971767e+003, -1.818713e-002
2.973696e+003, -1.733186e-002
2.975624e+003, -1.781890e-002
2.977552e+003, -1.795879e-002
2.979481e+003, -1.870451e-002
2.981409e+003, -1.989258e-002
2.983338e+003, -1.913680e-002
2.985266e+003, -1.760315e-002
2.987195e+003, -1.743407e-002
2.989123e+003, -1.755994e-002
2.991052e+003, -1.728877e-002
2.992980e+003, -1.820910e-002
2.994909e+003, -1.831056e-002
2.996837e+003, -1.745664e-002
2.998766e+003, -1.764600e-002
3.000694e+003, -1.861609e-002
3.002623e+003, -1.822371e-002
3.004551e+003, -1.809974e-002
3.006479e+003, -1.862743e-002
3.008408e+003, -1.804825e-002
3.010336e+003, -1.677479e-002
3.012265e+003, -1.786278e-002
3.014193e+003, -1.999763e-002
3.016122e+003, -1.986997e-002
3.018050e+003, -1.857233e-002
3.019979e+003, -1.936878e-002
3.021907e+003, -1.969277e-002
3.023836e+003, -1.901880e-002
3.025764e+003, -1.834597e-002
3.027693e+003, -1.755887e-002
3.029621e+003, -1.742038e-002
3.031550e+003, -1.777807e-002
3.033478e+003, -1.757645e-002
3.035406e+003, -1.688550e-002
3.037335e+003, -1.765064e-002
3.039263e+003, -1.879997e-002
3.041192e+003, -1.851682e-002
3.043120e+003, -1.864529e-002
3.045049e+003, -1.818130e-002
3.046977e+003, -1.672119e-002
3.048906e+003, -1.684878e-002
3.050834e+003, -1.781606e-002
3.052763e+003, -1.678181e-002
3.054691e+003, -1.747953e-002
3.056620e+003, -1.890144e-002
3.058548e+003, -1.947444e-002
3.060477e+003, -1.857004e-002
3.062405e+003, -1.736183e-002
3.064333e+003, -1.755785e-002
3.066262e+003, -1.856146e-002
3.068190e+003, -1.839066e-002
3.070119e+003, -1.728085e-002
3.072047e+003, -1.774137e-002
3.073976e+003, -1.812122e-002
3.075904e+003, -1.806563e-002
3.077833e+003, -1.779783e-002
3.079761e+003, -1.700207e-002
3.081690e+003, -1.784764e-002
3.083618e+003, -1.840342e-002
3.085547e+003, -1.779320e-002
3.087475e+003, -1.774123e-002
3.089404e+003, -1.658847e-002
3.091332e+003, -1.647742e-002
3.093260e+003, -1.798099e-002
3.095189e+003, -1.930393e-002
3.097117e+003, -1.858186e-002
3.099046e+003, -1.615749e-002
3.100974e+003, -1.545335e-002
3.102903e+003, -1.748538e-002
3.104831e+003, -1.881239e-002
3.106760e+003, -1.935407e-002
3.108688e+003, -1.903494e-002
3.110617e+003, -1.926603e-002
3.112545e+003, -1.927889e-002
3.114474e+003, -1.733563e-002
3.116402e+003, -1.820008e-002
3.118331e+003, -1.775374e-002
3.120259e+003, -1.643694e-002
3.122188e+003, -1.755780e-002
3.124116e+003, -1.859356e-002
3.126044e+003, -1.735831e-002
3.127973e+003, -1.660177e-002
3.129901e+003, -1.770436e-002
3.131830e+003, -1.849780e-002
3.133758e+003, -1.827388e-002
3.135687e+003, -1.834602e-002
3.137615e+003, -1.779869e-002
3.139544e+003, -1.676429e-002
3.141472e+003, -1.666385e-002
3.143401e+003, -1.518014e-002
3.145329e+003, -1.506886e-002
3.147258e+003, -1.804585e-002
3.149186e+003, -1.867751e-002
3.151115e+003, -1.655512e-002
3.153043e+003, -1.619785e-002
3.154971e+003, -1.676231e-002
3.156900e+003, -1.567921e-002
3.158828e+003, -1.650889e-002
3.160757e+003, -1.866431e-002
3.162685e+003, -1.931132e-002
3.164614e+003, -1.870974e-002
3.166542e+003, -1.727052e-002
3.168471e+003, -1.599717e-002
3.170399e+003, -1.560771e-002
3.172328e+003, -1.596885e-002
3.174256e+003, -1.830963e-002
3.176185e+003, -1.837071e-002
3.178113e+003, -1.891597e-002
3.180042e+003, -1.962601e-002
3.181970e+003, -1.808734e-002
3.183898e+003, -1.741988e-002
3.185827e+003, -1.818428e-002
3.187755e+003, -1.710832e-002
3.189684e+003, -1.636259e-002
3.191612e+003, -1.799226e-002
3.193541e+003, -1.839445e-002
3.195469e+003, -1.749490e-002
3.197398e+003, -1.638184e-002
3.199326e+003, -1.529820e-002
3.201255e+003, -1.541966e-002
3.203183e+003, -1.640582e-002
3.205112e+003, -1.758764e-002
3.207040e+003, -1.610377e-002
3.208969e+003, -1.674866e-002
3.210897e+003, -1.721508e-002
3.212825e+003, -1.724897e-002
3.214754e+003, -1.800590e-002
3.216682e+003, -1.765755e-002
3.218611e+003, -1.659023e-002
3.220539e+003, -1.561745e-002
3.222468e+003, -1.609363e-002
3.224396e+003, -1.762077e-002
3.226325e+003, -1.883201e-002
3.228253e+003, -1.989983e-002
3.230182e+003, -1.989314e-002
3.232110e+003, -1.728037e-002
3.234039e+003, -1.493543e-002
3.235967e+003, -1.655636e-002
3.237896e+003, -1.759580e-002
3.239824e+003, -1.656559e-002
3.241752e+003, -1.606379e-002
3.243681e+003, -1.546181e-002
3.245609e+003, -1.579017e-002
3.247538e+003, -1.833473e-002
3.249466e+003, -1.804620e-002
3.251395e+003, -1.632000e-002
3.253323e+003, -1.629121e-002
3.255252e+003, -1.737053e-002
3.257180e+003, -1.731494e-002
3.259109e+003, -1.744989e-002
3.261037e+003, -1.723510e-002
3.262966e+003, -1.731237e-002
3.264894e+003, -1.746451e-002
3.266823e+003, -1.768319e-002
3.268751e+003, -1.847106e-002
3.270679e+003, -1.775620e-002
3.272608e+003, -1.627168e-002
3.274536e+003, -1.607188e-002
3.276465e+003, -1.615680e-002
3.278393e+003, -1.683977e-002
3.280322e+003, -1.814448e-002
3.282250e+003, -1.797570e-002
3.284179e+003, -1.774522e-002
3.286107e+003, -1.720184e-002
3.288036e+003, -1.603073e-002
3.289964e+003, -1.702330e-002
3.291893e+003, -1.678924e-002
3.293821e+003, -1.634490e-002
3.295750e+003, -1.667259e-002
3.297678e+003, -1.638737e-002
3.299606e+003, -1.551070e-002
3.301535e+003, -1.440796e-002
3.303463e+003, -1.423876e-002
3.305392e+003, -1.468857e-002
3.307320e+003, -1.609224e-002
3.309249e+003, -1.881181e-002
3.311177e+003, -1.870777e-002
3.313106e+003, -1.526061e-002
3.315034e+003, -1.440195e-002
3.316963e+003, -1.545116e-002
3.318891e+003, -1.524450e-002
3.320820e+003, -1.597708e-002
3.322748e+003, -1.700068e-002
3.324677e+003, -1.701055e-002
3.326605e+003, -1.642432e-002
3.328533e+003, -1.613689e-002
3.330462e+003, -1.641052e-002
3.332390e+003, -1.755615e-002
3.334319e+003, -1.638201e-002
3.336247e+003, -1.512032e-002
3.338176e+003, -1.476079e-002
3.340104e+003, -1.310276e-002
3.342033e+003, -1.556806e-002
3.343961e+003, -1.926567e-002
3.345890e+003, -1.728868e-002
3.347818e+003, -1.538329e-002
3.349747e+003, -1.417569e-002
3.351675e+003, -1.324852e-002
3.353604e+003, -1.431801e-002
3.355532e+003, -1.668959e-002
3.357460e+003, -1.717411e-002
3.359389e+003, -1.809883e-002
3.361317e+003, -1.775223e-002
3.363246e+003, -1.654518e-002
3.365174e+003, -1.687456e-002
3.367103e+003, -1.664004e-002
3.369031e+003, -1.505557e-002
3.370960e+003, -1.358638e-002
3.372888e+003, -1.432785e-002
3.374817e+003, -1.854880e-002
3.376745e+003, -1.981091e-002
3.378674e+003, -1.572445e-002
3.380602e+003, -1.509608e-002
3.382531e+003, -1.450687e-002
3.384459e+003, -1.396973e-002
3.386387e+003, -1.327966e-002
3.388316e+003, -1.355277e-002
3.390244e+003, -1.549588e-002
3.392173e+003, -1.607158e-002
3.394101e+003, -1.535704e-002
3.396030e+003, -1.604277e-002
3.397958e+003, -1.540769e-002
3.399887e+003, -1.528254e-002
3.401815e+003, -1.568784e-002
3.403744e+003, -1.432289e-002
3.405672e+003, -1.393467e-002
3.407601e+003, -1.473725e-002
3.409529e+003, -1.496470e-002
3.411458e+003, -1.601603e-002
3.413386e+003, -1.770573e-002
3.415314e+003, -1.759429e-002
3.417243e+003, -1.634424e-002
3.419171e+003, -1.681492e-002
3.421100e+003, -1.736666e-002
3.423028e+003, -1.681001e-002
3.424957e+003, -1.502589e-002
3.426885e+003, -1.530658e-002
3.428814e+003, -1.796256e-002
3.430742e+003, -1.863055e-002
3.432671e+003, -1.781453e-002
3.434599e+003, -1.567587e-002
3.436528e+003, -1.586426e-002
3.438456e+003, -1.597112e-002
3.440385e+003, -1.585601e-002
3.442313e+003, -1.751042e-002
3.444241e+003, -1.830337e-002
3.446170e+003, -1.556720e-002
3.448098e+003, -1.349244e-002
3.450027e+003, -1.238629e-002
3.451955e+003, -1.312617e-002
3.453884e+003, -1.749485e-002
3.455812e+003, -1.784286e-002
3.457741e+003, -1.543328e-002
3.459669e+003, -1.429584e-002
3.461598e+003, -1.608076e-002
3.463526e+003, -1.679838e-002
3.465455e+003, -1.584623e-002
3.467383e+003, -1.610650e-002
3.469312e+003, -1.394736e-002
3.471240e+003, -1.272798e-002
3.473168e+003, -1.417903e-002
3.475097e+003, -1.597543e-002
3.477025e+003, -1.632385e-002
3.478954e+003, -1.508659e-002
3.480882e+003, -1.427405e-002
3.482811e+003, -1.414946e-002
3.484739e+003, -1.389578e-002
3.486668e+003, -1.554501e-002
3.488596e+003, -1.445464e-002
3.490525e+003, -1.294365e-002
3.492453e+003, -1.349443e-002
3.494382e+003, -1.331573e-002
3.496310e+003, -1.355767e-002
3.498239e+003, -1.227553e-002
3.500167e+003, -1.227528e-002
3.502095e+003, -1.503689e-002
3.504024e+003, -1.405608e-002
3.505952e+003, -1.241264e-002
3.507881e+003, -1.355565e-002
3.509809e+003, -1.496177e-002
3.511738e+003, -1.598913e-002
3.513666e+003, -1.405312e-002
3.515595e+003, -1.452220e-002
3.517523e+003, -1.532758e-002
3.519452e+003, -1.380019e-002
3.521380e+003, -1.213959e-002
3.523309e+003, -1.258224e-002
3.525237e+003, -1.366637e-002
3.527166e+003, -1.195859e-002
3.529094e+003, -1.081026e-002
3.531022e+003, -1.361180e-002
3.532951e+003, -1.415414e-002
3.534879e+003, -1.265759e-002
3.536808e+003, -1.346567e-002
3.538736e+003, -1.329936e-002
3.540665e+003, -1.233293e-002
3.542593e+003, -1.252001e-002
3.544522e+003, -1.212791e-002
3.546450e+003, -1.323538e-002
3.548379e+003, -1.448572e-002
3.550307e+003, -1.463122e-002
3.552236e+003, -1.366383e-002
3.554164e+003, -1.514420e-002
3.556093e+003, -1.703293e-002
3.558021e+003, -1.586209e-002
3.559949e+003, -1.489913e-002
3.561878e+003, -1.657557e-002
3.563806e+003, -1.495398e-002
3.565735e+003, -1.326682e-002
3.567663e+003, -1.351096e-002
3.569592e+003, -1.326182e-002
3.571520e+003, -1.398419e-002
3.573449e+003, -1.608661e-002
3.575377e+003, -1.574469e-002
3.577306e+003, -1.573652e-002
3.579234e+003, -1.691679e-002
3.581163e+003, -1.847693e-002
3.583091e+003, -1.874145e-002
3.585020e+003, -1.669960e-002
3.586948e+003, -1.645411e-002
3.588876e+003, -1.572726e-002
3.590805e+003, -1.445995e-002
3.592733e+003, -1.505367e-002
3.594662e+003, -1.633958e-002
3.596590e+003, -1.326240e-002
3.598519e+003, -1.312078e-002
3.600447e+003, -1.251904e-002
3.602376e+003, -1.165579e-002
3.604304e+003, -1.547799e-002
3.606233e+003, -1.851394e-002
3.608161e+003, -1.742563e-002
3.610090e+003, -1.539209e-002
3.612018e+003, -1.454798e-002
3.613947e+003, -1.474533e-002
3.615875e+003, -1.412271e-002
3.617803e+003, -1.446534e-002
3.619732e+003, -1.461993e-002
3.621660e+003, -1.625911e-002
3.623589e+003, -1.854360e-002
3.625517e+003, -1.983525e-002
3.627446e+003, -2.007224e-002
3.629374e+003, -1.789599e-002
3.631303e+003, -1.905235e-002
3.633231e+003, -1.919091e-002
3.635160e+003, -1.722079e-002
3.637088e+003, -2.075348e-002
3.639017e+003, -2.519369e-002
3.640945e+003, -2.496066e-002
3.642874e+003, -2.201553e-002
3.644802e+003, -2.257363e-002
3.646730e+003, -2.542273e-002
3.648659e+003, -2.989222e-002
3.650587e+003, -3.068637e-002
3.652516e+003, -3.159913e-002
3.654444e+003, -3.291277e-002
3.656373e+003, -3.315036e-002
3.658301e+003, -3.043636e-002
3.660230e+003, -2.727516e-002
3.662158e+003, -2.929226e-002
3.664087e+003, -2.764518e-002
3.666015e+003, -2.600573e-002
3.667944e+003, -3.125765e-002
3.669872e+003, -3.274667e-002
3.671801e+003, -3.198599e-002
3.673729e+003, -3.117195e-002
3.675657e+003, -3.255523e-002
3.677586e+003, -3.334126e-002
3.679514e+003, -3.183581e-002
3.681443e+003, -3.098366e-002
3.683371e+003, -3.044618e-002
3.685300e+003, -3.019037e-002
3.687228e+003, -2.809340e-002
3.689157e+003, -2.864729e-002
3.691085e+003, -3.323355e-002
3.693014e+003, -3.316665e-002
3.694942e+003, -3.324081e-002
3.696871e+003, -3.484425e-002
3.698799e+003, -3.647712e-002
3.700728e+003, -3.588434e-002
3.702656e+003, -3.224853e-002
3.704584e+003, -3.104864e-002
3.706513e+003, -3.340204e-002
3.708441e+003, -3.564248e-002
3.710370e+003, -3.365835e-002
3.712298e+003, -3.111100e-002
3.714227e+003, -3.272536e-002
3.716155e+003, -3.276009e-002
3.718084e+003, -3.240656e-002
3.720012e+003, -3.410549e-002
3.721941e+003, -3.554061e-002
3.723869e+003, -3.673955e-002
3.725798e+003, -3.565690e-002
3.727726e+003, -3.196330e-002
3.729655e+003, -2.945793e-002
3.731583e+003, -3.219602e-002
3.733511e+003, -3.699648e-002
3.735440e+003, -3.742250e-002
3.737368e+003, -3.767584e-002
3.739297e+003, -3.688534e-002
3.741225e+003, -3.743371e-002
3.743154e+003, -3.667034e-002
3.745082e+003, -3.564019e-002
3.747011e+003, -3.731506e-002
3.748939e+003, -3.660205e-002
3.750868e+003, -3.411956e-002
3.752796e+003, -3.376481e-002
3.754725e+003, -3.186982e-002
3.756653e+003, -3.370905e-002
3.758582e+003, -3.451836e-002
3.760510e+003, -3.591366e-002
3.762438e+003, -3.831330e-002
3.764367e+003, -3.860535e-002
3.766295e+003, -3.850288e-002
3.768224e+003, -3.877904e-002
3.770152e+003, -3.599450e-002
3.772081e+003, -3.397370e-002
3.774009e+003, -3.466177e-002
3.775938e+003, -3.463562e-002
3.777866e+003, -3.543445e-002
3.779795e+003, -3.455095e-002
3.781723e+003, -3.500764e-002
3.783652e+003, -3.759687e-002
3.785580e+003, -3.562991e-002
3.787509e+003, -3.340695e-002
3.789437e+003, -3.578773e-002
3.791365e+003, -3.517609e-002
3.793294e+003, -3.309781e-002
3.795222e+003, -3.548328e-002
3.797151e+003, -3.505192e-002
3.799079e+003, -3.505087e-002
3.801008e+003, -3.665225e-002
3.802936e+003, -3.612567e-002
3.804865e+003, -3.620504e-002
3.806793e+003, -3.476600e-002
3.808722e+003, -3.356511e-002
3.810650e+003, -3.496775e-002
3.812579e+003, -3.616523e-002
3.814507e+003, -3.712912e-002
3.816436e+003, -3.593270e-002
3.818364e+003, -3.462525e-002
3.820292e+003, -3.640336e-002
3.822221e+003, -3.566728e-002
3.824149e+003, -3.419914e-002
3.826078e+003, -3.564768e-002
3.828006e+003, -3.673543e-002
3.829935e+003, -3.642596e-002
3.831863e+003, -3.663869e-002
3.833792e+003, -3.851208e-002
3.835720e+003, -3.774567e-002
3.837649e+003, -3.639085e-002
3.839577e+003, -3.627333e-002
3.841506e+003, -3.678878e-002
3.843434e+003, -3.644409e-002
3.845363e+003, -3.702313e-002
3.847291e+003, -3.643264e-002
3.849219e+003, -3.377103e-002
3.851148e+003, -3.141353e-002
3.853076e+003, -3.097175e-002
3.855005e+003, -3.416336e-002
3.856933e+003, -3.565020e-002
3.858862e+003, -3.766337e-002
3.860790e+003, -3.761778e-002
3.862719e+003, -3.698955e-002
3.864647e+003, -3.759701e-002
3.866576e+003, -3.998747e-002
3.868504e+003, -4.013108e-002
3.870433e+003, -3.750908e-002
3.872361e+003, -3.669189e-002
3.874290e+003, -3.459234e-002
3.876218e+003, -3.449908e-002
3.878146e+003, -3.486984e-002
3.880075e+003, -3.563490e-002
3.882003e+003, -3.709735e-002
3.883932e+003, -3.453558e-002
3.885860e+003, -3.505888e-002
3.887789e+003, -3.735034e-002
3.889717e+003, -3.763232e-002
3.891646e+003, -3.732307e-002
3.893574e+003, -3.855636e-002
3.895503e+003, -3.963565e-002
3.897431e+003, -3.744550e-002
3.899360e+003, -3.535365e-002
3.901288e+003, -3.669745e-002
3.903217e+003, -3.815661e-002
3.905145e+003, -3.849854e-002
3.907073e+003, -4.043714e-002
3.909002e+003, -4.085784e-002
3.910930e+003, -3.997920e-002
3.912859e+003, -4.113001e-002
3.914787e+003, -3.909668e-002
3.916716e+003, -3.617825e-002
3.918644e+003, -3.729622e-002
3.920573e+003, -4.033152e-002
3.922501e+003, -4.092611e-002
3.924430e+003, -3.820263e-002
3.926358e+003, -3.695199e-002
3.928287e+003, -3.781668e-002
3.930215e+003, -3.665974e-002
3.932144e+003, -3.735599e-002
3.934072e+003, -3.788640e-002
3.936000e+003, -3.726886e-002
3.937929e+003, -3.748793e-002
3.939857e+003, -3.886232e-002
3.941786e+003, -3.724991e-002
3.943714e+003, -3.540665e-002
3.945643e+003, -3.801177e-002
3.947571e+003, -3.641435e-002
3.949500e+003, -3.639307e-002
3.951428e+003, -3.925659e-002
3.953357e+003, -3.848948e-002
3.955285e+003, -3.864434e-002
3.957214e+003, -3.961302e-002
3.959142e+003, -4.147898e-002
3.961071e+003, -4.109044e-002
3.962999e+003, -3.865474e-002
3.964927e+003, -3.688117e-002
3.966856e+003, -3.846937e-002
3.968784e+003, -4.186188e-002
3.970713e+003, -4.120010e-002
3.972641e+003, -3.972669e-002
3.974570e+003, -3.944273e-002
3.976498e+003, -4.072540e-002
3.978427e+003, -4.048943e-002
3.980355e+003, -3.929969e-002
3.982284e+003, -3.955308e-002
3.984212e+003, -3.886888e-002
3.986141e+003, -4.067902e-002
3.988069e+003, -4.003307e-002
3.989998e+003, -3.974391e-002
3.991926e+003, -3.860163e-002
3.993854e+003, -3.869159e-002
3.995783e+003, -3.840663e-002
3.997711e+003, -3.991965e-002
3.999640e+003, -4.413895e-002
4.001568e+003, 0.000000e+000
##END=



