##NAMES=Andalusite
##RRUFFID=R050258
##IDEAL CHEMISTRY=Al_2_SiO_5_
##LOCALITY=Bautista Canyon, near Hemet, Riverside County, California, USA
##OWNER=RRUFF
##SOURCE=Marcus Origlieri
##DESCRIPTION=Brown fragment
##STATUS=The identification of this mineral has been confirmed by X-ray diffraction and chemical analysis
##URL=rruff.info/R050258
##MEASURED CHEMISTRY=Al_2.00_Si_1.00_O_5_
3.991926e+002, 0.000000e+000
4.011211e+002, 1.470387e-001
4.030496e+002, 1.477387e-001
4.049780e+002, 1.522608e-001
4.069065e+002, 1.553028e-001
4.088350e+002, 1.546812e-001
4.107634e+002, 1.544855e-001
4.126919e+002, 1.591137e-001
4.146204e+002, 1.600111e-001
4.165488e+002, 1.632726e-001
4.184773e+002, 1.668033e-001
4.204058e+002, 1.668254e-001
4.223342e+002, 1.638342e-001
4.242627e+002, 1.647209e-001
4.261912e+002, 1.665931e-001
4.281196e+002, 1.729101e-001
4.300481e+002, 1.791875e-001
4.319766e+002, 1.794249e-001
4.339050e+002, 1.776529e-001
4.358335e+002, 1.760130e-001
4.377620e+002, 1.747678e-001
4.396904e+002, 1.742194e-001
4.416189e+002, 1.703795e-001
4.435474e+002, 1.676823e-001
4.454758e+002, 1.664882e-001
4.474043e+002, 1.663301e-001
4.493328e+002, 1.655912e-001
4.512612e+002, 1.639767e-001
4.531897e+002, 1.629135e-001
4.551182e+002, 1.597249e-001
4.570466e+002, 1.492393e-001
4.589751e+002, 1.334383e-001
4.609036e+002, 1.178810e-001
4.628320e+002, 1.049156e-001
4.647605e+002, 9.700526e-002
4.666890e+002, 9.466818e-002
4.686174e+002, 9.423342e-002
4.705459e+002, 9.523790e-002
4.724744e+002, 9.667463e-002
4.744028e+002, 9.685880e-002
4.763313e+002, 9.694677e-002
4.782598e+002, 9.774962e-002
4.801882e+002, 9.847535e-002
4.821167e+002, 9.914870e-002
4.840452e+002, 9.929799e-002
4.859736e+002, 1.004971e-001
4.879021e+002, 1.009231e-001
4.898306e+002, 9.924661e-002
4.917590e+002, 9.807016e-002
4.936875e+002, 9.753192e-002
4.956160e+002, 9.527540e-002
4.975444e+002, 9.200396e-002
4.994729e+002, 8.845092e-002
5.014014e+002, 8.517341e-002
5.033298e+002, 8.241414e-002
5.052583e+002, 8.151075e-002
5.071868e+002, 8.266455e-002
5.091152e+002, 8.669422e-002
5.110437e+002, 9.623855e-002
5.129722e+002, 1.107139e-001
5.149006e+002, 1.270098e-001
5.168291e+002, 1.383123e-001
5.187576e+002, 1.392212e-001
5.206860e+002, 1.316715e-001
5.226145e+002, 1.209364e-001
5.245430e+002, 1.125593e-001
5.264714e+002, 1.079909e-001
5.283999e+002, 1.050541e-001
5.303284e+002, 1.025451e-001
5.322568e+002, 1.001479e-001
5.341853e+002, 9.803997e-002
5.361138e+002, 9.649395e-002
5.380422e+002, 9.503604e-002
5.399707e+002, 9.366080e-002
5.418992e+002, 9.250184e-002
5.438276e+002, 9.139595e-002
5.457561e+002, 9.032688e-002
5.476846e+002, 9.052636e-002
5.496130e+002, 9.222136e-002
5.515415e+002, 9.437369e-002
5.534700e+002, 9.635895e-002
5.553984e+002, 9.869685e-002
5.573269e+002, 1.021076e-001
5.592554e+002, 1.057627e-001
5.611838e+002, 1.059724e-001
5.631123e+002, 1.033154e-001
5.650408e+002, 1.021478e-001
5.669692e+002, 1.029827e-001
5.688977e+002, 1.046544e-001
5.708262e+002, 1.078021e-001
5.727546e+002, 1.108221e-001
5.746831e+002, 1.131828e-001
5.766116e+002, 1.156576e-001
5.785400e+002, 1.178030e-001
5.804685e+002, 1.197258e-001
5.823970e+002, 1.214117e-001
5.843254e+002, 1.225651e-001
5.862539e+002, 1.242545e-001
5.881824e+002, 1.259466e-001
5.901108e+002, 1.266839e-001
5.920393e+002, 1.271051e-001
5.939678e+002, 1.281129e-001
5.958962e+002, 1.291274e-001
5.978247e+002, 1.296170e-001
5.997532e+002, 1.300846e-001
6.016816e+002, 1.307980e-001
6.036101e+002, 1.316791e-001
6.055386e+002, 1.322852e-001
6.074670e+002, 1.328994e-001
6.093955e+002, 1.330115e-001
6.113240e+002, 1.326859e-001
6.132524e+002, 1.320494e-001
6.151809e+002, 1.316039e-001
6.171094e+002, 1.312698e-001
6.190378e+002, 1.306569e-001
6.209663e+002, 1.294006e-001
6.228948e+002, 1.281483e-001
6.248232e+002, 1.274340e-001
6.267517e+002, 1.264223e-001
6.286802e+002, 1.254524e-001
6.306086e+002, 1.247049e-001
6.325371e+002, 1.241098e-001
6.344656e+002, 1.233053e-001
6.363940e+002, 1.223197e-001
6.383225e+002, 1.218874e-001
6.402510e+002, 1.212773e-001
6.421794e+002, 1.200803e-001
6.441079e+002, 1.192391e-001
6.460364e+002, 1.184020e-001
6.479648e+002, 1.170625e-001
6.498933e+002, 1.158916e-001
6.518218e+002, 1.148636e-001
6.537502e+002, 1.139742e-001
6.556787e+002, 1.126783e-001
6.576072e+002, 1.109461e-001
6.595356e+002, 1.090957e-001
6.614641e+002, 1.078521e-001
6.633926e+002, 1.076209e-001
6.653210e+002, 1.081914e-001
6.672495e+002, 1.091029e-001
6.691780e+002, 1.097713e-001
6.711064e+002, 1.107232e-001
6.730349e+002, 1.114807e-001
6.749634e+002, 1.106574e-001
6.768918e+002, 1.087790e-001
6.788203e+002, 1.067233e-001
6.807488e+002, 1.049765e-001
6.826772e+002, 1.037031e-001
6.846057e+002, 1.025902e-001
6.865342e+002, 1.018391e-001
6.884626e+002, 1.010770e-001
6.903911e+002, 1.001952e-001
6.923196e+002, 9.964374e-002
6.942480e+002, 9.925986e-002
6.961765e+002, 9.872167e-002
6.981050e+002, 9.773401e-002
7.000334e+002, 9.677288e-002
7.019619e+002, 9.555731e-002
7.038904e+002, 9.426392e-002
7.058188e+002, 9.326447e-002
7.077473e+002, 9.185849e-002
7.096758e+002, 9.047951e-002
7.116042e+002, 8.939645e-002
7.135327e+002, 8.801691e-002
7.154612e+002, 8.641009e-002
7.173896e+002, 8.500864e-002
7.193181e+002, 8.396697e-002
7.212466e+002, 8.307646e-002
7.231750e+002, 8.191410e-002
7.251035e+002, 8.056115e-002
7.270320e+002, 7.910232e-002
7.289604e+002, 7.762877e-002
7.308889e+002, 7.604830e-002
7.328174e+002, 7.394943e-002
7.347458e+002, 7.143001e-002
7.366743e+002, 6.875583e-002
7.386028e+002, 6.539492e-002
7.405313e+002, 6.117870e-002
7.424597e+002, 5.673639e-002
7.443882e+002, 5.225189e-002
7.463167e+002, 4.761925e-002
7.482451e+002, 4.298369e-002
7.501736e+002, 3.910837e-002
7.521021e+002, 3.626873e-002
7.540305e+002, 3.432032e-002
7.559590e+002, 3.306615e-002
7.578875e+002, 3.230353e-002
7.598159e+002, 3.219894e-002
7.617444e+002, 3.309246e-002
7.636729e+002, 3.466223e-002
7.656013e+002, 3.679777e-002
7.675298e+002, 3.968059e-002
7.694583e+002, 4.306477e-002
7.713867e+002, 4.653272e-002
7.733152e+002, 4.916756e-002
7.752437e+002, 4.946175e-002
7.771721e+002, 4.680248e-002
7.791006e+002, 4.235135e-002
7.810291e+002, 3.763786e-002
7.829575e+002, 3.366777e-002
7.848860e+002, 3.091011e-002
7.868145e+002, 2.962486e-002
7.887429e+002, 2.925169e-002
7.906714e+002, 2.902542e-002
7.925999e+002, 2.876268e-002
7.945283e+002, 2.858614e-002
7.964568e+002, 2.868815e-002
7.983853e+002, 2.869744e-002
8.003137e+002, 2.874852e-002
8.022422e+002, 2.939123e-002
8.041707e+002, 3.035288e-002
8.060991e+002, 3.168963e-002
8.080276e+002, 3.337676e-002
8.099561e+002, 3.496151e-002
8.118845e+002, 3.621679e-002
8.138130e+002, 3.769248e-002
8.157415e+002, 3.901722e-002
8.176699e+002, 4.022048e-002
8.195984e+002, 4.201783e-002
8.215269e+002, 4.420827e-002
8.234553e+002, 4.622826e-002
8.253838e+002, 4.806259e-002
8.273123e+002, 5.033110e-002
8.292407e+002, 5.313704e-002
8.311692e+002, 5.576554e-002
8.330977e+002, 5.797499e-002
8.350261e+002, 6.068613e-002
8.369546e+002, 6.371839e-002
8.388831e+002, 6.645358e-002
8.408115e+002, 6.900270e-002
8.427400e+002, 7.172818e-002
8.446685e+002, 7.471768e-002
8.465969e+002, 7.806534e-002
8.485254e+002, 8.136668e-002
8.504539e+002, 8.486782e-002
8.523823e+002, 8.844978e-002
8.543108e+002, 9.216763e-002
8.562393e+002, 9.593017e-002
8.581677e+002, 9.956161e-002
8.600962e+002, 1.032123e-001
8.620247e+002, 1.066963e-001
8.639531e+002, 1.103909e-001
8.658816e+002, 1.137724e-001
8.678101e+002, 1.166496e-001
8.697385e+002, 1.192145e-001
8.716670e+002, 1.208841e-001
8.735955e+002, 1.218353e-001
8.755239e+002, 1.232966e-001
8.774524e+002, 1.250592e-001
8.793809e+002, 1.265665e-001
8.813093e+002, 1.277524e-001
8.832378e+002, 1.290769e-001
8.851663e+002, 1.307559e-001
8.870947e+002, 1.318927e-001
8.890232e+002, 1.328303e-001
8.909517e+002, 1.337186e-001
8.928801e+002, 1.340945e-001
8.948085e+002, 1.342617e-001
8.967370e+002, 1.343795e-001
8.986655e+002, 1.342474e-001
9.005939e+002, 1.338819e-001
9.025224e+002, 1.330807e-001
9.044509e+002, 1.317441e-001
9.063793e+002, 1.305030e-001
9.083078e+002, 1.297171e-001
9.102363e+002, 1.288913e-001
9.121647e+002, 1.281940e-001
9.140932e+002, 1.283180e-001
9.160217e+002, 1.294381e-001
9.179501e+002, 1.318112e-001
9.198786e+002, 1.358361e-001
9.218071e+002, 1.412176e-001
9.237355e+002, 1.475536e-001
9.256640e+002, 1.535183e-001
9.275925e+002, 1.575478e-001
9.295209e+002, 1.595472e-001
9.314494e+002, 1.596810e-001
9.333779e+002, 1.582827e-001
9.353063e+002, 1.558330e-001
9.372348e+002, 1.530997e-001
9.391633e+002, 1.507703e-001
9.410917e+002, 1.486358e-001
9.430202e+002, 1.462947e-001
9.449487e+002, 1.440377e-001
9.468771e+002, 1.421927e-001
9.488056e+002, 1.404608e-001
9.507341e+002, 1.387482e-001
9.526625e+002, 1.371091e-001
9.545910e+002, 1.352852e-001
9.565195e+002, 1.338715e-001
9.584479e+002, 1.327912e-001
9.603764e+002, 1.317260e-001
9.623049e+002, 1.315683e-001
9.642333e+002, 1.325276e-001
9.661618e+002, 1.345933e-001
9.680903e+002, 1.370201e-001
9.700187e+002, 1.384136e-001
9.719472e+002, 1.376192e-001
9.738757e+002, 1.347340e-001
9.758041e+002, 1.306390e-001
9.777326e+002, 1.263038e-001
9.796611e+002, 1.221010e-001
9.815895e+002, 1.180058e-001
9.835180e+002, 1.141204e-001
9.854465e+002, 1.105510e-001
9.873749e+002, 1.071998e-001
9.893034e+002, 1.038875e-001
9.912319e+002, 1.007243e-001
9.931603e+002, 9.775535e-002
9.950888e+002, 9.488592e-002
9.970173e+002, 9.189365e-002
9.989457e+002, 8.886264e-002
1.000874e+003, 8.608026e-002
1.002803e+003, 8.337170e-002
1.004731e+003, 8.068528e-002
1.006660e+003, 7.800615e-002
1.008588e+003, 7.539664e-002
1.010517e+003, 7.291717e-002
1.012445e+003, 7.050496e-002
1.014373e+003, 6.816548e-002
1.016302e+003, 6.586042e-002
1.018230e+003, 6.367601e-002
1.020159e+003, 6.155716e-002
1.022087e+003, 5.931818e-002
1.024016e+003, 5.724133e-002
1.025944e+003, 5.546991e-002
1.027873e+003, 5.382264e-002
1.029801e+003, 5.204901e-002
1.031730e+003, 5.025405e-002
1.033658e+003, 4.865097e-002
1.035587e+003, 4.706499e-002
1.037515e+003, 4.553330e-002
1.039444e+003, 4.398273e-002
1.041372e+003, 4.248025e-002
1.043301e+003, 4.110114e-002
1.045229e+003, 3.999673e-002
1.047157e+003, 3.906010e-002
1.049086e+003, 3.774399e-002
1.051014e+003, 3.648232e-002
1.052943e+003, 3.563716e-002
1.054871e+003, 3.445071e-002
1.056800e+003, 3.294068e-002
1.058728e+003, 3.158439e-002
1.060657e+003, 3.025692e-002
1.062585e+003, 2.928448e-002
1.064514e+003, 2.852733e-002
1.066442e+003, 2.762108e-002
1.068371e+003, 2.654372e-002
1.070299e+003, 2.542933e-002
1.072228e+003, 2.414625e-002
1.074156e+003, 2.283348e-002
1.076084e+003, 2.175425e-002
1.078013e+003, 2.065851e-002
1.079941e+003, 1.949544e-002
1.081870e+003, 1.841193e-002
1.083798e+003, 1.726074e-002
1.085727e+003, 1.639353e-002
1.087655e+003, 1.567797e-002
1.089584e+003, 1.503745e-002
1.091512e+003, 1.432206e-002
1.093441e+003, 1.350796e-002
1.095369e+003, 1.306107e-002
1.097298e+003, 1.266886e-002
1.099226e+003, 1.208075e-002
1.101155e+003, 1.171759e-002
1.103083e+003, 1.161941e-002
1.105011e+003, 1.150241e-002
1.106940e+003, 1.132284e-002
1.108868e+003, 1.104631e-002
1.110797e+003, 1.084698e-002
1.112725e+003, 1.073972e-002
1.114654e+003, 1.087812e-002
1.116582e+003, 1.112985e-002
1.118511e+003, 1.131835e-002
1.120439e+003, 1.117615e-002
1.122368e+003, 1.075631e-002
1.124296e+003, 1.039277e-002
1.126225e+003, 9.842098e-003
1.128153e+003, 9.184854e-003
1.130082e+003, 8.743244e-003
1.132010e+003, 8.476448e-003
1.133938e+003, 8.129232e-003
1.135867e+003, 7.765698e-003
1.137795e+003, 7.413233e-003
1.139724e+003, 7.148945e-003
1.141652e+003, 7.034519e-003
1.143581e+003, 6.923104e-003
1.145509e+003, 6.598470e-003
1.147438e+003, 6.260577e-003
1.149366e+003, 6.323314e-003
1.151295e+003, 6.224730e-003
1.153223e+003, 5.976902e-003
1.155152e+003, 5.897951e-003
1.157080e+003, 5.724519e-003
1.159009e+003, 5.663197e-003
1.160937e+003, 5.606094e-003
1.162865e+003, 5.421813e-003
1.164794e+003, 5.295374e-003
1.166722e+003, 5.252023e-003
1.168651e+003, 5.277277e-003
1.170579e+003, 5.137797e-003
1.172508e+003, 5.036186e-003
1.174436e+003, 4.865003e-003
1.176365e+003, 4.581023e-003
1.178293e+003, 4.574914e-003
1.180222e+003, 4.491217e-003
1.182150e+003, 4.502589e-003
1.184079e+003, 4.509323e-003
1.186007e+003, 4.453550e-003
1.187936e+003, 4.443691e-003
1.189864e+003, 4.454645e-003
1.191792e+003, 4.349809e-003
1.193721e+003, 4.122755e-003
1.195649e+003, 4.013714e-003
1.197578e+003, 4.027090e-003
1.199506e+003, 3.997365e-003
1.201435e+003, 4.025666e-003
1.203363e+003, 3.898582e-003
1.205292e+003, 3.656176e-003
1.207220e+003, 3.577935e-003
1.209149e+003, 3.548515e-003
1.211077e+003, 3.503081e-003
1.213006e+003, 3.472736e-003
1.214934e+003, 3.691930e-003
1.216863e+003, 3.659591e-003
1.218791e+003, 3.401894e-003
1.220719e+003, 3.288510e-003
1.222648e+003, 3.037264e-003
1.224576e+003, 2.969134e-003
1.226505e+003, 2.943116e-003
1.228433e+003, 2.971237e-003
1.230362e+003, 2.984115e-003
1.232290e+003, 2.924443e-003
1.234219e+003, 3.147582e-003
1.236147e+003, 3.340577e-003
1.238076e+003, 3.193239e-003
1.240004e+003, 3.077238e-003
1.241933e+003, 3.124336e-003
1.243861e+003, 3.000761e-003
1.245790e+003, 3.106529e-003
1.247718e+003, 3.195335e-003
1.249646e+003, 3.102195e-003
1.251575e+003, 2.981649e-003
1.253503e+003, 2.862643e-003
1.255432e+003, 2.960140e-003
1.257360e+003, 3.004438e-003
1.259289e+003, 2.872105e-003
1.261217e+003, 2.721675e-003
1.263146e+003, 2.855401e-003
1.265074e+003, 2.824841e-003
1.267003e+003, 2.628248e-003
1.268931e+003, 2.697569e-003
1.270860e+003, 2.818625e-003
1.272788e+003, 2.799125e-003
1.274717e+003, 2.973363e-003
1.276645e+003, 3.069105e-003
1.278573e+003, 3.068257e-003
1.280502e+003, 3.120028e-003
1.282430e+003, 3.066908e-003
1.284359e+003, 2.809124e-003
1.286287e+003, 2.743992e-003
1.288216e+003, 2.863480e-003
1.290144e+003, 2.901112e-003
1.292073e+003, 2.836411e-003
1.294001e+003, 2.791340e-003
1.295930e+003, 2.672788e-003
1.297858e+003, 2.672596e-003
1.299787e+003, 2.765700e-003
1.301715e+003, 2.807969e-003
1.303644e+003, 2.782350e-003
1.305572e+003, 2.703714e-003
1.307500e+003, 2.827454e-003
1.309429e+003, 2.940858e-003
1.311357e+003, 2.871634e-003
1.313286e+003, 2.965479e-003
1.315214e+003, 3.222780e-003
1.317143e+003, 3.238085e-003
1.319071e+003, 2.900110e-003
1.321000e+003, 2.735980e-003
1.322928e+003, 2.862262e-003
1.324857e+003, 2.968539e-003
1.326785e+003, 2.680504e-003
1.328714e+003, 2.481918e-003
1.330642e+003, 2.572913e-003
1.332571e+003, 2.698160e-003
1.334499e+003, 2.778467e-003
1.336427e+003, 2.855179e-003
1.338356e+003, 2.804369e-003
1.340284e+003, 2.748818e-003
1.342213e+003, 2.723868e-003
1.344141e+003, 2.818440e-003
1.346070e+003, 2.832468e-003
1.347998e+003, 2.871486e-003
1.349927e+003, 2.980406e-003
1.351855e+003, 3.009072e-003
1.353784e+003, 2.872651e-003
1.355712e+003, 2.661173e-003
1.357641e+003, 2.732642e-003
1.359569e+003, 2.863869e-003
1.361498e+003, 2.637470e-003
1.363426e+003, 2.607082e-003
1.365354e+003, 2.786451e-003
1.367283e+003, 2.850132e-003
1.369211e+003, 2.904096e-003
1.371140e+003, 2.901785e-003
1.373068e+003, 2.714340e-003
1.374997e+003, 2.591655e-003
1.376925e+003, 2.610691e-003
1.378854e+003, 2.632558e-003
1.380782e+003, 2.767300e-003
1.382711e+003, 2.835143e-003
1.384639e+003, 2.753612e-003
1.386568e+003, 2.865740e-003
1.388496e+003, 3.005971e-003
1.390424e+003, 3.026317e-003
1.392353e+003, 3.053084e-003
1.394281e+003, 3.103212e-003
1.396210e+003, 3.275987e-003
1.398138e+003, 3.456076e-003
1.400067e+003, 3.442938e-003
1.401995e+003, 3.326861e-003
1.403924e+003, 3.380661e-003
1.405852e+003, 3.664499e-003
1.407781e+003, 3.641400e-003
1.409709e+003, 3.587496e-003
1.411638e+003, 3.801569e-003
1.413566e+003, 4.046919e-003
1.415495e+003, 4.028006e-003
1.417423e+003, 4.207094e-003
1.419351e+003, 4.429148e-003
1.421280e+003, 4.378511e-003
1.423208e+003, 4.380696e-003
1.425137e+003, 4.508760e-003
1.427065e+003, 4.558180e-003
1.428994e+003, 4.527496e-003
1.430922e+003, 4.685520e-003
1.432851e+003, 4.840170e-003
1.434779e+003, 4.907711e-003
1.436708e+003, 5.146893e-003
1.438636e+003, 5.121262e-003
1.440565e+003, 5.097164e-003
1.442493e+003, 5.280608e-003
1.444422e+003, 5.297118e-003
1.446350e+003, 5.186243e-003
1.448278e+003, 5.260449e-003
1.450207e+003, 5.625729e-003
1.452135e+003, 5.709553e-003
1.454064e+003, 5.532686e-003
1.455992e+003, 5.414439e-003
1.457921e+003, 5.611346e-003
1.459849e+003, 5.760211e-003
1.461778e+003, 5.616101e-003
1.463706e+003, 5.414668e-003
1.465635e+003, 5.243482e-003
1.467563e+003, 5.400319e-003
1.469492e+003, 5.522970e-003
1.471420e+003, 5.482255e-003
1.473349e+003, 5.210099e-003
1.475277e+003, 5.147784e-003
1.477205e+003, 5.123804e-003
1.479134e+003, 5.061952e-003
1.481062e+003, 5.166830e-003
1.482991e+003, 5.137682e-003
1.484919e+003, 4.747971e-003
1.486848e+003, 4.535614e-003
1.488776e+003, 4.510775e-003
1.490705e+003, 4.460863e-003
1.492633e+003, 4.467439e-003
1.494562e+003, 4.316029e-003
1.496490e+003, 4.322905e-003
1.498419e+003, 4.280576e-003
1.500347e+003, 4.226404e-003
1.502276e+003, 4.265998e-003
1.504204e+003, 3.946209e-003
1.506132e+003, 3.798618e-003
1.508061e+003, 3.827945e-003
1.509989e+003, 3.850305e-003
1.511918e+003, 3.995905e-003
1.513846e+003, 4.067773e-003
1.515775e+003, 3.997341e-003
1.517703e+003, 3.839812e-003
1.519632e+003, 3.727466e-003
1.521560e+003, 3.795907e-003
1.523489e+003, 3.940831e-003
1.525417e+003, 4.018120e-003
1.527346e+003, 3.871011e-003
1.529274e+003, 3.896851e-003
1.531203e+003, 3.853097e-003
1.533131e+003, 3.632253e-003
1.535059e+003, 3.545519e-003
1.536988e+003, 3.510879e-003
1.538916e+003, 3.598179e-003
1.540845e+003, 3.596250e-003
1.542773e+003, 3.642223e-003
1.544702e+003, 3.773012e-003
1.546630e+003, 3.892305e-003
1.548559e+003, 3.831008e-003
1.550487e+003, 3.720471e-003
1.552416e+003, 3.743626e-003
1.554344e+003, 3.884484e-003
1.556273e+003, 3.935026e-003
1.558201e+003, 3.871700e-003
1.560130e+003, 4.001549e-003
1.562058e+003, 4.242460e-003
1.563986e+003, 4.406805e-003
1.565915e+003, 4.520650e-003
1.567843e+003, 4.527724e-003
1.569772e+003, 4.382558e-003
1.571700e+003, 4.434588e-003
1.573629e+003, 4.379827e-003
1.575557e+003, 4.407268e-003
1.577486e+003, 4.618458e-003
1.579414e+003, 4.716381e-003
1.581343e+003, 4.941787e-003
1.583271e+003, 4.827861e-003
1.585200e+003, 4.766693e-003
1.587128e+003, 4.942778e-003
1.589057e+003, 5.222847e-003
1.590985e+003, 5.251826e-003
1.592913e+003, 5.140263e-003
1.594842e+003, 5.127099e-003
1.596770e+003, 5.039384e-003
1.598699e+003, 4.941162e-003
1.600627e+003, 4.912951e-003
1.602556e+003, 4.908816e-003
1.604484e+003, 5.056384e-003
1.606413e+003, 4.982275e-003
1.608341e+003, 5.057094e-003
1.610270e+003, 5.225186e-003
1.612198e+003, 5.080053e-003
1.614127e+003, 4.890501e-003
1.616055e+003, 4.864383e-003
1.617984e+003, 4.945127e-003
1.619912e+003, 4.880226e-003
1.621840e+003, 4.685150e-003
1.623769e+003, 4.707850e-003
1.625697e+003, 4.908795e-003
1.627626e+003, 5.093067e-003
1.629554e+003, 5.028812e-003
1.631483e+003, 4.789903e-003
1.633411e+003, 4.514209e-003
1.635340e+003, 4.353341e-003
1.637268e+003, 4.376666e-003
1.639197e+003, 4.388334e-003
1.641125e+003, 4.211958e-003
1.643054e+003, 4.334745e-003
1.644982e+003, 4.501855e-003
1.646911e+003, 4.369073e-003
1.648839e+003, 4.300695e-003
1.650767e+003, 4.074832e-003
1.652696e+003, 4.061777e-003
1.654624e+003, 4.306480e-003
1.656553e+003, 4.450641e-003
1.658481e+003, 4.454144e-003
1.660410e+003, 4.693877e-003
1.662338e+003, 4.958790e-003
1.664267e+003, 4.788031e-003
1.666195e+003, 4.489035e-003
1.668124e+003, 4.397574e-003
1.670052e+003, 4.439683e-003
1.671981e+003, 4.429249e-003
1.673909e+003, 4.469080e-003
1.675838e+003, 4.414869e-003
1.677766e+003, 4.578548e-003
1.679694e+003, 4.781172e-003
1.681623e+003, 4.389068e-003
1.683551e+003, 4.012968e-003
1.685480e+003, 4.442809e-003
1.687408e+003, 4.296347e-003
1.689337e+003, 3.875639e-003
1.691265e+003, 3.927737e-003
1.693194e+003, 4.436160e-003
1.695122e+003, 4.398730e-003
1.697051e+003, 3.880175e-003
1.698979e+003, 4.001836e-003
1.700908e+003, 4.325496e-003
1.702836e+003, 4.149830e-003
1.704765e+003, 3.868345e-003
1.706693e+003, 3.933833e-003
1.708621e+003, 4.072555e-003
1.710550e+003, 3.921704e-003
1.712478e+003, 3.920765e-003
1.714407e+003, 3.969340e-003
1.716335e+003, 3.560764e-003
1.718264e+003, 3.312736e-003
1.720192e+003, 3.490508e-003
1.722121e+003, 3.794056e-003
1.724049e+003, 3.877636e-003
1.725978e+003, 4.035854e-003
1.727906e+003, 4.141323e-003
1.729835e+003, 3.965209e-003
1.731763e+003, 3.729886e-003
1.733692e+003, 3.529865e-003
1.735620e+003, 3.330245e-003
1.737548e+003, 3.356636e-003
1.739477e+003, 3.435894e-003
1.741405e+003, 3.432088e-003
1.743334e+003, 3.461973e-003
1.745262e+003, 3.490095e-003
1.747191e+003, 3.391538e-003
1.749119e+003, 3.447211e-003
1.751048e+003, 3.541077e-003
1.752976e+003, 3.313465e-003
1.754905e+003, 3.210345e-003
1.756833e+003, 3.455054e-003
1.758762e+003, 3.684000e-003
1.760690e+003, 3.468139e-003
1.762619e+003, 3.463985e-003
1.764547e+003, 3.639257e-003
1.766475e+003, 3.475564e-003
1.768404e+003, 3.723309e-003
1.770332e+003, 3.606758e-003
1.772261e+003, 3.374670e-003
1.774189e+003, 3.534044e-003
1.776118e+003, 3.462340e-003
1.778046e+003, 3.386826e-003
1.779975e+003, 3.386514e-003
1.781903e+003, 3.510065e-003
1.783832e+003, 3.554387e-003
1.785760e+003, 3.850888e-003
1.787689e+003, 4.086620e-003
1.789617e+003, 3.878961e-003
1.791546e+003, 3.659313e-003
1.793474e+003, 3.538569e-003
1.795402e+003, 3.492424e-003
1.797331e+003, 3.627053e-003
1.799259e+003, 3.684686e-003
1.801188e+003, 3.777435e-003
1.803116e+003, 3.731667e-003
1.805045e+003, 3.786473e-003
1.806973e+003, 4.033095e-003
1.808902e+003, 3.697027e-003
1.810830e+003, 3.717303e-003
1.812759e+003, 3.913430e-003
1.814687e+003, 3.795331e-003
1.816616e+003, 3.723239e-003
1.818544e+003, 4.061779e-003
1.820473e+003, 4.110040e-003
1.822401e+003, 3.947185e-003
1.824329e+003, 3.859209e-003
1.826258e+003, 4.041784e-003
1.828186e+003, 3.742130e-003
1.830115e+003, 3.837680e-003
1.832043e+003, 4.326144e-003
1.833972e+003, 3.676468e-003
1.835900e+003, 3.244265e-003
1.837829e+003, 3.693901e-003
1.839757e+003, 4.078663e-003
1.841686e+003, 4.232355e-003
1.843614e+003, 3.815275e-003
1.845543e+003, 3.356852e-003
1.847471e+003, 3.083247e-003
1.849400e+003, 2.991075e-003
1.851328e+003, 2.442403e-003
1.853256e+003, 2.697875e-003
1.855185e+003, 3.737121e-003
1.857113e+003, 3.666813e-003
1.859042e+003, 3.216378e-003
1.860970e+003, 3.264625e-003
1.862899e+003, 2.997416e-003
1.864827e+003, 2.741245e-003
1.866756e+003, 2.758381e-003
1.868684e+003, 2.580569e-003
1.870613e+003, 3.070813e-003
1.872541e+003, 3.527412e-003
1.874470e+003, 3.539460e-003
1.876398e+003, 3.378483e-003
1.878327e+003, 3.288415e-003
1.880255e+003, 3.353856e-003
1.882183e+003, 3.426643e-003
1.884112e+003, 2.916384e-003
1.886040e+003, 2.507055e-003
1.887969e+003, 2.789426e-003
1.889897e+003, 3.039736e-003
1.891826e+003, 2.690837e-003
1.893754e+003, 2.654350e-003
1.895683e+003, 2.650570e-003
1.897611e+003, 2.539987e-003
1.899540e+003, 2.240703e-003
1.901468e+003, 2.283744e-003
1.903397e+003, 2.642573e-003
1.905325e+003, 2.682758e-003
1.907254e+003, 2.979890e-003
1.909182e+003, 3.319200e-003
1.911110e+003, 3.010239e-003
1.913039e+003, 3.336645e-003
1.914967e+003, 3.260822e-003
1.916896e+003, 2.855090e-003
1.918824e+003, 2.522362e-003
1.920753e+003, 2.058681e-003
1.922681e+003, 1.652141e-003
1.924610e+003, 1.956559e-003
1.926538e+003, 2.273392e-003
1.928467e+003, 1.409861e-003
1.930395e+003, 1.220971e-003
1.932324e+003, 9.803220e-004
1.934252e+003, 2.922207e-004
1.936181e+003, 1.598875e-004
1.938109e+003, 8.858667e-004
1.940037e+003, 6.166908e-004
1.941966e+003, 5.862500e-004
1.943894e+003, 1.522575e-004
1.945823e+003, -2.838868e-004
1.947751e+003, 2.187856e-004
1.949680e+003, -5.176011e-004
1.951608e+003, -7.514334e-004
1.953537e+003, 1.797101e-003
1.955465e+003, 1.542076e-003
1.957394e+003, -1.320582e-003
1.959322e+003, -6.549713e-004
1.961251e+003, 1.001107e-003
1.963179e+003, 6.800274e-004
1.965108e+003, 7.515748e-004
1.967036e+003, -2.816310e-004
1.968964e+003, -1.372985e-003
1.970893e+003, -1.578005e-003
1.972821e+003, -1.005932e-003
1.974750e+003, -1.898445e-003
1.976678e+003, -3.345668e-003
1.978607e+003, 4.338806e-004
1.980535e+003, 2.393488e-003
1.982464e+003, 1.247111e-003
1.984392e+003, 1.463749e-003
1.986321e+003, 2.325666e-003
1.988249e+003, 2.033944e-003
1.990178e+003, 1.673312e-003
1.992106e+003, 1.599586e-003
1.994035e+003, 4.662134e-004
1.995963e+003, -3.221672e-005
1.997891e+003, 8.676101e-004
1.999820e+003, 6.531277e-004
2.001748e+003, 7.695227e-004
2.003677e+003, 2.180458e-003
2.005605e+003, 7.295414e-004
2.007534e+003, -5.277975e-005
2.009462e+003, 1.032626e-003
2.011391e+003, 2.373042e-003
2.013319e+003, 9.560483e-004
2.015248e+003, 1.019204e-003
2.017176e+003, 1.836463e-003
2.019105e+003, 1.658428e-003
2.021033e+003, 8.599747e-004
2.022962e+003, 8.252944e-004
2.024890e+003, 4.868036e-004
2.026818e+003, 1.490875e-004
2.028747e+003, -3.562470e-004
2.030675e+003, 8.464827e-004
2.032604e+003, 3.932055e-003
2.034532e+003, 4.274215e-003
2.036461e+003, 2.700774e-003
2.038389e+003, 3.729506e-003
2.040318e+003, 3.527764e-003
2.042246e+003, 2.493277e-003
2.044175e+003, 1.724764e-003
2.046103e+003, 2.820470e-003
2.048032e+003, 3.470356e-003
2.049960e+003, 3.535145e-003
2.051889e+003, 3.353771e-003
2.053817e+003, 3.742800e-003
2.055746e+003, 4.230844e-003
2.057674e+003, 3.259652e-003
2.059603e+003, 2.956097e-003
2.061531e+003, 2.620144e-003
2.063459e+003, 2.169487e-003
2.065388e+003, 2.382890e-003
2.067316e+003, 2.974406e-003
2.069245e+003, 3.095830e-003
2.071173e+003, 4.036789e-003
2.073102e+003, 5.066408e-003
2.075030e+003, 4.984155e-003
2.076959e+003, 4.445975e-003
2.078887e+003, 4.682047e-003
2.080816e+003, 4.394195e-003
2.082744e+003, 4.482574e-003
2.084673e+003, 4.458925e-003
2.086601e+003, 4.363182e-003
2.088530e+003, 5.363614e-003
2.090458e+003, 4.983461e-003
2.092386e+003, 3.661939e-003
2.094315e+003, 3.543570e-003
2.096243e+003, 4.292309e-003
2.098172e+003, 4.640339e-003
2.100100e+003, 4.518864e-003
2.102029e+003, 4.591485e-003
2.103957e+003, 5.033036e-003
2.105886e+003, 4.993756e-003
2.107814e+003, 4.629166e-003
2.109743e+003, 4.637177e-003
2.111671e+003, 4.299338e-003
2.113600e+003, 3.925423e-003
2.115528e+003, 4.752667e-003
2.117457e+003, 5.245550e-003
2.119385e+003, 3.535013e-003
2.121313e+003, 3.715906e-003
2.123242e+003, 4.913026e-003
2.125170e+003, 4.041181e-003
2.127099e+003, 3.593510e-003
2.129027e+003, 3.333733e-003
2.130956e+003, 3.100029e-003
2.132884e+003, 3.793692e-003
2.134813e+003, 3.505641e-003
2.136741e+003, 2.496687e-003
2.138670e+003, 3.524474e-003
2.140598e+003, 3.280595e-003
2.142527e+003, 2.556669e-003
2.144455e+003, 3.816331e-003
2.146384e+003, 4.541981e-003
2.148312e+003, 4.351284e-003
2.150240e+003, 3.082044e-003
2.152169e+003, 6.215061e-004
2.154097e+003, 1.081990e-003
2.156026e+003, 1.190985e-003
2.157954e+003, 1.951267e-003
2.159883e+003, 6.029029e-003
2.161811e+003, 7.540711e-003
2.163740e+003, 8.021155e-003
2.165668e+003, 7.894379e-003
2.167597e+003, 6.176248e-003
2.169525e+003, 3.973958e-003
2.171454e+003, 5.722846e-003
2.173382e+003, 6.534733e-003
2.175311e+003, 5.962768e-003
2.177239e+003, 5.546717e-003
2.179167e+003, 4.627632e-003
2.181096e+003, 3.224524e-003
2.183024e+003, 2.707334e-003
2.184953e+003, 4.156368e-003
2.186881e+003, 7.484454e-003
2.188810e+003, 7.742583e-003
2.190738e+003, 5.705868e-003
2.192667e+003, 6.371656e-003
2.194595e+003, 6.549718e-003
2.196524e+003, 6.292342e-003
2.198452e+003, 6.545020e-003
2.200381e+003, 5.664638e-003
2.202309e+003, 6.051024e-003
2.204238e+003, 6.154634e-003
2.206166e+003, 5.952711e-003
2.208094e+003, 6.265145e-003
2.210023e+003, 6.820397e-003
2.211951e+003, 6.070915e-003
2.213880e+003, 4.486092e-003
2.215808e+003, 4.735258e-003
2.217737e+003, 5.500787e-003
2.219665e+003, 5.532880e-003
2.221594e+003, 6.636580e-003
2.223522e+003, 6.961470e-003
2.225451e+003, 7.009391e-003
2.227379e+003, 6.217436e-003
2.229308e+003, 5.733582e-003
2.231236e+003, 6.018130e-003
2.233165e+003, 6.912599e-003
2.235093e+003, 6.215772e-003
2.237021e+003, 5.379392e-003
2.238950e+003, 6.249210e-003
2.240878e+003, 6.067110e-003
2.242807e+003, 6.298313e-003
2.244735e+003, 7.379966e-003
2.246664e+003, 7.286986e-003
2.248592e+003, 6.405794e-003
2.250521e+003, 5.254299e-003
2.252449e+003, 4.650945e-003
2.254378e+003, 5.460105e-003
2.256306e+003, 6.241788e-003
2.258235e+003, 6.301046e-003
2.260163e+003, 6.643334e-003
2.262092e+003, 7.057824e-003
2.264020e+003, 6.585517e-003
2.265948e+003, 5.625991e-003
2.267877e+003, 5.553735e-003
2.269805e+003, 6.499270e-003
2.271734e+003, 7.334335e-003
2.273662e+003, 7.074372e-003
2.275591e+003, 6.260138e-003
2.277519e+003, 6.042750e-003
2.279448e+003, 6.677152e-003
2.281376e+003, 7.272505e-003
2.283305e+003, 7.434356e-003
2.285233e+003, 7.001494e-003
2.287162e+003, 6.947269e-003
2.289090e+003, 7.014405e-003
2.291019e+003, 6.563549e-003
2.292947e+003, 6.467152e-003
2.294875e+003, 6.061732e-003
2.296804e+003, 5.962104e-003
2.298732e+003, 6.818028e-003
2.300661e+003, 6.978474e-003
2.302589e+003, 7.136124e-003
2.304518e+003, 7.236631e-003
2.306446e+003, 7.300684e-003
2.308375e+003, 7.779532e-003
2.310303e+003, 7.459598e-003
2.312232e+003, 7.272048e-003
2.314160e+003, 7.125167e-003
2.316089e+003, 6.982828e-003
2.318017e+003, 7.034063e-003
2.319946e+003, 7.478023e-003
2.321874e+003, 8.345606e-003
2.323802e+003, 8.523614e-003
2.325731e+003, 7.089208e-003
2.327659e+003, 6.301958e-003
2.329588e+003, 6.825757e-003
2.331516e+003, 6.595443e-003
2.333445e+003, 5.824576e-003
2.335373e+003, 5.968294e-003
2.337302e+003, 6.250646e-003
2.339230e+003, 5.945372e-003
2.341159e+003, 5.853021e-003
2.343087e+003, 6.031677e-003
2.345016e+003, 5.793424e-003
2.346944e+003, 6.039918e-003
2.348873e+003, 6.253690e-003
2.350801e+003, 6.496128e-003
2.352729e+003, 6.646750e-003
2.354658e+003, 5.854693e-003
2.356586e+003, 5.403577e-003
2.358515e+003, 5.716808e-003
2.360443e+003, 6.350802e-003
2.362372e+003, 6.286673e-003
2.364300e+003, 5.594139e-003
2.366229e+003, 5.649804e-003
2.368157e+003, 5.589186e-003
2.370086e+003, 5.407284e-003
2.372014e+003, 5.921589e-003
2.373942e+003, 6.478369e-003
2.375871e+003, 6.457773e-003
2.377799e+003, 6.595105e-003
2.379728e+003, 6.229230e-003
2.381656e+003, 6.549722e-003
2.383585e+003, 7.085111e-003
2.385513e+003, 6.451556e-003
2.387442e+003, 5.716912e-003
2.389370e+003, 6.056324e-003
2.391299e+003, 6.325623e-003
2.393227e+003, 6.328599e-003
2.395156e+003, 5.833450e-003
2.397084e+003, 6.127319e-003
2.399012e+003, 5.762616e-003
2.400941e+003, 5.140551e-003
2.402869e+003, 5.364974e-003
2.404798e+003, 6.708172e-003
2.406726e+003, 6.966462e-003
2.408655e+003, 6.143874e-003
2.410583e+003, 6.070472e-003
2.412512e+003, 6.587519e-003
2.414440e+003, 6.583904e-003
2.416369e+003, 6.643211e-003
2.418297e+003, 6.456055e-003
2.420226e+003, 6.139616e-003
2.422154e+003, 6.227853e-003
2.424083e+003, 6.060041e-003
2.426011e+003, 5.471445e-003
2.427939e+003, 6.070272e-003
2.429868e+003, 6.834526e-003
2.431796e+003, 7.041614e-003
2.433725e+003, 7.105633e-003
2.435653e+003, 7.150702e-003
2.437582e+003, 7.446787e-003
2.439510e+003, 7.641349e-003
2.441439e+003, 7.466693e-003
2.443367e+003, 7.646390e-003
2.445296e+003, 7.347770e-003
2.447224e+003, 6.974167e-003
2.449153e+003, 7.088113e-003
2.451081e+003, 7.461527e-003
2.453010e+003, 7.135516e-003
2.454938e+003, 6.517560e-003
2.456866e+003, 6.785169e-003
2.458795e+003, 6.814776e-003
2.460723e+003, 6.753975e-003
2.462652e+003, 5.919712e-003
2.464580e+003, 5.695230e-003
2.466509e+003, 6.425379e-003
2.468437e+003, 6.428722e-003
2.470366e+003, 6.066751e-003
2.472294e+003, 5.853049e-003
2.474223e+003, 6.028607e-003
2.476151e+003, 6.120667e-003
2.478080e+003, 6.575543e-003
2.480008e+003, 7.694928e-003
2.481937e+003, 7.574804e-003
2.483865e+003, 6.948360e-003
2.485793e+003, 6.369882e-003
2.487722e+003, 5.844604e-003
2.489650e+003, 5.811180e-003
2.491579e+003, 5.879667e-003
2.493507e+003, 6.379972e-003
2.495436e+003, 6.630677e-003
2.497364e+003, 7.257592e-003
2.499293e+003, 7.071514e-003
2.501221e+003, 5.775440e-003
2.503150e+003, 5.277268e-003
2.505078e+003, 5.929246e-003
2.507007e+003, 6.495966e-003
2.508935e+003, 6.427490e-003
2.510864e+003, 6.374666e-003
2.512792e+003, 6.150153e-003
2.514720e+003, 6.030146e-003
2.516649e+003, 5.840400e-003
2.518577e+003, 6.304377e-003
2.520506e+003, 6.902748e-003
2.522434e+003, 6.875736e-003
2.524363e+003, 6.730051e-003
2.526291e+003, 6.628025e-003
2.528220e+003, 6.461466e-003
2.530148e+003, 6.255328e-003
2.532077e+003, 6.071115e-003
2.534005e+003, 6.119947e-003
2.535934e+003, 6.299144e-003
2.537862e+003, 6.299314e-003
2.539791e+003, 7.061154e-003
2.541719e+003, 7.440702e-003
2.543647e+003, 7.055536e-003
2.545576e+003, 7.251695e-003
2.547504e+003, 7.772034e-003
2.549433e+003, 7.267260e-003
2.551361e+003, 6.504542e-003
2.553290e+003, 6.237102e-003
2.555218e+003, 7.126023e-003
2.557147e+003, 7.291140e-003
2.559075e+003, 6.989561e-003
2.561004e+003, 7.210148e-003
2.562932e+003, 7.539302e-003
2.564861e+003, 8.063323e-003
2.566789e+003, 7.874906e-003
2.568718e+003, 7.346868e-003
2.570646e+003, 7.199613e-003
2.572574e+003, 7.241333e-003
2.574503e+003, 7.098542e-003
2.576431e+003, 7.209019e-003
2.578360e+003, 7.003879e-003
2.580288e+003, 7.195951e-003
2.582217e+003, 7.144752e-003
2.584145e+003, 7.178524e-003
2.586074e+003, 7.929043e-003
2.588002e+003, 7.907098e-003
2.589931e+003, 7.909880e-003
2.591859e+003, 7.864219e-003
2.593788e+003, 7.552586e-003
2.595716e+003, 6.869538e-003
2.597645e+003, 6.767094e-003
2.599573e+003, 7.482994e-003
2.601501e+003, 7.637864e-003
2.603430e+003, 7.180971e-003
2.605358e+003, 6.906778e-003
2.607287e+003, 6.488186e-003
2.609215e+003, 6.392840e-003
2.611144e+003, 6.779678e-003
2.613072e+003, 6.717709e-003
2.615001e+003, 6.691649e-003
2.616929e+003, 6.923124e-003
2.618858e+003, 6.622538e-003
2.620786e+003, 6.436335e-003
2.622715e+003, 6.215053e-003
2.624643e+003, 6.502825e-003
2.626572e+003, 7.022036e-003
2.628500e+003, 7.023234e-003
2.630428e+003, 6.637795e-003
2.632357e+003, 6.666362e-003
2.634285e+003, 7.147801e-003
2.636214e+003, 7.325109e-003
2.638142e+003, 7.555400e-003
2.640071e+003, 7.618243e-003
2.641999e+003, 7.126532e-003
2.643928e+003, 7.085366e-003
2.645856e+003, 7.250329e-003
2.647785e+003, 6.855572e-003
2.649713e+003, 7.073481e-003
2.651642e+003, 7.492661e-003
2.653570e+003, 7.374676e-003
2.655499e+003, 6.630458e-003
2.657427e+003, 6.738706e-003
2.659355e+003, 7.301839e-003
2.661284e+003, 7.256003e-003
2.663212e+003, 6.935494e-003
2.665141e+003, 6.461599e-003
2.667069e+003, 7.004703e-003
2.668998e+003, 7.004738e-003
2.670926e+003, 6.631089e-003
2.672855e+003, 6.628477e-003
2.674783e+003, 6.951892e-003
2.676712e+003, 6.862985e-003
2.678640e+003, 6.995967e-003
2.680569e+003, 6.815504e-003
2.682497e+003, 6.931896e-003
2.684426e+003, 6.873745e-003
2.686354e+003, 6.708102e-003
2.688282e+003, 7.267243e-003
2.690211e+003, 7.803593e-003
2.692139e+003, 7.283367e-003
2.694068e+003, 6.218531e-003
2.695996e+003, 6.106851e-003
2.697925e+003, 6.410926e-003
2.699853e+003, 6.789733e-003
2.701782e+003, 7.165899e-003
2.703710e+003, 6.841907e-003
2.705639e+003, 6.876343e-003
2.707567e+003, 7.068674e-003
2.709496e+003, 6.741899e-003
2.711424e+003, 6.541243e-003
2.713353e+003, 6.537997e-003
2.715281e+003, 6.730300e-003
2.717209e+003, 7.077922e-003
2.719138e+003, 7.565165e-003
2.721066e+003, 7.634968e-003
2.722995e+003, 7.535591e-003
2.724923e+003, 7.524187e-003
2.726852e+003, 7.359029e-003
2.728780e+003, 6.933188e-003
2.730709e+003, 6.522657e-003
2.732637e+003, 6.088779e-003
2.734566e+003, 6.137780e-003
2.736494e+003, 6.509252e-003
2.738423e+003, 6.713461e-003
2.740351e+003, 6.324082e-003
2.742280e+003, 5.927820e-003
2.744208e+003, 6.327499e-003
2.746136e+003, 6.905221e-003
2.748065e+003, 7.002481e-003
2.749993e+003, 6.997999e-003
2.751922e+003, 6.934773e-003
2.753850e+003, 6.621505e-003
2.755779e+003, 6.651661e-003
2.757707e+003, 6.796413e-003
2.759636e+003, 7.240570e-003
2.761564e+003, 7.406849e-003
2.763493e+003, 7.238985e-003
2.765421e+003, 7.079431e-003
2.767350e+003, 7.131043e-003
2.769278e+003, 7.014563e-003
2.771207e+003, 6.819036e-003
2.773135e+003, 6.473826e-003
2.775063e+003, 6.409002e-003
2.776992e+003, 6.938206e-003
2.778920e+003, 7.509308e-003
2.780849e+003, 8.032122e-003
2.782777e+003, 7.846579e-003
2.784706e+003, 7.537903e-003
2.786634e+003, 7.443308e-003
2.788563e+003, 6.912080e-003
2.790491e+003, 7.023037e-003
2.792420e+003, 7.689096e-003
2.794348e+003, 7.507184e-003
2.796277e+003, 7.301006e-003
2.798205e+003, 7.352557e-003
2.800134e+003, 7.417554e-003
2.802062e+003, 7.466432e-003
2.803990e+003, 7.255112e-003
2.805919e+003, 6.742537e-003
2.807847e+003, 7.055364e-003
2.809776e+003, 7.185744e-003
2.811704e+003, 7.571874e-003
2.813633e+003, 7.980301e-003
2.815561e+003, 7.958092e-003
2.817490e+003, 7.569198e-003
2.819418e+003, 7.543218e-003
2.821347e+003, 7.799106e-003
2.823275e+003, 7.917678e-003
2.825204e+003, 8.082114e-003
2.827132e+003, 8.202719e-003
2.829061e+003, 7.890754e-003
2.830989e+003, 7.456560e-003
2.832917e+003, 7.134393e-003
2.834846e+003, 7.307934e-003
2.836774e+003, 7.676312e-003
2.838703e+003, 7.631370e-003
2.840631e+003, 7.657262e-003
2.842560e+003, 7.416610e-003
2.844488e+003, 7.427882e-003
2.846417e+003, 7.268935e-003
2.848345e+003, 7.329646e-003
2.850274e+003, 7.636466e-003
2.852202e+003, 7.293832e-003
2.854131e+003, 6.244394e-003
2.856059e+003, 6.368265e-003
2.857988e+003, 6.336203e-003
2.859916e+003, 6.698309e-003
2.861844e+003, 7.455270e-003
2.863773e+003, 7.621178e-003
2.865701e+003, 7.339681e-003
2.867630e+003, 7.389315e-003
2.869558e+003, 7.674093e-003
2.871487e+003, 7.414025e-003
2.873415e+003, 7.560152e-003
2.875344e+003, 7.728260e-003
2.877272e+003, 7.578466e-003
2.879201e+003, 7.728412e-003
2.881129e+003, 7.867909e-003
2.883058e+003, 7.590246e-003
2.884986e+003, 7.116464e-003
2.886915e+003, 7.260827e-003
2.888843e+003, 7.677939e-003
2.890771e+003, 7.751890e-003
2.892700e+003, 8.096915e-003
2.894628e+003, 7.603923e-003
2.896557e+003, 7.132420e-003
2.898485e+003, 7.139229e-003
2.900414e+003, 7.021559e-003
2.902342e+003, 6.863609e-003
2.904271e+003, 6.961379e-003
2.906199e+003, 7.173622e-003
2.908128e+003, 7.611189e-003
2.910056e+003, 6.977100e-003
2.911985e+003, 6.809203e-003
2.913913e+003, 7.900178e-003
2.915842e+003, 8.117076e-003
2.917770e+003, 6.889340e-003
2.919698e+003, 6.260881e-003
2.921627e+003, 5.843357e-003
2.923555e+003, 6.389788e-003
2.925484e+003, 6.762796e-003
2.927412e+003, 6.300578e-003
2.929341e+003, 6.053312e-003
2.931269e+003, 7.418745e-003
2.933198e+003, 7.456286e-003
2.935126e+003, 7.113306e-003
2.937055e+003, 7.127879e-003
2.938983e+003, 6.318456e-003
2.940912e+003, 5.885022e-003
2.942840e+003, 7.254160e-003
2.944769e+003, 7.690976e-003
2.946697e+003, 6.929409e-003
2.948625e+003, 6.132217e-003
2.950554e+003, 6.465694e-003
2.952482e+003, 6.226134e-003
2.954411e+003, 6.365432e-003
2.956339e+003, 7.393824e-003
2.958268e+003, 7.329043e-003
2.960196e+003, 5.920839e-003
2.962125e+003, 5.691089e-003
2.964053e+003, 6.576945e-003
2.965982e+003, 7.098373e-003
2.967910e+003, 7.208093e-003
2.969839e+003, 7.401763e-003
2.971767e+003, 7.373820e-003
2.973696e+003, 6.873360e-003
2.975624e+003, 6.606621e-003
2.977552e+003, 6.545009e-003
2.979481e+003, 6.868319e-003
2.981409e+003, 7.515263e-003
2.983338e+003, 7.621038e-003
2.985266e+003, 7.341708e-003
2.987195e+003, 7.220726e-003
2.989123e+003, 7.848796e-003
2.991052e+003, 7.228352e-003
2.992980e+003, 6.867975e-003
2.994909e+003, 7.187125e-003
2.996837e+003, 7.738638e-003
2.998766e+003, 7.458273e-003
3.000694e+003, 7.326753e-003
3.002623e+003, 7.722113e-003
3.004551e+003, 7.094445e-003
3.006479e+003, 7.541343e-003
3.008408e+003, 8.566440e-003
3.010336e+003, 8.603564e-003
3.012265e+003, 7.548024e-003
3.014193e+003, 6.695854e-003
3.016122e+003, 6.260925e-003
3.018050e+003, 6.786054e-003
3.019979e+003, 7.239646e-003
3.021907e+003, 6.170091e-003
3.023836e+003, 5.848255e-003
3.025764e+003, 6.169580e-003
3.027693e+003, 7.115739e-003
3.029621e+003, 7.273961e-003
3.031550e+003, 6.722840e-003
3.033478e+003, 6.646390e-003
3.035406e+003, 5.883091e-003
3.037335e+003, 5.784861e-003
3.039263e+003, 6.240455e-003
3.041192e+003, 6.484748e-003
3.043120e+003, 7.121489e-003
3.045049e+003, 6.797255e-003
3.046977e+003, 6.125354e-003
3.048906e+003, 5.933076e-003
3.050834e+003, 6.203889e-003
3.052763e+003, 6.139514e-003
3.054691e+003, 6.880145e-003
3.056620e+003, 7.873769e-003
3.058548e+003, 7.504538e-003
3.060477e+003, 5.765303e-003
3.062405e+003, 4.967194e-003
3.064333e+003, 5.016900e-003
3.066262e+003, 6.170314e-003
3.068190e+003, 7.853888e-003
3.070119e+003, 7.606497e-003
3.072047e+003, 6.722343e-003
3.073976e+003, 6.042454e-003
3.075904e+003, 5.199478e-003
3.077833e+003, 5.297993e-003
3.079761e+003, 6.750117e-003
3.081690e+003, 7.442546e-003
3.083618e+003, 6.900442e-003
3.085547e+003, 6.291396e-003
3.087475e+003, 6.099110e-003
3.089404e+003, 7.621739e-003
3.091332e+003, 7.877097e-003
3.093260e+003, 6.889333e-003
3.095189e+003, 6.717121e-003
3.097117e+003, 6.737094e-003
3.099046e+003, 6.627939e-003
3.100974e+003, 6.561144e-003
3.102903e+003, 6.859265e-003
3.104831e+003, 7.079574e-003
3.106760e+003, 7.046684e-003
3.108688e+003, 6.900429e-003
3.110617e+003, 6.909430e-003
3.112545e+003, 6.905823e-003
3.114474e+003, 6.505694e-003
3.116402e+003, 5.885509e-003
3.118331e+003, 5.261392e-003
3.120259e+003, 6.001092e-003
3.122188e+003, 6.707157e-003
3.124116e+003, 6.824343e-003
3.126044e+003, 6.406864e-003
3.127973e+003, 5.853953e-003
3.129901e+003, 6.460905e-003
3.131830e+003, 6.349073e-003
3.133758e+003, 7.072045e-003
3.135687e+003, 7.538673e-003
3.137615e+003, 7.228867e-003
3.139544e+003, 7.928008e-003
3.141472e+003, 8.259867e-003
3.143401e+003, 6.897518e-003
3.145329e+003, 7.222945e-003
3.147258e+003, 8.415777e-003
3.149186e+003, 7.878538e-003
3.151115e+003, 7.081356e-003
3.153043e+003, 7.390658e-003
3.154971e+003, 8.534576e-003
3.156900e+003, 8.335006e-003
3.158828e+003, 7.513721e-003
3.160757e+003, 6.625171e-003
3.162685e+003, 6.835927e-003
3.164614e+003, 7.811731e-003
3.166542e+003, 7.558896e-003
3.168471e+003, 7.195244e-003
3.170399e+003, 7.051793e-003
3.172328e+003, 7.392976e-003
3.174256e+003, 7.584466e-003
3.176185e+003, 6.219288e-003
3.178113e+003, 5.767100e-003
3.180042e+003, 6.022746e-003
3.181970e+003, 6.074395e-003
3.183898e+003, 6.821884e-003
3.185827e+003, 7.608331e-003
3.187755e+003, 7.256949e-003
3.189684e+003, 6.760414e-003
3.191612e+003, 6.775046e-003
3.193541e+003, 7.383362e-003
3.195469e+003, 7.659567e-003
3.197398e+003, 6.149642e-003
3.199326e+003, 4.838137e-003
3.201255e+003, 5.703095e-003
3.203183e+003, 6.798552e-003
3.205112e+003, 7.235827e-003
3.207040e+003, 6.751934e-003
3.208969e+003, 6.201815e-003
3.210897e+003, 6.452610e-003
3.212825e+003, 6.852685e-003
3.214754e+003, 7.230086e-003
3.216682e+003, 5.362227e-003
3.218611e+003, 4.635865e-003
3.220539e+003, 5.620519e-003
3.222468e+003, 6.690131e-003
3.224396e+003, 6.146516e-003
3.226325e+003, 5.228783e-003
3.228253e+003, 6.131595e-003
3.230182e+003, 7.065596e-003
3.232110e+003, 7.854871e-003
3.234039e+003, 6.958545e-003
3.235967e+003, 7.294591e-003
3.237896e+003, 8.328787e-003
3.239824e+003, 8.628809e-003
3.241752e+003, 7.362226e-003
3.243681e+003, 5.403215e-003
3.245609e+003, 5.400993e-003
3.247538e+003, 6.246779e-003
3.249466e+003, 6.498898e-003
3.251395e+003, 6.806874e-003
3.253323e+003, 6.634234e-003
3.255252e+003, 6.991336e-003
3.257180e+003, 7.959960e-003
3.259109e+003, 7.641639e-003
3.261037e+003, 7.994986e-003
3.262966e+003, 8.161088e-003
3.264894e+003, 7.471215e-003
3.266823e+003, 7.795495e-003
3.268751e+003, 7.822218e-003
3.270679e+003, 7.225772e-003
3.272608e+003, 7.587085e-003
3.274536e+003, 8.518081e-003
3.276465e+003, 8.029185e-003
3.278393e+003, 8.620726e-003
3.280322e+003, 9.388947e-003
3.282250e+003, 8.681281e-003
3.284179e+003, 7.248970e-003
3.286107e+003, 7.799867e-003
3.288036e+003, 7.914195e-003
3.289964e+003, 6.910400e-003
3.291893e+003, 5.891149e-003
3.293821e+003, 7.416530e-003
3.295750e+003, 9.093950e-003
3.297678e+003, 9.215012e-003
3.299606e+003, 9.760591e-003
3.301535e+003, 8.670155e-003
3.303463e+003, 7.808103e-003
3.305392e+003, 6.876491e-003
3.307320e+003, 6.998215e-003
3.309249e+003, 7.383477e-003
3.311177e+003, 7.055451e-003
3.313106e+003, 7.246531e-003
3.315034e+003, 7.453755e-003
3.316963e+003, 7.048603e-003
3.318891e+003, 7.216917e-003
3.320820e+003, 7.499147e-003
3.322748e+003, 7.493101e-003
3.324677e+003, 8.413944e-003
3.326605e+003, 8.621763e-003
3.328533e+003, 7.656376e-003
3.330462e+003, 7.092144e-003
3.332390e+003, 7.336863e-003
3.334319e+003, 6.652446e-003
3.336247e+003, 6.594246e-003
3.338176e+003, 7.645968e-003
3.340104e+003, 7.855383e-003
3.342033e+003, 8.200113e-003
3.343961e+003, 7.960171e-003
3.345890e+003, 7.272710e-003
3.347818e+003, 6.449091e-003
3.349747e+003, 6.724494e-003
3.351675e+003, 9.250754e-003
3.353604e+003, 9.796111e-003
3.355532e+003, 7.331145e-003
3.357460e+003, 6.117469e-003
3.359389e+003, 7.092306e-003
3.361317e+003, 7.613321e-003
3.363246e+003, 7.591173e-003
3.365174e+003, 7.637777e-003
3.367103e+003, 8.160007e-003
3.369031e+003, 7.812362e-003
3.370960e+003, 6.975550e-003
3.372888e+003, 7.787249e-003
3.374817e+003, 9.980166e-003
3.376745e+003, 1.026672e-002
3.378674e+003, 9.571512e-003
3.380602e+003, 7.497577e-003
3.382531e+003, 5.668722e-003
3.384459e+003, 6.826945e-003
3.386387e+003, 8.061995e-003
3.388316e+003, 7.737473e-003
3.390244e+003, 8.044969e-003
3.392173e+003, 8.570201e-003
3.394101e+003, 7.548498e-003
3.396030e+003, 7.297925e-003
3.397958e+003, 8.015076e-003
3.399887e+003, 8.145286e-003
3.401815e+003, 7.462956e-003
3.403744e+003, 7.094216e-003
3.405672e+003, 6.991003e-003
3.407601e+003, 6.072483e-003
3.409529e+003, 6.012399e-003
3.411458e+003, 6.714907e-003
3.413386e+003, 7.270991e-003
3.415314e+003, 7.255024e-003
3.417243e+003, 6.481684e-003
3.419171e+003, 6.507914e-003
3.421100e+003, 7.373392e-003
3.423028e+003, 7.169471e-003
3.424957e+003, 7.181339e-003
3.426885e+003, 5.963437e-003
3.428814e+003, 5.063137e-003
3.430742e+003, 6.320653e-003
3.432671e+003, 7.971574e-003
3.434599e+003, 8.419629e-003
3.436528e+003, 7.862166e-003
3.438456e+003, 7.142968e-003
3.440385e+003, 7.658559e-003
3.442313e+003, 8.578356e-003
3.444241e+003, 8.714526e-003
3.446170e+003, 8.686510e-003
3.448098e+003, 7.642790e-003
3.450027e+003, 6.776492e-003
3.451955e+003, 7.684181e-003
3.453884e+003, 7.760940e-003
3.455812e+003, 7.949421e-003
3.457741e+003, 7.306293e-003
3.459669e+003, 6.856365e-003
3.461598e+003, 7.825454e-003
3.463526e+003, 8.302703e-003
3.465455e+003, 7.949490e-003
3.467383e+003, 8.650777e-003
3.469312e+003, 8.000097e-003
3.471240e+003, 7.539790e-003
3.473168e+003, 8.200717e-003
3.475097e+003, 7.643342e-003
3.477025e+003, 7.733698e-003
3.478954e+003, 7.941910e-003
3.480882e+003, 7.489506e-003
3.482811e+003, 6.966730e-003
3.484739e+003, 6.724925e-003
3.486668e+003, 6.723189e-003
3.488596e+003, 7.172693e-003
3.490525e+003, 8.581961e-003
3.492453e+003, 8.648820e-003
3.494382e+003, 7.298702e-003
3.496310e+003, 8.345203e-003
3.498239e+003, 9.213705e-003
3.500167e+003, 7.729631e-003
3.502095e+003, 6.304963e-003
3.504024e+003, 5.637520e-003
3.505952e+003, 6.117000e-003
3.507881e+003, 7.361799e-003
3.509809e+003, 8.156135e-003
3.511738e+003, 6.726592e-003
3.513666e+003, 7.274495e-003
3.515595e+003, 8.453996e-003
3.517523e+003, 7.929383e-003
3.519452e+003, 6.621561e-003
3.521380e+003, 5.727503e-003
3.523309e+003, 6.280251e-003
3.525237e+003, 7.657882e-003
3.527166e+003, 7.608432e-003
3.529094e+003, 7.795316e-003
3.531022e+003, 8.189000e-003
3.532951e+003, 7.426959e-003
3.534879e+003, 6.635135e-003
3.536808e+003, 8.483480e-003
3.538736e+003, 8.298428e-003
3.540665e+003, 7.421811e-003
3.542593e+003, 6.969612e-003
3.544522e+003, 5.620389e-003
3.546450e+003, 5.995462e-003
3.548379e+003, 7.193871e-003
3.550307e+003, 6.973925e-003
3.552236e+003, 6.895654e-003
3.554164e+003, 8.211419e-003
3.556093e+003, 8.174183e-003
3.558021e+003, 7.511191e-003
3.559949e+003, 7.713428e-003
3.561878e+003, 7.941775e-003
3.563806e+003, 7.605297e-003
3.565735e+003, 5.277555e-003
3.567663e+003, 3.143528e-003
3.569592e+003, 4.047511e-003
3.571520e+003, 5.984748e-003
3.573449e+003, 7.372474e-003
3.575377e+003, 6.555345e-003
3.577306e+003, 5.928420e-003
3.579234e+003, 6.338712e-003
3.581163e+003, 6.205957e-003
3.583091e+003, 5.185807e-003
3.585020e+003, 6.088859e-003
3.586948e+003, 7.206445e-003
3.588876e+003, 7.261639e-003
3.590805e+003, 8.311552e-003
3.592733e+003, 7.616857e-003
3.594662e+003, 6.126707e-003
3.596590e+003, 6.163504e-003
3.598519e+003, 6.664820e-003
3.600447e+003, 6.091494e-003
3.602376e+003, 5.428303e-003
3.604304e+003, 5.963361e-003
3.606233e+003, 6.506652e-003
3.608161e+003, 7.778664e-003
3.610090e+003, 7.310787e-003
3.612018e+003, 5.888002e-003
3.613947e+003, 5.765331e-003
3.615875e+003, 5.001136e-003
3.617803e+003, 5.475455e-003
3.619732e+003, 6.014852e-003
3.621660e+003, 6.382621e-003
3.623589e+003, 7.682892e-003
3.625517e+003, 7.026906e-003
3.627446e+003, 6.312032e-003
3.629374e+003, 6.817766e-003
3.631303e+003, 6.950422e-003
3.633231e+003, 6.195003e-003
3.635160e+003, 4.216609e-003
3.637088e+003, 4.913202e-003
3.639017e+003, 5.058639e-003
3.640945e+003, 3.599359e-003
3.642874e+003, 5.962220e-003
3.644802e+003, 8.281753e-003
3.646730e+003, 8.620016e-003
3.648659e+003, 7.856129e-003
3.650587e+003, 6.588098e-003
3.652516e+003, 6.941475e-003
3.654444e+003, 6.587448e-003
3.656373e+003, 7.192792e-003
3.658301e+003, 7.510245e-003
3.660230e+003, 6.679139e-003
3.662158e+003, 7.344621e-003
3.664087e+003, 8.096407e-003
3.666015e+003, 7.081361e-003
3.667944e+003, 6.265063e-003
3.669872e+003, 7.717976e-003
3.671801e+003, 9.233748e-003
3.673729e+003, 1.041784e-002
3.675657e+003, 9.593872e-003
3.677586e+003, 5.729333e-003
3.679514e+003, 4.760090e-003
3.681443e+003, 4.887716e-003
3.683371e+003, 4.242487e-003
3.685300e+003, 4.849828e-003
3.687228e+003, 6.332766e-003
3.689157e+003, 8.790563e-003
3.691085e+003, 8.119305e-003
3.693014e+003, 6.867118e-003
3.694942e+003, 5.227203e-003
3.696871e+003, 4.689278e-003
3.698799e+003, 6.211947e-003
3.700728e+003, 6.893834e-003
3.702656e+003, 4.218891e-003
3.704584e+003, 2.542796e-003
3.706513e+003, 2.721367e-003
3.708441e+003, 2.905100e-003
3.710370e+003, 4.723335e-003
3.712298e+003, 4.929764e-003
3.714227e+003, 4.716264e-003
3.716155e+003, 6.357727e-003
3.718084e+003, 6.043053e-003
3.720012e+003, 3.843724e-003
3.721941e+003, 3.123808e-003
3.723869e+003, 1.973211e-003
3.725798e+003, 3.672930e-003
3.727726e+003, 4.777052e-003
3.729655e+003, 4.137725e-003
3.731583e+003, 4.078778e-003
3.733511e+003, 5.211211e-003
3.735440e+003, 5.083716e-003
3.737368e+003, 2.918213e-003
3.739297e+003, 3.465063e-003
3.741225e+003, 5.683722e-003
3.743154e+003, 5.242219e-003
3.745082e+003, 5.185377e-003
3.747011e+003, 3.282596e-003
3.748939e+003, 5.075898e-003
3.750868e+003, 6.116434e-003
3.752796e+003, 6.478422e-003
3.754725e+003, 5.559031e-003
3.756653e+003, 6.473221e-003
3.758582e+003, 6.705586e-003
3.760510e+003, 6.262730e-003
3.762438e+003, 3.739295e-003
3.764367e+003, 3.215408e-003
3.766295e+003, 5.299133e-003
3.768224e+003, 5.567149e-003
3.770152e+003, 3.964438e-003
3.772081e+003, 4.324391e-003
3.774009e+003, 4.662060e-003
3.775938e+003, 3.497472e-003
3.777866e+003, 2.627237e-003
3.779795e+003, 4.460443e-003
3.781723e+003, 4.795278e-003
3.783652e+003, 4.359331e-003
3.785580e+003, 3.908182e-003
3.787509e+003, 4.063860e-003
3.789437e+003, 3.379464e-003
3.791365e+003, 4.394790e-003
3.793294e+003, 4.226543e-003
3.795222e+003, 2.831859e-003
3.797151e+003, 4.648077e-003
3.799079e+003, 4.749336e-003
3.801008e+003, 5.261058e-003
3.802936e+003, 5.812234e-003
3.804865e+003, 4.285285e-003
3.806793e+003, 4.320549e-003
3.808722e+003, 4.391986e-003
3.810650e+003, 5.484635e-003
3.812579e+003, 5.813670e-003
3.814507e+003, 4.125435e-003
3.816436e+003, 4.642370e-003
3.818364e+003, 5.965170e-003
3.820292e+003, 6.210812e-003
3.822221e+003, 6.329944e-003
3.824149e+003, 5.444066e-003
3.826078e+003, 5.853345e-003
3.828006e+003, 5.607467e-003
3.829935e+003, 4.840634e-003
3.831863e+003, 4.526275e-003
3.833792e+003, 4.653687e-003
3.835720e+003, 6.301308e-003
3.837649e+003, 7.320901e-003
3.839577e+003, 7.509340e-003
3.841506e+003, 7.069804e-003
3.843434e+003, 5.643521e-003
3.845363e+003, 5.600692e-003
3.847291e+003, 6.558907e-003
3.849219e+003, 6.217834e-003
3.851148e+003, 2.609771e-003
3.853076e+003, 6.515201e-004
3.855005e+003, 3.090831e-003
3.856933e+003, 4.507034e-003
3.858862e+003, 3.904136e-003
3.860790e+003, 3.916215e-003
3.862719e+003, 4.759999e-003
3.864647e+003, 5.314597e-003
3.866576e+003, 5.286385e-003
3.868504e+003, 4.929138e-003
3.870433e+003, 6.604548e-003
3.872361e+003, 5.452917e-003
3.874290e+003, 4.201420e-003
3.876218e+003, 3.218833e-003
3.878146e+003, 1.996289e-003
3.880075e+003, 3.032328e-003
3.882003e+003, 4.443405e-003
3.883932e+003, 4.446651e-003
3.885860e+003, 3.314858e-003
3.887789e+003, 3.588715e-003
3.889717e+003, 4.594396e-003
3.891646e+003, 6.451785e-003
3.893574e+003, 6.681460e-003
3.895503e+003, 5.821016e-003
3.897431e+003, 2.923859e-003
3.899360e+003, 2.013215e-003
3.901288e+003, 4.387842e-003
3.903217e+003, 6.331508e-003
3.905145e+003, 6.523004e-003
3.907073e+003, 4.536077e-003
3.909002e+003, 3.656749e-003
3.910930e+003, 4.798622e-003
3.912859e+003, 6.203718e-003
3.914787e+003, 6.016585e-003
3.916716e+003, 4.182816e-003
3.918644e+003, 4.380847e-003
3.920573e+003, 5.385832e-003
3.922501e+003, 3.739537e-003
3.924430e+003, 1.252640e-003
3.926358e+003, 1.561530e-004
3.928287e+003, 1.647651e-003
3.930215e+003, 5.574355e-003
3.932144e+003, 7.218809e-003
3.934072e+003, 4.987877e-003
3.936000e+003, 2.398210e-003
3.937929e+003, 4.187418e-003
3.939857e+003, 5.748179e-003
3.941786e+003, 5.853717e-003
3.943714e+003, 7.074662e-003
3.945643e+003, 6.528782e-003
3.947571e+003, 5.066586e-003
3.949500e+003, 3.753769e-003
3.951428e+003, 4.092788e-003
3.953357e+003, 6.669863e-003
3.955285e+003, 6.506821e-003
3.957214e+003, 6.479767e-003
3.959142e+003, 7.906597e-003
3.961071e+003, 5.985464e-003
3.962999e+003, 3.678067e-003
3.964927e+003, 5.224410e-003
3.966856e+003, 6.200596e-003
3.968784e+003, 4.498457e-003
3.970713e+003, 4.788372e-003
3.972641e+003, 5.192855e-003
3.974570e+003, 3.293098e-003
3.976498e+003, 4.873578e-003
3.978427e+003, 7.336996e-003
3.980355e+003, 4.890100e-003
3.982284e+003, 1.682773e-003
3.984212e+003, 5.708342e-003
3.986141e+003, 9.156637e-003
3.988069e+003, 6.900219e-003
3.989998e+003, 4.038241e-003
3.991926e+003, 4.290883e-003
3.993854e+003, 5.649504e-003
3.995783e+003, 5.976568e-003
3.997711e+003, 5.851976e-003
3.999640e+003, 5.852847e-003
4.001568e+003, 0.000000e+000
##END=



