##NAMES=Anglesite
##RRUFFID=R050052
##IDEAL CHEMISTRY=Pb^2+^S^6+^O_4_
##LOCALITY=Touissite, Oujela, Morocco
##OWNER=RRUFF
##SOURCE=Eugene Schlepp
##DESCRIPTION=Yellow prismatic single crystal
##STATUS=The identification of this mineral has been confirmed by X-ray diffraction and chemical analysis
##URL=rruff.info/R050052
##MEASURED CHEMISTRY=Pb_1.00_S_1.00_O_4_
3.991926e+002, 0.000000e+000
4.011211e+002, 1.883976e-002
4.030496e+002, 1.887921e-002
4.049780e+002, 1.723428e-002
4.069065e+002, 1.858098e-002
4.088350e+002, 1.835260e-002
4.107634e+002, 2.037016e-002
4.126919e+002, 2.245065e-002
4.146204e+002, 2.197648e-002
4.165488e+002, 2.290159e-002
4.184773e+002, 2.517347e-002
4.204058e+002, 2.687956e-002
4.223342e+002, 2.630247e-002
4.242627e+002, 2.574308e-002
4.261912e+002, 2.714425e-002
4.281196e+002, 2.855317e-002
4.300481e+002, 2.994039e-002
4.319766e+002, 3.117156e-002
4.339050e+002, 3.362092e-002
4.358335e+002, 3.632051e-002
4.377620e+002, 3.830971e-002
4.396904e+002, 3.863877e-002
4.416189e+002, 3.683983e-002
4.435474e+002, 3.537794e-002
4.454758e+002, 3.522373e-002
4.474043e+002, 3.634244e-002
4.493328e+002, 3.744630e-002
4.512612e+002, 3.981863e-002
4.531897e+002, 4.346464e-002
4.551182e+002, 4.609855e-002
4.570466e+002, 4.774324e-002
4.589751e+002, 4.941959e-002
4.609036e+002, 5.227868e-002
4.628320e+002, 5.602106e-002
4.647605e+002, 5.765191e-002
4.666890e+002, 5.713558e-002
4.686174e+002, 5.682260e-002
4.705459e+002, 5.716663e-002
4.724744e+002, 5.739231e-002
4.744028e+002, 5.783082e-002
4.763313e+002, 5.895352e-002
4.782598e+002, 6.115333e-002
4.801882e+002, 6.337292e-002
4.821167e+002, 6.450403e-002
4.840452e+002, 6.615947e-002
4.859736e+002, 6.796314e-002
4.879021e+002, 6.897192e-002
4.898306e+002, 6.871965e-002
4.917590e+002, 6.856623e-002
4.936875e+002, 6.943136e-002
4.956160e+002, 7.108035e-002
4.975444e+002, 7.264276e-002
4.994729e+002, 7.438689e-002
5.014014e+002, 7.653405e-002
5.033298e+002, 7.907746e-002
5.052583e+002, 8.222542e-002
5.071868e+002, 8.631591e-002
5.091152e+002, 8.977452e-002
5.110437e+002, 9.293238e-002
5.129722e+002, 9.625565e-002
5.149006e+002, 9.968784e-002
5.168291e+002, 1.032321e-001
5.187576e+002, 1.071266e-001
5.206860e+002, 1.111014e-001
5.226145e+002, 1.147839e-001
5.245430e+002, 1.193706e-001
5.264714e+002, 1.248838e-001
5.283999e+002, 1.304778e-001
5.303284e+002, 1.360795e-001
5.322568e+002, 1.421201e-001
5.341853e+002, 1.489220e-001
5.361138e+002, 1.557444e-001
5.380422e+002, 1.626741e-001
5.399707e+002, 1.699772e-001
5.418992e+002, 1.775065e-001
5.438276e+002, 1.844822e-001
5.457561e+002, 1.913988e-001
5.476846e+002, 1.991042e-001
5.496130e+002, 2.071799e-001
5.515415e+002, 2.153979e-001
5.534700e+002, 2.244049e-001
5.553984e+002, 2.346889e-001
5.573269e+002, 2.459390e-001
5.592554e+002, 2.573727e-001
5.611838e+002, 2.672606e-001
5.631123e+002, 2.770695e-001
5.650408e+002, 2.888560e-001
5.669692e+002, 3.016319e-001
5.688977e+002, 3.142821e-001
5.708262e+002, 3.277025e-001
5.727546e+002, 3.419726e-001
5.746831e+002, 3.557104e-001
5.766116e+002, 3.686121e-001
5.785400e+002, 3.826216e-001
5.804685e+002, 3.973440e-001
5.823970e+002, 4.112684e-001
5.843254e+002, 4.219048e-001
5.862539e+002, 4.280917e-001
5.881824e+002, 4.302491e-001
5.901108e+002, 4.254248e-001
5.920393e+002, 4.091232e-001
5.939678e+002, 3.841243e-001
5.958962e+002, 3.537535e-001
5.978247e+002, 3.211164e-001
5.997532e+002, 2.870346e-001
6.016816e+002, 2.550186e-001
6.036101e+002, 2.265881e-001
6.055386e+002, 2.015486e-001
6.074670e+002, 1.802941e-001
6.093955e+002, 1.635848e-001
6.113240e+002, 1.525685e-001
6.132524e+002, 1.480310e-001
6.151809e+002, 1.508211e-001
6.171094e+002, 1.607099e-001
6.190378e+002, 1.756101e-001
6.209663e+002, 1.919975e-001
6.228948e+002, 2.067800e-001
6.248232e+002, 2.160986e-001
6.267517e+002, 2.177079e-001
6.286802e+002, 2.110438e-001
6.306086e+002, 1.961498e-001
6.325371e+002, 1.758463e-001
6.344656e+002, 1.518934e-001
6.363940e+002, 1.260573e-001
6.383225e+002, 9.987499e-002
6.402510e+002, 7.636241e-002
6.421794e+002, 5.819828e-002
6.441079e+002, 4.484333e-002
6.460364e+002, 3.569672e-002
6.479648e+002, 2.999326e-002
6.498933e+002, 2.654690e-002
6.518218e+002, 2.416971e-002
6.537502e+002, 2.223933e-002
6.556787e+002, 2.097046e-002
6.576072e+002, 2.065197e-002
6.595356e+002, 2.058812e-002
6.614641e+002, 2.082284e-002
6.633926e+002, 2.126893e-002
6.653210e+002, 2.169885e-002
6.672495e+002, 2.213761e-002
6.691780e+002, 2.166042e-002
6.711064e+002, 2.082260e-002
6.730349e+002, 2.001080e-002
6.749634e+002, 1.940717e-002
6.768918e+002, 1.928086e-002
6.788203e+002, 1.916610e-002
6.807488e+002, 1.906493e-002
6.826772e+002, 1.915204e-002
6.846057e+002, 1.931063e-002
6.865342e+002, 1.972803e-002
6.884626e+002, 2.012917e-002
6.903911e+002, 2.040558e-002
6.923196e+002, 2.110393e-002
6.942480e+002, 2.176667e-002
6.961765e+002, 2.223546e-002
6.981050e+002, 2.260481e-002
7.000334e+002, 2.296353e-002
7.019619e+002, 2.354556e-002
7.038904e+002, 2.420383e-002
7.058188e+002, 2.479905e-002
7.077473e+002, 2.510167e-002
7.096758e+002, 2.565823e-002
7.116042e+002, 2.627834e-002
7.135327e+002, 2.701493e-002
7.154612e+002, 2.780749e-002
7.173896e+002, 2.851863e-002
7.193181e+002, 2.932447e-002
7.212466e+002, 2.995888e-002
7.231750e+002, 3.074986e-002
7.251035e+002, 3.150721e-002
7.270320e+002, 3.245393e-002
7.289604e+002, 3.360283e-002
7.308889e+002, 3.451136e-002
7.328174e+002, 3.520313e-002
7.347458e+002, 3.579665e-002
7.366743e+002, 3.671399e-002
7.386028e+002, 3.773695e-002
7.405313e+002, 3.839465e-002
7.424597e+002, 3.912646e-002
7.443882e+002, 4.014761e-002
7.463167e+002, 4.119805e-002
7.482451e+002, 4.201281e-002
7.501736e+002, 4.274696e-002
7.521021e+002, 4.374523e-002
7.540305e+002, 4.464984e-002
7.559590e+002, 4.542215e-002
7.578875e+002, 4.646645e-002
7.598159e+002, 4.780994e-002
7.617444e+002, 4.914039e-002
7.636729e+002, 5.029740e-002
7.656013e+002, 5.147769e-002
7.675298e+002, 5.271949e-002
7.694583e+002, 5.396665e-002
7.713867e+002, 5.507772e-002
7.733152e+002, 5.611228e-002
7.752437e+002, 5.733462e-002
7.771721e+002, 5.842790e-002
7.791006e+002, 5.953263e-002
7.810291e+002, 6.101400e-002
7.829575e+002, 6.259250e-002
7.848860e+002, 6.399135e-002
7.868145e+002, 6.564102e-002
7.887429e+002, 6.693302e-002
7.906714e+002, 6.834413e-002
7.925999e+002, 6.981446e-002
7.945283e+002, 7.138105e-002
7.964568e+002, 7.309751e-002
7.983853e+002, 7.456993e-002
8.003137e+002, 7.599141e-002
8.022422e+002, 7.768807e-002
8.041707e+002, 7.959266e-002
8.060991e+002, 8.172113e-002
8.080276e+002, 8.373708e-002
8.099561e+002, 8.590201e-002
8.118845e+002, 8.787870e-002
8.138130e+002, 8.980157e-002
8.157415e+002, 9.189104e-002
8.176699e+002, 9.394087e-002
8.195984e+002, 9.624717e-002
8.215269e+002, 9.850825e-002
8.234553e+002, 1.007651e-001
8.253838e+002, 1.034933e-001
8.273123e+002, 1.057924e-001
8.292407e+002, 1.079797e-001
8.311692e+002, 1.108241e-001
8.330977e+002, 1.139221e-001
8.350261e+002, 1.168186e-001
8.369546e+002, 1.198644e-001
8.388831e+002, 1.229653e-001
8.408115e+002, 1.261191e-001
8.427400e+002, 1.287675e-001
8.446685e+002, 1.317845e-001
8.465969e+002, 1.353098e-001
8.485254e+002, 1.391288e-001
8.504539e+002, 1.434231e-001
8.523823e+002, 1.466837e-001
8.543108e+002, 1.492404e-001
8.562393e+002, 1.525732e-001
8.581677e+002, 1.566885e-001
8.600962e+002, 1.608183e-001
8.620247e+002, 1.648809e-001
8.639531e+002, 1.695833e-001
8.658816e+002, 1.742277e-001
8.678101e+002, 1.789249e-001
8.697385e+002, 1.839054e-001
8.716670e+002, 1.888084e-001
8.735955e+002, 1.935828e-001
8.755239e+002, 1.985219e-001
8.774524e+002, 2.039163e-001
8.793809e+002, 2.093811e-001
8.813093e+002, 2.144668e-001
8.832378e+002, 2.199976e-001
8.851663e+002, 2.257315e-001
8.870947e+002, 2.307599e-001
8.890232e+002, 2.359472e-001
8.909517e+002, 2.420577e-001
8.928801e+002, 2.478374e-001
8.948085e+002, 2.533371e-001
8.967370e+002, 2.590822e-001
8.986655e+002, 2.649664e-001
9.005939e+002, 2.705304e-001
9.025224e+002, 2.760777e-001
9.044509e+002, 2.818011e-001
9.063793e+002, 2.876690e-001
9.083078e+002, 2.936220e-001
9.102363e+002, 2.999165e-001
9.121647e+002, 3.065277e-001
9.140932e+002, 3.132927e-001
9.160217e+002, 3.199675e-001
9.179501e+002, 3.264662e-001
9.198786e+002, 3.326008e-001
9.218071e+002, 3.387733e-001
9.237355e+002, 3.451982e-001
9.256640e+002, 3.519559e-001
9.275925e+002, 3.586909e-001
9.295209e+002, 3.651844e-001
9.314494e+002, 3.712676e-001
9.333779e+002, 3.776330e-001
9.353063e+002, 3.849931e-001
9.372348e+002, 3.925228e-001
9.391633e+002, 4.008148e-001
9.410917e+002, 4.103813e-001
9.430202e+002, 4.202443e-001
9.449487e+002, 4.299878e-001
9.468771e+002, 4.396715e-001
9.488056e+002, 4.491507e-001
9.507341e+002, 4.590851e-001
9.526625e+002, 4.696745e-001
9.545910e+002, 4.809350e-001
9.565195e+002, 4.917750e-001
9.584479e+002, 5.020818e-001
9.603764e+002, 5.112674e-001
9.623049e+002, 5.170333e-001
9.642333e+002, 5.152949e-001
9.661618e+002, 5.000753e-001
9.680903e+002, 4.706444e-001
9.700187e+002, 4.404724e-001
9.719472e+002, 4.271389e-001
9.738757e+002, 4.340363e-001
9.758041e+002, 4.515488e-001
9.777326e+002, 4.717153e-001
9.796611e+002, 4.909407e-001
9.815895e+002, 5.075229e-001
9.835180e+002, 5.217527e-001
9.854465e+002, 5.340457e-001
9.873749e+002, 5.451841e-001
9.893034e+002, 5.550146e-001
9.912319e+002, 5.631241e-001
9.931603e+002, 5.704836e-001
9.950888e+002, 5.770636e-001
9.970173e+002, 5.817500e-001
9.989457e+002, 5.845473e-001
1.000874e+003, 5.866968e-001
1.002803e+003, 5.887635e-001
1.004731e+003, 5.911039e-001
1.006660e+003, 5.938084e-001
1.008588e+003, 5.970992e-001
1.010517e+003, 6.007044e-001
1.012445e+003, 6.039320e-001
1.014373e+003, 6.064921e-001
1.016302e+003, 6.088390e-001
1.018230e+003, 6.112799e-001
1.020159e+003, 6.129430e-001
1.022087e+003, 6.137415e-001
1.024016e+003, 6.130897e-001
1.025944e+003, 6.106239e-001
1.027873e+003, 6.069057e-001
1.029801e+003, 6.021805e-001
1.031730e+003, 5.972040e-001
1.033658e+003, 5.922075e-001
1.035587e+003, 5.866444e-001
1.037515e+003, 5.801662e-001
1.039444e+003, 5.726711e-001
1.041372e+003, 5.652357e-001
1.043301e+003, 5.579001e-001
1.045229e+003, 5.492412e-001
1.047157e+003, 5.395185e-001
1.049086e+003, 5.289550e-001
1.051014e+003, 5.177842e-001
1.052943e+003, 5.062115e-001
1.054871e+003, 4.946849e-001
1.056800e+003, 4.827954e-001
1.058728e+003, 4.708900e-001
1.060657e+003, 4.589436e-001
1.062585e+003, 4.472424e-001
1.064514e+003, 4.364596e-001
1.066442e+003, 4.260115e-001
1.068371e+003, 4.153747e-001
1.070299e+003, 4.047567e-001
1.072228e+003, 3.944445e-001
1.074156e+003, 3.850461e-001
1.076084e+003, 3.764275e-001
1.078013e+003, 3.679711e-001
1.079941e+003, 3.596794e-001
1.081870e+003, 3.515835e-001
1.083798e+003, 3.442371e-001
1.085727e+003, 3.373479e-001
1.087655e+003, 3.303166e-001
1.089584e+003, 3.235177e-001
1.091512e+003, 3.170510e-001
1.093441e+003, 3.105988e-001
1.095369e+003, 3.043912e-001
1.097298e+003, 2.985514e-001
1.099226e+003, 2.927767e-001
1.101155e+003, 2.871791e-001
1.103083e+003, 2.819454e-001
1.105011e+003, 2.767527e-001
1.106940e+003, 2.718675e-001
1.108868e+003, 2.672971e-001
1.110797e+003, 2.623999e-001
1.112725e+003, 2.576039e-001
1.114654e+003, 2.529923e-001
1.116582e+003, 2.484861e-001
1.118511e+003, 2.438482e-001
1.120439e+003, 2.388240e-001
1.122368e+003, 2.337071e-001
1.124296e+003, 2.288038e-001
1.126225e+003, 2.234447e-001
1.128153e+003, 2.178962e-001
1.130082e+003, 2.125767e-001
1.132010e+003, 2.074554e-001
1.133938e+003, 2.027751e-001
1.135867e+003, 1.986911e-001
1.137795e+003, 1.952484e-001
1.139724e+003, 1.925249e-001
1.141652e+003, 1.909255e-001
1.143581e+003, 1.903643e-001
1.145509e+003, 1.904759e-001
1.147438e+003, 1.916894e-001
1.149366e+003, 1.940828e-001
1.151295e+003, 1.971029e-001
1.153223e+003, 2.003990e-001
1.155152e+003, 2.034951e-001
1.157080e+003, 2.063011e-001
1.159009e+003, 2.088050e-001
1.160937e+003, 2.108274e-001
1.162865e+003, 2.117074e-001
1.164794e+003, 2.114063e-001
1.166722e+003, 2.103758e-001
1.168651e+003, 2.082958e-001
1.170579e+003, 2.050363e-001
1.172508e+003, 2.011737e-001
1.174436e+003, 1.966807e-001
1.176365e+003, 1.913597e-001
1.178293e+003, 1.860206e-001
1.180222e+003, 1.803832e-001
1.182150e+003, 1.742411e-001
1.184079e+003, 1.678377e-001
1.186007e+003, 1.613841e-001
1.187936e+003, 1.550274e-001
1.189864e+003, 1.485435e-001
1.191792e+003, 1.420149e-001
1.193721e+003, 1.356599e-001
1.195649e+003, 1.296409e-001
1.197578e+003, 1.236347e-001
1.199506e+003, 1.176011e-001
1.201435e+003, 1.119629e-001
1.203363e+003, 1.065252e-001
1.205292e+003, 1.015479e-001
1.207220e+003, 9.669086e-002
1.209149e+003, 9.127501e-002
1.211077e+003, 8.536281e-002
1.213006e+003, 7.898839e-002
1.214934e+003, 7.238460e-002
1.216863e+003, 6.570843e-002
1.218791e+003, 5.925969e-002
1.220719e+003, 5.333151e-002
1.222648e+003, 4.804769e-002
1.224576e+003, 4.349932e-002
1.226505e+003, 3.940807e-002
1.228433e+003, 3.566002e-002
1.230362e+003, 3.249445e-002
1.232290e+003, 2.958266e-002
1.234219e+003, 2.718732e-002
1.236147e+003, 2.512300e-002
1.238076e+003, 2.307816e-002
1.240004e+003, 2.129887e-002
1.241933e+003, 1.983855e-002
1.243861e+003, 1.843172e-002
1.245790e+003, 1.733036e-002
1.247718e+003, 1.619741e-002
1.249646e+003, 1.499097e-002
1.251575e+003, 1.404662e-002
1.253503e+003, 1.322095e-002
1.255432e+003, 1.241526e-002
1.257360e+003, 1.176580e-002
1.259289e+003, 1.100913e-002
1.261217e+003, 1.024562e-002
1.263146e+003, 9.694356e-003
1.265074e+003, 9.135271e-003
1.267003e+003, 8.615916e-003
1.268931e+003, 8.243392e-003
1.270860e+003, 7.927920e-003
1.272788e+003, 7.598463e-003
1.274717e+003, 7.301113e-003
1.276645e+003, 7.204157e-003
1.278573e+003, 6.807466e-003
1.280502e+003, 6.584622e-003
1.282430e+003, 6.616104e-003
1.284359e+003, 6.407230e-003
1.286287e+003, 6.017281e-003
1.288216e+003, 5.845997e-003
1.290144e+003, 5.845618e-003
1.292073e+003, 5.796723e-003
1.294001e+003, 5.872946e-003
1.295930e+003, 5.670638e-003
1.297858e+003, 5.342261e-003
1.299787e+003, 5.392713e-003
1.301715e+003, 5.398884e-003
1.303644e+003, 5.234470e-003
1.305572e+003, 5.353108e-003
1.307500e+003, 5.535713e-003
1.309429e+003, 5.415238e-003
1.311357e+003, 5.338748e-003
1.313286e+003, 5.410283e-003
1.315214e+003, 5.521626e-003
1.317143e+003, 5.371905e-003
1.319071e+003, 5.128579e-003
1.321000e+003, 5.064341e-003
1.322928e+003, 5.242463e-003
1.324857e+003, 5.193678e-003
1.326785e+003, 5.217005e-003
1.328714e+003, 5.100895e-003
1.330642e+003, 5.062349e-003
1.332571e+003, 5.158158e-003
1.334499e+003, 5.263124e-003
1.336427e+003, 5.422890e-003
1.338356e+003, 5.427100e-003
1.340284e+003, 5.392494e-003
1.342213e+003, 5.517270e-003
1.344141e+003, 5.620555e-003
1.346070e+003, 5.420696e-003
1.347998e+003, 5.515369e-003
1.349927e+003, 5.667896e-003
1.351855e+003, 5.460295e-003
1.353784e+003, 5.384076e-003
1.355712e+003, 5.458699e-003
1.357641e+003, 5.597945e-003
1.359569e+003, 5.580946e-003
1.361498e+003, 5.430076e-003
1.363426e+003, 5.636469e-003
1.365354e+003, 5.873717e-003
1.367283e+003, 5.909082e-003
1.369211e+003, 6.013252e-003
1.371140e+003, 6.144019e-003
1.373068e+003, 6.194870e-003
1.374997e+003, 6.252803e-003
1.376925e+003, 6.409859e-003
1.378854e+003, 6.813561e-003
1.380782e+003, 7.048991e-003
1.382711e+003, 6.960482e-003
1.384639e+003, 6.858225e-003
1.386568e+003, 6.761249e-003
1.388496e+003, 7.195877e-003
1.390424e+003, 7.357107e-003
1.392353e+003, 7.252159e-003
1.394281e+003, 7.144784e-003
1.396210e+003, 7.258405e-003
1.398138e+003, 7.325470e-003
1.400067e+003, 7.481241e-003
1.401995e+003, 7.354830e-003
1.403924e+003, 7.549548e-003
1.405852e+003, 7.953739e-003
1.407781e+003, 8.006985e-003
1.409709e+003, 7.742324e-003
1.411638e+003, 7.595614e-003
1.413566e+003, 7.544737e-003
1.415495e+003, 7.408869e-003
1.417423e+003, 7.278832e-003
1.419351e+003, 7.536459e-003
1.421280e+003, 7.677772e-003
1.423208e+003, 7.722340e-003
1.425137e+003, 7.874235e-003
1.427065e+003, 7.666009e-003
1.428994e+003, 7.494117e-003
1.430922e+003, 7.805910e-003
1.432851e+003, 8.020269e-003
1.434779e+003, 7.777501e-003
1.436708e+003, 7.750560e-003
1.438636e+003, 8.148312e-003
1.440565e+003, 8.211543e-003
1.442493e+003, 8.250924e-003
1.444422e+003, 8.288070e-003
1.446350e+003, 8.444797e-003
1.448278e+003, 8.514861e-003
1.450207e+003, 8.722737e-003
1.452135e+003, 8.799773e-003
1.454064e+003, 8.479683e-003
1.455992e+003, 7.990049e-003
1.457921e+003, 8.385620e-003
1.459849e+003, 8.930379e-003
1.461778e+003, 9.187018e-003
1.463706e+003, 9.221522e-003
1.465635e+003, 9.394719e-003
1.467563e+003, 9.447992e-003
1.469492e+003, 9.518028e-003
1.471420e+003, 9.416373e-003
1.473349e+003, 9.540078e-003
1.475277e+003, 9.673571e-003
1.477205e+003, 9.895313e-003
1.479134e+003, 1.007631e-002
1.481062e+003, 1.052007e-002
1.482991e+003, 1.050084e-002
1.484919e+003, 1.011158e-002
1.486848e+003, 1.009968e-002
1.488776e+003, 1.011804e-002
1.490705e+003, 1.024671e-002
1.492633e+003, 1.050329e-002
1.494562e+003, 1.037217e-002
1.496490e+003, 1.010276e-002
1.498419e+003, 1.007423e-002
1.500347e+003, 1.044252e-002
1.502276e+003, 1.059731e-002
1.504204e+003, 9.775773e-003
1.506132e+003, 9.225192e-003
1.508061e+003, 1.002019e-002
1.509989e+003, 1.052070e-002
1.511918e+003, 1.061548e-002
1.513846e+003, 1.084528e-002
1.515775e+003, 1.057783e-002
1.517703e+003, 1.050354e-002
1.519632e+003, 1.055891e-002
1.521560e+003, 1.072707e-002
1.523489e+003, 1.104483e-002
1.525417e+003, 1.134387e-002
1.527346e+003, 1.126067e-002
1.529274e+003, 1.108294e-002
1.531203e+003, 1.099040e-002
1.533131e+003, 1.082530e-002
1.535059e+003, 1.139467e-002
1.536988e+003, 1.131830e-002
1.538916e+003, 1.035236e-002
1.540845e+003, 1.038237e-002
1.542773e+003, 1.121006e-002
1.544702e+003, 1.173658e-002
1.546630e+003, 1.219517e-002
1.548559e+003, 1.236856e-002
1.550487e+003, 1.236202e-002
1.552416e+003, 1.236407e-002
1.554344e+003, 1.275371e-002
1.556273e+003, 1.265518e-002
1.558201e+003, 1.208658e-002
1.560130e+003, 1.238606e-002
1.562058e+003, 1.306218e-002
1.563986e+003, 1.306592e-002
1.565915e+003, 1.344664e-002
1.567843e+003, 1.382228e-002
1.569772e+003, 1.361178e-002
1.571700e+003, 1.327580e-002
1.573629e+003, 1.277123e-002
1.575557e+003, 1.223339e-002
1.577486e+003, 1.302270e-002
1.579414e+003, 1.349255e-002
1.581343e+003, 1.358756e-002
1.583271e+003, 1.361830e-002
1.585200e+003, 1.329008e-002
1.587128e+003, 1.325823e-002
1.589057e+003, 1.352691e-002
1.590985e+003, 1.338184e-002
1.592913e+003, 1.324992e-002
1.594842e+003, 1.319085e-002
1.596770e+003, 1.320314e-002
1.598699e+003, 1.350174e-002
1.600627e+003, 1.352326e-002
1.602556e+003, 1.334287e-002
1.604484e+003, 1.358384e-002
1.606413e+003, 1.363867e-002
1.608341e+003, 1.365029e-002
1.610270e+003, 1.378092e-002
1.612198e+003, 1.386160e-002
1.614127e+003, 1.355161e-002
1.616055e+003, 1.324729e-002
1.617984e+003, 1.365658e-002
1.619912e+003, 1.379630e-002
1.621840e+003, 1.366802e-002
1.623769e+003, 1.392875e-002
1.625697e+003, 1.420230e-002
1.627626e+003, 1.427916e-002
1.629554e+003, 1.422359e-002
1.631483e+003, 1.430257e-002
1.633411e+003, 1.374539e-002
1.635340e+003, 1.311113e-002
1.637268e+003, 1.350242e-002
1.639197e+003, 1.400089e-002
1.641125e+003, 1.428792e-002
1.643054e+003, 1.443619e-002
1.644982e+003, 1.400179e-002
1.646911e+003, 1.423430e-002
1.648839e+003, 1.426030e-002
1.650767e+003, 1.364913e-002
1.652696e+003, 1.308047e-002
1.654624e+003, 1.410983e-002
1.656553e+003, 1.474350e-002
1.658481e+003, 1.473719e-002
1.660410e+003, 1.473832e-002
1.662338e+003, 1.499546e-002
1.664267e+003, 1.538067e-002
1.666195e+003, 1.531020e-002
1.668124e+003, 1.500697e-002
1.670052e+003, 1.502834e-002
1.671981e+003, 1.498609e-002
1.673909e+003, 1.479630e-002
1.675838e+003, 1.492107e-002
1.677766e+003, 1.527328e-002
1.679694e+003, 1.515392e-002
1.681623e+003, 1.455618e-002
1.683551e+003, 1.394498e-002
1.685480e+003, 1.479730e-002
1.687408e+003, 1.542824e-002
1.689337e+003, 1.554510e-002
1.691265e+003, 1.575764e-002
1.693194e+003, 1.583669e-002
1.695122e+003, 1.489696e-002
1.697051e+003, 1.493737e-002
1.698979e+003, 1.479085e-002
1.700908e+003, 1.497838e-002
1.702836e+003, 1.519556e-002
1.704765e+003, 1.526482e-002
1.706693e+003, 1.543854e-002
1.708621e+003, 1.568740e-002
1.710550e+003, 1.574183e-002
1.712478e+003, 1.548623e-002
1.714407e+003, 1.517070e-002
1.716335e+003, 1.472820e-002
1.718264e+003, 1.527056e-002
1.720192e+003, 1.574028e-002
1.722121e+003, 1.604876e-002
1.724049e+003, 1.646538e-002
1.725978e+003, 1.631915e-002
1.727906e+003, 1.552132e-002
1.729835e+003, 1.530696e-002
1.731763e+003, 1.505566e-002
1.733692e+003, 1.425005e-002
1.735620e+003, 1.456244e-002
1.737548e+003, 1.499825e-002
1.739477e+003, 1.471329e-002
1.741405e+003, 1.450703e-002
1.743334e+003, 1.472607e-002
1.745262e+003, 1.481710e-002
1.747191e+003, 1.496728e-002
1.749119e+003, 1.518582e-002
1.751048e+003, 1.544552e-002
1.752976e+003, 1.596681e-002
1.754905e+003, 1.632613e-002
1.756833e+003, 1.625020e-002
1.758762e+003, 1.611158e-002
1.760690e+003, 1.607767e-002
1.762619e+003, 1.622915e-002
1.764547e+003, 1.630739e-002
1.766475e+003, 1.631186e-002
1.768404e+003, 1.653904e-002
1.770332e+003, 1.650555e-002
1.772261e+003, 1.637643e-002
1.774189e+003, 1.707894e-002
1.776118e+003, 1.743548e-002
1.778046e+003, 1.714965e-002
1.779975e+003, 1.696857e-002
1.781903e+003, 1.735279e-002
1.783832e+003, 1.772559e-002
1.785760e+003, 1.778132e-002
1.787689e+003, 1.732956e-002
1.789617e+003, 1.737157e-002
1.791546e+003, 1.728185e-002
1.793474e+003, 1.710206e-002
1.795402e+003, 1.717260e-002
1.797331e+003, 1.750485e-002
1.799259e+003, 1.755212e-002
1.801188e+003, 1.747666e-002
1.803116e+003, 1.774158e-002
1.805045e+003, 1.777170e-002
1.806973e+003, 1.744769e-002
1.808902e+003, 1.741650e-002
1.810830e+003, 1.783253e-002
1.812759e+003, 1.790137e-002
1.814687e+003, 1.731339e-002
1.816616e+003, 1.729867e-002
1.818544e+003, 1.793043e-002
1.820473e+003, 1.841458e-002
1.822401e+003, 1.839342e-002
1.824329e+003, 1.762438e-002
1.826258e+003, 1.779758e-002
1.828186e+003, 1.803196e-002
1.830115e+003, 1.818923e-002
1.832043e+003, 1.841170e-002
1.833972e+003, 1.818460e-002
1.835900e+003, 1.802751e-002
1.837829e+003, 1.787821e-002
1.839757e+003, 1.780465e-002
1.841686e+003, 1.847294e-002
1.843614e+003, 1.829036e-002
1.845543e+003, 1.834430e-002
1.847471e+003, 1.896081e-002
1.849400e+003, 1.915817e-002
1.851328e+003, 1.856678e-002
1.853256e+003, 1.850576e-002
1.855185e+003, 1.918458e-002
1.857113e+003, 1.890354e-002
1.859042e+003, 1.847574e-002
1.860970e+003, 1.853352e-002
1.862899e+003, 1.863991e-002
1.864827e+003, 1.837936e-002
1.866756e+003, 1.841182e-002
1.868684e+003, 1.804661e-002
1.870613e+003, 1.805365e-002
1.872541e+003, 1.875481e-002
1.874470e+003, 1.898726e-002
1.876398e+003, 1.874772e-002
1.878327e+003, 1.889335e-002
1.880255e+003, 1.889831e-002
1.882183e+003, 1.875822e-002
1.884112e+003, 1.839867e-002
1.886040e+003, 1.800037e-002
1.887969e+003, 1.909709e-002
1.889897e+003, 2.006050e-002
1.891826e+003, 1.963993e-002
1.893754e+003, 1.923580e-002
1.895683e+003, 1.948453e-002
1.897611e+003, 1.911820e-002
1.899540e+003, 1.885101e-002
1.901468e+003, 1.949788e-002
1.903397e+003, 1.880304e-002
1.905325e+003, 1.884294e-002
1.907254e+003, 2.021393e-002
1.909182e+003, 2.025962e-002
1.911110e+003, 1.963517e-002
1.913039e+003, 1.994510e-002
1.914967e+003, 2.012761e-002
1.916896e+003, 1.987761e-002
1.918824e+003, 1.957033e-002
1.920753e+003, 2.044423e-002
1.922681e+003, 2.141533e-002
1.924610e+003, 2.131339e-002
1.926538e+003, 2.092690e-002
1.928467e+003, 1.977502e-002
1.930395e+003, 1.943413e-002
1.932324e+003, 1.930102e-002
1.934252e+003, 2.013534e-002
1.936181e+003, 1.988839e-002
1.938109e+003, 1.939392e-002
1.940037e+003, 2.025545e-002
1.941966e+003, 1.963461e-002
1.943894e+003, 1.894485e-002
1.945823e+003, 1.821684e-002
1.947751e+003, 1.846545e-002
1.949680e+003, 1.937147e-002
1.951608e+003, 1.902230e-002
1.953537e+003, 1.869225e-002
1.955465e+003, 1.863226e-002
1.957394e+003, 1.794534e-002
1.959322e+003, 1.825708e-002
1.961251e+003, 1.889797e-002
1.963179e+003, 1.875159e-002
1.965108e+003, 1.900138e-002
1.967036e+003, 1.929354e-002
1.968964e+003, 1.795934e-002
1.970893e+003, 1.594670e-002
1.972821e+003, 1.570420e-002
1.974750e+003, 1.590200e-002
1.976678e+003, 1.707667e-002
1.978607e+003, 1.972010e-002
1.980535e+003, 2.099091e-002
1.982464e+003, 2.116783e-002
1.984392e+003, 2.071329e-002
1.986321e+003, 2.027884e-002
1.988249e+003, 1.954750e-002
1.990178e+003, 2.012231e-002
1.992106e+003, 2.099371e-002
1.994035e+003, 2.067884e-002
1.995963e+003, 2.103738e-002
1.997891e+003, 2.059640e-002
1.999820e+003, 2.001079e-002
2.001748e+003, 2.023005e-002
2.003677e+003, 1.854896e-002
2.005605e+003, 1.632661e-002
2.007534e+003, 1.833005e-002
2.009462e+003, 2.009599e-002
2.011391e+003, 2.236713e-002
2.013319e+003, 2.321503e-002
2.015248e+003, 2.073128e-002
2.017176e+003, 1.837513e-002
2.019105e+003, 1.871120e-002
2.021033e+003, 1.756281e-002
2.022962e+003, 1.814194e-002
2.024890e+003, 1.920255e-002
2.026818e+003, 1.969975e-002
2.028747e+003, 2.066718e-002
2.030675e+003, 2.005116e-002
2.032604e+003, 1.936094e-002
2.034532e+003, 2.082279e-002
2.036461e+003, 2.000007e-002
2.038389e+003, 1.846391e-002
2.040318e+003, 1.942888e-002
2.042246e+003, 2.101078e-002
2.044175e+003, 2.141303e-002
2.046103e+003, 2.107871e-002
2.048032e+003, 2.210195e-002
2.049960e+003, 2.270608e-002
2.051889e+003, 2.166454e-002
2.053817e+003, 2.107760e-002
2.055746e+003, 2.223743e-002
2.057674e+003, 2.343033e-002
2.059603e+003, 2.451138e-002
2.061531e+003, 2.405198e-002
2.063459e+003, 2.294667e-002
2.065388e+003, 2.178391e-002
2.067316e+003, 2.149912e-002
2.069245e+003, 2.147375e-002
2.071173e+003, 2.292936e-002
2.073102e+003, 2.445920e-002
2.075030e+003, 2.624126e-002
2.076959e+003, 2.591551e-002
2.078887e+003, 2.538754e-002
2.080816e+003, 2.639699e-002
2.082744e+003, 2.764662e-002
2.084673e+003, 2.723759e-002
2.086601e+003, 2.527225e-002
2.088530e+003, 2.432542e-002
2.090458e+003, 2.444362e-002
2.092386e+003, 2.394233e-002
2.094315e+003, 2.338518e-002
2.096243e+003, 2.384569e-002
2.098172e+003, 2.449736e-002
2.100100e+003, 2.471926e-002
2.102029e+003, 2.469941e-002
2.103957e+003, 2.545258e-002
2.105886e+003, 2.592145e-002
2.107814e+003, 2.550890e-002
2.109743e+003, 2.651523e-002
2.111671e+003, 2.648604e-002
2.113600e+003, 2.512110e-002
2.115528e+003, 2.507443e-002
2.117457e+003, 2.565126e-002
2.119385e+003, 2.593710e-002
2.121313e+003, 2.630401e-002
2.123242e+003, 2.596946e-002
2.125170e+003, 2.540702e-002
2.127099e+003, 2.513327e-002
2.129027e+003, 2.498394e-002
2.130956e+003, 2.340462e-002
2.132884e+003, 2.285767e-002
2.134813e+003, 2.385039e-002
2.136741e+003, 2.362849e-002
2.138670e+003, 2.328736e-002
2.140598e+003, 2.364113e-002
2.142527e+003, 2.406761e-002
2.144455e+003, 2.401437e-002
2.146384e+003, 2.146650e-002
2.148312e+003, 1.990489e-002
2.150240e+003, 1.930087e-002
2.152169e+003, 1.737348e-002
2.154097e+003, 1.597913e-002
2.156026e+003, 1.409876e-002
2.157954e+003, 1.634315e-002
2.159883e+003, 2.147168e-002
2.161811e+003, 2.183142e-002
2.163740e+003, 2.469866e-002
2.165668e+003, 2.627040e-002
2.167597e+003, 2.418010e-002
2.169525e+003, 2.068393e-002
2.171454e+003, 1.874621e-002
2.173382e+003, 2.083913e-002
2.175311e+003, 2.346801e-002
2.177239e+003, 2.438325e-002
2.179167e+003, 2.189156e-002
2.181096e+003, 2.096099e-002
2.183024e+003, 2.185968e-002
2.184953e+003, 2.244631e-002
2.186881e+003, 2.550602e-002
2.188810e+003, 2.584920e-002
2.190738e+003, 2.439376e-002
2.192667e+003, 2.613577e-002
2.194595e+003, 2.625274e-002
2.196524e+003, 2.394805e-002
2.198452e+003, 2.299849e-002
2.200381e+003, 2.352459e-002
2.202309e+003, 2.525074e-002
2.204238e+003, 2.646554e-002
2.206166e+003, 2.646572e-002
2.208094e+003, 2.682725e-002
2.210023e+003, 2.657937e-002
2.211951e+003, 2.578595e-002
2.213880e+003, 2.717959e-002
2.215808e+003, 2.815716e-002
2.217737e+003, 2.687229e-002
2.219665e+003, 2.741779e-002
2.221594e+003, 2.816520e-002
2.223522e+003, 2.722665e-002
2.225451e+003, 2.791370e-002
2.227379e+003, 2.762373e-002
2.229308e+003, 2.620392e-002
2.231236e+003, 2.731406e-002
2.233165e+003, 3.075205e-002
2.235093e+003, 3.119226e-002
2.237021e+003, 2.968501e-002
2.238950e+003, 2.909758e-002
2.240878e+003, 2.845703e-002
2.242807e+003, 2.929443e-002
2.244735e+003, 3.065575e-002
2.246664e+003, 3.041628e-002
2.248592e+003, 3.013891e-002
2.250521e+003, 2.946362e-002
2.252449e+003, 2.874088e-002
2.254378e+003, 2.966204e-002
2.256306e+003, 2.989095e-002
2.258235e+003, 2.958577e-002
2.260163e+003, 3.045266e-002
2.262092e+003, 3.032587e-002
2.264020e+003, 3.014756e-002
2.265948e+003, 3.087219e-002
2.267877e+003, 3.163212e-002
2.269805e+003, 3.143604e-002
2.271734e+003, 3.130963e-002
2.273662e+003, 3.170484e-002
2.275591e+003, 3.337169e-002
2.277519e+003, 3.288447e-002
2.279448e+003, 3.241003e-002
2.281376e+003, 3.345441e-002
2.283305e+003, 3.348446e-002
2.285233e+003, 3.337316e-002
2.287162e+003, 3.347362e-002
2.289090e+003, 3.326625e-002
2.291019e+003, 3.354479e-002
2.292947e+003, 3.376505e-002
2.294875e+003, 3.360511e-002
2.296804e+003, 3.366898e-002
2.298732e+003, 3.356516e-002
2.300661e+003, 3.391153e-002
2.302589e+003, 3.416480e-002
2.304518e+003, 3.332639e-002
2.306446e+003, 3.340740e-002
2.308375e+003, 3.390912e-002
2.310303e+003, 3.358605e-002
2.312232e+003, 3.398114e-002
2.314160e+003, 3.434252e-002
2.316089e+003, 3.472534e-002
2.318017e+003, 3.538821e-002
2.319946e+003, 3.590697e-002
2.321874e+003, 3.589222e-002
2.323802e+003, 3.561607e-002
2.325731e+003, 3.535003e-002
2.327659e+003, 3.593533e-002
2.329588e+003, 3.644224e-002
2.331516e+003, 3.563264e-002
2.333445e+003, 3.515062e-002
2.335373e+003, 3.517485e-002
2.337302e+003, 3.483885e-002
2.339230e+003, 3.466275e-002
2.341159e+003, 3.446998e-002
2.343087e+003, 3.527818e-002
2.345016e+003, 3.588663e-002
2.346944e+003, 3.584949e-002
2.348873e+003, 3.519963e-002
2.350801e+003, 3.467381e-002
2.352729e+003, 3.441482e-002
2.354658e+003, 3.473089e-002
2.356586e+003, 3.479682e-002
2.358515e+003, 3.529198e-002
2.360443e+003, 3.593622e-002
2.362372e+003, 3.555864e-002
2.364300e+003, 3.462359e-002
2.366229e+003, 3.439464e-002
2.368157e+003, 3.456713e-002
2.370086e+003, 3.453610e-002
2.372014e+003, 3.433486e-002
2.373942e+003, 3.461868e-002
2.375871e+003, 3.508548e-002
2.377799e+003, 3.542874e-002
2.379728e+003, 3.525040e-002
2.381656e+003, 3.541200e-002
2.383585e+003, 3.602970e-002
2.385513e+003, 3.490692e-002
2.387442e+003, 3.459553e-002
2.389370e+003, 3.523113e-002
2.391299e+003, 3.580417e-002
2.393227e+003, 3.589270e-002
2.395156e+003, 3.611014e-002
2.397084e+003, 3.605639e-002
2.399012e+003, 3.605021e-002
2.400941e+003, 3.644879e-002
2.402869e+003, 3.629906e-002
2.404798e+003, 3.631594e-002
2.406726e+003, 3.647808e-002
2.408655e+003, 3.629679e-002
2.410583e+003, 3.657326e-002
2.412512e+003, 3.634329e-002
2.414440e+003, 3.629265e-002
2.416369e+003, 3.718830e-002
2.418297e+003, 3.701820e-002
2.420226e+003, 3.606346e-002
2.422154e+003, 3.606312e-002
2.424083e+003, 3.682642e-002
2.426011e+003, 3.781865e-002
2.427939e+003, 3.766617e-002
2.429868e+003, 3.787791e-002
2.431796e+003, 3.766786e-002
2.433725e+003, 3.810181e-002
2.435653e+003, 3.853311e-002
2.437582e+003, 3.851151e-002
2.439510e+003, 3.805701e-002
2.441439e+003, 3.843326e-002
2.443367e+003, 3.910517e-002
2.445296e+003, 3.961680e-002
2.447224e+003, 3.917588e-002
2.449153e+003, 3.853643e-002
2.451081e+003, 3.977036e-002
2.453010e+003, 4.025679e-002
2.454938e+003, 4.072614e-002
2.456866e+003, 4.116680e-002
2.458795e+003, 4.013119e-002
2.460723e+003, 4.001187e-002
2.462652e+003, 4.016764e-002
2.464580e+003, 4.007926e-002
2.466509e+003, 4.001524e-002
2.468437e+003, 3.991729e-002
2.470366e+003, 3.944474e-002
2.472294e+003, 4.067057e-002
2.474223e+003, 4.136403e-002
2.476151e+003, 4.024783e-002
2.478080e+003, 3.956387e-002
2.480008e+003, 4.093976e-002
2.481937e+003, 4.136813e-002
2.483865e+003, 4.077081e-002
2.485793e+003, 4.086811e-002
2.487722e+003, 4.182998e-002
2.489650e+003, 4.124270e-002
2.491579e+003, 4.136847e-002
2.493507e+003, 4.185444e-002
2.495436e+003, 4.158199e-002
2.497364e+003, 4.248677e-002
2.499293e+003, 4.313460e-002
2.501221e+003, 4.285287e-002
2.503150e+003, 4.266988e-002
2.505078e+003, 4.226694e-002
2.507007e+003, 4.182165e-002
2.508935e+003, 4.192901e-002
2.510864e+003, 4.251083e-002
2.512792e+003, 4.299925e-002
2.514720e+003, 4.381053e-002
2.516649e+003, 4.335303e-002
2.518577e+003, 4.267151e-002
2.520506e+003, 4.201588e-002
2.522434e+003, 4.285987e-002
2.524363e+003, 4.354903e-002
2.526291e+003, 4.276961e-002
2.528220e+003, 4.241839e-002
2.530148e+003, 4.346396e-002
2.532077e+003, 4.409180e-002
2.534005e+003, 4.326659e-002
2.535934e+003, 4.278214e-002
2.537862e+003, 4.371383e-002
2.539791e+003, 4.449059e-002
2.541719e+003, 4.423108e-002
2.543647e+003, 4.417823e-002
2.545576e+003, 4.409104e-002
2.547504e+003, 4.403364e-002
2.549433e+003, 4.454334e-002
2.551361e+003, 4.502101e-002
2.553290e+003, 4.460365e-002
2.555218e+003, 4.408008e-002
2.557147e+003, 4.454944e-002
2.559075e+003, 4.439155e-002
2.561004e+003, 4.444630e-002
2.562932e+003, 4.482404e-002
2.564861e+003, 4.497878e-002
2.566789e+003, 4.481448e-002
2.568718e+003, 4.501560e-002
2.570646e+003, 4.378840e-002
2.572574e+003, 4.315957e-002
2.574503e+003, 4.379579e-002
2.576431e+003, 4.397849e-002
2.578360e+003, 4.444353e-002
2.580288e+003, 4.484692e-002
2.582217e+003, 4.449320e-002
2.584145e+003, 4.462840e-002
2.586074e+003, 4.553522e-002
2.588002e+003, 4.548424e-002
2.589931e+003, 4.501004e-002
2.591859e+003, 4.498180e-002
2.593788e+003, 4.569437e-002
2.595716e+003, 4.540820e-002
2.597645e+003, 4.537484e-002
2.599573e+003, 4.541404e-002
2.601501e+003, 4.512190e-002
2.603430e+003, 4.520361e-002
2.605358e+003, 4.547342e-002
2.607287e+003, 4.597439e-002
2.609215e+003, 4.607255e-002
2.611144e+003, 4.597236e-002
2.613072e+003, 4.637693e-002
2.615001e+003, 4.669701e-002
2.616929e+003, 4.673010e-002
2.618858e+003, 4.672447e-002
2.620786e+003, 4.626582e-002
2.622715e+003, 4.585214e-002
2.624643e+003, 4.634911e-002
2.626572e+003, 4.621195e-002
2.628500e+003, 4.494978e-002
2.630428e+003, 4.462252e-002
2.632357e+003, 4.541140e-002
2.634285e+003, 4.601330e-002
2.636214e+003, 4.638468e-002
2.638142e+003, 4.650382e-002
2.640071e+003, 4.744633e-002
2.641999e+003, 4.817624e-002
2.643928e+003, 4.825240e-002
2.645856e+003, 4.792940e-002
2.647785e+003, 4.747200e-002
2.649713e+003, 4.739042e-002
2.651642e+003, 4.718453e-002
2.653570e+003, 4.697635e-002
2.655499e+003, 4.687835e-002
2.657427e+003, 4.676741e-002
2.659355e+003, 4.688980e-002
2.661284e+003, 4.713497e-002
2.663212e+003, 4.744650e-002
2.665141e+003, 4.710781e-002
2.667069e+003, 4.680318e-002
2.668998e+003, 4.661326e-002
2.670926e+003, 4.679922e-002
2.672855e+003, 4.685200e-002
2.674783e+003, 4.746398e-002
2.676712e+003, 4.791385e-002
2.678640e+003, 4.815514e-002
2.680569e+003, 4.834801e-002
2.682497e+003, 4.750688e-002
2.684426e+003, 4.714795e-002
2.686354e+003, 4.733019e-002
2.688282e+003, 4.752193e-002
2.690211e+003, 4.724620e-002
2.692139e+003, 4.731620e-002
2.694068e+003, 4.720766e-002
2.695996e+003, 4.711777e-002
2.697925e+003, 4.752491e-002
2.699853e+003, 4.810093e-002
2.701782e+003, 4.849822e-002
2.703710e+003, 4.778119e-002
2.705639e+003, 4.726537e-002
2.707567e+003, 4.817747e-002
2.709496e+003, 4.940218e-002
2.711424e+003, 4.881890e-002
2.713353e+003, 4.792235e-002
2.715281e+003, 4.796693e-002
2.717209e+003, 4.837674e-002
2.719138e+003, 4.836620e-002
2.721066e+003, 4.836173e-002
2.722995e+003, 4.844119e-002
2.724923e+003, 4.827558e-002
2.726852e+003, 4.816200e-002
2.728780e+003, 4.803460e-002
2.730709e+003, 4.823893e-002
2.732637e+003, 4.861046e-002
2.734566e+003, 4.908491e-002
2.736494e+003, 4.872038e-002
2.738423e+003, 4.871651e-002
2.740351e+003, 4.879444e-002
2.742280e+003, 4.809784e-002
2.744208e+003, 4.819631e-002
2.746136e+003, 4.930390e-002
2.748065e+003, 4.925919e-002
2.749993e+003, 4.871767e-002
2.751922e+003, 4.882618e-002
2.753850e+003, 4.977715e-002
2.755779e+003, 4.999974e-002
2.757707e+003, 4.955565e-002
2.759636e+003, 4.973917e-002
2.761564e+003, 5.013875e-002
2.763493e+003, 4.976045e-002
2.765421e+003, 4.921659e-002
2.767350e+003, 4.957525e-002
2.769278e+003, 4.943831e-002
2.771207e+003, 4.966751e-002
2.773135e+003, 5.004777e-002
2.775063e+003, 5.035126e-002
2.776992e+003, 5.017113e-002
2.778920e+003, 5.053139e-002
2.780849e+003, 5.146112e-002
2.782777e+003, 5.150772e-002
2.784706e+003, 5.095424e-002
2.786634e+003, 5.029393e-002
2.788563e+003, 4.996250e-002
2.790491e+003, 4.994193e-002
2.792420e+003, 5.023103e-002
2.794348e+003, 5.066209e-002
2.796277e+003, 5.111825e-002
2.798205e+003, 5.113791e-002
2.800134e+003, 5.114897e-002
2.802062e+003, 5.111082e-002
2.803990e+003, 5.089919e-002
2.805919e+003, 5.086843e-002
2.807847e+003, 5.097779e-002
2.809776e+003, 5.142977e-002
2.811704e+003, 5.259087e-002
2.813633e+003, 5.273047e-002
2.815561e+003, 5.234523e-002
2.817490e+003, 5.136698e-002
2.819418e+003, 5.159138e-002
2.821347e+003, 5.246691e-002
2.823275e+003, 5.272574e-002
2.825204e+003, 5.222025e-002
2.827132e+003, 5.219692e-002
2.829061e+003, 5.150192e-002
2.830989e+003, 5.160107e-002
2.832917e+003, 5.295398e-002
2.834846e+003, 5.250506e-002
2.836774e+003, 5.114551e-002
2.838703e+003, 5.146170e-002
2.840631e+003, 5.218353e-002
2.842560e+003, 5.216605e-002
2.844488e+003, 5.191426e-002
2.846417e+003, 5.187915e-002
2.848345e+003, 5.180033e-002
2.850274e+003, 5.208559e-002
2.852202e+003, 5.212210e-002
2.854131e+003, 5.181005e-002
2.856059e+003, 5.194264e-002
2.857988e+003, 5.215471e-002
2.859916e+003, 5.235621e-002
2.861844e+003, 5.251732e-002
2.863773e+003, 5.237099e-002
2.865701e+003, 5.341043e-002
2.867630e+003, 5.410294e-002
2.869558e+003, 5.364887e-002
2.871487e+003, 5.320087e-002
2.873415e+003, 5.324645e-002
2.875344e+003, 5.425520e-002
2.877272e+003, 5.550219e-002
2.879201e+003, 5.573436e-002
2.881129e+003, 5.407197e-002
2.883058e+003, 5.344002e-002
2.884986e+003, 5.442997e-002
2.886915e+003, 5.481331e-002
2.888843e+003, 5.435598e-002
2.890771e+003, 5.451089e-002
2.892700e+003, 5.486202e-002
2.894628e+003, 5.503467e-002
2.896557e+003, 5.519272e-002
2.898485e+003, 5.501416e-002
2.900414e+003, 5.422741e-002
2.902342e+003, 5.436067e-002
2.904271e+003, 5.428893e-002
2.906199e+003, 5.449592e-002
2.908128e+003, 5.508461e-002
2.910056e+003, 5.453331e-002
2.911985e+003, 5.494023e-002
2.913913e+003, 5.451533e-002
2.915842e+003, 5.381812e-002
2.917770e+003, 5.467553e-002
2.919698e+003, 5.551522e-002
2.921627e+003, 5.465963e-002
2.923555e+003, 5.521031e-002
2.925484e+003, 5.482491e-002
2.927412e+003, 5.354456e-002
2.929341e+003, 5.272228e-002
2.931269e+003, 5.267497e-002
2.933198e+003, 5.326904e-002
2.935126e+003, 5.486286e-002
2.937055e+003, 5.620760e-002
2.938983e+003, 5.554512e-002
2.940912e+003, 5.517058e-002
2.942840e+003, 5.603064e-002
2.944769e+003, 5.723892e-002
2.946697e+003, 5.768784e-002
2.948625e+003, 5.630852e-002
2.950554e+003, 5.503095e-002
2.952482e+003, 5.534716e-002
2.954411e+003, 5.592921e-002
2.956339e+003, 5.583384e-002
2.958268e+003, 5.529048e-002
2.960196e+003, 5.476204e-002
2.962125e+003, 5.558045e-002
2.964053e+003, 5.664356e-002
2.965982e+003, 5.786163e-002
2.967910e+003, 5.814128e-002
2.969839e+003, 5.857717e-002
2.971767e+003, 5.861215e-002
2.973696e+003, 5.703346e-002
2.975624e+003, 5.579490e-002
2.977552e+003, 5.650365e-002
2.979481e+003, 5.791688e-002
2.981409e+003, 5.954265e-002
2.983338e+003, 5.945094e-002
2.985266e+003, 5.861550e-002
2.987195e+003, 5.774750e-002
2.989123e+003, 5.779738e-002
2.991052e+003, 5.711688e-002
2.992980e+003, 5.761345e-002
2.994909e+003, 5.876669e-002
2.996837e+003, 5.818317e-002
2.998766e+003, 5.655179e-002
3.000694e+003, 5.662709e-002
3.002623e+003, 5.809586e-002
3.004551e+003, 5.864530e-002
3.006479e+003, 5.751809e-002
3.008408e+003, 5.787023e-002
3.010336e+003, 5.818214e-002
3.012265e+003, 5.776446e-002
3.014193e+003, 5.775283e-002
3.016122e+003, 5.719995e-002
3.018050e+003, 5.777652e-002
3.019979e+003, 5.829544e-002
3.021907e+003, 5.766945e-002
3.023836e+003, 5.808773e-002
3.025764e+003, 5.890533e-002
3.027693e+003, 5.840212e-002
3.029621e+003, 5.881030e-002
3.031550e+003, 5.897020e-002
3.033478e+003, 5.792407e-002
3.035406e+003, 5.702509e-002
3.037335e+003, 5.827511e-002
3.039263e+003, 5.876417e-002
3.041192e+003, 5.839942e-002
3.043120e+003, 5.924897e-002
3.045049e+003, 6.012205e-002
3.046977e+003, 6.006418e-002
3.048906e+003, 6.003465e-002
3.050834e+003, 5.915262e-002
3.052763e+003, 5.854653e-002
3.054691e+003, 5.933915e-002
3.056620e+003, 5.936011e-002
3.058548e+003, 5.966293e-002
3.060477e+003, 6.033645e-002
3.062405e+003, 5.920013e-002
3.064333e+003, 5.878728e-002
3.066262e+003, 5.981543e-002
3.068190e+003, 6.054597e-002
3.070119e+003, 6.101044e-002
3.072047e+003, 6.074781e-002
3.073976e+003, 5.893330e-002
3.075904e+003, 5.953251e-002
3.077833e+003, 6.063776e-002
3.079761e+003, 6.110547e-002
3.081690e+003, 6.069110e-002
3.083618e+003, 6.014299e-002
3.085547e+003, 5.959523e-002
3.087475e+003, 5.927134e-002
3.089404e+003, 5.964112e-002
3.091332e+003, 5.979444e-002
3.093260e+003, 6.034696e-002
3.095189e+003, 6.012461e-002
3.097117e+003, 6.016535e-002
3.099046e+003, 6.142662e-002
3.100974e+003, 6.169126e-002
3.102903e+003, 6.229408e-002
3.104831e+003, 6.205443e-002
3.106760e+003, 6.087847e-002
3.108688e+003, 6.031347e-002
3.110617e+003, 6.106637e-002
3.112545e+003, 6.023791e-002
3.114474e+003, 6.081936e-002
3.116402e+003, 6.200721e-002
3.118331e+003, 6.270812e-002
3.120259e+003, 6.398211e-002
3.122188e+003, 6.319916e-002
3.124116e+003, 6.205657e-002
3.126044e+003, 6.049087e-002
3.127973e+003, 6.092373e-002
3.129901e+003, 6.073176e-002
3.131830e+003, 6.013446e-002
3.133758e+003, 6.050768e-002
3.135687e+003, 6.154816e-002
3.137615e+003, 6.411817e-002
3.139544e+003, 6.508105e-002
3.141472e+003, 6.416087e-002
3.143401e+003, 6.333161e-002
3.145329e+003, 6.350108e-002
3.147258e+003, 6.318679e-002
3.149186e+003, 6.141744e-002
3.151115e+003, 6.148984e-002
3.153043e+003, 6.330661e-002
3.154971e+003, 6.460106e-002
3.156900e+003, 6.393790e-002
3.158828e+003, 6.232232e-002
3.160757e+003, 6.126779e-002
3.162685e+003, 6.321476e-002
3.164614e+003, 6.580622e-002
3.166542e+003, 6.582051e-002
3.168471e+003, 6.539350e-002
3.170399e+003, 6.520905e-002
3.172328e+003, 6.521522e-002
3.174256e+003, 6.421213e-002
3.176185e+003, 6.225908e-002
3.178113e+003, 6.258538e-002
3.180042e+003, 6.507170e-002
3.181970e+003, 6.542909e-002
3.183898e+003, 6.395939e-002
3.185827e+003, 6.462368e-002
3.187755e+003, 6.483703e-002
3.189684e+003, 6.560000e-002
3.191612e+003, 6.483918e-002
3.193541e+003, 6.489546e-002
3.195469e+003, 6.606629e-002
3.197398e+003, 6.508841e-002
3.199326e+003, 6.497028e-002
3.201255e+003, 6.492329e-002
3.203183e+003, 6.266099e-002
3.205112e+003, 6.313464e-002
3.207040e+003, 6.586625e-002
3.208969e+003, 6.585382e-002
3.210897e+003, 6.512082e-002
3.212825e+003, 6.609093e-002
3.214754e+003, 6.508662e-002
3.216682e+003, 6.361360e-002
3.218611e+003, 6.359591e-002
3.220539e+003, 6.562801e-002
3.222468e+003, 6.662123e-002
3.224396e+003, 6.563568e-002
3.226325e+003, 6.504831e-002
3.228253e+003, 6.711551e-002
3.230182e+003, 6.842080e-002
3.232110e+003, 6.790230e-002
3.234039e+003, 6.607954e-002
3.235967e+003, 6.569319e-002
3.237896e+003, 6.606348e-002
3.239824e+003, 6.552297e-002
3.241752e+003, 6.480722e-002
3.243681e+003, 6.478554e-002
3.245609e+003, 6.590579e-002
3.247538e+003, 6.607574e-002
3.249466e+003, 6.653553e-002
3.251395e+003, 6.763959e-002
3.253323e+003, 6.725946e-002
3.255252e+003, 6.620390e-002
3.257180e+003, 6.576668e-002
3.259109e+003, 6.686699e-002
3.261037e+003, 6.714238e-002
3.262966e+003, 6.724207e-002
3.264894e+003, 6.822882e-002
3.266823e+003, 6.702017e-002
3.268751e+003, 6.706440e-002
3.270679e+003, 6.747590e-002
3.272608e+003, 6.714238e-002
3.274536e+003, 6.780156e-002
3.276465e+003, 6.868771e-002
3.278393e+003, 6.919192e-002
3.280322e+003, 6.953669e-002
3.282250e+003, 6.908249e-002
3.284179e+003, 6.833190e-002
3.286107e+003, 6.872366e-002
3.288036e+003, 6.946696e-002
3.289964e+003, 6.924186e-002
3.291893e+003, 6.739721e-002
3.293821e+003, 6.854247e-002
3.295750e+003, 6.967155e-002
3.297678e+003, 6.915377e-002
3.299606e+003, 6.955779e-002
3.301535e+003, 6.997693e-002
3.303463e+003, 6.774662e-002
3.305392e+003, 6.439671e-002
3.307320e+003, 6.580138e-002
3.309249e+003, 6.916659e-002
3.311177e+003, 6.894911e-002
3.313106e+003, 6.989354e-002
3.315034e+003, 6.892685e-002
3.316963e+003, 6.905364e-002
3.318891e+003, 7.016931e-002
3.320820e+003, 6.979129e-002
3.322748e+003, 7.012752e-002
3.324677e+003, 7.128822e-002
3.326605e+003, 7.074709e-002
3.328533e+003, 6.941298e-002
3.330462e+003, 6.853807e-002
3.332390e+003, 6.913568e-002
3.334319e+003, 6.989746e-002
3.336247e+003, 7.008235e-002
3.338176e+003, 6.986412e-002
3.340104e+003, 6.963418e-002
3.342033e+003, 7.009303e-002
3.343961e+003, 7.102013e-002
3.345890e+003, 7.057949e-002
3.347818e+003, 6.880430e-002
3.349747e+003, 6.972366e-002
3.351675e+003, 7.199898e-002
3.353604e+003, 7.347526e-002
3.355532e+003, 7.283774e-002
3.357460e+003, 7.225785e-002
3.359389e+003, 7.166853e-002
3.361317e+003, 7.209915e-002
3.363246e+003, 7.204644e-002
3.365174e+003, 7.155583e-002
3.367103e+003, 7.152910e-002
3.369031e+003, 7.059110e-002
3.370960e+003, 7.008579e-002
3.372888e+003, 6.922486e-002
3.374817e+003, 6.908090e-002
3.376745e+003, 7.057486e-002
3.378674e+003, 7.041903e-002
3.380602e+003, 6.909757e-002
3.382531e+003, 6.947724e-002
3.384459e+003, 7.346207e-002
3.386387e+003, 7.513352e-002
3.388316e+003, 7.378968e-002
3.390244e+003, 7.284697e-002
3.392173e+003, 7.211266e-002
3.394101e+003, 7.165506e-002
3.396030e+003, 7.120536e-002
3.397958e+003, 7.138965e-002
3.399887e+003, 7.267793e-002
3.401815e+003, 7.281595e-002
3.403744e+003, 7.244963e-002
3.405672e+003, 7.187460e-002
3.407601e+003, 7.176426e-002
3.409529e+003, 7.165524e-002
3.411458e+003, 7.313319e-002
3.413386e+003, 7.390828e-002
3.415314e+003, 7.290870e-002
3.417243e+003, 7.225759e-002
3.419171e+003, 7.068980e-002
3.421100e+003, 6.972077e-002
3.423028e+003, 7.195198e-002
3.424957e+003, 7.340822e-002
3.426885e+003, 7.317306e-002
3.428814e+003, 7.434773e-002
3.430742e+003, 7.226937e-002
3.432671e+003, 7.244022e-002
3.434599e+003, 7.433147e-002
3.436528e+003, 7.572882e-002
3.438456e+003, 7.627860e-002
3.440385e+003, 7.559649e-002
3.442313e+003, 7.482977e-002
3.444241e+003, 7.414860e-002
3.446170e+003, 7.251648e-002
3.448098e+003, 7.337338e-002
3.450027e+003, 7.480887e-002
3.451955e+003, 7.541856e-002
3.453884e+003, 7.494476e-002
3.455812e+003, 7.411810e-002
3.457741e+003, 7.317087e-002
3.459669e+003, 7.323622e-002
3.461598e+003, 7.376456e-002
3.463526e+003, 7.403312e-002
3.465455e+003, 7.547110e-002
3.467383e+003, 7.514340e-002
3.469312e+003, 7.488104e-002
3.471240e+003, 7.851950e-002
3.473168e+003, 7.855003e-002
3.475097e+003, 7.686826e-002
3.477025e+003, 7.660186e-002
3.478954e+003, 7.662158e-002
3.480882e+003, 7.544734e-002
3.482811e+003, 7.545618e-002
3.484739e+003, 7.666104e-002
3.486668e+003, 7.480337e-002
3.488596e+003, 7.374977e-002
3.490525e+003, 7.408456e-002
3.492453e+003, 7.447951e-002
3.494382e+003, 7.472079e-002
3.496310e+003, 7.383963e-002
3.498239e+003, 7.546777e-002
3.500167e+003, 7.694162e-002
3.502095e+003, 7.566054e-002
3.504024e+003, 7.484851e-002
3.505952e+003, 7.492118e-002
3.507881e+003, 7.818633e-002
3.509809e+003, 7.939479e-002
3.511738e+003, 7.815849e-002
3.513666e+003, 7.677656e-002
3.515595e+003, 7.701562e-002
3.517523e+003, 7.663842e-002
3.519452e+003, 7.455839e-002
3.521380e+003, 7.477934e-002
3.523309e+003, 7.518467e-002
3.525237e+003, 7.561687e-002
3.527166e+003, 7.590386e-002
3.529094e+003, 7.450561e-002
3.531022e+003, 7.515302e-002
3.532951e+003, 7.570009e-002
3.534879e+003, 7.548008e-002
3.536808e+003, 7.745942e-002
3.538736e+003, 7.767302e-002
3.540665e+003, 7.670106e-002
3.542593e+003, 7.604118e-002
3.544522e+003, 7.626226e-002
3.546450e+003, 7.896234e-002
3.548379e+003, 7.962446e-002
3.550307e+003, 7.569695e-002
3.552236e+003, 7.417031e-002
3.554164e+003, 7.655375e-002
3.556093e+003, 7.662334e-002
3.558021e+003, 7.744286e-002
3.559949e+003, 7.841761e-002
3.561878e+003, 7.674243e-002
3.563806e+003, 7.555684e-002
3.565735e+003, 7.686580e-002
3.567663e+003, 7.769667e-002
3.569592e+003, 7.735855e-002
3.571520e+003, 7.831605e-002
3.573449e+003, 7.703670e-002
3.575377e+003, 7.802683e-002
3.577306e+003, 7.869467e-002
3.579234e+003, 7.834594e-002
3.581163e+003, 7.621052e-002
3.583091e+003, 7.834173e-002
3.585020e+003, 8.185428e-002
3.586948e+003, 8.126411e-002
3.588876e+003, 7.854022e-002
3.590805e+003, 7.751269e-002
3.592733e+003, 7.765006e-002
3.594662e+003, 7.868767e-002
3.596590e+003, 8.070484e-002
3.598519e+003, 8.114447e-002
3.600447e+003, 7.980066e-002
3.602376e+003, 8.019548e-002
3.604304e+003, 7.904374e-002
3.606233e+003, 7.770039e-002
3.608161e+003, 7.949468e-002
3.610090e+003, 7.941066e-002
3.612018e+003, 8.082393e-002
3.613947e+003, 8.052192e-002
3.615875e+003, 7.818724e-002
3.617803e+003, 7.711437e-002
3.619732e+003, 7.758557e-002
3.621660e+003, 7.954227e-002
3.623589e+003, 7.995711e-002
3.625517e+003, 7.880507e-002
3.627446e+003, 7.711568e-002
3.629374e+003, 7.806250e-002
3.631303e+003, 7.759041e-002
3.633231e+003, 7.768691e-002
3.635160e+003, 8.069207e-002
3.637088e+003, 7.734171e-002
3.639017e+003, 7.335432e-002
3.640945e+003, 7.648005e-002
3.642874e+003, 8.001138e-002
3.644802e+003, 7.927034e-002
3.646730e+003, 7.934437e-002
3.648659e+003, 8.040363e-002
3.650587e+003, 8.018786e-002
3.652516e+003, 7.920161e-002
3.654444e+003, 7.741003e-002
3.656373e+003, 7.987570e-002
3.658301e+003, 8.148423e-002
3.660230e+003, 8.043559e-002
3.662158e+003, 7.811642e-002
3.664087e+003, 7.859927e-002
3.666015e+003, 7.865227e-002
3.667944e+003, 7.734571e-002
3.669872e+003, 7.896923e-002
3.671801e+003, 8.213418e-002
3.673729e+003, 8.212035e-002
3.675657e+003, 8.308316e-002
3.677586e+003, 8.079802e-002
3.679514e+003, 8.158305e-002
3.681443e+003, 8.361127e-002
3.683371e+003, 8.394188e-002
3.685300e+003, 8.245210e-002
3.687228e+003, 7.901995e-002
3.689157e+003, 7.966772e-002
3.691085e+003, 8.225127e-002
3.693014e+003, 8.520999e-002
3.694942e+003, 8.251985e-002
3.696871e+003, 7.995055e-002
3.698799e+003, 8.014513e-002
3.700728e+003, 8.185264e-002
3.702656e+003, 8.207215e-002
3.704584e+003, 7.820717e-002
3.706513e+003, 7.677346e-002
3.708441e+003, 8.021308e-002
3.710370e+003, 8.409614e-002
3.712298e+003, 8.257202e-002
3.714227e+003, 8.236487e-002
3.716155e+003, 8.520117e-002
3.718084e+003, 8.555670e-002
3.720012e+003, 8.443687e-002
3.721941e+003, 8.357821e-002
3.723869e+003, 8.359809e-002
3.725798e+003, 8.165526e-002
3.727726e+003, 7.973958e-002
3.729655e+003, 8.012367e-002
3.731583e+003, 8.135351e-002
3.733511e+003, 8.221009e-002
3.735440e+003, 8.160725e-002
3.737368e+003, 8.174008e-002
3.739297e+003, 8.160292e-002
3.741225e+003, 8.160305e-002
3.743154e+003, 8.276780e-002
3.745082e+003, 8.829277e-002
3.747011e+003, 8.527616e-002
3.748939e+003, 8.218851e-002
3.750868e+003, 7.965071e-002
3.752796e+003, 8.495956e-002
3.754725e+003, 8.533164e-002
3.756653e+003, 8.488183e-002
3.758582e+003, 8.442966e-002
3.760510e+003, 8.422980e-002
3.762438e+003, 8.354425e-002
3.764367e+003, 8.308820e-002
3.766295e+003, 8.587104e-002
3.768224e+003, 8.463756e-002
3.770152e+003, 8.409543e-002
3.772081e+003, 8.397491e-002
3.774009e+003, 8.334841e-002
3.775938e+003, 8.270082e-002
3.777866e+003, 8.293898e-002
3.779795e+003, 8.530809e-002
3.781723e+003, 8.817241e-002
3.783652e+003, 9.025802e-002
3.785580e+003, 8.910572e-002
3.787509e+003, 8.458100e-002
3.789437e+003, 7.937763e-002
3.791365e+003, 8.227345e-002
3.793294e+003, 8.777925e-002
3.795222e+003, 8.673267e-002
3.797151e+003, 8.855872e-002
3.799079e+003, 8.953951e-002
3.801008e+003, 9.181002e-002
3.802936e+003, 9.024068e-002
3.804865e+003, 8.540141e-002
3.806793e+003, 8.617923e-002
3.808722e+003, 8.747172e-002
3.810650e+003, 8.815689e-002
3.812579e+003, 8.600906e-002
3.814507e+003, 8.433001e-002
3.816436e+003, 8.796138e-002
3.818364e+003, 8.805674e-002
3.820292e+003, 8.706493e-002
3.822221e+003, 8.776456e-002
3.824149e+003, 8.995903e-002
3.826078e+003, 8.902789e-002
3.828006e+003, 8.726241e-002
3.829935e+003, 8.567825e-002
3.831863e+003, 8.598743e-002
3.833792e+003, 8.839527e-002
3.835720e+003, 8.924036e-002
3.837649e+003, 8.588860e-002
3.839577e+003, 8.787755e-002
3.841506e+003, 9.166810e-002
3.843434e+003, 9.056092e-002
3.845363e+003, 8.728242e-002
3.847291e+003, 8.566263e-002
3.849219e+003, 8.448809e-002
3.851148e+003, 8.374659e-002
3.853076e+003, 8.307529e-002
3.855005e+003, 8.558667e-002
3.856933e+003, 8.752361e-002
3.858862e+003, 8.917700e-002
3.860790e+003, 8.584325e-002
3.862719e+003, 8.733927e-002
3.864647e+003, 8.849257e-002
3.866576e+003, 8.605130e-002
3.868504e+003, 8.429982e-002
3.870433e+003, 8.673426e-002
3.872361e+003, 8.608486e-002
3.874290e+003, 8.856500e-002
3.876218e+003, 8.881216e-002
3.878146e+003, 8.959506e-002
3.880075e+003, 9.157903e-002
3.882003e+003, 8.997892e-002
3.883932e+003, 8.812155e-002
3.885860e+003, 8.651002e-002
3.887789e+003, 9.029233e-002
3.889717e+003, 9.131186e-002
3.891646e+003, 9.087310e-002
3.893574e+003, 8.852785e-002
3.895503e+003, 8.745059e-002
3.897431e+003, 8.447907e-002
3.899360e+003, 8.727591e-002
3.901288e+003, 9.218738e-002
3.903217e+003, 9.315988e-002
3.905145e+003, 9.172677e-002
3.907073e+003, 8.729224e-002
3.909002e+003, 8.729333e-002
3.910930e+003, 8.739595e-002
3.912859e+003, 8.663896e-002
3.914787e+003, 8.812761e-002
3.916716e+003, 8.841050e-002
3.918644e+003, 8.943190e-002
3.920573e+003, 8.918208e-002
3.922501e+003, 8.923639e-002
3.924430e+003, 9.091396e-002
3.926358e+003, 9.116663e-002
3.928287e+003, 9.058198e-002
3.930215e+003, 8.962238e-002
3.932144e+003, 8.659789e-002
3.934072e+003, 8.512539e-002
3.936000e+003, 8.760835e-002
3.937929e+003, 9.415112e-002
3.939857e+003, 9.386940e-002
3.941786e+003, 9.152807e-002
3.943714e+003, 9.331735e-002
3.945643e+003, 9.167241e-002
3.947571e+003, 8.839107e-002
3.949500e+003, 8.943409e-002
3.951428e+003, 9.299242e-002
3.953357e+003, 9.528228e-002
3.955285e+003, 9.683824e-002
3.957214e+003, 9.680487e-002
3.959142e+003, 9.534694e-002
3.961071e+003, 9.358682e-002
3.962999e+003, 9.116704e-002
3.964927e+003, 9.230647e-002
3.966856e+003, 9.492762e-002
3.968784e+003, 9.568696e-002
3.970713e+003, 9.658667e-002
3.972641e+003, 9.469714e-002
3.974570e+003, 9.365580e-002
3.976498e+003, 9.412468e-002
3.978427e+003, 9.459145e-002
3.980355e+003, 9.498157e-002
3.982284e+003, 9.381498e-002
3.984212e+003, 9.315033e-002
3.986141e+003, 9.069500e-002
3.988069e+003, 9.175526e-002
3.989998e+003, 9.224883e-002
3.991926e+003, 9.508684e-002
3.993854e+003, 9.972298e-002
3.995783e+003, 9.573154e-002
3.997711e+003, 9.298270e-002
3.999640e+003, 9.302242e-002
4.001568e+003, 0.000000e+000
##END=



