##NAMES=Anhydrite
##RRUFFID=R040061
##IDEAL CHEMISTRY=CaS^6+^O_4_
##LOCALITY=Chester County, Pennsylvania, USA
##OWNER=RRUFF
##SOURCE=University of Arizona Mineral Museum
##DESCRIPTION=Pale purple fractured single crystal
##STATUS=The identification of this mineral has been confirmed by X-ray diffraction and chemical analysis
##URL=rruff.info/R040061
##MEASURED CHEMISTRY=Ca_0.98_S_1.01_O_4_
3.991926e+002, 0.000000e+000
4.011211e+002, 1.475125e-002
4.030496e+002, 1.480130e-002
4.049780e+002, 1.279836e-002
4.069065e+002, 1.388245e-002
4.088350e+002, 1.150957e-002
4.107634e+002, 1.161140e-002
4.126919e+002, 1.400189e-002
4.146204e+002, 1.354668e-002
4.165488e+002, 1.276568e-002
4.184773e+002, 1.357143e-002
4.204058e+002, 1.349148e-002
4.223342e+002, 1.400613e-002
4.242627e+002, 1.279492e-002
4.261912e+002, 1.274073e-002
4.281196e+002, 1.437856e-002
4.300481e+002, 1.534602e-002
4.319766e+002, 1.364205e-002
4.339050e+002, 1.314139e-002
4.358335e+002, 1.453366e-002
4.377620e+002, 1.493438e-002
4.396904e+002, 1.369509e-002
4.416189e+002, 1.459154e-002
4.435474e+002, 1.405329e-002
4.454758e+002, 1.239297e-002
4.474043e+002, 1.176642e-002
4.493328e+002, 1.237499e-002
4.512612e+002, 1.389157e-002
4.531897e+002, 1.414618e-002
4.551182e+002, 1.449985e-002
4.570466e+002, 1.526955e-002
4.589751e+002, 1.495967e-002
4.609036e+002, 1.469000e-002
4.628320e+002, 1.516196e-002
4.647605e+002, 1.545619e-002
4.666890e+002, 1.415964e-002
4.686174e+002, 1.446399e-002
4.705459e+002, 1.484576e-002
4.724744e+002, 1.467293e-002
4.744028e+002, 1.444139e-002
4.763313e+002, 1.557204e-002
4.782598e+002, 1.562165e-002
4.801882e+002, 1.518602e-002
4.821167e+002, 1.422159e-002
4.840452e+002, 1.346764e-002
4.859736e+002, 1.386848e-002
4.879021e+002, 1.539231e-002
4.898306e+002, 1.578873e-002
4.917590e+002, 1.596332e-002
4.936875e+002, 1.666520e-002
4.956160e+002, 1.654386e-002
4.975444e+002, 1.583480e-002
4.994729e+002, 1.624897e-002
5.014014e+002, 1.642062e-002
5.033298e+002, 1.639342e-002
5.052583e+002, 1.816318e-002
5.071868e+002, 2.015090e-002
5.091152e+002, 2.207268e-002
5.110437e+002, 2.423106e-002
5.129722e+002, 2.379164e-002
5.149006e+002, 2.064540e-002
5.168291e+002, 1.758032e-002
5.187576e+002, 1.605369e-002
5.206860e+002, 1.518278e-002
5.226145e+002, 1.489523e-002
5.245430e+002, 1.598785e-002
5.264714e+002, 1.663218e-002
5.283999e+002, 1.636202e-002
5.303284e+002, 1.634491e-002
5.322568e+002, 1.630003e-002
5.341853e+002, 1.681385e-002
5.361138e+002, 1.726084e-002
5.380422e+002, 1.782601e-002
5.399707e+002, 1.911521e-002
5.418992e+002, 2.025606e-002
5.438276e+002, 2.089212e-002
5.457561e+002, 2.165069e-002
5.476846e+002, 2.271617e-002
5.496130e+002, 2.379964e-002
5.515415e+002, 2.443858e-002
5.534700e+002, 2.456013e-002
5.553984e+002, 2.589709e-002
5.573269e+002, 2.802052e-002
5.592554e+002, 3.085293e-002
5.611838e+002, 3.312052e-002
5.631123e+002, 3.477112e-002
5.650408e+002, 3.684988e-002
5.669692e+002, 3.989455e-002
5.688977e+002, 4.372118e-002
5.708262e+002, 4.893173e-002
5.727546e+002, 5.559770e-002
5.746831e+002, 6.304825e-002
5.766116e+002, 7.254628e-002
5.785400e+002, 8.510346e-002
5.804685e+002, 1.012451e-001
5.823970e+002, 1.220197e-001
5.843254e+002, 1.480893e-001
5.862539e+002, 1.811909e-001
5.881824e+002, 2.247111e-001
5.901108e+002, 2.751022e-001
5.920393e+002, 3.008953e-001
5.939678e+002, 2.792137e-001
5.958962e+002, 2.384616e-001
5.978247e+002, 1.965858e-001
5.997532e+002, 1.612620e-001
6.016816e+002, 1.389203e-001
6.036101e+002, 1.363175e-001
6.055386e+002, 1.523620e-001
6.074670e+002, 1.714265e-001
6.093955e+002, 1.763221e-001
6.113240e+002, 1.672865e-001
6.132524e+002, 1.504146e-001
6.151809e+002, 1.297933e-001
6.171094e+002, 1.070627e-001
6.190378e+002, 8.393785e-002
6.209663e+002, 6.194647e-002
6.228948e+002, 4.327704e-002
6.248232e+002, 3.120288e-002
6.267517e+002, 2.607766e-002
6.286802e+002, 2.454831e-002
6.306086e+002, 2.407752e-002
6.325371e+002, 2.419873e-002
6.344656e+002, 2.463016e-002
6.363940e+002, 2.516766e-002
6.383225e+002, 2.604566e-002
6.402510e+002, 2.723867e-002
6.421794e+002, 2.863746e-002
6.441079e+002, 3.059679e-002
6.460364e+002, 3.289463e-002
6.479648e+002, 3.548251e-002
6.498933e+002, 3.892980e-002
6.518218e+002, 4.338919e-002
6.537502e+002, 4.903155e-002
6.556787e+002, 5.534864e-002
6.576072e+002, 6.327800e-002
6.595356e+002, 7.411752e-002
6.614641e+002, 8.789261e-002
6.633926e+002, 1.054269e-001
6.653210e+002, 1.273548e-001
6.672495e+002, 1.555240e-001
6.691780e+002, 1.866775e-001
6.711064e+002, 2.089648e-001
6.730349e+002, 2.128554e-001
6.749634e+002, 2.036377e-001
6.768918e+002, 1.867390e-001
6.788203e+002, 1.641698e-001
6.807488e+002, 1.401149e-001
6.826772e+002, 1.170401e-001
6.846057e+002, 9.602252e-002
6.865342e+002, 7.753933e-002
6.884626e+002, 6.067814e-002
6.903911e+002, 4.571740e-002
6.923196e+002, 3.333817e-002
6.942480e+002, 2.389605e-002
6.961765e+002, 1.772750e-002
6.981050e+002, 1.463199e-002
7.000334e+002, 1.291816e-002
7.019619e+002, 1.205078e-002
7.038904e+002, 1.181501e-002
7.058188e+002, 1.187789e-002
7.077473e+002, 1.158671e-002
7.096758e+002, 1.140363e-002
7.116042e+002, 1.137981e-002
7.135327e+002, 1.131339e-002
7.154612e+002, 1.108716e-002
7.173896e+002, 1.088804e-002
7.193181e+002, 1.074074e-002
7.212466e+002, 1.034360e-002
7.231750e+002, 1.024461e-002
7.251035e+002, 1.040587e-002
7.270320e+002, 1.056964e-002
7.289604e+002, 1.069592e-002
7.308889e+002, 1.064114e-002
7.328174e+002, 1.066402e-002
7.347458e+002, 1.079863e-002
7.366743e+002, 1.112419e-002
7.386028e+002, 1.136304e-002
7.405313e+002, 1.115846e-002
7.424597e+002, 1.126568e-002
7.443882e+002, 1.166642e-002
7.463167e+002, 1.192444e-002
7.482451e+002, 1.175351e-002
7.501736e+002, 1.105605e-002
7.521021e+002, 1.079970e-002
7.540305e+002, 1.116425e-002
7.559590e+002, 1.144163e-002
7.578875e+002, 1.136923e-002
7.598159e+002, 1.154040e-002
7.617444e+002, 1.169652e-002
7.636729e+002, 1.183894e-002
7.656013e+002, 1.205811e-002
7.675298e+002, 1.220011e-002
7.694583e+002, 1.216214e-002
7.713867e+002, 1.237843e-002
7.733152e+002, 1.244102e-002
7.752437e+002, 1.237679e-002
7.771721e+002, 1.245017e-002
7.791006e+002, 1.260974e-002
7.810291e+002, 1.283658e-002
7.829575e+002, 1.260092e-002
7.848860e+002, 1.249931e-002
7.868145e+002, 1.289857e-002
7.887429e+002, 1.290186e-002
7.906714e+002, 1.261140e-002
7.925999e+002, 1.217430e-002
7.945283e+002, 1.233136e-002
7.964568e+002, 1.283031e-002
7.983853e+002, 1.293548e-002
8.003137e+002, 1.284735e-002
8.022422e+002, 1.311140e-002
8.041707e+002, 1.342239e-002
8.060991e+002, 1.380320e-002
8.080276e+002, 1.452249e-002
8.099561e+002, 1.504185e-002
8.118845e+002, 1.514923e-002
8.138130e+002, 1.533232e-002
8.157415e+002, 1.538025e-002
8.176699e+002, 1.563833e-002
8.195984e+002, 1.609483e-002
8.215269e+002, 1.657312e-002
8.234553e+002, 1.673490e-002
8.253838e+002, 1.691498e-002
8.273123e+002, 1.705691e-002
8.292407e+002, 1.730689e-002
8.311692e+002, 1.767981e-002
8.330977e+002, 1.810494e-002
8.350261e+002, 1.869298e-002
8.369546e+002, 1.967337e-002
8.388831e+002, 2.040284e-002
8.408115e+002, 2.098874e-002
8.427400e+002, 2.116322e-002
8.446685e+002, 2.112995e-002
8.465969e+002, 2.136541e-002
8.485254e+002, 2.146455e-002
8.504539e+002, 2.163633e-002
8.523823e+002, 2.228754e-002
8.543108e+002, 2.277031e-002
8.562393e+002, 2.281614e-002
8.581677e+002, 2.310950e-002
8.600962e+002, 2.376805e-002
8.620247e+002, 2.417677e-002
8.639531e+002, 2.493156e-002
8.658816e+002, 2.529422e-002
8.678101e+002, 2.544105e-002
8.697385e+002, 2.567656e-002
8.716670e+002, 2.599073e-002
8.735955e+002, 2.627454e-002
8.755239e+002, 2.671435e-002
8.774524e+002, 2.702002e-002
8.793809e+002, 2.748304e-002
8.813093e+002, 2.733139e-002
8.832378e+002, 2.750617e-002
8.851663e+002, 2.828238e-002
8.870947e+002, 2.885572e-002
8.890232e+002, 2.907642e-002
8.909517e+002, 2.958428e-002
8.928801e+002, 2.986208e-002
8.948085e+002, 2.988905e-002
8.967370e+002, 3.024428e-002
8.986655e+002, 3.079019e-002
9.005939e+002, 3.136163e-002
9.025224e+002, 3.206427e-002
9.044509e+002, 3.284461e-002
9.063793e+002, 3.380451e-002
9.083078e+002, 3.467214e-002
9.102363e+002, 3.545071e-002
9.121647e+002, 3.642662e-002
9.140932e+002, 3.734453e-002
9.160217e+002, 3.823918e-002
9.179501e+002, 3.920902e-002
9.198786e+002, 3.968116e-002
9.218071e+002, 4.009506e-002
9.237355e+002, 4.092991e-002
9.256640e+002, 4.189156e-002
9.275925e+002, 4.253850e-002
9.295209e+002, 4.319546e-002
9.314494e+002, 4.380058e-002
9.333779e+002, 4.427521e-002
9.353063e+002, 4.517366e-002
9.372348e+002, 4.613971e-002
9.391633e+002, 4.715850e-002
9.410917e+002, 4.857436e-002
9.430202e+002, 4.971493e-002
9.449487e+002, 5.088238e-002
9.468771e+002, 5.178765e-002
9.488056e+002, 5.267375e-002
9.507341e+002, 5.409642e-002
9.526625e+002, 5.541623e-002
9.545910e+002, 5.682948e-002
9.565195e+002, 5.854489e-002
9.584479e+002, 5.989261e-002
9.603764e+002, 6.112618e-002
9.623049e+002, 6.256460e-002
9.642333e+002, 6.453668e-002
9.661618e+002, 6.631143e-002
9.680903e+002, 6.810500e-002
9.700187e+002, 7.000154e-002
9.719472e+002, 7.194825e-002
9.738757e+002, 7.387254e-002
9.758041e+002, 7.578531e-002
9.777326e+002, 7.775153e-002
9.796611e+002, 7.995149e-002
9.815895e+002, 8.224440e-002
9.835180e+002, 8.456857e-002
9.854465e+002, 8.723529e-002
9.873749e+002, 9.037524e-002
9.893034e+002, 9.343399e-002
9.912319e+002, 9.657145e-002
9.931603e+002, 9.989541e-002
9.950888e+002, 1.035207e-001
9.970173e+002, 1.077121e-001
9.989457e+002, 1.117756e-001
1.000874e+003, 1.156735e-001
1.002803e+003, 1.200996e-001
1.004731e+003, 1.245406e-001
1.006660e+003, 1.287265e-001
1.008588e+003, 1.338042e-001
1.010517e+003, 1.403860e-001
1.012445e+003, 1.476308e-001
1.014373e+003, 1.507878e-001
1.016302e+003, 1.492529e-001
1.018230e+003, 1.499572e-001
1.020159e+003, 1.540720e-001
1.022087e+003, 1.594692e-001
1.024016e+003, 1.654912e-001
1.025944e+003, 1.720281e-001
1.027873e+003, 1.789015e-001
1.029801e+003, 1.860769e-001
1.031730e+003, 1.933683e-001
1.033658e+003, 2.012752e-001
1.035587e+003, 2.093451e-001
1.037515e+003, 2.176047e-001
1.039444e+003, 2.261681e-001
1.041372e+003, 2.353628e-001
1.043301e+003, 2.447169e-001
1.045229e+003, 2.543412e-001
1.047157e+003, 2.643461e-001
1.049086e+003, 2.746992e-001
1.051014e+003, 2.849876e-001
1.052943e+003, 2.955830e-001
1.054871e+003, 3.065731e-001
1.056800e+003, 3.180774e-001
1.058728e+003, 3.299729e-001
1.060657e+003, 3.421469e-001
1.062585e+003, 3.550274e-001
1.064514e+003, 3.681493e-001
1.066442e+003, 3.809700e-001
1.068371e+003, 3.939835e-001
1.070299e+003, 4.074117e-001
1.072228e+003, 4.214767e-001
1.074156e+003, 4.358581e-001
1.076084e+003, 4.497842e-001
1.078013e+003, 4.632353e-001
1.079941e+003, 4.773606e-001
1.081870e+003, 4.913478e-001
1.083798e+003, 5.047993e-001
1.085727e+003, 5.179721e-001
1.087655e+003, 5.314171e-001
1.089584e+003, 5.436949e-001
1.091512e+003, 5.550528e-001
1.093441e+003, 5.652677e-001
1.095369e+003, 5.708725e-001
1.097298e+003, 5.691171e-001
1.099226e+003, 5.626326e-001
1.101155e+003, 5.555941e-001
1.103083e+003, 5.506836e-001
1.105011e+003, 5.468913e-001
1.106940e+003, 5.431433e-001
1.108868e+003, 5.382416e-001
1.110797e+003, 5.317618e-001
1.112725e+003, 5.240236e-001
1.114654e+003, 5.160897e-001
1.116582e+003, 5.080565e-001
1.118511e+003, 4.999954e-001
1.120439e+003, 4.912661e-001
1.122368e+003, 4.817447e-001
1.124296e+003, 4.721500e-001
1.126225e+003, 4.616091e-001
1.128153e+003, 4.502399e-001
1.130082e+003, 4.385901e-001
1.132010e+003, 4.267820e-001
1.133938e+003, 4.155589e-001
1.135867e+003, 4.052484e-001
1.137795e+003, 3.959250e-001
1.139724e+003, 3.869616e-001
1.141652e+003, 3.784500e-001
1.143581e+003, 3.697910e-001
1.145509e+003, 3.611333e-001
1.147438e+003, 3.528926e-001
1.149366e+003, 3.440388e-001
1.151295e+003, 3.323683e-001
1.153223e+003, 3.173269e-001
1.155152e+003, 3.007986e-001
1.157080e+003, 2.843521e-001
1.159009e+003, 2.686580e-001
1.160937e+003, 2.540313e-001
1.162865e+003, 2.403327e-001
1.164794e+003, 2.274517e-001
1.166722e+003, 2.150758e-001
1.168651e+003, 2.032523e-001
1.170579e+003, 1.920477e-001
1.172508e+003, 1.814470e-001
1.174436e+003, 1.713545e-001
1.176365e+003, 1.619942e-001
1.178293e+003, 1.529981e-001
1.180222e+003, 1.443888e-001
1.182150e+003, 1.362400e-001
1.184079e+003, 1.283409e-001
1.186007e+003, 1.210280e-001
1.187936e+003, 1.143539e-001
1.189864e+003, 1.078038e-001
1.191792e+003, 1.013540e-001
1.193721e+003, 9.520506e-002
1.195649e+003, 8.946531e-002
1.197578e+003, 8.365735e-002
1.199506e+003, 7.752109e-002
1.201435e+003, 7.150154e-002
1.203363e+003, 6.557010e-002
1.205292e+003, 6.005276e-002
1.207220e+003, 5.520515e-002
1.209149e+003, 5.045192e-002
1.211077e+003, 4.627164e-002
1.213006e+003, 4.290786e-002
1.214934e+003, 4.064431e-002
1.216863e+003, 3.919411e-002
1.218791e+003, 3.742993e-002
1.220719e+003, 3.485912e-002
1.222648e+003, 3.184920e-002
1.224576e+003, 2.891932e-002
1.226505e+003, 2.603786e-002
1.228433e+003, 2.327234e-002
1.230362e+003, 2.076276e-002
1.232290e+003, 1.838597e-002
1.234219e+003, 1.634569e-002
1.236147e+003, 1.463939e-002
1.238076e+003, 1.327767e-002
1.240004e+003, 1.213625e-002
1.241933e+003, 1.131315e-002
1.243861e+003, 1.056789e-002
1.245790e+003, 1.020033e-002
1.247718e+003, 9.871902e-003
1.249646e+003, 9.386229e-003
1.251575e+003, 8.577839e-003
1.253503e+003, 7.668220e-003
1.255432e+003, 6.960984e-003
1.257360e+003, 6.330006e-003
1.259289e+003, 5.584875e-003
1.261217e+003, 5.044256e-003
1.263146e+003, 4.897282e-003
1.265074e+003, 4.780821e-003
1.267003e+003, 4.625136e-003
1.268931e+003, 4.797618e-003
1.270860e+003, 4.856893e-003
1.272788e+003, 4.931091e-003
1.274717e+003, 5.113017e-003
1.276645e+003, 5.172181e-003
1.278573e+003, 5.159060e-003
1.280502e+003, 5.437345e-003
1.282430e+003, 5.641349e-003
1.284359e+003, 5.416169e-003
1.286287e+003, 5.104938e-003
1.288216e+003, 4.934200e-003
1.290144e+003, 4.713445e-003
1.292073e+003, 4.623650e-003
1.294001e+003, 4.387735e-003
1.295930e+003, 4.132970e-003
1.297858e+003, 3.569461e-003
1.299787e+003, 3.203118e-003
1.301715e+003, 2.935874e-003
1.303644e+003, 2.489600e-003
1.305572e+003, 2.212055e-003
1.307500e+003, 2.363100e-003
1.309429e+003, 2.435701e-003
1.311357e+003, 2.285285e-003
1.313286e+003, 2.517422e-003
1.315214e+003, 2.845608e-003
1.317143e+003, 2.452766e-003
1.319071e+003, 2.016554e-003
1.321000e+003, 1.956243e-003
1.322928e+003, 2.031235e-003
1.324857e+003, 1.876516e-003
1.326785e+003, 1.744905e-003
1.328714e+003, 1.485924e-003
1.330642e+003, 1.639982e-003
1.332571e+003, 1.966169e-003
1.334499e+003, 2.205370e-003
1.336427e+003, 2.203894e-003
1.338356e+003, 2.108369e-003
1.340284e+003, 1.765622e-003
1.342213e+003, 1.599920e-003
1.344141e+003, 1.797803e-003
1.346070e+003, 1.715672e-003
1.347998e+003, 1.627295e-003
1.349927e+003, 1.839518e-003
1.351855e+003, 1.726241e-003
1.353784e+003, 1.533629e-003
1.355712e+003, 1.412064e-003
1.357641e+003, 1.372021e-003
1.359569e+003, 1.295208e-003
1.361498e+003, 1.106851e-003
1.363426e+003, 1.407825e-003
1.365354e+003, 1.633682e-003
1.367283e+003, 1.481860e-003
1.369211e+003, 1.588550e-003
1.371140e+003, 1.847024e-003
1.373068e+003, 1.710587e-003
1.374997e+003, 1.400439e-003
1.376925e+003, 1.473665e-003
1.378854e+003, 1.552670e-003
1.380782e+003, 1.389667e-003
1.382711e+003, 1.450995e-003
1.384639e+003, 1.529201e-003
1.386568e+003, 1.428632e-003
1.388496e+003, 1.597713e-003
1.390424e+003, 1.658248e-003
1.392353e+003, 1.709743e-003
1.394281e+003, 1.597265e-003
1.396210e+003, 1.643284e-003
1.398138e+003, 1.713101e-003
1.400067e+003, 1.641508e-003
1.401995e+003, 1.515671e-003
1.403924e+003, 1.711925e-003
1.405852e+003, 1.930139e-003
1.407781e+003, 1.796865e-003
1.409709e+003, 1.535003e-003
1.411638e+003, 1.632160e-003
1.413566e+003, 1.852402e-003
1.415495e+003, 1.849297e-003
1.417423e+003, 1.689577e-003
1.419351e+003, 1.715893e-003
1.421280e+003, 1.731430e-003
1.423208e+003, 1.761421e-003
1.425137e+003, 1.774570e-003
1.427065e+003, 1.709801e-003
1.428994e+003, 1.529367e-003
1.430922e+003, 1.689398e-003
1.432851e+003, 1.916752e-003
1.434779e+003, 1.752484e-003
1.436708e+003, 1.704731e-003
1.438636e+003, 1.823896e-003
1.440565e+003, 1.889503e-003
1.442493e+003, 2.040508e-003
1.444422e+003, 1.970947e-003
1.446350e+003, 1.940205e-003
1.448278e+003, 1.979483e-003
1.450207e+003, 2.064415e-003
1.452135e+003, 2.091110e-003
1.454064e+003, 1.948328e-003
1.455992e+003, 1.526590e-003
1.457921e+003, 1.665805e-003
1.459849e+003, 2.018589e-003
1.461778e+003, 2.073101e-003
1.463706e+003, 1.979889e-003
1.465635e+003, 2.009517e-003
1.467563e+003, 2.211985e-003
1.469492e+003, 2.308612e-003
1.471420e+003, 2.106576e-003
1.473349e+003, 2.031330e-003
1.475277e+003, 2.014770e-003
1.477205e+003, 1.768919e-003
1.479134e+003, 1.861762e-003
1.481062e+003, 2.132281e-003
1.482991e+003, 2.142051e-003
1.484919e+003, 1.792620e-003
1.486848e+003, 1.673265e-003
1.488776e+003, 1.976008e-003
1.490705e+003, 2.273731e-003
1.492633e+003, 2.351623e-003
1.494562e+003, 1.951887e-003
1.496490e+003, 1.836772e-003
1.498419e+003, 1.890593e-003
1.500347e+003, 1.945552e-003
1.502276e+003, 1.928480e-003
1.504204e+003, 1.633864e-003
1.506132e+003, 1.364568e-003
1.508061e+003, 1.474949e-003
1.509989e+003, 1.637084e-003
1.511918e+003, 1.909522e-003
1.513846e+003, 1.984886e-003
1.515775e+003, 1.907180e-003
1.517703e+003, 1.820654e-003
1.519632e+003, 2.136259e-003
1.521560e+003, 2.246636e-003
1.523489e+003, 2.523624e-003
1.525417e+003, 2.671509e-003
1.527346e+003, 2.600469e-003
1.529274e+003, 2.622992e-003
1.531203e+003, 2.731710e-003
1.533131e+003, 2.600046e-003
1.535059e+003, 2.722344e-003
1.536988e+003, 2.666764e-003
1.538916e+003, 2.300286e-003
1.540845e+003, 2.376299e-003
1.542773e+003, 2.844230e-003
1.544702e+003, 3.325432e-003
1.546630e+003, 3.352028e-003
1.548559e+003, 3.306078e-003
1.550487e+003, 3.338024e-003
1.552416e+003, 3.316786e-003
1.554344e+003, 3.348359e-003
1.556273e+003, 3.309670e-003
1.558201e+003, 3.092832e-003
1.560130e+003, 3.022949e-003
1.562058e+003, 3.423329e-003
1.563986e+003, 3.749029e-003
1.565915e+003, 3.827774e-003
1.567843e+003, 3.801487e-003
1.569772e+003, 3.369425e-003
1.571700e+003, 3.309994e-003
1.573629e+003, 3.270956e-003
1.575557e+003, 3.197341e-003
1.577486e+003, 3.413909e-003
1.579414e+003, 3.943860e-003
1.581343e+003, 4.354941e-003
1.583271e+003, 4.274655e-003
1.585200e+003, 4.152087e-003
1.587128e+003, 4.309196e-003
1.589057e+003, 4.678783e-003
1.590985e+003, 4.826508e-003
1.592913e+003, 4.702331e-003
1.594842e+003, 4.897229e-003
1.596770e+003, 4.940051e-003
1.598699e+003, 5.209125e-003
1.600627e+003, 5.167665e-003
1.602556e+003, 5.170926e-003
1.604484e+003, 5.858585e-003
1.606413e+003, 6.128245e-003
1.608341e+003, 6.382041e-003
1.610270e+003, 7.032441e-003
1.612198e+003, 8.182073e-003
1.614127e+003, 9.472048e-003
1.616055e+003, 1.096380e-002
1.617984e+003, 1.234792e-002
1.619912e+003, 1.294807e-002
1.621840e+003, 1.252334e-002
1.623769e+003, 1.166913e-002
1.625697e+003, 1.069999e-002
1.627626e+003, 9.545751e-003
1.629554e+003, 8.423572e-003
1.631483e+003, 7.969888e-003
1.633411e+003, 6.926732e-003
1.635340e+003, 5.750397e-003
1.637268e+003, 5.657670e-003
1.639197e+003, 5.884421e-003
1.641125e+003, 5.786669e-003
1.643054e+003, 5.740301e-003
1.644982e+003, 5.559197e-003
1.646911e+003, 5.364226e-003
1.648839e+003, 4.952969e-003
1.650767e+003, 4.497995e-003
1.652696e+003, 4.288412e-003
1.654624e+003, 4.675878e-003
1.656553e+003, 5.114979e-003
1.658481e+003, 5.127297e-003
1.660410e+003, 4.966641e-003
1.662338e+003, 5.259666e-003
1.664267e+003, 5.685291e-003
1.666195e+003, 5.628918e-003
1.668124e+003, 5.459127e-003
1.670052e+003, 5.752052e-003
1.671981e+003, 5.757507e-003
1.673909e+003, 5.667494e-003
1.675838e+003, 5.844471e-003
1.677766e+003, 6.454180e-003
1.679694e+003, 7.152844e-003
1.681623e+003, 7.402730e-003
1.683551e+003, 7.312335e-003
1.685480e+003, 7.170497e-003
1.687408e+003, 6.884127e-003
1.689337e+003, 6.642284e-003
1.691265e+003, 6.558505e-003
1.693194e+003, 6.446776e-003
1.695122e+003, 5.720840e-003
1.697051e+003, 5.309834e-003
1.698979e+003, 5.307883e-003
1.700908e+003, 5.026095e-003
1.702836e+003, 5.501361e-003
1.704765e+003, 5.814321e-003
1.706693e+003, 5.849089e-003
1.708621e+003, 6.078470e-003
1.710550e+003, 6.142514e-003
1.712478e+003, 5.640496e-003
1.714407e+003, 5.330761e-003
1.716335e+003, 5.114947e-003
1.718264e+003, 5.260420e-003
1.720192e+003, 5.886669e-003
1.722121e+003, 5.984866e-003
1.724049e+003, 5.676354e-003
1.725978e+003, 5.755821e-003
1.727906e+003, 5.587343e-003
1.729835e+003, 5.248708e-003
1.731763e+003, 4.853245e-003
1.733692e+003, 4.675585e-003
1.735620e+003, 4.912758e-003
1.737548e+003, 5.310095e-003
1.739477e+003, 4.785556e-003
1.741405e+003, 4.376210e-003
1.743334e+003, 4.677621e-003
1.745262e+003, 4.828766e-003
1.747191e+003, 4.673571e-003
1.749119e+003, 4.668611e-003
1.751048e+003, 4.871533e-003
1.752976e+003, 4.682058e-003
1.754905e+003, 4.354474e-003
1.756833e+003, 4.304571e-003
1.758762e+003, 4.374679e-003
1.760690e+003, 4.589581e-003
1.762619e+003, 4.700097e-003
1.764547e+003, 4.702264e-003
1.766475e+003, 4.458802e-003
1.768404e+003, 4.371366e-003
1.770332e+003, 4.538005e-003
1.772261e+003, 4.333564e-003
1.774189e+003, 4.529378e-003
1.776118e+003, 4.641907e-003
1.778046e+003, 4.695959e-003
1.779975e+003, 4.904843e-003
1.781903e+003, 4.801744e-003
1.783832e+003, 4.540038e-003
1.785760e+003, 4.709098e-003
1.787689e+003, 4.882895e-003
1.789617e+003, 4.882440e-003
1.791546e+003, 4.970883e-003
1.793474e+003, 4.829571e-003
1.795402e+003, 4.475575e-003
1.797331e+003, 4.498504e-003
1.799259e+003, 4.532210e-003
1.801188e+003, 4.744879e-003
1.803116e+003, 5.084047e-003
1.805045e+003, 4.809323e-003
1.806973e+003, 4.559554e-003
1.808902e+003, 4.207918e-003
1.810830e+003, 4.194700e-003
1.812759e+003, 4.492350e-003
1.814687e+003, 4.001131e-003
1.816616e+003, 4.245801e-003
1.818544e+003, 5.279365e-003
1.820473e+003, 5.289786e-003
1.822401e+003, 4.623926e-003
1.824329e+003, 4.456533e-003
1.826258e+003, 5.039330e-003
1.828186e+003, 5.275060e-003
1.830115e+003, 4.914545e-003
1.832043e+003, 5.037739e-003
1.833972e+003, 4.526113e-003
1.835900e+003, 4.341579e-003
1.837829e+003, 4.322072e-003
1.839757e+003, 4.687945e-003
1.841686e+003, 5.285880e-003
1.843614e+003, 4.546830e-003
1.845543e+003, 4.201333e-003
1.847471e+003, 4.383065e-003
1.849400e+003, 4.205590e-003
1.851328e+003, 3.944709e-003
1.853256e+003, 3.929406e-003
1.855185e+003, 4.653657e-003
1.857113e+003, 4.553946e-003
1.859042e+003, 4.206104e-003
1.860970e+003, 4.057765e-003
1.862899e+003, 3.979712e-003
1.864827e+003, 4.299305e-003
1.866756e+003, 5.025752e-003
1.868684e+003, 4.629850e-003
1.870613e+003, 4.689691e-003
1.872541e+003, 4.983601e-003
1.874470e+003, 4.980318e-003
1.876398e+003, 4.515048e-003
1.878327e+003, 4.448824e-003
1.880255e+003, 4.427934e-003
1.882183e+003, 4.229991e-003
1.884112e+003, 3.970861e-003
1.886040e+003, 4.169206e-003
1.887969e+003, 4.625949e-003
1.889897e+003, 4.434662e-003
1.891826e+003, 3.424403e-003
1.893754e+003, 3.728021e-003
1.895683e+003, 4.128757e-003
1.897611e+003, 3.892131e-003
1.899540e+003, 3.909079e-003
1.901468e+003, 3.786127e-003
1.903397e+003, 3.763645e-003
1.905325e+003, 4.238413e-003
1.907254e+003, 4.623472e-003
1.909182e+003, 4.552253e-003
1.911110e+003, 4.060171e-003
1.913039e+003, 4.952864e-003
1.914967e+003, 5.354445e-003
1.916896e+003, 4.978294e-003
1.918824e+003, 3.428112e-003
1.920753e+003, 2.455180e-003
1.922681e+003, 2.449448e-003
1.924610e+003, 2.751248e-003
1.926538e+003, 3.633302e-003
1.928467e+003, 2.999197e-003
1.930395e+003, 2.493539e-003
1.932324e+003, 3.070603e-003
1.934252e+003, 4.102925e-003
1.936181e+003, 4.359324e-003
1.938109e+003, 2.668410e-003
1.940037e+003, 2.221275e-003
1.941966e+003, 2.219873e-003
1.943894e+003, 1.458804e-003
1.945823e+003, 6.595156e-004
1.947751e+003, 5.058309e-004
1.949680e+003, 2.740384e-004
1.951608e+003, 1.395526e-003
1.953537e+003, 2.612226e-003
1.955465e+003, 2.848547e-003
1.957394e+003, 2.016737e-003
1.959322e+003, 1.174271e-003
1.961251e+003, 1.598795e-003
1.963179e+003, 2.156119e-003
1.965108e+003, 3.061246e-003
1.967036e+003, 3.284218e-003
1.968964e+003, 2.217272e-003
1.970893e+003, 4.899006e-004
1.972821e+003, 1.254689e-003
1.974750e+003, 6.137555e-004
1.976678e+003, -1.192802e-003
1.978607e+003, 3.823299e-003
1.980535e+003, 5.891273e-003
1.982464e+003, 4.930411e-003
1.984392e+003, 3.375154e-003
1.986321e+003, 1.661052e-003
1.988249e+003, 2.379735e-003
1.990178e+003, 2.696238e-003
1.992106e+003, -3.278796e-004
1.994035e+003, -1.069887e-003
1.995963e+003, -3.599696e-004
1.997891e+003, 1.480381e-003
1.999820e+003, 1.950865e-003
2.001748e+003, 9.126997e-004
2.003677e+003, 1.705951e-003
2.005605e+003, 3.188258e-003
2.007534e+003, 2.989381e-003
2.009462e+003, 7.136767e-004
2.011391e+003, 1.934544e-003
2.013319e+003, 3.458359e-003
2.015248e+003, 1.963882e-003
2.017176e+003, 1.810138e-003
2.019105e+003, 1.892492e-003
2.021033e+003, -6.353497e-004
2.022962e+003, -1.899534e-003
2.024890e+003, -1.272919e-003
2.026818e+003, 2.774167e-004
2.028747e+003, -4.354770e-006
2.030675e+003, 6.901138e-005
2.032604e+003, 2.542598e-003
2.034532e+003, 3.334780e-003
2.036461e+003, 3.283917e-003
2.038389e+003, 2.230116e-003
2.040318e+003, 7.308490e-004
2.042246e+003, 9.432650e-004
2.044175e+003, 1.065318e-003
2.046103e+003, 1.470068e-003
2.048032e+003, 4.894047e-003
2.049960e+003, 6.664174e-003
2.051889e+003, 5.509062e-003
2.053817e+003, 2.265848e-003
2.055746e+003, 1.207952e-004
2.057674e+003, 1.376523e-003
2.059603e+003, 4.630981e-003
2.061531e+003, 4.463369e-003
2.063459e+003, 3.285601e-003
2.065388e+003, 2.059729e-003
2.067316e+003, 2.906622e-003
2.069245e+003, 3.304742e-003
2.071173e+003, 3.361489e-003
2.073102e+003, 3.890855e-003
2.075030e+003, 5.004821e-003
2.076959e+003, 4.065761e-003
2.078887e+003, 3.350365e-003
2.080816e+003, 3.165697e-003
2.082744e+003, 4.425083e-003
2.084673e+003, 4.729767e-003
2.086601e+003, 3.766657e-003
2.088530e+003, 3.148526e-003
2.090458e+003, 2.811034e-003
2.092386e+003, 1.996342e-003
2.094315e+003, 2.774591e-003
2.096243e+003, 3.329187e-003
2.098172e+003, 2.604254e-003
2.100100e+003, 3.714273e-003
2.102029e+003, 4.689634e-003
2.103957e+003, 4.213345e-003
2.105886e+003, 4.149307e-003
2.107814e+003, 2.823786e-003
2.109743e+003, 3.182694e-003
2.111671e+003, 3.000657e-003
2.113600e+003, 2.530885e-003
2.115528e+003, 2.823347e-003
2.117457e+003, 2.880592e-003
2.119385e+003, 3.889318e-003
2.121313e+003, 5.007847e-003
2.123242e+003, 5.045138e-003
2.125170e+003, 5.479434e-003
2.127099e+003, 6.357836e-003
2.129027e+003, 6.832940e-003
2.130956e+003, 4.193082e-003
2.132884e+003, 2.788782e-003
2.134813e+003, 4.062093e-003
2.136741e+003, 3.699056e-003
2.138670e+003, 3.209994e-003
2.140598e+003, 3.158994e-003
2.142527e+003, 3.462113e-003
2.144455e+003, 3.661881e-003
2.146384e+003, 1.187671e-003
2.148312e+003, -1.771799e-003
2.150240e+003, -4.215127e-003
2.152169e+003, -7.425037e-003
2.154097e+003, -8.443049e-003
2.156026e+003, -7.431447e-003
2.157954e+003, -5.395459e-003
2.159883e+003, 3.215547e-004
2.161811e+003, 3.965176e-005
2.163740e+003, -9.711597e-004
2.165668e+003, -4.837278e-004
2.167597e+003, -1.403225e-003
2.169525e+003, -5.519194e-003
2.171454e+003, -4.968247e-003
2.173382e+003, -2.505907e-003
2.175311e+003, -2.017743e-003
2.177239e+003, -1.642437e-003
2.179167e+003, -3.279025e-003
2.181096e+003, -5.348707e-003
2.183024e+003, -4.740344e-003
2.184953e+003, -3.228844e-003
2.186881e+003, -1.335373e-003
2.188810e+003, -1.901568e-003
2.190738e+003, -3.931184e-003
2.192667e+003, -2.013640e-003
2.194595e+003, -1.888059e-003
2.196524e+003, -1.314463e-003
2.198452e+003, 1.697653e-004
2.200381e+003, -5.356538e-004
2.202309e+003, -2.036861e-004
2.204238e+003, -6.447637e-004
2.206166e+003, -9.529869e-004
2.208094e+003, -5.087049e-004
2.210023e+003, -6.765507e-004
2.211951e+003, -1.972493e-003
2.213880e+003, -2.474690e-003
2.215808e+003, -1.534629e-003
2.217737e+003, 5.059401e-004
2.219665e+003, 2.711084e-003
2.221594e+003, 2.883637e-003
2.223522e+003, 1.778040e-003
2.225451e+003, 2.931164e-003
2.227379e+003, 2.941744e-003
2.229308e+003, 2.040008e-003
2.231236e+003, 4.402073e-003
2.233165e+003, 7.456080e-003
2.235093e+003, 6.255073e-003
2.237021e+003, 4.019273e-003
2.238950e+003, 4.449763e-003
2.240878e+003, 3.681324e-003
2.242807e+003, 1.178388e-003
2.244735e+003, 2.896446e-003
2.246664e+003, 4.735047e-003
2.248592e+003, 4.224505e-003
2.250521e+003, 1.629863e-003
2.252449e+003, 1.457211e-003
2.254378e+003, 2.909267e-003
2.256306e+003, 4.631567e-003
2.258235e+003, 5.695099e-003
2.260163e+003, 5.061513e-003
2.262092e+003, 2.856568e-003
2.264020e+003, 2.412488e-003
2.265948e+003, 3.479906e-003
2.267877e+003, 3.868269e-003
2.269805e+003, 3.713236e-003
2.271734e+003, 4.299057e-003
2.273662e+003, 5.255280e-003
2.275591e+003, 7.179371e-003
2.277519e+003, 6.955450e-003
2.279448e+003, 6.075203e-003
2.281376e+003, 6.050613e-003
2.283305e+003, 6.210412e-003
2.285233e+003, 7.399064e-003
2.287162e+003, 8.494135e-003
2.289090e+003, 8.028327e-003
2.291019e+003, 7.592646e-003
2.292947e+003, 7.205879e-003
2.294875e+003, 6.850803e-003
2.296804e+003, 7.523149e-003
2.298732e+003, 8.396572e-003
2.300661e+003, 8.132417e-003
2.302589e+003, 7.783410e-003
2.304518e+003, 7.863170e-003
2.306446e+003, 7.788036e-003
2.308375e+003, 7.960632e-003
2.310303e+003, 8.478215e-003
2.312232e+003, 8.567985e-003
2.314160e+003, 8.263348e-003
2.316089e+003, 8.621642e-003
2.318017e+003, 9.218904e-003
2.319946e+003, 1.013969e-002
2.321874e+003, 1.044564e-002
2.323802e+003, 9.693042e-003
2.325731e+003, 8.367881e-003
2.327659e+003, 8.409867e-003
2.329588e+003, 9.229817e-003
2.331516e+003, 8.917027e-003
2.333445e+003, 8.394098e-003
2.335373e+003, 8.078985e-003
2.337302e+003, 7.967034e-003
2.339230e+003, 8.306846e-003
2.341159e+003, 8.014429e-003
2.343087e+003, 8.402710e-003
2.345016e+003, 8.368594e-003
2.346944e+003, 8.100740e-003
2.348873e+003, 8.137275e-003
2.350801e+003, 7.972619e-003
2.352729e+003, 8.198172e-003
2.354658e+003, 8.164801e-003
2.356586e+003, 7.707957e-003
2.358515e+003, 7.886681e-003
2.360443e+003, 8.496395e-003
2.362372e+003, 8.220731e-003
2.364300e+003, 7.210666e-003
2.366229e+003, 6.909938e-003
2.368157e+003, 7.302067e-003
2.370086e+003, 6.716317e-003
2.372014e+003, 6.592405e-003
2.373942e+003, 7.179679e-003
2.375871e+003, 8.048395e-003
2.377799e+003, 8.016399e-003
2.379728e+003, 7.241738e-003
2.381656e+003, 8.532804e-003
2.383585e+003, 9.022541e-003
2.385513e+003, 7.329754e-003
2.387442e+003, 6.585083e-003
2.389370e+003, 7.005701e-003
2.391299e+003, 8.115494e-003
2.393227e+003, 8.210456e-003
2.395156e+003, 8.062187e-003
2.397084e+003, 8.642850e-003
2.399012e+003, 8.947031e-003
2.400941e+003, 8.401981e-003
2.402869e+003, 8.169798e-003
2.404798e+003, 9.029855e-003
2.406726e+003, 9.831602e-003
2.408655e+003, 9.058446e-003
2.410583e+003, 8.196285e-003
2.412512e+003, 7.831913e-003
2.414440e+003, 8.106713e-003
2.416369e+003, 9.312148e-003
2.418297e+003, 9.039078e-003
2.420226e+003, 8.616946e-003
2.422154e+003, 9.454889e-003
2.424083e+003, 9.426456e-003
2.426011e+003, 8.569807e-003
2.427939e+003, 8.124406e-003
2.429868e+003, 8.607234e-003
2.431796e+003, 8.770445e-003
2.433725e+003, 8.499547e-003
2.435653e+003, 9.257940e-003
2.437582e+003, 9.544602e-003
2.439510e+003, 8.927492e-003
2.441439e+003, 9.542882e-003
2.443367e+003, 9.420443e-003
2.445296e+003, 9.540945e-003
2.447224e+003, 9.802593e-003
2.449153e+003, 9.747748e-003
2.451081e+003, 1.027034e-002
2.453010e+003, 1.069562e-002
2.454938e+003, 1.092026e-002
2.456866e+003, 1.021188e-002
2.458795e+003, 9.691108e-003
2.460723e+003, 1.119139e-002
2.462652e+003, 1.146555e-002
2.464580e+003, 1.070140e-002
2.466509e+003, 9.831739e-003
2.468437e+003, 9.397177e-003
2.470366e+003, 9.091098e-003
2.472294e+003, 9.576348e-003
2.474223e+003, 9.874213e-003
2.476151e+003, 9.055679e-003
2.478080e+003, 8.948059e-003
2.480008e+003, 1.112946e-002
2.481937e+003, 1.213946e-002
2.483865e+003, 1.084996e-002
2.485793e+003, 9.792072e-003
2.487722e+003, 9.450278e-003
2.489650e+003, 8.802826e-003
2.491579e+003, 9.313069e-003
2.493507e+003, 9.545313e-003
2.495436e+003, 9.028179e-003
2.497364e+003, 9.580337e-003
2.499293e+003, 1.091918e-002
2.501221e+003, 1.042858e-002
2.503150e+003, 1.030887e-002
2.505078e+003, 1.017175e-002
2.507007e+003, 1.042235e-002
2.508935e+003, 1.061012e-002
2.510864e+003, 1.081908e-002
2.512792e+003, 9.978159e-003
2.514720e+003, 9.360920e-003
2.516649e+003, 9.666624e-003
2.518577e+003, 1.007243e-002
2.520506e+003, 9.108689e-003
2.522434e+003, 9.393046e-003
2.524363e+003, 1.069299e-002
2.526291e+003, 1.052085e-002
2.528220e+003, 1.034976e-002
2.530148e+003, 1.073314e-002
2.532077e+003, 1.030884e-002
2.534005e+003, 1.034708e-002
2.535934e+003, 1.070021e-002
2.537862e+003, 1.157292e-002
2.539791e+003, 1.193640e-002
2.541719e+003, 1.238051e-002
2.543647e+003, 1.273818e-002
2.545576e+003, 1.238703e-002
2.547504e+003, 1.196260e-002
2.549433e+003, 1.273773e-002
2.551361e+003, 1.202842e-002
2.553290e+003, 1.013698e-002
2.555218e+003, 1.013087e-002
2.557147e+003, 1.153697e-002
2.559075e+003, 1.153568e-002
2.561004e+003, 1.191805e-002
2.562932e+003, 1.194760e-002
2.564861e+003, 1.100820e-002
2.566789e+003, 1.199146e-002
2.568718e+003, 1.294829e-002
2.570646e+003, 1.170610e-002
2.572574e+003, 1.053714e-002
2.574503e+003, 9.920459e-003
2.576431e+003, 9.866068e-003
2.578360e+003, 1.054781e-002
2.580288e+003, 1.157517e-002
2.582217e+003, 1.093638e-002
2.584145e+003, 1.077802e-002
2.586074e+003, 1.211419e-002
2.588002e+003, 1.225603e-002
2.589931e+003, 1.136536e-002
2.591859e+003, 1.077844e-002
2.593788e+003, 1.156477e-002
2.595716e+003, 1.125446e-002
2.597645e+003, 1.147055e-002
2.599573e+003, 1.268671e-002
2.601501e+003, 1.316954e-002
2.603430e+003, 1.276776e-002
2.605358e+003, 1.235274e-002
2.607287e+003, 1.211533e-002
2.609215e+003, 1.207753e-002
2.611144e+003, 1.234986e-002
2.613072e+003, 1.278701e-002
2.615001e+003, 1.342189e-002
2.616929e+003, 1.334659e-002
2.618858e+003, 1.328178e-002
2.620786e+003, 1.337451e-002
2.622715e+003, 1.242549e-002
2.624643e+003, 1.227959e-002
2.626572e+003, 1.285626e-002
2.628500e+003, 1.252678e-002
2.630428e+003, 1.172906e-002
2.632357e+003, 1.120422e-002
2.634285e+003, 1.228074e-002
2.636214e+003, 1.253991e-002
2.638142e+003, 1.225687e-002
2.640071e+003, 1.310871e-002
2.641999e+003, 1.350026e-002
2.643928e+003, 1.277862e-002
2.645856e+003, 1.273304e-002
2.647785e+003, 1.241741e-002
2.649713e+003, 1.262850e-002
2.651642e+003, 1.296093e-002
2.653570e+003, 1.340379e-002
2.655499e+003, 1.273380e-002
2.657427e+003, 1.201820e-002
2.659355e+003, 1.215906e-002
2.661284e+003, 1.235812e-002
2.663212e+003, 1.251202e-002
2.665141e+003, 1.239035e-002
2.667069e+003, 1.202537e-002
2.668998e+003, 1.142756e-002
2.670926e+003, 1.054114e-002
2.672855e+003, 1.047696e-002
2.674783e+003, 1.105742e-002
2.676712e+003, 1.134187e-002
2.678640e+003, 1.180189e-002
2.680569e+003, 1.180993e-002
2.682497e+003, 1.132813e-002
2.684426e+003, 1.153679e-002
2.686354e+003, 1.133675e-002
2.688282e+003, 1.146588e-002
2.690211e+003, 1.203016e-002
2.692139e+003, 1.239891e-002
2.694068e+003, 1.185961e-002
2.695996e+003, 1.159617e-002
2.697925e+003, 1.145674e-002
2.699853e+003, 1.200632e-002
2.701782e+003, 1.225322e-002
2.703710e+003, 1.242646e-002
2.705639e+003, 1.267375e-002
2.707567e+003, 1.223757e-002
2.709496e+003, 1.146281e-002
2.711424e+003, 1.081846e-002
2.713353e+003, 1.006847e-002
2.715281e+003, 1.084065e-002
2.717209e+003, 1.172634e-002
2.719138e+003, 1.152107e-002
2.721066e+003, 1.139723e-002
2.722995e+003, 1.170201e-002
2.724923e+003, 1.202285e-002
2.726852e+003, 1.234851e-002
2.728780e+003, 1.169258e-002
2.730709e+003, 1.123089e-002
2.732637e+003, 1.210863e-002
2.734566e+003, 1.216916e-002
2.736494e+003, 1.155921e-002
2.738423e+003, 1.208214e-002
2.740351e+003, 1.173172e-002
2.742280e+003, 1.083316e-002
2.744208e+003, 1.147104e-002
2.746136e+003, 1.253756e-002
2.748065e+003, 1.249542e-002
2.749993e+003, 1.276640e-002
2.751922e+003, 1.208558e-002
2.753850e+003, 1.162440e-002
2.755779e+003, 1.249649e-002
2.757707e+003, 1.272115e-002
2.759636e+003, 1.241370e-002
2.761564e+003, 1.244989e-002
2.763493e+003, 1.245352e-002
2.765421e+003, 1.232986e-002
2.767350e+003, 1.196643e-002
2.769278e+003, 1.165614e-002
2.771207e+003, 1.202311e-002
2.773135e+003, 1.204845e-002
2.775063e+003, 1.186525e-002
2.776992e+003, 1.223102e-002
2.778920e+003, 1.171431e-002
2.780849e+003, 1.182622e-002
2.782777e+003, 1.199735e-002
2.784706e+003, 1.217074e-002
2.786634e+003, 1.234358e-002
2.788563e+003, 1.202280e-002
2.790491e+003, 1.144877e-002
2.792420e+003, 1.095185e-002
2.794348e+003, 1.098776e-002
2.796277e+003, 1.212740e-002
2.798205e+003, 1.277602e-002
2.800134e+003, 1.270386e-002
2.802062e+003, 1.314887e-002
2.803990e+003, 1.337446e-002
2.805919e+003, 1.215750e-002
2.807847e+003, 1.134750e-002
2.809776e+003, 1.120932e-002
2.811704e+003, 1.217457e-002
2.813633e+003, 1.275043e-002
2.815561e+003, 1.279701e-002
2.817490e+003, 1.259087e-002
2.819418e+003, 1.276698e-002
2.821347e+003, 1.301460e-002
2.823275e+003, 1.296839e-002
2.825204e+003, 1.229860e-002
2.827132e+003, 1.228467e-002
2.829061e+003, 1.279900e-002
2.830989e+003, 1.311371e-002
2.832917e+003, 1.320671e-002
2.834846e+003, 1.203220e-002
2.836774e+003, 1.106854e-002
2.838703e+003, 1.183468e-002
2.840631e+003, 1.319530e-002
2.842560e+003, 1.303903e-002
2.844488e+003, 1.198955e-002
2.846417e+003, 1.134467e-002
2.848345e+003, 1.172892e-002
2.850274e+003, 1.261990e-002
2.852202e+003, 1.263573e-002
2.854131e+003, 1.270417e-002
2.856059e+003, 1.281456e-002
2.857988e+003, 1.206696e-002
2.859916e+003, 1.181208e-002
2.861844e+003, 1.257778e-002
2.863773e+003, 1.285495e-002
2.865701e+003, 1.308507e-002
2.867630e+003, 1.249807e-002
2.869558e+003, 1.270338e-002
2.871487e+003, 1.358011e-002
2.873415e+003, 1.377146e-002
2.875344e+003, 1.398531e-002
2.877272e+003, 1.462066e-002
2.879201e+003, 1.427629e-002
2.881129e+003, 1.349920e-002
2.883058e+003, 1.344176e-002
2.884986e+003, 1.408553e-002
2.886915e+003, 1.395599e-002
2.888843e+003, 1.402091e-002
2.890771e+003, 1.414549e-002
2.892700e+003, 1.444003e-002
2.894628e+003, 1.405236e-002
2.896557e+003, 1.412302e-002
2.898485e+003, 1.426710e-002
2.900414e+003, 1.361576e-002
2.902342e+003, 1.369836e-002
2.904271e+003, 1.352338e-002
2.906199e+003, 1.388524e-002
2.908128e+003, 1.473996e-002
2.910056e+003, 1.345243e-002
2.911985e+003, 1.280419e-002
2.913913e+003, 1.346019e-002
2.915842e+003, 1.355615e-002
2.917770e+003, 1.431556e-002
2.919698e+003, 1.513712e-002
2.921627e+003, 1.422264e-002
2.923555e+003, 1.412958e-002
2.925484e+003, 1.455357e-002
2.927412e+003, 1.430579e-002
2.929341e+003, 1.352013e-002
2.931269e+003, 1.352416e-002
2.933198e+003, 1.334158e-002
2.935126e+003, 1.316133e-002
2.937055e+003, 1.419389e-002
2.938983e+003, 1.436880e-002
2.940912e+003, 1.450744e-002
2.942840e+003, 1.483371e-002
2.944769e+003, 1.524463e-002
2.946697e+003, 1.472411e-002
2.948625e+003, 1.280891e-002
2.950554e+003, 1.212288e-002
2.952482e+003, 1.215088e-002
2.954411e+003, 1.238310e-002
2.956339e+003, 1.193521e-002
2.958268e+003, 1.234045e-002
2.960196e+003, 1.222974e-002
2.962125e+003, 1.281457e-002
2.964053e+003, 1.381078e-002
2.965982e+003, 1.455310e-002
2.967910e+003, 1.400689e-002
2.969839e+003, 1.378288e-002
2.971767e+003, 1.436803e-002
2.973696e+003, 1.437171e-002
2.975624e+003, 1.323739e-002
2.977552e+003, 1.348210e-002
2.979481e+003, 1.440561e-002
2.981409e+003, 1.478771e-002
2.983338e+003, 1.447758e-002
2.985266e+003, 1.474141e-002
2.987195e+003, 1.484795e-002
2.989123e+003, 1.530219e-002
2.991052e+003, 1.401429e-002
2.992980e+003, 1.416340e-002
2.994909e+003, 1.613871e-002
2.996837e+003, 1.595948e-002
2.998766e+003, 1.445797e-002
3.000694e+003, 1.473570e-002
3.002623e+003, 1.579815e-002
3.004551e+003, 1.533658e-002
3.006479e+003, 1.506054e-002
3.008408e+003, 1.570224e-002
3.010336e+003, 1.534164e-002
3.012265e+003, 1.479047e-002
3.014193e+003, 1.515693e-002
3.016122e+003, 1.436959e-002
3.018050e+003, 1.442409e-002
3.019979e+003, 1.509102e-002
3.021907e+003, 1.439758e-002
3.023836e+003, 1.415795e-002
3.025764e+003, 1.459318e-002
3.027693e+003, 1.527552e-002
3.029621e+003, 1.539066e-002
3.031550e+003, 1.514849e-002
3.033478e+003, 1.411234e-002
3.035406e+003, 1.387119e-002
3.037335e+003, 1.434978e-002
3.039263e+003, 1.415995e-002
3.041192e+003, 1.419870e-002
3.043120e+003, 1.473403e-002
3.045049e+003, 1.423256e-002
3.046977e+003, 1.410589e-002
3.048906e+003, 1.436178e-002
3.050834e+003, 1.381045e-002
3.052763e+003, 1.454957e-002
3.054691e+003, 1.620151e-002
3.056620e+003, 1.530293e-002
3.058548e+003, 1.512229e-002
3.060477e+003, 1.572390e-002
3.062405e+003, 1.530286e-002
3.064333e+003, 1.357407e-002
3.066262e+003, 1.374209e-002
3.068190e+003, 1.542462e-002
3.070119e+003, 1.556427e-002
3.072047e+003, 1.452867e-002
3.073976e+003, 1.509691e-002
3.075904e+003, 1.554394e-002
3.077833e+003, 1.517020e-002
3.079761e+003, 1.533556e-002
3.081690e+003, 1.469161e-002
3.083618e+003, 1.462729e-002
3.085547e+003, 1.456273e-002
3.087475e+003, 1.367535e-002
3.089404e+003, 1.504137e-002
3.091332e+003, 1.551117e-002
3.093260e+003, 1.491994e-002
3.095189e+003, 1.466173e-002
3.097117e+003, 1.512969e-002
3.099046e+003, 1.470942e-002
3.100974e+003, 1.369878e-002
3.102903e+003, 1.400176e-002
3.104831e+003, 1.403282e-002
3.106760e+003, 1.496094e-002
3.108688e+003, 1.501847e-002
3.110617e+003, 1.399793e-002
3.112545e+003, 1.434975e-002
3.114474e+003, 1.485574e-002
3.116402e+003, 1.565120e-002
3.118331e+003, 1.521040e-002
3.120259e+003, 1.491474e-002
3.122188e+003, 1.473340e-002
3.124116e+003, 1.516532e-002
3.126044e+003, 1.519280e-002
3.127973e+003, 1.500342e-002
3.129901e+003, 1.489270e-002
3.131830e+003, 1.527489e-002
3.133758e+003, 1.590578e-002
3.135687e+003, 1.662019e-002
3.137615e+003, 1.585376e-002
3.139544e+003, 1.657748e-002
3.141472e+003, 1.706688e-002
3.143401e+003, 1.743968e-002
3.145329e+003, 1.588435e-002
3.147258e+003, 1.610935e-002
3.149186e+003, 1.689737e-002
3.151115e+003, 1.634097e-002
3.153043e+003, 1.699688e-002
3.154971e+003, 1.852913e-002
3.156900e+003, 1.761867e-002
3.158828e+003, 1.638030e-002
3.160757e+003, 1.575813e-002
3.162685e+003, 1.662001e-002
3.164614e+003, 1.724228e-002
3.166542e+003, 1.640303e-002
3.168471e+003, 1.751238e-002
3.170399e+003, 1.827438e-002
3.172328e+003, 1.685238e-002
3.174256e+003, 1.609247e-002
3.176185e+003, 1.621496e-002
3.178113e+003, 1.676396e-002
3.180042e+003, 1.653674e-002
3.181970e+003, 1.716501e-002
3.183898e+003, 1.792670e-002
3.185827e+003, 1.707629e-002
3.187755e+003, 1.723128e-002
3.189684e+003, 1.970053e-002
3.191612e+003, 1.945407e-002
3.193541e+003, 1.827893e-002
3.195469e+003, 1.932851e-002
3.197398e+003, 1.936224e-002
3.199326e+003, 1.825674e-002
3.201255e+003, 1.764668e-002
3.203183e+003, 1.674647e-002
3.205112e+003, 1.605331e-002
3.207040e+003, 1.735528e-002
3.208969e+003, 1.875108e-002
3.210897e+003, 1.880884e-002
3.212825e+003, 1.870132e-002
3.214754e+003, 1.756508e-002
3.216682e+003, 1.654746e-002
3.218611e+003, 1.758326e-002
3.220539e+003, 1.961762e-002
3.222468e+003, 2.041048e-002
3.224396e+003, 1.914774e-002
3.226325e+003, 1.866032e-002
3.228253e+003, 1.961135e-002
3.230182e+003, 2.100400e-002
3.232110e+003, 2.180198e-002
3.234039e+003, 2.059678e-002
3.235967e+003, 1.921025e-002
3.237896e+003, 2.049547e-002
3.239824e+003, 2.160297e-002
3.241752e+003, 2.046086e-002
3.243681e+003, 1.922086e-002
3.245609e+003, 1.907349e-002
3.247538e+003, 1.995133e-002
3.249466e+003, 2.006394e-002
3.251395e+003, 1.854264e-002
3.253323e+003, 1.740251e-002
3.255252e+003, 1.904186e-002
3.257180e+003, 2.110139e-002
3.259109e+003, 2.271672e-002
3.261037e+003, 2.190587e-002
3.262966e+003, 2.101663e-002
3.264894e+003, 2.102151e-002
3.266823e+003, 2.120047e-002
3.268751e+003, 2.130930e-002
3.270679e+003, 2.204099e-002
3.272608e+003, 2.255913e-002
3.274536e+003, 2.392453e-002
3.276465e+003, 2.222209e-002
3.278393e+003, 2.182335e-002
3.280322e+003, 2.174235e-002
3.282250e+003, 2.156555e-002
3.284179e+003, 2.190739e-002
3.286107e+003, 2.377439e-002
3.288036e+003, 2.295136e-002
3.289964e+003, 2.163717e-002
3.291893e+003, 2.134877e-002
3.293821e+003, 2.252628e-002
3.295750e+003, 2.392916e-002
3.297678e+003, 2.483997e-002
3.299606e+003, 2.393798e-002
3.301535e+003, 2.323293e-002
3.303463e+003, 2.374236e-002
3.305392e+003, 2.312729e-002
3.307320e+003, 2.171693e-002
3.309249e+003, 2.135335e-002
3.311177e+003, 2.164500e-002
3.313106e+003, 2.363236e-002
3.315034e+003, 2.379168e-002
3.316963e+003, 2.330487e-002
3.318891e+003, 2.329790e-002
3.320820e+003, 2.340035e-002
3.322748e+003, 2.403286e-002
3.324677e+003, 2.607777e-002
3.326605e+003, 2.542933e-002
3.328533e+003, 2.348552e-002
3.330462e+003, 2.285567e-002
3.332390e+003, 2.438182e-002
3.334319e+003, 2.536721e-002
3.336247e+003, 2.392552e-002
3.338176e+003, 2.416843e-002
3.340104e+003, 2.599091e-002
3.342033e+003, 2.597064e-002
3.343961e+003, 2.680335e-002
3.345890e+003, 2.741532e-002
3.347818e+003, 2.666791e-002
3.349747e+003, 2.615895e-002
3.351675e+003, 2.756713e-002
3.353604e+003, 2.768126e-002
3.355532e+003, 2.632619e-002
3.357460e+003, 2.676710e-002
3.359389e+003, 2.652955e-002
3.361317e+003, 2.714019e-002
3.363246e+003, 2.872458e-002
3.365174e+003, 2.802701e-002
3.367103e+003, 2.726818e-002
3.369031e+003, 2.971115e-002
3.370960e+003, 3.184970e-002
3.372888e+003, 3.009073e-002
3.374817e+003, 2.928025e-002
3.376745e+003, 3.013970e-002
3.378674e+003, 3.144142e-002
3.380602e+003, 3.309848e-002
3.382531e+003, 3.406849e-002
3.384459e+003, 3.554276e-002
3.386387e+003, 3.496700e-002
3.388316e+003, 3.417773e-002
3.390244e+003, 3.470174e-002
3.392173e+003, 3.612635e-002
3.394101e+003, 3.597211e-002
3.396030e+003, 3.570725e-002
3.397958e+003, 3.798995e-002
3.399887e+003, 3.879628e-002
3.401815e+003, 3.962176e-002
3.403744e+003, 4.080603e-002
3.405672e+003, 4.085061e-002
3.407601e+003, 3.890496e-002
3.409529e+003, 3.685471e-002
3.411458e+003, 3.700802e-002
3.413386e+003, 3.743714e-002
3.415314e+003, 3.651129e-002
3.417243e+003, 3.372138e-002
3.419171e+003, 3.287363e-002
3.421100e+003, 3.300041e-002
3.423028e+003, 3.257545e-002
3.424957e+003, 3.458655e-002
3.426885e+003, 3.378811e-002
3.428814e+003, 3.168552e-002
3.430742e+003, 3.037166e-002
3.432671e+003, 3.136935e-002
3.434599e+003, 3.237100e-002
3.436528e+003, 3.300010e-002
3.438456e+003, 3.303307e-002
3.440385e+003, 3.265036e-002
3.442313e+003, 3.204404e-002
3.444241e+003, 3.035347e-002
3.446170e+003, 2.873051e-002
3.448098e+003, 2.851798e-002
3.450027e+003, 2.933753e-002
3.451955e+003, 2.927544e-002
3.453884e+003, 2.921978e-002
3.455812e+003, 2.819471e-002
3.457741e+003, 2.589590e-002
3.459669e+003, 2.721020e-002
3.461598e+003, 2.908124e-002
3.463526e+003, 3.035870e-002
3.465455e+003, 2.983559e-002
3.467383e+003, 2.911858e-002
3.469312e+003, 2.737540e-002
3.471240e+003, 2.785201e-002
3.473168e+003, 2.938860e-002
3.475097e+003, 3.042377e-002
3.477025e+003, 3.025842e-002
3.478954e+003, 2.900371e-002
3.480882e+003, 2.782851e-002
3.482811e+003, 2.907609e-002
3.484739e+003, 3.183909e-002
3.486668e+003, 3.206142e-002
3.488596e+003, 3.101247e-002
3.490525e+003, 3.066196e-002
3.492453e+003, 3.157774e-002
3.494382e+003, 3.235278e-002
3.496310e+003, 3.311725e-002
3.498239e+003, 3.426279e-002
3.500167e+003, 3.340299e-002
3.502095e+003, 3.031434e-002
3.504024e+003, 2.819340e-002
3.505952e+003, 3.016590e-002
3.507881e+003, 3.316556e-002
3.509809e+003, 3.418290e-002
3.511738e+003, 3.417369e-002
3.513666e+003, 3.439798e-002
3.515595e+003, 3.560805e-002
3.517523e+003, 3.592067e-002
3.519452e+003, 3.456973e-002
3.521380e+003, 3.468148e-002
3.523309e+003, 3.707872e-002
3.525237e+003, 3.785533e-002
3.527166e+003, 3.514940e-002
3.529094e+003, 3.510023e-002
3.531022e+003, 3.758889e-002
3.532951e+003, 3.662366e-002
3.534879e+003, 3.489340e-002
3.536808e+003, 3.559156e-002
3.538736e+003, 3.560079e-002
3.540665e+003, 3.814090e-002
3.542593e+003, 3.771443e-002
3.544522e+003, 3.578107e-002
3.546450e+003, 3.701217e-002
3.548379e+003, 3.884815e-002
3.550307e+003, 3.722247e-002
3.552236e+003, 3.500045e-002
3.554164e+003, 3.314690e-002
3.556093e+003, 3.356185e-002
3.558021e+003, 3.430795e-002
3.559949e+003, 3.240304e-002
3.561878e+003, 3.179834e-002
3.563806e+003, 3.058730e-002
3.565735e+003, 2.955577e-002
3.567663e+003, 3.032906e-002
3.569592e+003, 3.053426e-002
3.571520e+003, 2.834951e-002
3.573449e+003, 2.680589e-002
3.575377e+003, 2.944847e-002
3.577306e+003, 2.973918e-002
3.579234e+003, 2.657592e-002
3.581163e+003, 2.352458e-002
3.583091e+003, 2.364992e-002
3.585020e+003, 2.463554e-002
3.586948e+003, 2.582099e-002
3.588876e+003, 2.455813e-002
3.590805e+003, 2.194577e-002
3.592733e+003, 2.199302e-002
3.594662e+003, 2.308588e-002
3.596590e+003, 2.358797e-002
3.598519e+003, 2.432395e-002
3.600447e+003, 2.312578e-002
3.602376e+003, 2.198997e-002
3.604304e+003, 2.070385e-002
3.606233e+003, 2.064886e-002
3.608161e+003, 2.343563e-002
3.610090e+003, 2.432220e-002
3.612018e+003, 2.247718e-002
3.613947e+003, 1.988837e-002
3.615875e+003, 1.898824e-002
3.617803e+003, 1.761727e-002
3.619732e+003, 1.712831e-002
3.621660e+003, 2.019161e-002
3.623589e+003, 2.256279e-002
3.625517e+003, 2.137618e-002
3.627446e+003, 1.968765e-002
3.629374e+003, 2.168786e-002
3.631303e+003, 2.309947e-002
3.633231e+003, 2.280910e-002
3.635160e+003, 2.051773e-002
3.637088e+003, 1.747172e-002
3.639017e+003, 1.573065e-002
3.640945e+003, 1.571450e-002
3.642874e+003, 1.829167e-002
3.644802e+003, 2.072446e-002
3.646730e+003, 1.993862e-002
3.648659e+003, 1.820019e-002
3.650587e+003, 1.665672e-002
3.652516e+003, 1.633797e-002
3.654444e+003, 1.728144e-002
3.656373e+003, 1.937338e-002
3.658301e+003, 1.972272e-002
3.660230e+003, 1.851679e-002
3.662158e+003, 1.650517e-002
3.664087e+003, 1.633972e-002
3.666015e+003, 1.757193e-002
3.667944e+003, 1.544958e-002
3.669872e+003, 1.719317e-002
3.671801e+003, 1.932381e-002
3.673729e+003, 1.717680e-002
3.675657e+003, 1.753335e-002
3.677586e+003, 1.759119e-002
3.679514e+003, 1.631020e-002
3.681443e+003, 1.827929e-002
3.683371e+003, 1.946745e-002
3.685300e+003, 1.853298e-002
3.687228e+003, 1.710642e-002
3.689157e+003, 1.636008e-002
3.691085e+003, 1.656107e-002
3.693014e+003, 1.783734e-002
3.694942e+003, 1.593179e-002
3.696871e+003, 1.540779e-002
3.698799e+003, 1.542470e-002
3.700728e+003, 1.534630e-002
3.702656e+003, 1.676682e-002
3.704584e+003, 1.653081e-002
3.706513e+003, 1.688270e-002
3.708441e+003, 1.867462e-002
3.710370e+003, 2.034567e-002
3.712298e+003, 1.920094e-002
3.714227e+003, 1.756366e-002
3.716155e+003, 1.906837e-002
3.718084e+003, 2.015778e-002
3.720012e+003, 1.804689e-002
3.721941e+003, 1.695273e-002
3.723869e+003, 1.750279e-002
3.725798e+003, 1.848794e-002
3.727726e+003, 2.042895e-002
3.729655e+003, 1.894181e-002
3.731583e+003, 1.568815e-002
3.733511e+003, 1.592055e-002
3.735440e+003, 1.472008e-002
3.737368e+003, 1.641930e-002
3.739297e+003, 1.801493e-002
3.741225e+003, 1.699799e-002
3.743154e+003, 1.578854e-002
3.745082e+003, 1.696823e-002
3.747011e+003, 1.768468e-002
3.748939e+003, 1.789693e-002
3.750868e+003, 1.585297e-002
3.752796e+003, 1.744076e-002
3.754725e+003, 1.954596e-002
3.756653e+003, 2.069842e-002
3.758582e+003, 2.082303e-002
3.760510e+003, 1.900926e-002
3.762438e+003, 1.831133e-002
3.764367e+003, 1.796991e-002
3.766295e+003, 1.808127e-002
3.768224e+003, 1.781665e-002
3.770152e+003, 1.790285e-002
3.772081e+003, 1.838195e-002
3.774009e+003, 1.851999e-002
3.775938e+003, 1.824001e-002
3.777866e+003, 1.858662e-002
3.779795e+003, 2.033218e-002
3.781723e+003, 2.198978e-002
3.783652e+003, 2.284050e-002
3.785580e+003, 2.256816e-002
3.787509e+003, 2.035163e-002
3.789437e+003, 1.917932e-002
3.791365e+003, 2.040094e-002
3.793294e+003, 1.883220e-002
3.795222e+003, 1.815121e-002
3.797151e+003, 1.912134e-002
3.799079e+003, 1.892114e-002
3.801008e+003, 2.029981e-002
3.802936e+003, 1.957727e-002
3.804865e+003, 1.777556e-002
3.806793e+003, 1.926169e-002
3.808722e+003, 2.117583e-002
3.810650e+003, 2.326290e-002
3.812579e+003, 2.328730e-002
3.814507e+003, 2.144430e-002
3.816436e+003, 2.114620e-002
3.818364e+003, 2.238668e-002
3.820292e+003, 2.395168e-002
3.822221e+003, 2.255381e-002
3.824149e+003, 2.170051e-002
3.826078e+003, 1.982182e-002
3.828006e+003, 1.880291e-002
3.829935e+003, 1.978876e-002
3.831863e+003, 1.924544e-002
3.833792e+003, 1.988026e-002
3.835720e+003, 2.082405e-002
3.837649e+003, 2.020249e-002
3.839577e+003, 2.046247e-002
3.841506e+003, 2.121878e-002
3.843434e+003, 1.932050e-002
3.845363e+003, 1.667311e-002
3.847291e+003, 1.805071e-002
3.849219e+003, 2.037373e-002
3.851148e+003, 2.091949e-002
3.853076e+003, 1.874312e-002
3.855005e+003, 1.813839e-002
3.856933e+003, 1.899390e-002
3.858862e+003, 1.966391e-002
3.860790e+003, 1.856244e-002
3.862719e+003, 1.816833e-002
3.864647e+003, 1.786327e-002
3.866576e+003, 1.715785e-002
3.868504e+003, 1.803920e-002
3.870433e+003, 1.814196e-002
3.872361e+003, 1.699516e-002
3.874290e+003, 1.808508e-002
3.876218e+003, 1.871531e-002
3.878146e+003, 1.972725e-002
3.880075e+003, 1.775940e-002
3.882003e+003, 1.861859e-002
3.883932e+003, 2.069798e-002
3.885860e+003, 1.992287e-002
3.887789e+003, 2.126126e-002
3.889717e+003, 2.253582e-002
3.891646e+003, 2.320256e-002
3.893574e+003, 2.022344e-002
3.895503e+003, 1.908747e-002
3.897431e+003, 1.771702e-002
3.899360e+003, 1.636878e-002
3.901288e+003, 1.709024e-002
3.903217e+003, 1.787370e-002
3.905145e+003, 1.921022e-002
3.907073e+003, 2.156424e-002
3.909002e+003, 2.191664e-002
3.910930e+003, 2.248533e-002
3.912859e+003, 2.144464e-002
3.914787e+003, 2.095581e-002
3.916716e+003, 2.069325e-002
3.918644e+003, 1.887787e-002
3.920573e+003, 2.027153e-002
3.922501e+003, 2.172690e-002
3.924430e+003, 2.290809e-002
3.926358e+003, 2.210585e-002
3.928287e+003, 1.931550e-002
3.930215e+003, 1.894896e-002
3.932144e+003, 1.771283e-002
3.934072e+003, 1.719150e-002
3.936000e+003, 1.596449e-002
3.937929e+003, 1.820206e-002
3.939857e+003, 2.065482e-002
3.941786e+003, 2.005943e-002
3.943714e+003, 1.910616e-002
3.945643e+003, 1.891629e-002
3.947571e+003, 1.851011e-002
3.949500e+003, 1.872855e-002
3.951428e+003, 1.897395e-002
3.953357e+003, 2.000645e-002
3.955285e+003, 1.990215e-002
3.957214e+003, 2.003696e-002
3.959142e+003, 2.217868e-002
3.961071e+003, 2.149563e-002
3.962999e+003, 1.978305e-002
3.964927e+003, 2.067634e-002
3.966856e+003, 2.134123e-002
3.968784e+003, 2.191566e-002
3.970713e+003, 2.192339e-002
3.972641e+003, 2.289631e-002
3.974570e+003, 2.264686e-002
3.976498e+003, 2.298581e-002
3.978427e+003, 2.046702e-002
3.980355e+003, 1.752715e-002
3.982284e+003, 1.733937e-002
3.984212e+003, 2.049437e-002
3.986141e+003, 2.134558e-002
3.988069e+003, 2.036142e-002
3.989998e+003, 1.925277e-002
3.991926e+003, 2.243980e-002
3.993854e+003, 2.385346e-002
3.995783e+003, 2.056181e-002
3.997711e+003, 2.045900e-002
3.999640e+003, 2.046747e-002
##END=



