##NAMES=Anhydrite
##RRUFFID=R040012
##IDEAL CHEMISTRY=CaS^6+^O_4_
##LOCALITY=Moundhouse, Nevada, USA
##OWNER=RRUFF
##SOURCE=University of Arizona Mineral Museum
##DESCRIPTION=White massive
##STATUS=The identification of this mineral has been confirmed by X-ray diffraction and chemical analysis
##URL=rruff.info/R040012
##MEASURED CHEMISTRY=Ca_1.00_S_1.00_O_4_
3.991926e+002, 0.000000e+000
4.011211e+002, 1.850678e-002
4.030496e+002, 1.860753e-002
4.049780e+002, 1.880869e-002
4.069065e+002, 1.837332e-002
4.088350e+002, 1.819851e-002
4.107634e+002, 1.555324e-002
4.126919e+002, 1.400639e-002
4.146204e+002, 1.497502e-002
4.165488e+002, 1.516489e-002
4.184773e+002, 1.407864e-002
4.204058e+002, 1.432564e-002
4.223342e+002, 1.553113e-002
4.242627e+002, 1.507130e-002
4.261912e+002, 1.386072e-002
4.281196e+002, 1.371752e-002
4.300481e+002, 1.367922e-002
4.319766e+002, 1.445672e-002
4.339050e+002, 1.398406e-002
4.358335e+002, 1.248059e-002
4.377620e+002, 1.103808e-002
4.396904e+002, 1.124872e-002
4.416189e+002, 1.217590e-002
4.435474e+002, 1.274254e-002
4.454758e+002, 1.326992e-002
4.474043e+002, 1.314030e-002
4.493328e+002, 1.284001e-002
4.512612e+002, 1.278255e-002
4.531897e+002, 1.319615e-002
4.551182e+002, 1.315098e-002
4.570466e+002, 1.306874e-002
4.589751e+002, 1.328040e-002
4.609036e+002, 1.317057e-002
4.628320e+002, 1.343893e-002
4.647605e+002, 1.418360e-002
4.666890e+002, 1.433765e-002
4.686174e+002, 1.453284e-002
4.705459e+002, 1.443660e-002
4.724744e+002, 1.417004e-002
4.744028e+002, 1.458052e-002
4.763313e+002, 1.454439e-002
4.782598e+002, 1.434394e-002
4.801882e+002, 1.396541e-002
4.821167e+002, 1.316412e-002
4.840452e+002, 1.302530e-002
4.859736e+002, 1.341508e-002
4.879021e+002, 1.348796e-002
4.898306e+002, 1.334479e-002
4.917590e+002, 1.333099e-002
4.936875e+002, 1.330878e-002
4.956160e+002, 1.299501e-002
4.975444e+002, 1.288545e-002
4.994729e+002, 1.326014e-002
5.014014e+002, 1.346012e-002
5.033298e+002, 1.416353e-002
5.052583e+002, 1.563954e-002
5.071868e+002, 1.719414e-002
5.091152e+002, 1.918351e-002
5.110437e+002, 2.150263e-002
5.129722e+002, 2.153016e-002
5.149006e+002, 1.852893e-002
5.168291e+002, 1.623693e-002
5.187576e+002, 1.533567e-002
5.206860e+002, 1.481918e-002
5.226145e+002, 1.457507e-002
5.245430e+002, 1.466024e-002
5.264714e+002, 1.475727e-002
5.283999e+002, 1.487251e-002
5.303284e+002, 1.482750e-002
5.322568e+002, 1.482223e-002
5.341853e+002, 1.492734e-002
5.361138e+002, 1.543455e-002
5.380422e+002, 1.617593e-002
5.399707e+002, 1.660503e-002
5.418992e+002, 1.687332e-002
5.438276e+002, 1.677555e-002
5.457561e+002, 1.665577e-002
5.476846e+002, 1.701478e-002
5.496130e+002, 1.792504e-002
5.515415e+002, 1.844554e-002
5.534700e+002, 1.904427e-002
5.553984e+002, 2.000810e-002
5.573269e+002, 2.139243e-002
5.592554e+002, 2.238661e-002
5.611838e+002, 2.336589e-002
5.631123e+002, 2.510845e-002
5.650408e+002, 2.728781e-002
5.669692e+002, 2.973756e-002
5.688977e+002, 3.254433e-002
5.708262e+002, 3.590282e-002
5.727546e+002, 3.990193e-002
5.746831e+002, 4.515450e-002
5.766116e+002, 5.229242e-002
5.785400e+002, 6.227209e-002
5.804685e+002, 7.588790e-002
5.823970e+002, 9.501634e-002
5.843254e+002, 1.218032e-001
5.862539e+002, 1.598380e-001
5.881824e+002, 2.148591e-001
5.901108e+002, 2.866439e-001
5.920393e+002, 3.345363e-001
5.939678e+002, 3.127914e-001
5.958962e+002, 2.583650e-001
5.978247e+002, 2.033194e-001
5.997532e+002, 1.584287e-001
6.016816e+002, 1.314322e-001
6.036101e+002, 1.286547e-001
6.055386e+002, 1.520509e-001
6.074670e+002, 1.848416e-001
6.093955e+002, 1.992410e-001
6.113240e+002, 1.913291e-001
6.132524e+002, 1.712542e-001
6.151809e+002, 1.453548e-001
6.171094e+002, 1.165435e-001
6.190378e+002, 8.828316e-002
6.209663e+002, 6.279730e-002
6.228948e+002, 4.231671e-002
6.248232e+002, 2.917794e-002
6.267517e+002, 2.330543e-002
6.286802e+002, 2.154542e-002
6.306086e+002, 2.088364e-002
6.325371e+002, 2.067476e-002
6.344656e+002, 2.095000e-002
6.363940e+002, 2.157496e-002
6.383225e+002, 2.260672e-002
6.402510e+002, 2.370943e-002
6.421794e+002, 2.474146e-002
6.441079e+002, 2.616249e-002
6.460364e+002, 2.825004e-002
6.479648e+002, 3.072199e-002
6.498933e+002, 3.335175e-002
6.518218e+002, 3.665100e-002
6.537502e+002, 4.120638e-002
6.556787e+002, 4.684050e-002
6.576072e+002, 5.418314e-002
6.595356e+002, 6.405851e-002
6.614641e+002, 7.763742e-002
6.633926e+002, 9.605461e-002
6.653210e+002, 1.208521e-001
6.672495e+002, 1.548925e-001
6.691780e+002, 1.979318e-001
6.711064e+002, 2.343390e-001
6.730349e+002, 2.471853e-001
6.749634e+002, 2.402243e-001
6.768918e+002, 2.201400e-001
6.788203e+002, 1.921722e-001
6.807488e+002, 1.621733e-001
6.826772e+002, 1.339747e-001
6.846057e+002, 1.083801e-001
6.865342e+002, 8.544862e-002
6.884626e+002, 6.534988e-002
6.903911e+002, 4.811191e-002
6.923196e+002, 3.413751e-002
6.942480e+002, 2.394673e-002
6.961765e+002, 1.783424e-002
6.981050e+002, 1.458753e-002
7.000334e+002, 1.298730e-002
7.019619e+002, 1.242924e-002
7.038904e+002, 1.201080e-002
7.058188e+002, 1.187185e-002
7.077473e+002, 1.219585e-002
7.096758e+002, 1.327253e-002
7.116042e+002, 1.462036e-002
7.135327e+002, 1.449727e-002
7.154612e+002, 1.285261e-002
7.173896e+002, 1.141817e-002
7.193181e+002, 1.074884e-002
7.212466e+002, 1.037717e-002
7.231750e+002, 1.011872e-002
7.251035e+002, 1.016247e-002
7.270320e+002, 9.999177e-003
7.289604e+002, 9.628536e-003
7.308889e+002, 9.724240e-003
7.328174e+002, 1.010468e-002
7.347458e+002, 1.022854e-002
7.366743e+002, 9.995813e-003
7.386028e+002, 9.960856e-003
7.405313e+002, 1.037017e-002
7.424597e+002, 1.071527e-002
7.443882e+002, 1.093250e-002
7.463167e+002, 1.093647e-002
7.482451e+002, 1.086363e-002
7.501736e+002, 1.069885e-002
7.521021e+002, 1.061237e-002
7.540305e+002, 1.066526e-002
7.559590e+002, 1.073689e-002
7.578875e+002, 1.084659e-002
7.598159e+002, 1.089261e-002
7.617444e+002, 1.094488e-002
7.636729e+002, 1.096356e-002
7.656013e+002, 1.092203e-002
7.675298e+002, 1.085390e-002
7.694583e+002, 1.072278e-002
7.713867e+002, 1.093651e-002
7.733152e+002, 1.117678e-002
7.752437e+002, 1.130973e-002
7.771721e+002, 1.119683e-002
7.791006e+002, 1.114853e-002
7.810291e+002, 1.147035e-002
7.829575e+002, 1.167596e-002
7.848860e+002, 1.188170e-002
7.868145e+002, 1.186649e-002
7.887429e+002, 1.166022e-002
7.906714e+002, 1.179787e-002
7.925999e+002, 1.200399e-002
7.945283e+002, 1.216818e-002
7.964568e+002, 1.256269e-002
7.983853e+002, 1.295658e-002
8.003137e+002, 1.291281e-002
8.022422e+002, 1.267712e-002
8.041707e+002, 1.270906e-002
8.060991e+002, 1.261740e-002
8.080276e+002, 1.255728e-002
8.099561e+002, 1.263384e-002
8.118845e+002, 1.282798e-002
8.138130e+002, 1.304031e-002
8.157415e+002, 1.313462e-002
8.176699e+002, 1.317397e-002
8.195984e+002, 1.317742e-002
8.215269e+002, 1.339643e-002
8.234553e+002, 1.381913e-002
8.253838e+002, 1.413549e-002
8.273123e+002, 1.430652e-002
8.292407e+002, 1.434867e-002
8.311692e+002, 1.455298e-002
8.330977e+002, 1.486666e-002
8.350261e+002, 1.526858e-002
8.369546e+002, 1.546640e-002
8.388831e+002, 1.582635e-002
8.408115e+002, 1.617481e-002
8.427400e+002, 1.659318e-002
8.446685e+002, 1.709426e-002
8.465969e+002, 1.758978e-002
8.485254e+002, 1.778643e-002
8.504539e+002, 1.766456e-002
8.523823e+002, 1.791742e-002
8.543108e+002, 1.812868e-002
8.562393e+002, 1.841457e-002
8.581677e+002, 1.893389e-002
8.600962e+002, 1.945680e-002
8.620247e+002, 2.007449e-002
8.639531e+002, 2.115609e-002
8.658816e+002, 2.268539e-002
8.678101e+002, 2.481583e-002
8.697385e+002, 2.805286e-002
8.716670e+002, 3.241076e-002
8.735955e+002, 3.667925e-002
8.755239e+002, 3.955352e-002
8.774524e+002, 3.993680e-002
8.793809e+002, 3.761780e-002
8.813093e+002, 3.404908e-002
8.832378e+002, 3.103326e-002
8.851663e+002, 2.778068e-002
8.870947e+002, 2.521693e-002
8.890232e+002, 2.433585e-002
8.909517e+002, 2.429015e-002
8.928801e+002, 2.453578e-002
8.948085e+002, 2.495466e-002
8.967370e+002, 2.509783e-002
8.986655e+002, 2.514589e-002
9.005939e+002, 2.554146e-002
9.025224e+002, 2.586212e-002
9.044509e+002, 2.613192e-002
9.063793e+002, 2.667303e-002
9.083078e+002, 2.739342e-002
9.102363e+002, 2.791793e-002
9.121647e+002, 2.825170e-002
9.140932e+002, 2.858244e-002
9.160217e+002, 2.926719e-002
9.179501e+002, 2.984517e-002
9.198786e+002, 3.017748e-002
9.218071e+002, 3.073478e-002
9.237355e+002, 3.143584e-002
9.256640e+002, 3.206292e-002
9.275925e+002, 3.254528e-002
9.295209e+002, 3.294911e-002
9.314494e+002, 3.353256e-002
9.333779e+002, 3.431673e-002
9.353063e+002, 3.508049e-002
9.372348e+002, 3.591705e-002
9.391633e+002, 3.715659e-002
9.410917e+002, 3.815883e-002
9.430202e+002, 3.897601e-002
9.449487e+002, 3.985099e-002
9.468771e+002, 4.095217e-002
9.488056e+002, 4.207662e-002
9.507341e+002, 4.306369e-002
9.526625e+002, 4.413817e-002
9.545910e+002, 4.536872e-002
9.565195e+002, 4.677681e-002
9.584479e+002, 4.818543e-002
9.603764e+002, 4.950246e-002
9.623049e+002, 5.087692e-002
9.642333e+002, 5.228978e-002
9.661618e+002, 5.357969e-002
9.680903e+002, 5.504349e-002
9.700187e+002, 5.668294e-002
9.719472e+002, 5.849701e-002
9.738757e+002, 6.045917e-002
9.758041e+002, 6.222863e-002
9.777326e+002, 6.393621e-002
9.796611e+002, 6.577006e-002
9.815895e+002, 6.759217e-002
9.835180e+002, 6.935526e-002
9.854465e+002, 7.164571e-002
9.873749e+002, 7.439905e-002
9.893034e+002, 7.730845e-002
9.912319e+002, 8.012294e-002
9.931603e+002, 8.319454e-002
9.950888e+002, 8.626735e-002
9.970173e+002, 8.957434e-002
9.989457e+002, 9.307802e-002
1.000874e+003, 9.611641e-002
1.002803e+003, 9.917856e-002
1.004731e+003, 1.026157e-001
1.006660e+003, 1.064951e-001
1.008588e+003, 1.113004e-001
1.010517e+003, 1.178181e-001
1.012445e+003, 1.254358e-001
1.014373e+003, 1.284911e-001
1.016302e+003, 1.263143e-001
1.018230e+003, 1.262040e-001
1.020159e+003, 1.294707e-001
1.022087e+003, 1.342596e-001
1.024016e+003, 1.394849e-001
1.025944e+003, 1.449672e-001
1.027873e+003, 1.509750e-001
1.029801e+003, 1.574226e-001
1.031730e+003, 1.642627e-001
1.033658e+003, 1.717798e-001
1.035587e+003, 1.796619e-001
1.037515e+003, 1.879355e-001
1.039444e+003, 1.966379e-001
1.041372e+003, 2.055978e-001
1.043301e+003, 2.147630e-001
1.045229e+003, 2.245895e-001
1.047157e+003, 2.352741e-001
1.049086e+003, 2.464523e-001
1.051014e+003, 2.579093e-001
1.052943e+003, 2.700182e-001
1.054871e+003, 2.830058e-001
1.056800e+003, 2.967030e-001
1.058728e+003, 3.110666e-001
1.060657e+003, 3.259826e-001
1.062585e+003, 3.413310e-001
1.064514e+003, 3.575723e-001
1.066442e+003, 3.742827e-001
1.068371e+003, 3.912954e-001
1.070299e+003, 4.090208e-001
1.072228e+003, 4.273590e-001
1.074156e+003, 4.462944e-001
1.076084e+003, 4.653833e-001
1.078013e+003, 4.840885e-001
1.079941e+003, 5.031726e-001
1.081870e+003, 5.229736e-001
1.083798e+003, 5.426437e-001
1.085727e+003, 5.619558e-001
1.087655e+003, 5.812476e-001
1.089584e+003, 6.000551e-001
1.091512e+003, 6.185821e-001
1.093441e+003, 6.359231e-001
1.095369e+003, 6.475471e-001
1.097298e+003, 6.485716e-001
1.099226e+003, 6.427100e-001
1.101155e+003, 6.353303e-001
1.103083e+003, 6.290032e-001
1.105011e+003, 6.242218e-001
1.106940e+003, 6.201524e-001
1.108868e+003, 6.153695e-001
1.110797e+003, 6.084064e-001
1.112725e+003, 5.998454e-001
1.114654e+003, 5.902402e-001
1.116582e+003, 5.801938e-001
1.118511e+003, 5.701354e-001
1.120439e+003, 5.598729e-001
1.122368e+003, 5.486258e-001
1.124296e+003, 5.367303e-001
1.126225e+003, 5.239202e-001
1.128153e+003, 5.101357e-001
1.130082e+003, 4.964067e-001
1.132010e+003, 4.827683e-001
1.133938e+003, 4.701905e-001
1.135867e+003, 4.587894e-001
1.137795e+003, 4.479492e-001
1.139724e+003, 4.374238e-001
1.141652e+003, 4.277981e-001
1.143581e+003, 4.188620e-001
1.145509e+003, 4.099178e-001
1.147438e+003, 4.011410e-001
1.149366e+003, 3.911327e-001
1.151295e+003, 3.782528e-001
1.153223e+003, 3.624644e-001
1.155152e+003, 3.447468e-001
1.157080e+003, 3.271369e-001
1.159009e+003, 3.101698e-001
1.160937e+003, 2.938524e-001
1.162865e+003, 2.783823e-001
1.164794e+003, 2.636175e-001
1.166722e+003, 2.493632e-001
1.168651e+003, 2.361293e-001
1.170579e+003, 2.237663e-001
1.172508e+003, 2.117417e-001
1.174436e+003, 2.003223e-001
1.176365e+003, 1.894324e-001
1.178293e+003, 1.791489e-001
1.180222e+003, 1.696528e-001
1.182150e+003, 1.606418e-001
1.184079e+003, 1.519060e-001
1.186007e+003, 1.437899e-001
1.187936e+003, 1.361222e-001
1.189864e+003, 1.286218e-001
1.191792e+003, 1.214517e-001
1.193721e+003, 1.147015e-001
1.195649e+003, 1.081488e-001
1.197578e+003, 1.014414e-001
1.199506e+003, 9.471825e-002
1.201435e+003, 8.785108e-002
1.203363e+003, 8.075307e-002
1.205292e+003, 7.412940e-002
1.207220e+003, 6.813014e-002
1.209149e+003, 6.244103e-002
1.211077e+003, 5.711698e-002
1.213006e+003, 5.252767e-002
1.214934e+003, 4.915285e-002
1.216863e+003, 4.679884e-002
1.218791e+003, 4.436310e-002
1.220719e+003, 4.124646e-002
1.222648e+003, 3.770772e-002
1.224576e+003, 3.421951e-002
1.226505e+003, 3.092367e-002
1.228433e+003, 2.785674e-002
1.230362e+003, 2.517177e-002
1.232290e+003, 2.284824e-002
1.234219e+003, 2.063510e-002
1.236147e+003, 1.873286e-002
1.238076e+003, 1.725594e-002
1.240004e+003, 1.612439e-002
1.241933e+003, 1.536838e-002
1.243861e+003, 1.506853e-002
1.245790e+003, 1.476491e-002
1.247718e+003, 1.419864e-002
1.249646e+003, 1.358521e-002
1.251575e+003, 1.293086e-002
1.253503e+003, 1.226834e-002
1.255432e+003, 1.177376e-002
1.257360e+003, 1.146122e-002
1.259289e+003, 1.096371e-002
1.261217e+003, 1.057698e-002
1.263146e+003, 1.046857e-002
1.265074e+003, 1.030950e-002
1.267003e+003, 1.006229e-002
1.268931e+003, 1.002755e-002
1.270860e+003, 1.020447e-002
1.272788e+003, 1.024015e-002
1.274717e+003, 1.013391e-002
1.276645e+003, 1.011723e-002
1.278573e+003, 1.010128e-002
1.280502e+003, 1.029378e-002
1.282430e+003, 1.057555e-002
1.284359e+003, 1.063751e-002
1.286287e+003, 1.053265e-002
1.288216e+003, 1.042370e-002
1.290144e+003, 1.031102e-002
1.292073e+003, 1.017466e-002
1.294001e+003, 9.874186e-003
1.295930e+003, 9.666160e-003
1.297858e+003, 9.463640e-003
1.299787e+003, 9.178477e-003
1.301715e+003, 8.825247e-003
1.303644e+003, 8.665088e-003
1.305572e+003, 8.581758e-003
1.307500e+003, 8.571872e-003
1.309429e+003, 8.526333e-003
1.311357e+003, 8.480361e-003
1.313286e+003, 8.692544e-003
1.315214e+003, 8.798589e-003
1.317143e+003, 8.676110e-003
1.319071e+003, 8.778054e-003
1.321000e+003, 9.026096e-003
1.322928e+003, 9.081486e-003
1.324857e+003, 8.979185e-003
1.326785e+003, 9.044858e-003
1.328714e+003, 9.278078e-003
1.330642e+003, 9.468992e-003
1.332571e+003, 9.550714e-003
1.334499e+003, 9.606118e-003
1.336427e+003, 9.691227e-003
1.338356e+003, 9.719594e-003
1.340284e+003, 9.858157e-003
1.342213e+003, 1.004868e-002
1.344141e+003, 1.036619e-002
1.346070e+003, 1.064871e-002
1.347998e+003, 1.076754e-002
1.349927e+003, 1.090961e-002
1.351855e+003, 1.111712e-002
1.353784e+003, 1.141976e-002
1.355712e+003, 1.156868e-002
1.357641e+003, 1.159431e-002
1.359569e+003, 1.186172e-002
1.361498e+003, 1.217361e-002
1.363426e+003, 1.243457e-002
1.365354e+003, 1.284660e-002
1.367283e+003, 1.325556e-002
1.369211e+003, 1.357941e-002
1.371140e+003, 1.393701e-002
1.373068e+003, 1.436766e-002
1.374997e+003, 1.475361e-002
1.376925e+003, 1.514413e-002
1.378854e+003, 1.551430e-002
1.380782e+003, 1.585314e-002
1.382711e+003, 1.630789e-002
1.384639e+003, 1.696521e-002
1.386568e+003, 1.750922e-002
1.388496e+003, 1.813112e-002
1.390424e+003, 1.891336e-002
1.392353e+003, 1.963412e-002
1.394281e+003, 2.026397e-002
1.396210e+003, 2.105325e-002
1.398138e+003, 2.167548e-002
1.400067e+003, 2.202579e-002
1.401995e+003, 2.245118e-002
1.403924e+003, 2.291481e-002
1.405852e+003, 2.354384e-002
1.407781e+003, 2.439462e-002
1.409709e+003, 2.523881e-002
1.411638e+003, 2.602138e-002
1.413566e+003, 2.673627e-002
1.415495e+003, 2.731323e-002
1.417423e+003, 2.790128e-002
1.419351e+003, 2.849087e-002
1.421280e+003, 2.921926e-002
1.423208e+003, 2.995332e-002
1.425137e+003, 3.043763e-002
1.427065e+003, 3.084522e-002
1.428994e+003, 3.122310e-002
1.430922e+003, 3.159164e-002
1.432851e+003, 3.171174e-002
1.434779e+003, 3.180315e-002
1.436708e+003, 3.188092e-002
1.438636e+003, 3.197714e-002
1.440565e+003, 3.198408e-002
1.442493e+003, 3.198676e-002
1.444422e+003, 3.186706e-002
1.446350e+003, 3.187708e-002
1.448278e+003, 3.173877e-002
1.450207e+003, 3.153451e-002
1.452135e+003, 3.126547e-002
1.454064e+003, 3.071669e-002
1.455992e+003, 3.031661e-002
1.457921e+003, 2.981564e-002
1.459849e+003, 2.929385e-002
1.461778e+003, 2.890746e-002
1.463706e+003, 2.838202e-002
1.465635e+003, 2.778738e-002
1.467563e+003, 2.712405e-002
1.469492e+003, 2.650752e-002
1.471420e+003, 2.582090e-002
1.473349e+003, 2.502638e-002
1.475277e+003, 2.429732e-002
1.477205e+003, 2.364508e-002
1.479134e+003, 2.312812e-002
1.481062e+003, 2.233767e-002
1.482991e+003, 2.153327e-002
1.484919e+003, 2.090844e-002
1.486848e+003, 2.025404e-002
1.488776e+003, 1.962449e-002
1.490705e+003, 1.904725e-002
1.492633e+003, 1.849787e-002
1.494562e+003, 1.792954e-002
1.496490e+003, 1.721165e-002
1.498419e+003, 1.657834e-002
1.500347e+003, 1.611276e-002
1.502276e+003, 1.554427e-002
1.504204e+003, 1.490301e-002
1.506132e+003, 1.428531e-002
1.508061e+003, 1.383273e-002
1.509989e+003, 1.333646e-002
1.511918e+003, 1.270672e-002
1.513846e+003, 1.227024e-002
1.515775e+003, 1.180603e-002
1.517703e+003, 1.134309e-002
1.519632e+003, 1.111904e-002
1.521560e+003, 1.069959e-002
1.523489e+003, 1.021164e-002
1.525417e+003, 9.963048e-003
1.527346e+003, 9.864016e-003
1.529274e+003, 9.489316e-003
1.531203e+003, 9.256508e-003
1.533131e+003, 9.173239e-003
1.535059e+003, 9.029626e-003
1.536988e+003, 8.883494e-003
1.538916e+003, 8.804218e-003
1.540845e+003, 8.776817e-003
1.542773e+003, 8.518634e-003
1.544702e+003, 8.256155e-003
1.546630e+003, 7.918955e-003
1.548559e+003, 7.768419e-003
1.550487e+003, 7.814629e-003
1.552416e+003, 7.776733e-003
1.554344e+003, 7.680590e-003
1.556273e+003, 7.332949e-003
1.558201e+003, 7.063126e-003
1.560130e+003, 7.119508e-003
1.562058e+003, 7.165337e-003
1.563986e+003, 7.273588e-003
1.565915e+003, 7.341139e-003
1.567843e+003, 7.176332e-003
1.569772e+003, 7.005678e-003
1.571700e+003, 7.013651e-003
1.573629e+003, 7.013510e-003
1.575557e+003, 7.120267e-003
1.577486e+003, 7.270277e-003
1.579414e+003, 7.467424e-003
1.581343e+003, 7.435332e-003
1.583271e+003, 7.329226e-003
1.585200e+003, 7.509429e-003
1.587128e+003, 7.671962e-003
1.589057e+003, 7.805345e-003
1.590985e+003, 7.937451e-003
1.592913e+003, 7.763225e-003
1.594842e+003, 7.596401e-003
1.596770e+003, 7.654051e-003
1.598699e+003, 7.740369e-003
1.600627e+003, 7.668247e-003
1.602556e+003, 7.595668e-003
1.604484e+003, 7.612172e-003
1.606413e+003, 7.822119e-003
1.608341e+003, 7.834581e-003
1.610270e+003, 7.945580e-003
1.612198e+003, 8.178160e-003
1.614127e+003, 8.459684e-003
1.616055e+003, 8.832457e-003
1.617984e+003, 9.239580e-003
1.619912e+003, 9.905955e-003
1.621840e+003, 1.029390e-002
1.623769e+003, 1.002836e-002
1.625697e+003, 9.378981e-003
1.627626e+003, 8.914968e-003
1.629554e+003, 8.588463e-003
1.631483e+003, 7.985731e-003
1.633411e+003, 7.572907e-003
1.635340e+003, 7.338782e-003
1.637268e+003, 7.220501e-003
1.639197e+003, 7.110610e-003
1.641125e+003, 7.037309e-003
1.643054e+003, 7.010611e-003
1.644982e+003, 6.925821e-003
1.646911e+003, 6.816646e-003
1.648839e+003, 6.832513e-003
1.650767e+003, 6.895062e-003
1.652696e+003, 6.695536e-003
1.654624e+003, 6.366477e-003
1.656553e+003, 6.410718e-003
1.658481e+003, 6.481888e-003
1.660410e+003, 6.379184e-003
1.662338e+003, 6.232794e-003
1.664267e+003, 6.156485e-003
1.666195e+003, 6.253880e-003
1.668124e+003, 6.289272e-003
1.670052e+003, 6.264952e-003
1.671981e+003, 6.015854e-003
1.673909e+003, 6.012333e-003
1.675838e+003, 6.208302e-003
1.677766e+003, 6.096647e-003
1.679694e+003, 6.084067e-003
1.681623e+003, 6.208713e-003
1.683551e+003, 6.327627e-003
1.685480e+003, 6.300122e-003
1.687408e+003, 6.027723e-003
1.689337e+003, 6.004644e-003
1.691265e+003, 5.924156e-003
1.693194e+003, 5.610758e-003
1.695122e+003, 5.480764e-003
1.697051e+003, 5.483602e-003
1.698979e+003, 5.555622e-003
1.700908e+003, 5.566190e-003
1.702836e+003, 5.557715e-003
1.704765e+003, 5.332245e-003
1.706693e+003, 5.169073e-003
1.708621e+003, 5.213623e-003
1.710550e+003, 5.308552e-003
1.712478e+003, 5.193049e-003
1.714407e+003, 5.154165e-003
1.716335e+003, 5.289734e-003
1.718264e+003, 5.341608e-003
1.720192e+003, 5.229525e-003
1.722121e+003, 5.350317e-003
1.724049e+003, 5.429208e-003
1.725978e+003, 5.293068e-003
1.727906e+003, 5.295983e-003
1.729835e+003, 5.432645e-003
1.731763e+003, 5.292837e-003
1.733692e+003, 5.183099e-003
1.735620e+003, 4.901942e-003
1.737548e+003, 4.559724e-003
1.739477e+003, 4.617321e-003
1.741405e+003, 4.637882e-003
1.743334e+003, 4.434806e-003
1.745262e+003, 4.420749e-003
1.747191e+003, 4.429359e-003
1.749119e+003, 4.415187e-003
1.751048e+003, 4.421921e-003
1.752976e+003, 4.536105e-003
1.754905e+003, 4.606434e-003
1.756833e+003, 4.774671e-003
1.758762e+003, 4.808060e-003
1.760690e+003, 4.679432e-003
1.762619e+003, 4.624271e-003
1.764547e+003, 4.525106e-003
1.766475e+003, 4.498316e-003
1.768404e+003, 4.560046e-003
1.770332e+003, 4.505836e-003
1.772261e+003, 4.399943e-003
1.774189e+003, 4.269883e-003
1.776118e+003, 4.425023e-003
1.778046e+003, 4.845594e-003
1.779975e+003, 4.901000e-003
1.781903e+003, 4.765802e-003
1.783832e+003, 4.610346e-003
1.785760e+003, 4.953549e-003
1.787689e+003, 5.366157e-003
1.789617e+003, 5.102052e-003
1.791546e+003, 5.094703e-003
1.793474e+003, 5.349237e-003
1.795402e+003, 5.611694e-003
1.797331e+003, 5.711539e-003
1.799259e+003, 5.556678e-003
1.801188e+003, 5.471879e-003
1.803116e+003, 5.423531e-003
1.805045e+003, 5.017810e-003
1.806973e+003, 4.626060e-003
1.808902e+003, 4.480526e-003
1.810830e+003, 4.713674e-003
1.812759e+003, 4.803714e-003
1.814687e+003, 4.696855e-003
1.816616e+003, 4.769908e-003
1.818544e+003, 4.848264e-003
1.820473e+003, 4.732215e-003
1.822401e+003, 4.781937e-003
1.824329e+003, 4.937768e-003
1.826258e+003, 5.004122e-003
1.828186e+003, 5.021048e-003
1.830115e+003, 4.929019e-003
1.832043e+003, 4.699759e-003
1.833972e+003, 4.771458e-003
1.835900e+003, 5.026621e-003
1.837829e+003, 5.046362e-003
1.839757e+003, 5.058098e-003
1.841686e+003, 5.150115e-003
1.843614e+003, 5.101222e-003
1.845543e+003, 4.990500e-003
1.847471e+003, 5.303074e-003
1.849400e+003, 5.624617e-003
1.851328e+003, 5.181890e-003
1.853256e+003, 4.320357e-003
1.855185e+003, 4.308412e-003
1.857113e+003, 4.704270e-003
1.859042e+003, 5.240181e-003
1.860970e+003, 5.302405e-003
1.862899e+003, 5.130658e-003
1.864827e+003, 5.040028e-003
1.866756e+003, 4.895505e-003
1.868684e+003, 4.656478e-003
1.870613e+003, 4.325232e-003
1.872541e+003, 4.673888e-003
1.874470e+003, 4.994029e-003
1.876398e+003, 5.093629e-003
1.878327e+003, 5.284322e-003
1.880255e+003, 5.197450e-003
1.882183e+003, 4.853395e-003
1.884112e+003, 4.524091e-003
1.886040e+003, 4.563408e-003
1.887969e+003, 4.964974e-003
1.889897e+003, 4.686091e-003
1.891826e+003, 4.164448e-003
1.893754e+003, 3.780549e-003
1.895683e+003, 4.385020e-003
1.897611e+003, 4.489990e-003
1.899540e+003, 4.301563e-003
1.901468e+003, 4.726816e-003
1.903397e+003, 4.649093e-003
1.905325e+003, 4.643771e-003
1.907254e+003, 4.551880e-003
1.909182e+003, 4.627152e-003
1.911110e+003, 4.099913e-003
1.913039e+003, 4.081246e-003
1.914967e+003, 4.250074e-003
1.916896e+003, 3.891186e-003
1.918824e+003, 3.580891e-003
1.920753e+003, 3.028030e-003
1.922681e+003, 2.889205e-003
1.924610e+003, 2.679935e-003
1.926538e+003, 3.186178e-003
1.928467e+003, 3.629877e-003
1.930395e+003, 3.953414e-003
1.932324e+003, 3.949836e-003
1.934252e+003, 3.971550e-003
1.936181e+003, 3.536413e-003
1.938109e+003, 3.737419e-003
1.940037e+003, 3.831794e-003
1.941966e+003, 3.907483e-003
1.943894e+003, 3.748250e-003
1.945823e+003, 3.344405e-003
1.947751e+003, 3.721978e-003
1.949680e+003, 3.638590e-003
1.951608e+003, 3.442579e-003
1.953537e+003, 3.081910e-003
1.955465e+003, 1.788637e-003
1.957394e+003, 1.145852e-003
1.959322e+003, 1.735631e-003
1.961251e+003, 2.189562e-003
1.963179e+003, 1.482795e-003
1.965108e+003, 7.634293e-004
1.967036e+003, 5.353034e-004
1.968964e+003, 2.039573e-003
1.970893e+003, 3.050234e-003
1.972821e+003, 1.511683e-003
1.974750e+003, -1.041823e-004
1.976678e+003, 1.146116e-003
1.978607e+003, 4.503584e-003
1.980535e+003, 5.097528e-003
1.982464e+003, 4.331783e-003
1.984392e+003, 4.168759e-003
1.986321e+003, 4.280879e-003
1.988249e+003, 4.948011e-003
1.990178e+003, 2.844712e-003
1.992106e+003, 2.284551e-003
1.994035e+003, 3.022059e-003
1.995963e+003, 1.881866e-003
1.997891e+003, 1.709090e-003
1.999820e+003, 3.135225e-003
2.001748e+003, 3.023297e-003
2.003677e+003, 2.760499e-003
2.005605e+003, 1.286190e-003
2.007534e+003, 1.007153e-003
2.009462e+003, 9.004734e-004
2.011391e+003, 1.046697e-004
2.013319e+003, -7.950460e-004
2.015248e+003, 2.246541e-005
2.017176e+003, 1.532398e-003
2.019105e+003, 1.883631e-003
2.021033e+003, 2.568994e-003
2.022962e+003, 1.484016e-003
2.024890e+003, -1.924406e-004
2.026818e+003, -4.339548e-006
2.028747e+003, 9.797013e-005
2.030675e+003, 1.602233e-003
2.032604e+003, 2.064900e-003
2.034532e+003, 1.624996e-003
2.036461e+003, 7.131234e-004
2.038389e+003, 1.256407e-003
2.040318e+003, 1.810466e-003
2.042246e+003, 1.802548e-003
2.044175e+003, 1.732855e-003
2.046103e+003, 2.674425e-003
2.048032e+003, 3.255198e-003
2.049960e+003, 4.987011e-003
2.051889e+003, 4.565660e-003
2.053817e+003, 1.101827e-003
2.055746e+003, 9.018331e-004
2.057674e+003, 2.681750e-003
2.059603e+003, 3.110588e-003
2.061531e+003, 3.112403e-003
2.063459e+003, 4.248341e-003
2.065388e+003, 4.183211e-003
2.067316e+003, 3.504355e-003
2.069245e+003, 2.506703e-003
2.071173e+003, 2.473322e-003
2.073102e+003, 2.507723e-003
2.075030e+003, 3.067168e-003
2.076959e+003, 3.567953e-003
2.078887e+003, 3.904789e-003
2.080816e+003, 4.138055e-003
2.082744e+003, 3.598744e-003
2.084673e+003, 3.097151e-003
2.086601e+003, 3.034598e-003
2.088530e+003, 2.279787e-003
2.090458e+003, 2.784354e-003
2.092386e+003, 2.936727e-003
2.094315e+003, 1.802875e-003
2.096243e+003, 1.905661e-003
2.098172e+003, 2.790442e-003
2.100100e+003, 3.452763e-003
2.102029e+003, 4.351531e-003
2.103957e+003, 3.893970e-003
2.105886e+003, 2.988780e-003
2.107814e+003, 3.250176e-003
2.109743e+003, 3.804012e-003
2.111671e+003, 3.440038e-003
2.113600e+003, 3.869826e-003
2.115528e+003, 5.140083e-003
2.117457e+003, 5.138841e-003
2.119385e+003, 4.052855e-003
2.121313e+003, 3.605112e-003
2.123242e+003, 4.106231e-003
2.125170e+003, 4.837980e-003
2.127099e+003, 5.257569e-003
2.129027e+003, 4.958313e-003
2.130956e+003, 3.677992e-003
2.132884e+003, 2.382885e-003
2.134813e+003, 2.632288e-003
2.136741e+003, 3.725364e-003
2.138670e+003, 3.421562e-003
2.140598e+003, 1.426841e-003
2.142527e+003, -1.136611e-004
2.144455e+003, 4.271900e-004
2.146384e+003, 9.999417e-004
2.148312e+003, 2.766387e-004
2.150240e+003, -1.219230e-003
2.152169e+003, -5.568008e-003
2.154097e+003, -8.691067e-003
2.156026e+003, -9.299762e-003
2.157954e+003, -6.363145e-003
2.159883e+003, -2.009562e-003
2.161811e+003, -1.163843e-003
2.163740e+003, -2.787319e-003
2.165668e+003, -3.387939e-003
2.167597e+003, -3.127283e-003
2.169525e+003, -3.609473e-003
2.171454e+003, -4.471154e-003
2.173382e+003, -4.429469e-003
2.175311e+003, -4.877575e-003
2.177239e+003, -5.877525e-003
2.179167e+003, -6.282260e-003
2.181096e+003, -4.729488e-003
2.183024e+003, -1.475389e-003
2.184953e+003, -1.411058e-003
2.186881e+003, -2.612806e-003
2.188810e+003, -2.338792e-003
2.190738e+003, -2.471181e-003
2.192667e+003, -3.309357e-003
2.194595e+003, -1.331898e-003
2.196524e+003, -6.872558e-004
2.198452e+003, -2.344665e-003
2.200381e+003, -1.548561e-003
2.202309e+003, -1.520414e-003
2.204238e+003, -1.385418e-003
2.206166e+003, -1.416202e-003
2.208094e+003, -2.397858e-003
2.210023e+003, -2.081415e-003
2.211951e+003, -9.127044e-004
2.213880e+003, -8.615874e-004
2.215808e+003, -1.436932e-003
2.217737e+003, -2.031164e-003
2.219665e+003, -9.583423e-004
2.221594e+003, -4.737733e-005
2.223522e+003, -8.984531e-005
2.225451e+003, -6.848936e-004
2.227379e+003, -2.368072e-004
2.229308e+003, 5.298579e-005
2.231236e+003, 8.730826e-005
2.233165e+003, 1.115153e-003
2.235093e+003, 1.467410e-003
2.237021e+003, 1.110588e-003
2.238950e+003, 9.876729e-004
2.240878e+003, 1.666003e-003
2.242807e+003, 1.910696e-003
2.244735e+003, 2.686307e-003
2.246664e+003, 2.951237e-003
2.248592e+003, 2.445557e-003
2.250521e+003, 2.085171e-003
2.252449e+003, 2.397579e-003
2.254378e+003, 2.342018e-003
2.256306e+003, 1.355532e-003
2.258235e+003, 1.253650e-003
2.260163e+003, 1.642356e-003
2.262092e+003, 2.364449e-003
2.264020e+003, 2.639404e-003
2.265948e+003, 2.405835e-003
2.267877e+003, 2.874500e-003
2.269805e+003, 3.558853e-003
2.271734e+003, 4.028899e-003
2.273662e+003, 4.348959e-003
2.275591e+003, 5.142425e-003
2.277519e+003, 5.582528e-003
2.279448e+003, 4.865773e-003
2.281376e+003, 4.458681e-003
2.283305e+003, 5.026589e-003
2.285233e+003, 5.180500e-003
2.287162e+003, 5.727083e-003
2.289090e+003, 5.778390e-003
2.291019e+003, 5.130221e-003
2.292947e+003, 4.961928e-003
2.294875e+003, 6.312066e-003
2.296804e+003, 6.745255e-003
2.298732e+003, 6.196985e-003
2.300661e+003, 6.617570e-003
2.302589e+003, 7.633125e-003
2.304518e+003, 8.159779e-003
2.306446e+003, 7.533137e-003
2.308375e+003, 6.726937e-003
2.310303e+003, 6.306825e-003
2.312232e+003, 6.667121e-003
2.314160e+003, 6.851445e-003
2.316089e+003, 7.197469e-003
2.318017e+003, 7.556716e-003
2.319946e+003, 8.369993e-003
2.321874e+003, 9.384238e-003
2.323802e+003, 9.284695e-003
2.325731e+003, 7.881630e-003
2.327659e+003, 7.219275e-003
2.329588e+003, 7.708963e-003
2.331516e+003, 8.390595e-003
2.333445e+003, 8.291296e-003
2.335373e+003, 7.868113e-003
2.337302e+003, 8.243149e-003
2.339230e+003, 8.020857e-003
2.341159e+003, 7.462059e-003
2.343087e+003, 7.740458e-003
2.345016e+003, 7.739777e-003
2.346944e+003, 7.599122e-003
2.348873e+003, 7.931896e-003
2.350801e+003, 8.267137e-003
2.352729e+003, 8.267223e-003
2.354658e+003, 8.105267e-003
2.356586e+003, 7.821321e-003
2.358515e+003, 7.390562e-003
2.360443e+003, 7.511112e-003
2.362372e+003, 7.525792e-003
2.364300e+003, 6.929925e-003
2.366229e+003, 6.694401e-003
2.368157e+003, 7.058725e-003
2.370086e+003, 7.367291e-003
2.372014e+003, 7.415315e-003
2.373942e+003, 7.398542e-003
2.375871e+003, 7.483715e-003
2.377799e+003, 7.542637e-003
2.379728e+003, 7.847859e-003
2.381656e+003, 7.725709e-003
2.383585e+003, 7.476905e-003
2.385513e+003, 7.302487e-003
2.387442e+003, 7.503706e-003
2.389370e+003, 7.686520e-003
2.391299e+003, 7.329945e-003
2.393227e+003, 7.371901e-003
2.395156e+003, 7.396913e-003
2.397084e+003, 7.344002e-003
2.399012e+003, 7.681200e-003
2.400941e+003, 8.010614e-003
2.402869e+003, 7.863463e-003
2.404798e+003, 7.748051e-003
2.406726e+003, 7.323419e-003
2.408655e+003, 7.239035e-003
2.410583e+003, 8.197914e-003
2.412512e+003, 8.632355e-003
2.414440e+003, 8.597792e-003
2.416369e+003, 8.923642e-003
2.418297e+003, 8.468864e-003
2.420226e+003, 8.174931e-003
2.422154e+003, 8.670244e-003
2.424083e+003, 8.608392e-003
2.426011e+003, 8.389154e-003
2.427939e+003, 8.388116e-003
2.429868e+003, 8.252117e-003
2.431796e+003, 8.643821e-003
2.433725e+003, 9.257681e-003
2.435653e+003, 9.731854e-003
2.437582e+003, 9.488854e-003
2.439510e+003, 9.494321e-003
2.441439e+003, 9.219122e-003
2.443367e+003, 9.114362e-003
2.445296e+003, 9.328902e-003
2.447224e+003, 9.550025e-003
2.449153e+003, 9.864816e-003
2.451081e+003, 1.028817e-002
2.453010e+003, 1.060324e-002
2.454938e+003, 1.036817e-002
2.456866e+003, 1.014799e-002
2.458795e+003, 1.031050e-002
2.460723e+003, 1.015420e-002
2.462652e+003, 1.028630e-002
2.464580e+003, 1.003566e-002
2.466509e+003, 9.462905e-003
2.468437e+003, 9.828639e-003
2.470366e+003, 1.058764e-002
2.472294e+003, 1.105200e-002
2.474223e+003, 1.050399e-002
2.476151e+003, 1.088722e-002
2.478080e+003, 1.112846e-002
2.480008e+003, 1.011290e-002
2.481937e+003, 9.857811e-003
2.483865e+003, 9.603539e-003
2.485793e+003, 9.629360e-003
2.487722e+003, 1.020026e-002
2.489650e+003, 1.064703e-002
2.491579e+003, 1.085997e-002
2.493507e+003, 1.043109e-002
2.495436e+003, 9.772237e-003
2.497364e+003, 1.013128e-002
2.499293e+003, 1.071376e-002
2.501221e+003, 1.116563e-002
2.503150e+003, 1.087211e-002
2.505078e+003, 1.061198e-002
2.507007e+003, 1.123996e-002
2.508935e+003, 1.170125e-002
2.510864e+003, 1.205886e-002
2.512792e+003, 1.224560e-002
2.514720e+003, 1.249728e-002
2.516649e+003, 1.233759e-002
2.518577e+003, 1.188110e-002
2.520506e+003, 1.139042e-002
2.522434e+003, 1.072659e-002
2.524363e+003, 1.056115e-002
2.526291e+003, 1.090843e-002
2.528220e+003, 1.094112e-002
2.530148e+003, 1.168357e-002
2.532077e+003, 1.178762e-002
2.534005e+003, 1.096412e-002
2.535934e+003, 1.087538e-002
2.537862e+003, 1.075227e-002
2.539791e+003, 1.052525e-002
2.541719e+003, 1.030752e-002
2.543647e+003, 1.041054e-002
2.545576e+003, 1.129541e-002
2.547504e+003, 1.195481e-002
2.549433e+003, 1.166742e-002
2.551361e+003, 1.038314e-002
2.553290e+003, 1.013909e-002
2.555218e+003, 1.114909e-002
2.557147e+003, 1.159809e-002
2.559075e+003, 1.136558e-002
2.561004e+003, 1.086323e-002
2.562932e+003, 1.116241e-002
2.564861e+003, 1.112257e-002
2.566789e+003, 1.093458e-002
2.568718e+003, 1.057997e-002
2.570646e+003, 1.132807e-002
2.572574e+003, 1.246766e-002
2.574503e+003, 1.175998e-002
2.576431e+003, 1.104349e-002
2.578360e+003, 1.140857e-002
2.580288e+003, 1.137928e-002
2.582217e+003, 1.182504e-002
2.584145e+003, 1.257282e-002
2.586074e+003, 1.233388e-002
2.588002e+003, 1.204453e-002
2.589931e+003, 1.230447e-002
2.591859e+003, 1.295500e-002
2.593788e+003, 1.195714e-002
2.595716e+003, 1.136841e-002
2.597645e+003, 1.167519e-002
2.599573e+003, 1.239755e-002
2.601501e+003, 1.330806e-002
2.603430e+003, 1.307356e-002
2.605358e+003, 1.242802e-002
2.607287e+003, 1.189625e-002
2.609215e+003, 1.161040e-002
2.611144e+003, 1.244223e-002
2.613072e+003, 1.266415e-002
2.615001e+003, 1.243029e-002
2.616929e+003, 1.234610e-002
2.618858e+003, 1.266182e-002
2.620786e+003, 1.280945e-002
2.622715e+003, 1.257054e-002
2.624643e+003, 1.235154e-002
2.626572e+003, 1.203638e-002
2.628500e+003, 1.190255e-002
2.630428e+003, 1.224599e-002
2.632357e+003, 1.270485e-002
2.634285e+003, 1.277638e-002
2.636214e+003, 1.290331e-002
2.638142e+003, 1.280074e-002
2.640071e+003, 1.283221e-002
2.641999e+003, 1.252250e-002
2.643928e+003, 1.227934e-002
2.645856e+003, 1.253776e-002
2.647785e+003, 1.257918e-002
2.649713e+003, 1.257219e-002
2.651642e+003, 1.241764e-002
2.653570e+003, 1.186342e-002
2.655499e+003, 1.142480e-002
2.657427e+003, 1.196616e-002
2.659355e+003, 1.237111e-002
2.661284e+003, 1.234683e-002
2.663212e+003, 1.214968e-002
2.665141e+003, 1.210243e-002
2.667069e+003, 1.250998e-002
2.668998e+003, 1.251169e-002
2.670926e+003, 1.180886e-002
2.672855e+003, 1.205154e-002
2.674783e+003, 1.182949e-002
2.676712e+003, 1.161055e-002
2.678640e+003, 1.200624e-002
2.680569e+003, 1.209771e-002
2.682497e+003, 1.220961e-002
2.684426e+003, 1.241120e-002
2.686354e+003, 1.226431e-002
2.688282e+003, 1.206457e-002
2.690211e+003, 1.191247e-002
2.692139e+003, 1.187820e-002
2.694068e+003, 1.211722e-002
2.695996e+003, 1.214341e-002
2.697925e+003, 1.251941e-002
2.699853e+003, 1.277314e-002
2.701782e+003, 1.232333e-002
2.703710e+003, 1.206057e-002
2.705639e+003, 1.221500e-002
2.707567e+003, 1.224691e-002
2.709496e+003, 1.204211e-002
2.711424e+003, 1.199359e-002
2.713353e+003, 1.225936e-002
2.715281e+003, 1.231525e-002
2.717209e+003, 1.199061e-002
2.719138e+003, 1.244427e-002
2.721066e+003, 1.287594e-002
2.722995e+003, 1.229334e-002
2.724923e+003, 1.254474e-002
2.726852e+003, 1.297895e-002
2.728780e+003, 1.243667e-002
2.730709e+003, 1.291058e-002
2.732637e+003, 1.388660e-002
2.734566e+003, 1.333439e-002
2.736494e+003, 1.272758e-002
2.738423e+003, 1.216065e-002
2.740351e+003, 1.146226e-002
2.742280e+003, 1.204000e-002
2.744208e+003, 1.286253e-002
2.746136e+003, 1.291903e-002
2.748065e+003, 1.267049e-002
2.749993e+003, 1.234321e-002
2.751922e+003, 1.205727e-002
2.753850e+003, 1.227082e-002
2.755779e+003, 1.222636e-002
2.757707e+003, 1.216689e-002
2.759636e+003, 1.202539e-002
2.761564e+003, 1.220904e-002
2.763493e+003, 1.250408e-002
2.765421e+003, 1.211326e-002
2.767350e+003, 1.216570e-002
2.769278e+003, 1.274992e-002
2.771207e+003, 1.292306e-002
2.773135e+003, 1.236453e-002
2.775063e+003, 1.184400e-002
2.776992e+003, 1.194887e-002
2.778920e+003, 1.180458e-002
2.780849e+003, 1.209817e-002
2.782777e+003, 1.266847e-002
2.784706e+003, 1.306463e-002
2.786634e+003, 1.291296e-002
2.788563e+003, 1.286568e-002
2.790491e+003, 1.309120e-002
2.792420e+003, 1.287103e-002
2.794348e+003, 1.229793e-002
2.796277e+003, 1.211128e-002
2.798205e+003, 1.221553e-002
2.800134e+003, 1.258349e-002
2.802062e+003, 1.284631e-002
2.803990e+003, 1.298126e-002
2.805919e+003, 1.292244e-002
2.807847e+003, 1.264889e-002
2.809776e+003, 1.211727e-002
2.811704e+003, 1.243123e-002
2.813633e+003, 1.268418e-002
2.815561e+003, 1.312949e-002
2.817490e+003, 1.317613e-002
2.819418e+003, 1.275019e-002
2.821347e+003, 1.215790e-002
2.823275e+003, 1.162289e-002
2.825204e+003, 1.212205e-002
2.827132e+003, 1.264337e-002
2.829061e+003, 1.242756e-002
2.830989e+003, 1.277795e-002
2.832917e+003, 1.294316e-002
2.834846e+003, 1.321902e-002
2.836774e+003, 1.270871e-002
2.838703e+003, 1.246896e-002
2.840631e+003, 1.265000e-002
2.842560e+003, 1.319567e-002
2.844488e+003, 1.295306e-002
2.846417e+003, 1.307993e-002
2.848345e+003, 1.375072e-002
2.850274e+003, 1.427333e-002
2.852202e+003, 1.498212e-002
2.854131e+003, 1.449356e-002
2.856059e+003, 1.344581e-002
2.857988e+003, 1.346102e-002
2.859916e+003, 1.349299e-002
2.861844e+003, 1.310740e-002
2.863773e+003, 1.371024e-002
2.865701e+003, 1.399859e-002
2.867630e+003, 1.375215e-002
2.869558e+003, 1.377216e-002
2.871487e+003, 1.382557e-002
2.873415e+003, 1.369932e-002
2.875344e+003, 1.393152e-002
2.877272e+003, 1.422152e-002
2.879201e+003, 1.416525e-002
2.881129e+003, 1.410541e-002
2.883058e+003, 1.441090e-002
2.884986e+003, 1.394391e-002
2.886915e+003, 1.285192e-002
2.888843e+003, 1.241815e-002
2.890771e+003, 1.307735e-002
2.892700e+003, 1.359900e-002
2.894628e+003, 1.381333e-002
2.896557e+003, 1.376683e-002
2.898485e+003, 1.351940e-002
2.900414e+003, 1.384025e-002
2.902342e+003, 1.464639e-002
2.904271e+003, 1.416331e-002
2.906199e+003, 1.365028e-002
2.908128e+003, 1.378948e-002
2.910056e+003, 1.370416e-002
2.911985e+003, 1.383781e-002
2.913913e+003, 1.510336e-002
2.915842e+003, 1.568370e-002
2.917770e+003, 1.617956e-002
2.919698e+003, 1.709712e-002
2.921627e+003, 1.646492e-002
2.923555e+003, 1.601846e-002
2.925484e+003, 1.588415e-002
2.927412e+003, 1.507310e-002
2.929341e+003, 1.576583e-002
2.931269e+003, 1.619735e-002
2.933198e+003, 1.552270e-002
2.935126e+003, 1.542127e-002
2.937055e+003, 1.525520e-002
2.938983e+003, 1.496279e-002
2.940912e+003, 1.498789e-002
2.942840e+003, 1.454220e-002
2.944769e+003, 1.415525e-002
2.946697e+003, 1.393729e-002
2.948625e+003, 1.451505e-002
2.950554e+003, 1.446027e-002
2.952482e+003, 1.437237e-002
2.954411e+003, 1.456926e-002
2.956339e+003, 1.474582e-002
2.958268e+003, 1.445693e-002
2.960196e+003, 1.416672e-002
2.962125e+003, 1.411800e-002
2.964053e+003, 1.433414e-002
2.965982e+003, 1.393162e-002
2.967910e+003, 1.356010e-002
2.969839e+003, 1.339539e-002
2.971767e+003, 1.375087e-002
2.973696e+003, 1.456878e-002
2.975624e+003, 1.499609e-002
2.977552e+003, 1.550066e-002
2.979481e+003, 1.522558e-002
2.981409e+003, 1.511089e-002
2.983338e+003, 1.506446e-002
2.985266e+003, 1.456084e-002
2.987195e+003, 1.520730e-002
2.989123e+003, 1.537506e-002
2.991052e+003, 1.412259e-002
2.992980e+003, 1.364626e-002
2.994909e+003, 1.428727e-002
2.996837e+003, 1.444094e-002
2.998766e+003, 1.459381e-002
3.000694e+003, 1.471289e-002
3.002623e+003, 1.466892e-002
3.004551e+003, 1.508102e-002
3.006479e+003, 1.489621e-002
3.008408e+003, 1.487693e-002
3.010336e+003, 1.448349e-002
3.012265e+003, 1.416189e-002
3.014193e+003, 1.461242e-002
3.016122e+003, 1.517629e-002
3.018050e+003, 1.482650e-002
3.019979e+003, 1.457146e-002
3.021907e+003, 1.457165e-002
3.023836e+003, 1.384271e-002
3.025764e+003, 1.423305e-002
3.027693e+003, 1.494681e-002
3.029621e+003, 1.502588e-002
3.031550e+003, 1.516377e-002
3.033478e+003, 1.556004e-002
3.035406e+003, 1.550908e-002
3.037335e+003, 1.519281e-002
3.039263e+003, 1.554814e-002
3.041192e+003, 1.477977e-002
3.043120e+003, 1.462998e-002
3.045049e+003, 1.512290e-002
3.046977e+003, 1.522173e-002
3.048906e+003, 1.573414e-002
3.050834e+003, 1.555731e-002
3.052763e+003, 1.500518e-002
3.054691e+003, 1.511744e-002
3.056620e+003, 1.577076e-002
3.058548e+003, 1.680386e-002
3.060477e+003, 1.607535e-002
3.062405e+003, 1.558663e-002
3.064333e+003, 1.593509e-002
3.066262e+003, 1.595200e-002
3.068190e+003, 1.618007e-002
3.070119e+003, 1.558719e-002
3.072047e+003, 1.500082e-002
3.073976e+003, 1.526180e-002
3.075904e+003, 1.633598e-002
3.077833e+003, 1.724591e-002
3.079761e+003, 1.721226e-002
3.081690e+003, 1.677474e-002
3.083618e+003, 1.678244e-002
3.085547e+003, 1.652918e-002
3.087475e+003, 1.619601e-002
3.089404e+003, 1.652600e-002
3.091332e+003, 1.641127e-002
3.093260e+003, 1.615499e-002
3.095189e+003, 1.608524e-002
3.097117e+003, 1.585777e-002
3.099046e+003, 1.590203e-002
3.100974e+003, 1.684848e-002
3.102903e+003, 1.698650e-002
3.104831e+003, 1.619979e-002
3.106760e+003, 1.637416e-002
3.108688e+003, 1.703350e-002
3.110617e+003, 1.692664e-002
3.112545e+003, 1.673644e-002
3.114474e+003, 1.740038e-002
3.116402e+003, 1.806095e-002
3.118331e+003, 1.755590e-002
3.120259e+003, 1.743343e-002
3.122188e+003, 1.716874e-002
3.124116e+003, 1.655102e-002
3.126044e+003, 1.735884e-002
3.127973e+003, 1.792845e-002
3.129901e+003, 1.809703e-002
3.131830e+003, 1.863450e-002
3.133758e+003, 1.846630e-002
3.135687e+003, 1.850821e-002
3.137615e+003, 1.723293e-002
3.139544e+003, 1.635993e-002
3.141472e+003, 1.713183e-002
3.143401e+003, 1.807480e-002
3.145329e+003, 1.800289e-002
3.147258e+003, 1.750715e-002
3.149186e+003, 1.645262e-002
3.151115e+003, 1.568876e-002
3.153043e+003, 1.663212e-002
3.154971e+003, 1.757059e-002
3.156900e+003, 1.811246e-002
3.158828e+003, 1.846283e-002
3.160757e+003, 1.831946e-002
3.162685e+003, 1.798850e-002
3.164614e+003, 1.859719e-002
3.166542e+003, 1.932390e-002
3.168471e+003, 1.932481e-002
3.170399e+003, 1.921619e-002
3.172328e+003, 1.932328e-002
3.174256e+003, 2.004653e-002
3.176185e+003, 2.087913e-002
3.178113e+003, 2.005582e-002
3.180042e+003, 2.000652e-002
3.181970e+003, 2.012156e-002
3.183898e+003, 1.961865e-002
3.185827e+003, 1.970666e-002
3.187755e+003, 1.975523e-002
3.189684e+003, 1.878659e-002
3.191612e+003, 1.867811e-002
3.193541e+003, 1.888547e-002
3.195469e+003, 1.895676e-002
3.197398e+003, 1.946350e-002
3.199326e+003, 1.958479e-002
3.201255e+003, 1.844816e-002
3.203183e+003, 1.840313e-002
3.205112e+003, 1.794661e-002
3.207040e+003, 1.848009e-002
3.208969e+003, 1.967487e-002
3.210897e+003, 2.051314e-002
3.212825e+003, 1.993022e-002
3.214754e+003, 1.843139e-002
3.216682e+003, 1.922619e-002
3.218611e+003, 2.089092e-002
3.220539e+003, 2.041350e-002
3.222468e+003, 1.910078e-002
3.224396e+003, 1.933089e-002
3.226325e+003, 2.014225e-002
3.228253e+003, 2.102298e-002
3.230182e+003, 2.147573e-002
3.232110e+003, 2.105473e-002
3.234039e+003, 2.048948e-002
3.235967e+003, 1.997131e-002
3.237896e+003, 2.018672e-002
3.239824e+003, 2.118463e-002
3.241752e+003, 2.094385e-002
3.243681e+003, 2.111199e-002
3.245609e+003, 2.166467e-002
3.247538e+003, 2.020033e-002
3.249466e+003, 1.887675e-002
3.251395e+003, 1.974419e-002
3.253323e+003, 2.054471e-002
3.255252e+003, 2.072510e-002
3.257180e+003, 2.154946e-002
3.259109e+003, 2.135479e-002
3.261037e+003, 2.065295e-002
3.262966e+003, 2.064004e-002
3.264894e+003, 2.009803e-002
3.266823e+003, 2.054044e-002
3.268751e+003, 2.096327e-002
3.270679e+003, 2.048739e-002
3.272608e+003, 2.024064e-002
3.274536e+003, 2.014439e-002
3.276465e+003, 2.008281e-002
3.278393e+003, 2.100966e-002
3.280322e+003, 2.171546e-002
3.282250e+003, 2.143055e-002
3.284179e+003, 2.131103e-002
3.286107e+003, 2.141583e-002
3.288036e+003, 2.130797e-002
3.289964e+003, 2.232140e-002
3.291893e+003, 2.239343e-002
3.293821e+003, 2.181035e-002
3.295750e+003, 2.209657e-002
3.297678e+003, 2.214612e-002
3.299606e+003, 2.202317e-002
3.301535e+003, 2.264671e-002
3.303463e+003, 2.286611e-002
3.305392e+003, 2.241294e-002
3.307320e+003, 2.227420e-002
3.309249e+003, 2.258265e-002
3.311177e+003, 2.234708e-002
3.313106e+003, 2.247728e-002
3.315034e+003, 2.231064e-002
3.316963e+003, 2.298154e-002
3.318891e+003, 2.409950e-002
3.320820e+003, 2.379567e-002
3.322748e+003, 2.327177e-002
3.324677e+003, 2.287571e-002
3.326605e+003, 2.271374e-002
3.328533e+003, 2.336160e-002
3.330462e+003, 2.261150e-002
3.332390e+003, 2.188825e-002
3.334319e+003, 2.214893e-002
3.336247e+003, 2.304045e-002
3.338176e+003, 2.422130e-002
3.340104e+003, 2.346474e-002
3.342033e+003, 2.276383e-002
3.343961e+003, 2.288930e-002
3.345890e+003, 2.333368e-002
3.347818e+003, 2.304135e-002
3.349747e+003, 2.260904e-002
3.351675e+003, 2.382972e-002
3.353604e+003, 2.330063e-002
3.355532e+003, 2.181361e-002
3.357460e+003, 2.230582e-002
3.359389e+003, 2.346895e-002
3.361317e+003, 2.419156e-002
3.363246e+003, 2.462203e-002
3.365174e+003, 2.431393e-002
3.367103e+003, 2.432606e-002
3.369031e+003, 2.476442e-002
3.370960e+003, 2.450385e-002
3.372888e+003, 2.323126e-002
3.374817e+003, 2.374509e-002
3.376745e+003, 2.487406e-002
3.378674e+003, 2.591732e-002
3.380602e+003, 2.707513e-002
3.382531e+003, 2.677539e-002
3.384459e+003, 2.624180e-002
3.386387e+003, 2.648428e-002
3.388316e+003, 2.640477e-002
3.390244e+003, 2.621752e-002
3.392173e+003, 2.658206e-002
3.394101e+003, 2.786041e-002
3.396030e+003, 2.805284e-002
3.397958e+003, 2.723369e-002
3.399887e+003, 2.677912e-002
3.401815e+003, 2.830189e-002
3.403744e+003, 2.921573e-002
3.405672e+003, 2.901412e-002
3.407601e+003, 2.861487e-002
3.409529e+003, 2.814655e-002
3.411458e+003, 2.757768e-002
3.413386e+003, 2.717896e-002
3.415314e+003, 2.752302e-002
3.417243e+003, 2.761101e-002
3.419171e+003, 2.708671e-002
3.421100e+003, 2.622189e-002
3.423028e+003, 2.537784e-002
3.424957e+003, 2.624702e-002
3.426885e+003, 2.705600e-002
3.428814e+003, 2.633679e-002
3.430742e+003, 2.602101e-002
3.432671e+003, 2.542186e-002
3.434599e+003, 2.548195e-002
3.436528e+003, 2.456077e-002
3.438456e+003, 2.417747e-002
3.440385e+003, 2.487053e-002
3.442313e+003, 2.489989e-002
3.444241e+003, 2.567155e-002
3.446170e+003, 2.627375e-002
3.448098e+003, 2.608388e-002
3.450027e+003, 2.531250e-002
3.451955e+003, 2.493767e-002
3.453884e+003, 2.534470e-002
3.455812e+003, 2.629853e-002
3.457741e+003, 2.494638e-002
3.459669e+003, 2.332987e-002
3.461598e+003, 2.353762e-002
3.463526e+003, 2.416249e-002
3.465455e+003, 2.286890e-002
3.467383e+003, 2.219299e-002
3.469312e+003, 2.391258e-002
3.471240e+003, 2.585831e-002
3.473168e+003, 2.554686e-002
3.475097e+003, 2.456265e-002
3.477025e+003, 2.481036e-002
3.478954e+003, 2.566613e-002
3.480882e+003, 2.481825e-002
3.482811e+003, 2.335690e-002
3.484739e+003, 2.351050e-002
3.486668e+003, 2.422678e-002
3.488596e+003, 2.403386e-002
3.490525e+003, 2.352418e-002
3.492453e+003, 2.314532e-002
3.494382e+003, 2.350472e-002
3.496310e+003, 2.415797e-002
3.498239e+003, 2.454427e-002
3.500167e+003, 2.566754e-002
3.502095e+003, 2.535796e-002
3.504024e+003, 2.404457e-002
3.505952e+003, 2.380832e-002
3.507881e+003, 2.415316e-002
3.509809e+003, 2.320783e-002
3.511738e+003, 2.425849e-002
3.513666e+003, 2.638276e-002
3.515595e+003, 2.624958e-002
3.517523e+003, 2.590879e-002
3.519452e+003, 2.667562e-002
3.521380e+003, 2.544948e-002
3.523309e+003, 2.518182e-002
3.525237e+003, 2.641251e-002
3.527166e+003, 2.703376e-002
3.529094e+003, 2.744741e-002
3.531022e+003, 2.685755e-002
3.532951e+003, 2.758847e-002
3.534879e+003, 2.858396e-002
3.536808e+003, 2.749572e-002
3.538736e+003, 2.604851e-002
3.540665e+003, 2.573421e-002
3.542593e+003, 2.588180e-002
3.544522e+003, 2.645871e-002
3.546450e+003, 2.788873e-002
3.548379e+003, 2.861550e-002
3.550307e+003, 2.866448e-002
3.552236e+003, 2.800827e-002
3.554164e+003, 2.711397e-002
3.556093e+003, 2.714849e-002
3.558021e+003, 2.703705e-002
3.559949e+003, 2.610347e-002
3.561878e+003, 2.458594e-002
3.563806e+003, 2.335901e-002
3.565735e+003, 2.329321e-002
3.567663e+003, 2.286369e-002
3.569592e+003, 2.268260e-002
3.571520e+003, 2.368965e-002
3.573449e+003, 2.308883e-002
3.575377e+003, 2.177670e-002
3.577306e+003, 2.179139e-002
3.579234e+003, 2.281313e-002
3.581163e+003, 2.322443e-002
3.583091e+003, 2.362158e-002
3.585020e+003, 2.323054e-002
3.586948e+003, 2.174678e-002
3.588876e+003, 2.128874e-002
3.590805e+003, 2.217701e-002
3.592733e+003, 2.180034e-002
3.594662e+003, 2.156970e-002
3.596590e+003, 2.104422e-002
3.598519e+003, 2.108941e-002
3.600447e+003, 2.097734e-002
3.602376e+003, 2.137725e-002
3.604304e+003, 2.089241e-002
3.606233e+003, 1.964819e-002
3.608161e+003, 1.871745e-002
3.610090e+003, 1.867870e-002
3.612018e+003, 1.907056e-002
3.613947e+003, 2.015008e-002
3.615875e+003, 2.109123e-002
3.617803e+003, 2.063638e-002
3.619732e+003, 1.986938e-002
3.621660e+003, 2.022726e-002
3.623589e+003, 2.104042e-002
3.625517e+003, 2.073684e-002
3.627446e+003, 1.959210e-002
3.629374e+003, 1.883072e-002
3.631303e+003, 1.889403e-002
3.633231e+003, 1.758744e-002
3.635160e+003, 1.670901e-002
3.637088e+003, 1.708717e-002
3.639017e+003, 1.798442e-002
3.640945e+003, 1.859966e-002
3.642874e+003, 1.891468e-002
3.644802e+003, 1.929423e-002
3.646730e+003, 1.886440e-002
3.648659e+003, 1.780702e-002
3.650587e+003, 1.777258e-002
3.652516e+003, 1.807295e-002
3.654444e+003, 1.733135e-002
3.656373e+003, 1.712191e-002
3.658301e+003, 1.901197e-002
3.660230e+003, 2.012633e-002
3.662158e+003, 1.893982e-002
3.664087e+003, 1.854745e-002
3.666015e+003, 1.905163e-002
3.667944e+003, 1.905964e-002
3.669872e+003, 1.938800e-002
3.671801e+003, 1.894717e-002
3.673729e+003, 1.851783e-002
3.675657e+003, 1.692380e-002
3.677586e+003, 1.640082e-002
3.679514e+003, 1.742827e-002
3.681443e+003, 1.914268e-002
3.683371e+003, 2.025610e-002
3.685300e+003, 2.098467e-002
3.687228e+003, 1.892941e-002
3.689157e+003, 1.777466e-002
3.691085e+003, 1.887500e-002
3.693014e+003, 1.656551e-002
3.694942e+003, 1.632366e-002
3.696871e+003, 1.750886e-002
3.698799e+003, 1.701411e-002
3.700728e+003, 1.462328e-002
3.702656e+003, 1.497248e-002
3.704584e+003, 1.706392e-002
3.706513e+003, 1.814536e-002
3.708441e+003, 1.866980e-002
3.710370e+003, 1.775357e-002
3.712298e+003, 1.670784e-002
3.714227e+003, 1.751984e-002
3.716155e+003, 1.801714e-002
3.718084e+003, 1.889840e-002
3.720012e+003, 1.824866e-002
3.721941e+003, 1.843809e-002
3.723869e+003, 1.857739e-002
3.725798e+003, 1.713465e-002
3.727726e+003, 1.668814e-002
3.729655e+003, 1.863431e-002
3.731583e+003, 1.875472e-002
3.733511e+003, 1.808351e-002
3.735440e+003, 1.637872e-002
3.737368e+003, 1.664695e-002
3.739297e+003, 1.875979e-002
3.741225e+003, 1.943254e-002
3.743154e+003, 1.909983e-002
3.745082e+003, 1.818400e-002
3.747011e+003, 1.924745e-002
3.748939e+003, 1.850249e-002
3.750868e+003, 1.872582e-002
3.752796e+003, 1.824213e-002
3.754725e+003, 1.877547e-002
3.756653e+003, 1.999327e-002
3.758582e+003, 1.915685e-002
3.760510e+003, 1.802096e-002
3.762438e+003, 1.994541e-002
3.764367e+003, 2.153824e-002
3.766295e+003, 1.958142e-002
3.768224e+003, 1.861851e-002
3.770152e+003, 1.960412e-002
3.772081e+003, 1.995394e-002
3.774009e+003, 1.930979e-002
3.775938e+003, 2.000327e-002
3.777866e+003, 1.936733e-002
3.779795e+003, 1.779298e-002
3.781723e+003, 1.727351e-002
3.783652e+003, 1.844545e-002
3.785580e+003, 2.019237e-002
3.787509e+003, 1.922502e-002
3.789437e+003, 1.868547e-002
3.791365e+003, 1.931644e-002
3.793294e+003, 1.933238e-002
3.795222e+003, 1.964455e-002
3.797151e+003, 2.075643e-002
3.799079e+003, 2.164663e-002
3.801008e+003, 2.070550e-002
3.802936e+003, 1.992312e-002
3.804865e+003, 1.949810e-002
3.806793e+003, 1.886965e-002
3.808722e+003, 1.991310e-002
3.810650e+003, 2.070942e-002
3.812579e+003, 1.934879e-002
3.814507e+003, 2.029880e-002
3.816436e+003, 2.079113e-002
3.818364e+003, 2.111220e-002
3.820292e+003, 1.985819e-002
3.822221e+003, 1.779040e-002
3.824149e+003, 1.815913e-002
3.826078e+003, 1.978576e-002
3.828006e+003, 1.995452e-002
3.829935e+003, 1.976276e-002
3.831863e+003, 1.728687e-002
3.833792e+003, 1.735578e-002
3.835720e+003, 1.892762e-002
3.837649e+003, 1.871615e-002
3.839577e+003, 1.869882e-002
3.841506e+003, 2.005864e-002
3.843434e+003, 2.000172e-002
3.845363e+003, 1.812117e-002
3.847291e+003, 1.823168e-002
3.849219e+003, 1.920193e-002
3.851148e+003, 1.846172e-002
3.853076e+003, 1.858452e-002
3.855005e+003, 2.002581e-002
3.856933e+003, 2.011978e-002
3.858862e+003, 1.940941e-002
3.860790e+003, 2.159160e-002
3.862719e+003, 2.035511e-002
3.864647e+003, 1.891677e-002
3.866576e+003, 2.010362e-002
3.868504e+003, 2.059046e-002
3.870433e+003, 1.799831e-002
3.872361e+003, 1.840218e-002
3.874290e+003, 1.925235e-002
3.876218e+003, 1.813702e-002
3.878146e+003, 1.822002e-002
3.880075e+003, 1.918940e-002
3.882003e+003, 1.953522e-002
3.883932e+003, 1.892947e-002
3.885860e+003, 2.008295e-002
3.887789e+003, 2.108661e-002
3.889717e+003, 2.132746e-002
3.891646e+003, 2.130018e-002
3.893574e+003, 2.137429e-002
3.895503e+003, 2.101447e-002
3.897431e+003, 2.102952e-002
3.899360e+003, 2.001290e-002
3.901288e+003, 1.898098e-002
3.903217e+003, 1.964378e-002
3.905145e+003, 1.999743e-002
3.907073e+003, 2.229412e-002
3.909002e+003, 2.049808e-002
3.910930e+003, 1.842836e-002
3.912859e+003, 2.017905e-002
3.914787e+003, 2.080344e-002
3.916716e+003, 2.070999e-002
3.918644e+003, 2.168052e-002
3.920573e+003, 1.996169e-002
3.922501e+003, 1.900906e-002
3.924430e+003, 1.925104e-002
3.926358e+003, 1.930441e-002
3.928287e+003, 1.911501e-002
3.930215e+003, 1.968444e-002
3.932144e+003, 2.048857e-002
3.934072e+003, 2.012087e-002
3.936000e+003, 2.035170e-002
3.937929e+003, 2.081241e-002
3.939857e+003, 1.945506e-002
3.941786e+003, 2.011331e-002
3.943714e+003, 2.023999e-002
3.945643e+003, 2.116089e-002
3.947571e+003, 2.139208e-002
3.949500e+003, 1.905753e-002
3.951428e+003, 2.013177e-002
3.953357e+003, 2.316514e-002
3.955285e+003, 2.251893e-002
3.957214e+003, 2.132693e-002
3.959142e+003, 1.952144e-002
3.961071e+003, 2.104361e-002
3.962999e+003, 2.182097e-002
3.964927e+003, 2.159344e-002
3.966856e+003, 2.009415e-002
3.968784e+003, 1.998514e-002
3.970713e+003, 1.974450e-002
3.972641e+003, 2.109139e-002
3.974570e+003, 2.379072e-002
3.976498e+003, 2.364717e-002
3.978427e+003, 2.316618e-002
3.980355e+003, 2.310076e-002
3.982284e+003, 1.985958e-002
3.984212e+003, 1.861685e-002
3.986141e+003, 2.026655e-002
3.988069e+003, 2.210689e-002
3.989998e+003, 2.071267e-002
3.991926e+003, 1.985479e-002
3.993854e+003, 2.064383e-002
3.995783e+003, 1.991580e-002
3.997711e+003, 1.955026e-002
3.999640e+003, 1.956162e-002
##END=



