##NAMES=Ankerite
##RRUFFID=R050181
##IDEAL CHEMISTRY=CaFe^2+^(CO_3_)_2_
##LOCALITY=Cerro Sapo, Cochabamba Department, Bolivia
##OWNER=RRUFF
##SOURCE=Marcus Origlieri
##DESCRIPTION=White coarsely crystalline massive
##STATUS=The identification of this mineral has been confirmed by X-ray diffraction and chemical analysis
##URL=rruff.info/R050181
##MEASURED CHEMISTRY=Ca_1.00_(Fe^2+^_0.60_Mg_0.35_Mn^2+^_0.05_)_Î£=1_(CO_3_)_2_ ; C not measured but estimated by difference and stoichiometry
3.991926e+002, 0.000000e+000
4.011211e+002, 5.621814e-002
4.030496e+002, 5.647758e-002
4.049780e+002, 5.333454e-002
4.069065e+002, 5.136798e-002
4.088350e+002, 4.634763e-002
4.107634e+002, 4.086563e-002
4.126919e+002, 4.029089e-002
4.146204e+002, 3.826627e-002
4.165488e+002, 3.668345e-002
4.184773e+002, 3.586610e-002
4.204058e+002, 3.310734e-002
4.223342e+002, 3.049921e-002
4.242627e+002, 2.978472e-002
4.261912e+002, 2.872940e-002
4.281196e+002, 2.812214e-002
4.300481e+002, 2.796507e-002
4.319766e+002, 2.722949e-002
4.339050e+002, 2.655760e-002
4.358335e+002, 2.606113e-002
4.377620e+002, 2.487550e-002
4.396904e+002, 2.422565e-002
4.416189e+002, 2.424233e-002
4.435474e+002, 2.433189e-002
4.454758e+002, 2.359100e-002
4.474043e+002, 2.303343e-002
4.493328e+002, 2.219185e-002
4.512612e+002, 2.214813e-002
4.531897e+002, 2.187194e-002
4.551182e+002, 2.197186e-002
4.570466e+002, 2.242126e-002
4.589751e+002, 2.185237e-002
4.609036e+002, 2.080528e-002
4.628320e+002, 2.033374e-002
4.647605e+002, 1.992629e-002
4.666890e+002, 1.987395e-002
4.686174e+002, 1.964751e-002
4.705459e+002, 1.933999e-002
4.724744e+002, 1.972134e-002
4.744028e+002, 1.906313e-002
4.763313e+002, 1.844919e-002
4.782598e+002, 1.869814e-002
4.801882e+002, 1.844771e-002
4.821167e+002, 1.787743e-002
4.840452e+002, 1.748889e-002
4.859736e+002, 1.750862e-002
4.879021e+002, 1.788467e-002
4.898306e+002, 1.782251e-002
4.917590e+002, 1.777310e-002
4.936875e+002, 1.829888e-002
4.956160e+002, 1.826333e-002
4.975444e+002, 1.791767e-002
4.994729e+002, 1.786516e-002
5.014014e+002, 1.743682e-002
5.033298e+002, 1.716677e-002
5.052583e+002, 1.735465e-002
5.071868e+002, 1.731833e-002
5.091152e+002, 1.671158e-002
5.110437e+002, 1.633130e-002
5.129722e+002, 1.605894e-002
5.149006e+002, 1.570411e-002
5.168291e+002, 1.582435e-002
5.187576e+002, 1.540766e-002
5.206860e+002, 1.485572e-002
5.226145e+002, 1.461872e-002
5.245430e+002, 1.528585e-002
5.264714e+002, 1.593320e-002
5.283999e+002, 1.592526e-002
5.303284e+002, 1.554676e-002
5.322568e+002, 1.548955e-002
5.341853e+002, 1.604411e-002
5.361138e+002, 1.592837e-002
5.380422e+002, 1.563876e-002
5.399707e+002, 1.584611e-002
5.418992e+002, 1.571553e-002
5.438276e+002, 1.528170e-002
5.457561e+002, 1.502158e-002
5.476846e+002, 1.469205e-002
5.496130e+002, 1.486870e-002
5.515415e+002, 1.471170e-002
5.534700e+002, 1.401594e-002
5.553984e+002, 1.378841e-002
5.573269e+002, 1.454711e-002
5.592554e+002, 1.532824e-002
5.611838e+002, 1.508121e-002
5.631123e+002, 1.412875e-002
5.650408e+002, 1.357177e-002
5.669692e+002, 1.309886e-002
5.688977e+002, 1.268317e-002
5.708262e+002, 1.283320e-002
5.727546e+002, 1.264537e-002
5.746831e+002, 1.231478e-002
5.766116e+002, 1.229338e-002
5.785400e+002, 1.208988e-002
5.804685e+002, 1.204082e-002
5.823970e+002, 1.219320e-002
5.843254e+002, 1.174816e-002
5.862539e+002, 1.138429e-002
5.881824e+002, 1.167186e-002
5.901108e+002, 1.152057e-002
5.920393e+002, 1.114314e-002
5.939678e+002, 1.126789e-002
5.958962e+002, 1.160809e-002
5.978247e+002, 1.160581e-002
5.997532e+002, 1.148261e-002
6.016816e+002, 1.154658e-002
6.036101e+002, 1.187750e-002
6.055386e+002, 1.212383e-002
6.074670e+002, 1.245277e-002
6.093955e+002, 1.287109e-002
6.113240e+002, 1.310622e-002
6.132524e+002, 1.338744e-002
6.151809e+002, 1.387850e-002
6.171094e+002, 1.430538e-002
6.190378e+002, 1.447688e-002
6.209663e+002, 1.400875e-002
6.228948e+002, 1.375537e-002
6.248232e+002, 1.390996e-002
6.267517e+002, 1.371245e-002
6.286802e+002, 1.352709e-002
6.306086e+002, 1.362675e-002
6.325371e+002, 1.349843e-002
6.344656e+002, 1.290778e-002
6.363940e+002, 1.256339e-002
6.383225e+002, 1.254388e-002
6.402510e+002, 1.237044e-002
6.421794e+002, 1.222585e-002
6.441079e+002, 1.227816e-002
6.460364e+002, 1.220567e-002
6.479648e+002, 1.206414e-002
6.498933e+002, 1.201088e-002
6.518218e+002, 1.220186e-002
6.537502e+002, 1.243299e-002
6.556787e+002, 1.219219e-002
6.576072e+002, 1.209005e-002
6.595356e+002, 1.221829e-002
6.614641e+002, 1.220394e-002
6.633926e+002, 1.238716e-002
6.653210e+002, 1.267308e-002
6.672495e+002, 1.292158e-002
6.691780e+002, 1.300032e-002
6.711064e+002, 1.270466e-002
6.730349e+002, 1.278484e-002
6.749634e+002, 1.313218e-002
6.768918e+002, 1.342408e-002
6.788203e+002, 1.361322e-002
6.807488e+002, 1.378000e-002
6.826772e+002, 1.361757e-002
6.846057e+002, 1.357832e-002
6.865342e+002, 1.381476e-002
6.884626e+002, 1.407881e-002
6.903911e+002, 1.429506e-002
6.923196e+002, 1.473552e-002
6.942480e+002, 1.524853e-002
6.961765e+002, 1.559642e-002
6.981050e+002, 1.591079e-002
7.000334e+002, 1.647946e-002
7.019619e+002, 1.705447e-002
7.038904e+002, 1.767733e-002
7.058188e+002, 1.871519e-002
7.077473e+002, 1.974788e-002
7.096758e+002, 2.097150e-002
7.116042e+002, 2.318801e-002
7.135327e+002, 2.640683e-002
7.154612e+002, 3.126675e-002
7.173896e+002, 3.911343e-002
7.193181e+002, 5.236578e-002
7.212466e+002, 7.230487e-002
7.231750e+002, 9.349988e-002
7.251035e+002, 1.012467e-001
7.270320e+002, 8.537582e-002
7.289604e+002, 5.807653e-002
7.308889e+002, 3.671579e-002
7.328174e+002, 2.505226e-002
7.347458e+002, 1.963257e-002
7.366743e+002, 1.706914e-002
7.386028e+002, 1.549381e-002
7.405313e+002, 1.423651e-002
7.424597e+002, 1.348994e-002
7.443882e+002, 1.323030e-002
7.463167e+002, 1.308035e-002
7.482451e+002, 1.279407e-002
7.501736e+002, 1.225876e-002
7.521021e+002, 1.201089e-002
7.540305e+002, 1.243348e-002
7.559590e+002, 1.266447e-002
7.578875e+002, 1.238922e-002
7.598159e+002, 1.214932e-002
7.617444e+002, 1.245667e-002
7.636729e+002, 1.258071e-002
7.656013e+002, 1.261601e-002
7.675298e+002, 1.290744e-002
7.694583e+002, 1.285027e-002
7.713867e+002, 1.259730e-002
7.733152e+002, 1.260779e-002
7.752437e+002, 1.285701e-002
7.771721e+002, 1.283882e-002
7.791006e+002, 1.271534e-002
7.810291e+002, 1.278173e-002
7.829575e+002, 1.275027e-002
7.848860e+002, 1.255889e-002
7.868145e+002, 1.256581e-002
7.887429e+002, 1.270904e-002
7.906714e+002, 1.282556e-002
7.925999e+002, 1.266481e-002
7.945283e+002, 1.270733e-002
7.964568e+002, 1.313560e-002
7.983853e+002, 1.325804e-002
8.003137e+002, 1.285459e-002
8.022422e+002, 1.281318e-002
8.041707e+002, 1.328396e-002
8.060991e+002, 1.368427e-002
8.080276e+002, 1.396297e-002
8.099561e+002, 1.413541e-002
8.118845e+002, 1.432763e-002
8.138130e+002, 1.460944e-002
8.157415e+002, 1.490153e-002
8.176699e+002, 1.505720e-002
8.195984e+002, 1.544338e-002
8.215269e+002, 1.618987e-002
8.234553e+002, 1.671625e-002
8.253838e+002, 1.692315e-002
8.273123e+002, 1.720522e-002
8.292407e+002, 1.792584e-002
8.311692e+002, 1.896922e-002
8.330977e+002, 1.981013e-002
8.350261e+002, 2.132182e-002
8.369546e+002, 2.337734e-002
8.388831e+002, 2.563082e-002
8.408115e+002, 2.886814e-002
8.427400e+002, 3.307395e-002
8.446685e+002, 3.727406e-002
8.465969e+002, 4.080021e-002
8.485254e+002, 4.311213e-002
8.504539e+002, 4.525717e-002
8.523823e+002, 4.920158e-002
8.543108e+002, 5.677304e-002
8.562393e+002, 6.883673e-002
8.581677e+002, 8.695388e-002
8.600962e+002, 1.122075e-001
8.620247e+002, 1.454468e-001
8.639531e+002, 1.854670e-001
8.658816e+002, 2.233198e-001
8.678101e+002, 2.473197e-001
8.697385e+002, 2.559966e-001
8.716670e+002, 2.528292e-001
8.735955e+002, 2.377423e-001
8.755239e+002, 2.164299e-001
8.774524e+002, 1.925365e-001
8.793809e+002, 1.647456e-001
8.813093e+002, 1.332638e-001
8.832378e+002, 9.987769e-002
8.851663e+002, 6.992248e-002
8.870947e+002, 4.721365e-002
8.890232e+002, 3.412288e-002
8.909517e+002, 2.902850e-002
8.928801e+002, 2.731077e-002
8.948085e+002, 2.641240e-002
8.967370e+002, 2.629456e-002
8.986655e+002, 2.648151e-002
9.005939e+002, 2.670248e-002
9.025224e+002, 2.675632e-002
9.044509e+002, 2.646876e-002
9.063793e+002, 2.623384e-002
9.083078e+002, 2.618055e-002
9.102363e+002, 2.594471e-002
9.121647e+002, 2.573349e-002
9.140932e+002, 2.564665e-002
9.160217e+002, 2.563375e-002
9.179501e+002, 2.543727e-002
9.198786e+002, 2.525946e-002
9.218071e+002, 2.529794e-002
9.237355e+002, 2.522736e-002
9.256640e+002, 2.498560e-002
9.275925e+002, 2.482564e-002
9.295209e+002, 2.469201e-002
9.314494e+002, 2.459739e-002
9.333779e+002, 2.450207e-002
9.353063e+002, 2.438597e-002
9.372348e+002, 2.397301e-002
9.391633e+002, 2.376549e-002
9.410917e+002, 2.387806e-002
9.430202e+002, 2.382712e-002
9.449487e+002, 2.383287e-002
9.468771e+002, 2.399186e-002
9.488056e+002, 2.409919e-002
9.507341e+002, 2.443196e-002
9.526625e+002, 2.455545e-002
9.545910e+002, 2.472998e-002
9.565195e+002, 2.515391e-002
9.584479e+002, 2.550673e-002
9.603764e+002, 2.564120e-002
9.623049e+002, 2.571616e-002
9.642333e+002, 2.558875e-002
9.661618e+002, 2.552756e-002
9.680903e+002, 2.559812e-002
9.700187e+002, 2.554220e-002
9.719472e+002, 2.562724e-002
9.738757e+002, 2.592795e-002
9.758041e+002, 2.625006e-002
9.777326e+002, 2.671149e-002
9.796611e+002, 2.730137e-002
9.815895e+002, 2.762743e-002
9.835180e+002, 2.810783e-002
9.854465e+002, 2.888393e-002
9.873749e+002, 2.963345e-002
9.893034e+002, 3.021003e-002
9.912319e+002, 3.073290e-002
9.931603e+002, 3.115033e-002
9.950888e+002, 3.177084e-002
9.970173e+002, 3.246117e-002
9.989457e+002, 3.298008e-002
1.000874e+003, 3.350725e-002
1.002803e+003, 3.400763e-002
1.004731e+003, 3.451910e-002
1.006660e+003, 3.493858e-002
1.008588e+003, 3.536943e-002
1.010517e+003, 3.580489e-002
1.012445e+003, 3.598738e-002
1.014373e+003, 3.588400e-002
1.016302e+003, 3.587392e-002
1.018230e+003, 3.598065e-002
1.020159e+003, 3.594413e-002
1.022087e+003, 3.557418e-002
1.024016e+003, 3.517966e-002
1.025944e+003, 3.494078e-002
1.027873e+003, 3.484454e-002
1.029801e+003, 3.449696e-002
1.031730e+003, 3.418003e-002
1.033658e+003, 3.413141e-002
1.035587e+003, 3.403643e-002
1.037515e+003, 3.393824e-002
1.039444e+003, 3.379411e-002
1.041372e+003, 3.360734e-002
1.043301e+003, 3.372597e-002
1.045229e+003, 3.387300e-002
1.047157e+003, 3.402479e-002
1.049086e+003, 3.400050e-002
1.051014e+003, 3.415603e-002
1.052943e+003, 3.449825e-002
1.054871e+003, 3.465819e-002
1.056800e+003, 3.448137e-002
1.058728e+003, 3.447746e-002
1.060657e+003, 3.457903e-002
1.062585e+003, 3.491709e-002
1.064514e+003, 3.527221e-002
1.066442e+003, 3.551039e-002
1.068371e+003, 3.567534e-002
1.070299e+003, 3.604570e-002
1.072228e+003, 3.637047e-002
1.074156e+003, 3.651420e-002
1.076084e+003, 3.689525e-002
1.078013e+003, 3.725769e-002
1.079941e+003, 3.758389e-002
1.081870e+003, 3.804698e-002
1.083798e+003, 3.829062e-002
1.085727e+003, 3.856076e-002
1.087655e+003, 3.890222e-002
1.089584e+003, 3.928297e-002
1.091512e+003, 3.941066e-002
1.093441e+003, 3.917366e-002
1.095369e+003, 3.888050e-002
1.097298e+003, 3.853911e-002
1.099226e+003, 3.806312e-002
1.101155e+003, 3.803055e-002
1.103083e+003, 3.832664e-002
1.105011e+003, 3.858188e-002
1.106940e+003, 3.878852e-002
1.108868e+003, 3.890657e-002
1.110797e+003, 3.896858e-002
1.112725e+003, 3.945854e-002
1.114654e+003, 4.000749e-002
1.116582e+003, 4.046819e-002
1.118511e+003, 4.083188e-002
1.120439e+003, 4.094911e-002
1.122368e+003, 4.114731e-002
1.124296e+003, 4.173384e-002
1.126225e+003, 4.224669e-002
1.128153e+003, 4.257296e-002
1.130082e+003, 4.292551e-002
1.132010e+003, 4.341174e-002
1.133938e+003, 4.391119e-002
1.135867e+003, 4.447989e-002
1.137795e+003, 4.492686e-002
1.139724e+003, 4.538644e-002
1.141652e+003, 4.591612e-002
1.143581e+003, 4.647080e-002
1.145509e+003, 4.708948e-002
1.147438e+003, 4.776922e-002
1.149366e+003, 4.847030e-002
1.151295e+003, 4.909262e-002
1.153223e+003, 4.969038e-002
1.155152e+003, 5.040954e-002
1.157080e+003, 5.100721e-002
1.159009e+003, 5.146676e-002
1.160937e+003, 5.209390e-002
1.162865e+003, 5.289453e-002
1.164794e+003, 5.356708e-002
1.166722e+003, 5.439403e-002
1.168651e+003, 5.513943e-002
1.170579e+003, 5.580617e-002
1.172508e+003, 5.663888e-002
1.174436e+003, 5.713489e-002
1.176365e+003, 5.774185e-002
1.178293e+003, 5.868997e-002
1.180222e+003, 5.944468e-002
1.182150e+003, 6.018718e-002
1.184079e+003, 6.082710e-002
1.186007e+003, 6.154177e-002
1.187936e+003, 6.241417e-002
1.189864e+003, 6.318320e-002
1.191792e+003, 6.390704e-002
1.193721e+003, 6.477090e-002
1.195649e+003, 6.544799e-002
1.197578e+003, 6.629046e-002
1.199506e+003, 6.697831e-002
1.201435e+003, 6.773041e-002
1.203363e+003, 6.852707e-002
1.205292e+003, 6.942645e-002
1.207220e+003, 7.028368e-002
1.209149e+003, 7.112950e-002
1.211077e+003, 7.217909e-002
1.213006e+003, 7.329594e-002
1.214934e+003, 7.446326e-002
1.216863e+003, 7.564147e-002
1.218791e+003, 7.667275e-002
1.220719e+003, 7.783197e-002
1.222648e+003, 7.884138e-002
1.224576e+003, 8.012670e-002
1.226505e+003, 8.142632e-002
1.228433e+003, 8.274328e-002
1.230362e+003, 8.408134e-002
1.232290e+003, 8.533636e-002
1.234219e+003, 8.669850e-002
1.236147e+003, 8.819139e-002
1.238076e+003, 8.975396e-002
1.240004e+003, 9.128641e-002
1.241933e+003, 9.268790e-002
1.243861e+003, 9.426273e-002
1.245790e+003, 9.621958e-002
1.247718e+003, 9.820019e-002
1.249646e+003, 9.995277e-002
1.251575e+003, 1.018154e-001
1.253503e+003, 1.037178e-001
1.255432e+003, 1.057597e-001
1.257360e+003, 1.077624e-001
1.259289e+003, 1.097280e-001
1.261217e+003, 1.116965e-001
1.263146e+003, 1.138764e-001
1.265074e+003, 1.160867e-001
1.267003e+003, 1.184308e-001
1.268931e+003, 1.210970e-001
1.270860e+003, 1.237189e-001
1.272788e+003, 1.261493e-001
1.274717e+003, 1.290016e-001
1.276645e+003, 1.318613e-001
1.278573e+003, 1.345308e-001
1.280502e+003, 1.372811e-001
1.282430e+003, 1.399596e-001
1.284359e+003, 1.424060e-001
1.286287e+003, 1.451016e-001
1.288216e+003, 1.481546e-001
1.290144e+003, 1.514092e-001
1.292073e+003, 1.546594e-001
1.294001e+003, 1.578566e-001
1.295930e+003, 1.611837e-001
1.297858e+003, 1.646792e-001
1.299787e+003, 1.681955e-001
1.301715e+003, 1.716781e-001
1.303644e+003, 1.753773e-001
1.305572e+003, 1.792914e-001
1.307500e+003, 1.834275e-001
1.309429e+003, 1.878708e-001
1.311357e+003, 1.920800e-001
1.313286e+003, 1.962939e-001
1.315214e+003, 2.010114e-001
1.317143e+003, 2.059088e-001
1.319071e+003, 2.105353e-001
1.321000e+003, 2.153824e-001
1.322928e+003, 2.205879e-001
1.324857e+003, 2.261318e-001
1.326785e+003, 2.316559e-001
1.328714e+003, 2.373169e-001
1.330642e+003, 2.434832e-001
1.332571e+003, 2.496885e-001
1.334499e+003, 2.558650e-001
1.336427e+003, 2.626067e-001
1.338356e+003, 2.694306e-001
1.340284e+003, 2.764260e-001
1.342213e+003, 2.835811e-001
1.344141e+003, 2.911520e-001
1.346070e+003, 2.988956e-001
1.347998e+003, 3.065155e-001
1.349927e+003, 3.143688e-001
1.351855e+003, 3.227109e-001
1.353784e+003, 3.310786e-001
1.355712e+003, 3.394584e-001
1.357641e+003, 3.482724e-001
1.359569e+003, 3.576555e-001
1.361498e+003, 3.669091e-001
1.363426e+003, 3.765929e-001
1.365354e+003, 3.865643e-001
1.367283e+003, 3.964029e-001
1.369211e+003, 4.063407e-001
1.371140e+003, 4.165758e-001
1.373068e+003, 4.263129e-001
1.374997e+003, 4.359812e-001
1.376925e+003, 4.461111e-001
1.378854e+003, 4.565716e-001
1.380782e+003, 4.670373e-001
1.382711e+003, 4.775566e-001
1.384639e+003, 4.877425e-001
1.386568e+003, 4.974351e-001
1.388496e+003, 5.064361e-001
1.390424e+003, 5.146225e-001
1.392353e+003, 5.218536e-001
1.394281e+003, 5.278838e-001
1.396210e+003, 5.332947e-001
1.398138e+003, 5.388380e-001
1.400067e+003, 5.435444e-001
1.401995e+003, 5.475168e-001
1.403924e+003, 5.505049e-001
1.405852e+003, 5.525399e-001
1.407781e+003, 5.529537e-001
1.409709e+003, 5.519065e-001
1.411638e+003, 5.493852e-001
1.413566e+003, 5.451320e-001
1.415495e+003, 5.392345e-001
1.417423e+003, 5.318089e-001
1.419351e+003, 5.228394e-001
1.421280e+003, 5.133580e-001
1.423208e+003, 5.035089e-001
1.425137e+003, 4.933958e-001
1.427065e+003, 4.832289e-001
1.428994e+003, 4.730831e-001
1.430922e+003, 4.633714e-001
1.432851e+003, 4.545026e-001
1.434779e+003, 4.457673e-001
1.436708e+003, 4.375117e-001
1.438636e+003, 4.292899e-001
1.440565e+003, 4.216818e-001
1.442493e+003, 4.147923e-001
1.444422e+003, 4.077352e-001
1.446350e+003, 4.000810e-001
1.448278e+003, 3.924040e-001
1.450207e+003, 3.850673e-001
1.452135e+003, 3.776931e-001
1.454064e+003, 3.697451e-001
1.455992e+003, 3.618214e-001
1.457921e+003, 3.537661e-001
1.459849e+003, 3.454493e-001
1.461778e+003, 3.375879e-001
1.463706e+003, 3.300550e-001
1.465635e+003, 3.224537e-001
1.467563e+003, 3.153519e-001
1.469492e+003, 3.082955e-001
1.471420e+003, 3.010332e-001
1.473349e+003, 2.939689e-001
1.475277e+003, 2.874198e-001
1.477205e+003, 2.808190e-001
1.479134e+003, 2.742589e-001
1.481062e+003, 2.678967e-001
1.482991e+003, 2.615342e-001
1.484919e+003, 2.550449e-001
1.486848e+003, 2.481903e-001
1.488776e+003, 2.407066e-001
1.490705e+003, 2.332713e-001
1.492633e+003, 2.257343e-001
1.494562e+003, 2.181051e-001
1.496490e+003, 2.107817e-001
1.498419e+003, 2.036349e-001
1.500347e+003, 1.966321e-001
1.502276e+003, 1.897923e-001
1.504204e+003, 1.826969e-001
1.506132e+003, 1.760044e-001
1.508061e+003, 1.695470e-001
1.509989e+003, 1.632758e-001
1.511918e+003, 1.572097e-001
1.513846e+003, 1.514696e-001
1.515775e+003, 1.454941e-001
1.517703e+003, 1.394655e-001
1.519632e+003, 1.337355e-001
1.521560e+003, 1.281387e-001
1.523489e+003, 1.226709e-001
1.525417e+003, 1.173055e-001
1.527346e+003, 1.118666e-001
1.529274e+003, 1.068306e-001
1.531203e+003, 1.016023e-001
1.533131e+003, 9.627759e-002
1.535059e+003, 9.146900e-002
1.536988e+003, 8.679125e-002
1.538916e+003, 8.196674e-002
1.540845e+003, 7.720071e-002
1.542773e+003, 7.269187e-002
1.544702e+003, 6.834353e-002
1.546630e+003, 6.381508e-002
1.548559e+003, 5.915478e-002
1.550487e+003, 5.427213e-002
1.552416e+003, 4.956514e-002
1.554344e+003, 4.482871e-002
1.556273e+003, 4.007414e-002
1.558201e+003, 3.581817e-002
1.560130e+003, 3.235853e-002
1.562058e+003, 2.962451e-002
1.563986e+003, 2.747941e-002
1.565915e+003, 2.592375e-002
1.567843e+003, 2.460677e-002
1.569772e+003, 2.308509e-002
1.571700e+003, 2.220715e-002
1.573629e+003, 2.149203e-002
1.575557e+003, 2.073283e-002
1.577486e+003, 2.044173e-002
1.579414e+003, 2.028615e-002
1.581343e+003, 1.986714e-002
1.583271e+003, 1.924119e-002
1.585200e+003, 1.882241e-002
1.587128e+003, 1.858765e-002
1.589057e+003, 1.848353e-002
1.590985e+003, 1.802324e-002
1.592913e+003, 1.759945e-002
1.594842e+003, 1.707985e-002
1.596770e+003, 1.637118e-002
1.598699e+003, 1.591632e-002
1.600627e+003, 1.532869e-002
1.602556e+003, 1.504357e-002
1.604484e+003, 1.491273e-002
1.606413e+003, 1.421327e-002
1.608341e+003, 1.367145e-002
1.610270e+003, 1.350794e-002
1.612198e+003, 1.311517e-002
1.614127e+003, 1.276604e-002
1.616055e+003, 1.254138e-002
1.617984e+003, 1.213469e-002
1.619912e+003, 1.162572e-002
1.621840e+003, 1.133494e-002
1.623769e+003, 1.106748e-002
1.625697e+003, 1.077127e-002
1.627626e+003, 1.072613e-002
1.629554e+003, 1.037617e-002
1.631483e+003, 1.002904e-002
1.633411e+003, 9.576841e-003
1.635340e+003, 9.066741e-003
1.637268e+003, 8.958016e-003
1.639197e+003, 8.919257e-003
1.641125e+003, 8.634613e-003
1.643054e+003, 8.609691e-003
1.644982e+003, 8.425735e-003
1.646911e+003, 8.056605e-003
1.648839e+003, 7.900703e-003
1.650767e+003, 7.605061e-003
1.652696e+003, 7.506234e-003
1.654624e+003, 7.581388e-003
1.656553e+003, 7.455723e-003
1.658481e+003, 7.187019e-003
1.660410e+003, 7.231062e-003
1.662338e+003, 7.402992e-003
1.664267e+003, 7.261351e-003
1.666195e+003, 6.980638e-003
1.668124e+003, 6.715628e-003
1.670052e+003, 6.541377e-003
1.671981e+003, 6.445742e-003
1.673909e+003, 6.447539e-003
1.675838e+003, 6.208673e-003
1.677766e+003, 6.113403e-003
1.679694e+003, 6.127729e-003
1.681623e+003, 5.597092e-003
1.683551e+003, 5.193016e-003
1.685480e+003, 5.474376e-003
1.687408e+003, 5.440542e-003
1.689337e+003, 4.977813e-003
1.691265e+003, 5.031627e-003
1.693194e+003, 5.373504e-003
1.695122e+003, 5.189199e-003
1.697051e+003, 4.664948e-003
1.698979e+003, 4.611172e-003
1.700908e+003, 4.752281e-003
1.702836e+003, 4.873425e-003
1.704765e+003, 4.616509e-003
1.706693e+003, 4.608523e-003
1.708621e+003, 4.600554e-003
1.710550e+003, 4.492123e-003
1.712478e+003, 4.405018e-003
1.714407e+003, 4.242247e-003
1.716335e+003, 3.946718e-003
1.718264e+003, 3.890438e-003
1.720192e+003, 4.027413e-003
1.722121e+003, 4.249362e-003
1.724049e+003, 4.223142e-003
1.725978e+003, 4.231786e-003
1.727906e+003, 3.898426e-003
1.729835e+003, 3.608666e-003
1.731763e+003, 3.581265e-003
1.733692e+003, 3.485887e-003
1.735620e+003, 3.212105e-003
1.737548e+003, 3.008128e-003
1.739477e+003, 3.003373e-003
1.741405e+003, 3.279319e-003
1.743334e+003, 3.326407e-003
1.745262e+003, 3.260865e-003
1.747191e+003, 3.198865e-003
1.749119e+003, 3.177462e-003
1.751048e+003, 3.220485e-003
1.752976e+003, 3.121532e-003
1.754905e+003, 3.172772e-003
1.756833e+003, 3.289681e-003
1.758762e+003, 3.233510e-003
1.760690e+003, 3.245342e-003
1.762619e+003, 3.151993e-003
1.764547e+003, 3.405955e-003
1.766475e+003, 3.683754e-003
1.768404e+003, 4.132636e-003
1.770332e+003, 4.093227e-003
1.772261e+003, 3.837055e-003
1.774189e+003, 4.232105e-003
1.776118e+003, 4.273082e-003
1.778046e+003, 4.104495e-003
1.779975e+003, 4.399801e-003
1.781903e+003, 4.977342e-003
1.783832e+003, 5.163182e-003
1.785760e+003, 5.507156e-003
1.787689e+003, 5.807956e-003
1.789617e+003, 5.988091e-003
1.791546e+003, 6.281844e-003
1.793474e+003, 6.834106e-003
1.795402e+003, 7.668908e-003
1.797331e+003, 8.831361e-003
1.799259e+003, 1.012468e-002
1.801188e+003, 1.088926e-002
1.803116e+003, 1.137435e-002
1.805045e+003, 1.176314e-002
1.806973e+003, 1.204162e-002
1.808902e+003, 1.176998e-002
1.810830e+003, 1.169437e-002
1.812759e+003, 1.142328e-002
1.814687e+003, 1.027688e-002
1.816616e+003, 9.128138e-003
1.818544e+003, 8.576632e-003
1.820473e+003, 7.707580e-003
1.822401e+003, 6.839972e-003
1.824329e+003, 5.863311e-003
1.826258e+003, 4.932732e-003
1.828186e+003, 4.063740e-003
1.830115e+003, 3.661258e-003
1.832043e+003, 3.461805e-003
1.833972e+003, 2.816801e-003
1.835900e+003, 2.677912e-003
1.837829e+003, 2.650315e-003
1.839757e+003, 2.502033e-003
1.841686e+003, 2.901905e-003
1.843614e+003, 2.502150e-003
1.845543e+003, 2.088972e-003
1.847471e+003, 1.781264e-003
1.849400e+003, 1.832481e-003
1.851328e+003, 1.370853e-003
1.853256e+003, 1.175938e-003
1.855185e+003, 1.743239e-003
1.857113e+003, 1.796114e-003
1.859042e+003, 1.715969e-003
1.860970e+003, 1.945378e-003
1.862899e+003, 1.519308e-003
1.864827e+003, 1.219872e-003
1.866756e+003, 1.518142e-003
1.868684e+003, 1.513632e-003
1.870613e+003, 1.560336e-003
1.872541e+003, 1.844592e-003
1.874470e+003, 1.909322e-003
1.876398e+003, 1.988118e-003
1.878327e+003, 1.688583e-003
1.880255e+003, 1.787747e-003
1.882183e+003, 1.834490e-003
1.884112e+003, 1.039459e-003
1.886040e+003, 5.365594e-004
1.887969e+003, 1.124461e-003
1.889897e+003, 1.216856e-003
1.891826e+003, 9.583036e-004
1.893754e+003, 1.070579e-003
1.895683e+003, 1.619714e-003
1.897611e+003, 2.070460e-003
1.899540e+003, 1.997295e-003
1.901468e+003, 1.604105e-003
1.903397e+003, 1.335890e-003
1.905325e+003, 1.404087e-003
1.907254e+003, 1.565879e-003
1.909182e+003, 1.657985e-003
1.911110e+003, 1.401466e-003
1.913039e+003, 1.088003e-003
1.914967e+003, 1.465401e-003
1.916896e+003, 1.874846e-003
1.918824e+003, 1.549899e-003
1.920753e+003, 1.271224e-003
1.922681e+003, 8.480714e-004
1.924610e+003, 1.273719e-003
1.926538e+003, 1.917390e-003
1.928467e+003, 1.001975e-003
1.930395e+003, 1.620020e-004
1.932324e+003, -5.955504e-004
1.934252e+003, -5.348473e-004
1.936181e+003, -4.363371e-004
1.938109e+003, -3.175324e-004
1.940037e+003, -8.949693e-005
1.941966e+003, 2.816125e-004
1.943894e+003, -3.479042e-004
1.945823e+003, -5.411124e-005
1.947751e+003, 1.067200e-003
1.949680e+003, 6.823945e-004
1.951608e+003, -5.706901e-004
1.953537e+003, 3.995455e-004
1.955465e+003, 2.834716e-004
1.957394e+003, -9.634044e-004
1.959322e+003, -3.761705e-005
1.961251e+003, 1.494984e-003
1.963179e+003, 1.474060e-003
1.965108e+003, 8.069763e-004
1.967036e+003, -6.516858e-004
1.968964e+003, -3.754837e-004
1.970893e+003, -1.019828e-003
1.972821e+003, -8.709725e-004
1.974750e+003, -1.846150e-003
1.976678e+003, -2.745896e-003
1.978607e+003, 7.949636e-004
1.980535e+003, 2.494521e-003
1.982464e+003, 6.939649e-004
1.984392e+003, 7.876888e-005
1.986321e+003, -4.174216e-004
1.988249e+003, 3.562577e-005
1.990178e+003, 1.382985e-003
1.992106e+003, 2.438831e-005
1.994035e+003, -1.435630e-003
1.995963e+003, -2.703844e-004
1.997891e+003, 5.758053e-004
1.999820e+003, 2.109360e-004
2.001748e+003, -4.368511e-005
2.003677e+003, 7.233718e-004
2.005605e+003, -4.435348e-004
2.007534e+003, -8.493131e-004
2.009462e+003, -2.509778e-004
2.011391e+003, 7.119586e-004
2.013319e+003, -7.839871e-004
2.015248e+003, -1.430898e-003
2.017176e+003, -4.449821e-004
2.019105e+003, -1.548115e-004
2.021033e+003, -1.125243e-003
2.022962e+003, -1.573530e-003
2.024890e+003, -2.788889e-003
2.026818e+003, -1.416254e-003
2.028747e+003, -6.856121e-004
2.030675e+003, -1.475727e-003
2.032604e+003, -8.001534e-005
2.034532e+003, 1.185852e-003
2.036461e+003, 1.558571e-003
2.038389e+003, 1.642930e-003
2.040318e+003, 9.227594e-005
2.042246e+003, -9.585458e-004
2.044175e+003, -5.374429e-004
2.046103e+003, 1.016665e-003
2.048032e+003, 1.493822e-003
2.049960e+003, 1.809800e-003
2.051889e+003, 1.896997e-003
2.053817e+003, 2.696386e-003
2.055746e+003, 3.568067e-003
2.057674e+003, 2.341037e-003
2.059603e+003, 1.610044e-003
2.061531e+003, 1.135489e-003
2.063459e+003, 7.289136e-004
2.065388e+003, 1.164290e-003
2.067316e+003, 1.352188e-003
2.069245e+003, 1.777045e-003
2.071173e+003, 2.799358e-003
2.073102e+003, 3.484167e-003
2.075030e+003, 3.063275e-003
2.076959e+003, 2.474076e-003
2.078887e+003, 2.376830e-003
2.080816e+003, 2.623480e-003
2.082744e+003, 2.528185e-003
2.084673e+003, 2.528657e-003
2.086601e+003, 2.219291e-003
2.088530e+003, 2.712816e-003
2.090458e+003, 2.383806e-003
2.092386e+003, 1.207430e-003
2.094315e+003, 1.358635e-003
2.096243e+003, 2.589143e-003
2.098172e+003, 3.228995e-003
2.100100e+003, 2.940062e-003
2.102029e+003, 3.157899e-003
2.103957e+003, 3.776085e-003
2.105886e+003, 3.001933e-003
2.107814e+003, 2.672746e-003
2.109743e+003, 3.208266e-003
2.111671e+003, 2.681042e-003
2.113600e+003, 1.770677e-003
2.115528e+003, 2.314746e-003
2.117457e+003, 2.507513e-003
2.119385e+003, 2.078439e-003
2.121313e+003, 2.196519e-003
2.123242e+003, 2.737250e-003
2.125170e+003, 2.640756e-003
2.127099e+003, 2.627407e-003
2.129027e+003, 9.831177e-004
2.130956e+003, 5.098166e-004
2.132884e+003, 1.224034e-003
2.134813e+003, 1.895778e-003
2.136741e+003, 1.306474e-003
2.138670e+003, 1.115752e-003
2.140598e+003, 4.967383e-004
2.142527e+003, -8.707608e-004
2.144455e+003, -7.156716e-004
2.146384e+003, -5.288505e-004
2.148312e+003, -1.265564e-003
2.150240e+003, -1.132965e-003
2.152169e+003, -1.736252e-003
2.154097e+003, -8.297627e-004
2.156026e+003, -2.532473e-003
2.157954e+003, -1.983814e-003
2.159883e+003, 2.587669e-003
2.161811e+003, 5.213941e-003
2.163740e+003, 6.619316e-003
2.165668e+003, 5.820223e-003
2.167597e+003, 3.818715e-003
2.169525e+003, 1.476141e-003
2.171454e+003, 3.134857e-003
2.173382e+003, 5.068053e-003
2.175311e+003, 4.169336e-003
2.177239e+003, 2.512201e-003
2.179167e+003, 1.103076e-003
2.181096e+003, 7.045510e-004
2.183024e+003, 2.970784e-004
2.184953e+003, 3.085025e-004
2.186881e+003, 2.430699e-003
2.188810e+003, 2.632346e-003
2.190738e+003, 2.044544e-003
2.192667e+003, 3.230345e-003
2.194595e+003, 2.853400e-003
2.196524e+003, 2.853959e-003
2.198452e+003, 3.766811e-003
2.200381e+003, 2.677875e-003
2.202309e+003, 1.433601e-003
2.204238e+003, 3.334668e-003
2.206166e+003, 4.209699e-003
2.208094e+003, 4.611721e-003
2.210023e+003, 3.697990e-003
2.211951e+003, 2.712516e-003
2.213880e+003, 1.572253e-003
2.215808e+003, 1.298912e-003
2.217737e+003, 1.644095e-003
2.219665e+003, 2.614259e-003
2.221594e+003, 3.715407e-003
2.223522e+003, 3.813589e-003
2.225451e+003, 4.111374e-003
2.227379e+003, 2.305951e-003
2.229308e+003, 1.266901e-003
2.231236e+003, 2.687473e-003
2.233165e+003, 4.628572e-003
2.235093e+003, 5.142569e-003
2.237021e+003, 4.426476e-003
2.238950e+003, 4.833015e-003
2.240878e+003, 4.689266e-003
2.242807e+003, 4.286111e-003
2.244735e+003, 4.603270e-003
2.246664e+003, 4.632664e-003
2.248592e+003, 3.758596e-003
2.250521e+003, 3.518771e-003
2.252449e+003, 3.879104e-003
2.254378e+003, 4.613398e-003
2.256306e+003, 5.003949e-003
2.258235e+003, 4.714068e-003
2.260163e+003, 4.107811e-003
2.262092e+003, 4.462681e-003
2.264020e+003, 5.148251e-003
2.265948e+003, 4.464440e-003
2.267877e+003, 4.104193e-003
2.269805e+003, 4.789463e-003
2.271734e+003, 5.719353e-003
2.273662e+003, 5.342407e-003
2.275591e+003, 4.990243e-003
2.277519e+003, 5.303492e-003
2.279448e+003, 5.324464e-003
2.281376e+003, 5.741645e-003
2.283305e+003, 5.799981e-003
2.285233e+003, 5.825655e-003
2.287162e+003, 6.244776e-003
2.289090e+003, 6.436030e-003
2.291019e+003, 5.708341e-003
2.292947e+003, 5.736877e-003
2.294875e+003, 5.389576e-003
2.296804e+003, 5.497789e-003
2.298732e+003, 6.181559e-003
2.300661e+003, 6.034837e-003
2.302589e+003, 6.199991e-003
2.304518e+003, 6.524818e-003
2.306446e+003, 7.270360e-003
2.308375e+003, 7.793588e-003
2.310303e+003, 7.574424e-003
2.312232e+003, 7.246501e-003
2.314160e+003, 6.573140e-003
2.316089e+003, 6.217785e-003
2.318017e+003, 6.095367e-003
2.319946e+003, 7.073001e-003
2.321874e+003, 8.438252e-003
2.323802e+003, 8.973131e-003
2.325731e+003, 7.426043e-003
2.327659e+003, 6.578892e-003
2.329588e+003, 6.832142e-003
2.331516e+003, 6.626465e-003
2.333445e+003, 6.451230e-003
2.335373e+003, 6.717603e-003
2.337302e+003, 6.527461e-003
2.339230e+003, 6.275917e-003
2.341159e+003, 6.079507e-003
2.343087e+003, 6.362231e-003
2.345016e+003, 6.124297e-003
2.346944e+003, 6.165505e-003
2.348873e+003, 6.254203e-003
2.350801e+003, 6.344668e-003
2.352729e+003, 6.337114e-003
2.354658e+003, 6.592522e-003
2.356586e+003, 7.022752e-003
2.358515e+003, 6.898444e-003
2.360443e+003, 6.872045e-003
2.362372e+003, 6.897193e-003
2.364300e+003, 6.364597e-003
2.366229e+003, 6.080537e-003
2.368157e+003, 5.756814e-003
2.370086e+003, 5.519230e-003
2.372014e+003, 5.679278e-003
2.373942e+003, 5.744682e-003
2.375871e+003, 5.724830e-003
2.377799e+003, 6.038325e-003
2.379728e+003, 5.877109e-003
2.381656e+003, 6.243002e-003
2.383585e+003, 6.181621e-003
2.385513e+003, 5.071574e-003
2.387442e+003, 4.486617e-003
2.389370e+003, 5.030437e-003
2.391299e+003, 5.547195e-003
2.393227e+003, 5.915291e-003
2.395156e+003, 6.123205e-003
2.397084e+003, 6.096237e-003
2.399012e+003, 5.527089e-003
2.400941e+003, 5.605645e-003
2.402869e+003, 5.822732e-003
2.404798e+003, 5.991806e-003
2.406726e+003, 5.733080e-003
2.408655e+003, 5.586877e-003
2.410583e+003, 5.791292e-003
2.412512e+003, 5.620580e-003
2.414440e+003, 5.111068e-003
2.416369e+003, 5.090745e-003
2.418297e+003, 5.583736e-003
2.420226e+003, 6.107010e-003
2.422154e+003, 5.519386e-003
2.424083e+003, 4.876854e-003
2.426011e+003, 4.783659e-003
2.427939e+003, 5.445972e-003
2.429868e+003, 6.024981e-003
2.431796e+003, 5.984162e-003
2.433725e+003, 5.788620e-003
2.435653e+003, 6.397203e-003
2.437582e+003, 6.965050e-003
2.439510e+003, 6.954364e-003
2.441439e+003, 6.352487e-003
2.443367e+003, 6.548816e-003
2.445296e+003, 6.830570e-003
2.447224e+003, 6.129047e-003
2.449153e+003, 5.957239e-003
2.451081e+003, 6.787634e-003
2.453010e+003, 6.616868e-003
2.454938e+003, 6.042884e-003
2.456866e+003, 6.567182e-003
2.458795e+003, 6.493429e-003
2.460723e+003, 6.116466e-003
2.462652e+003, 5.478813e-003
2.464580e+003, 5.823282e-003
2.466509e+003, 6.923169e-003
2.468437e+003, 6.782712e-003
2.470366e+003, 6.181784e-003
2.472294e+003, 6.750281e-003
2.474223e+003, 7.328310e-003
2.476151e+003, 6.890066e-003
2.478080e+003, 7.130030e-003
2.480008e+003, 8.041480e-003
2.481937e+003, 8.295338e-003
2.483865e+003, 8.563863e-003
2.485793e+003, 8.466372e-003
2.487722e+003, 8.668082e-003
2.489650e+003, 8.995962e-003
2.491579e+003, 9.060197e-003
2.493507e+003, 9.793118e-003
2.495436e+003, 1.038264e-002
2.497364e+003, 1.192729e-002
2.499293e+003, 1.288540e-002
2.501221e+003, 1.207856e-002
2.503150e+003, 1.200783e-002
2.505078e+003, 1.328989e-002
2.507007e+003, 1.383014e-002
2.508935e+003, 1.357413e-002
2.510864e+003, 1.321991e-002
2.512792e+003, 1.330640e-002
2.514720e+003, 1.373302e-002
2.516649e+003, 1.439049e-002
2.518577e+003, 1.459991e-002
2.520506e+003, 1.428794e-002
2.522434e+003, 1.317166e-002
2.524363e+003, 1.266043e-002
2.526291e+003, 1.261801e-002
2.528220e+003, 1.242230e-002
2.530148e+003, 1.188190e-002
2.532077e+003, 1.112318e-002
2.534005e+003, 1.013808e-002
2.535934e+003, 9.717269e-003
2.537862e+003, 9.742251e-003
2.539791e+003, 9.688599e-003
2.541719e+003, 9.433066e-003
2.543647e+003, 9.492622e-003
2.545576e+003, 9.727908e-003
2.547504e+003, 9.635536e-003
2.549433e+003, 9.238910e-003
2.551361e+003, 8.629669e-003
2.553290e+003, 7.412036e-003
2.555218e+003, 7.434742e-003
2.557147e+003, 7.702579e-003
2.559075e+003, 7.936039e-003
2.561004e+003, 8.400507e-003
2.562932e+003, 8.232732e-003
2.564861e+003, 7.422054e-003
2.566789e+003, 7.834555e-003
2.568718e+003, 8.016642e-003
2.570646e+003, 7.073427e-003
2.572574e+003, 6.528366e-003
2.574503e+003, 6.535413e-003
2.576431e+003, 6.241527e-003
2.578360e+003, 6.246520e-003
2.580288e+003, 6.313203e-003
2.582217e+003, 5.624633e-003
2.584145e+003, 5.779934e-003
2.586074e+003, 6.508813e-003
2.588002e+003, 6.532432e-003
2.589931e+003, 6.719582e-003
2.591859e+003, 7.166594e-003
2.593788e+003, 6.932547e-003
2.595716e+003, 5.803520e-003
2.597645e+003, 5.835569e-003
2.599573e+003, 6.591414e-003
2.601501e+003, 7.332897e-003
2.603430e+003, 7.729667e-003
2.605358e+003, 7.309112e-003
2.607287e+003, 7.109318e-003
2.609215e+003, 7.287025e-003
2.611144e+003, 7.260745e-003
2.613072e+003, 7.606540e-003
2.615001e+003, 7.764552e-003
2.616929e+003, 8.045826e-003
2.618858e+003, 8.054886e-003
2.620786e+003, 7.743445e-003
2.622715e+003, 6.341519e-003
2.624643e+003, 6.123163e-003
2.626572e+003, 6.786663e-003
2.628500e+003, 6.329619e-003
2.630428e+003, 6.002286e-003
2.632357e+003, 6.616761e-003
2.634285e+003, 6.926697e-003
2.636214e+003, 6.679288e-003
2.638142e+003, 6.284874e-003
2.640071e+003, 6.563372e-003
2.641999e+003, 6.687773e-003
2.643928e+003, 6.765864e-003
2.645856e+003, 6.655963e-003
2.647785e+003, 6.404612e-003
2.649713e+003, 6.730517e-003
2.651642e+003, 6.857168e-003
2.653570e+003, 6.305479e-003
2.655499e+003, 5.963017e-003
2.657427e+003, 5.971818e-003
2.659355e+003, 5.996960e-003
2.661284e+003, 6.024936e-003
2.663212e+003, 5.415774e-003
2.665141e+003, 4.812771e-003
2.667069e+003, 5.384617e-003
2.668998e+003, 5.322265e-003
2.670926e+003, 4.842376e-003
2.672855e+003, 4.785598e-003
2.674783e+003, 5.242018e-003
2.676712e+003, 4.641479e-003
2.678640e+003, 4.622067e-003
2.680569e+003, 5.102695e-003
2.682497e+003, 4.899477e-003
2.684426e+003, 4.487338e-003
2.686354e+003, 4.445718e-003
2.688282e+003, 4.394554e-003
2.690211e+003, 4.839364e-003
2.692139e+003, 4.967225e-003
2.694068e+003, 4.523986e-003
2.695996e+003, 4.953327e-003
2.697925e+003, 5.194499e-003
2.699853e+003, 4.937281e-003
2.701782e+003, 4.918581e-003
2.703710e+003, 4.773528e-003
2.705639e+003, 4.587032e-003
2.707567e+003, 4.654268e-003
2.709496e+003, 4.760196e-003
2.711424e+003, 4.436608e-003
2.713353e+003, 4.559686e-003
2.715281e+003, 5.386208e-003
2.717209e+003, 6.016899e-003
2.719138e+003, 5.534711e-003
2.721066e+003, 5.196786e-003
2.722995e+003, 4.819141e-003
2.724923e+003, 4.698302e-003
2.726852e+003, 4.861253e-003
2.728780e+003, 4.445942e-003
2.730709e+003, 4.217830e-003
2.732637e+003, 4.213645e-003
2.734566e+003, 4.417349e-003
2.736494e+003, 4.526180e-003
2.738423e+003, 4.739069e-003
2.740351e+003, 4.145912e-003
2.742280e+003, 3.383814e-003
2.744208e+003, 3.700063e-003
2.746136e+003, 4.455451e-003
2.748065e+003, 4.732199e-003
2.749993e+003, 4.666634e-003
2.751922e+003, 4.513102e-003
2.753850e+003, 4.084179e-003
2.755779e+003, 3.995221e-003
2.757707e+003, 4.121201e-003
2.759636e+003, 4.217537e-003
2.761564e+003, 4.123674e-003
2.763493e+003, 4.269048e-003
2.765421e+003, 4.419122e-003
2.767350e+003, 4.652121e-003
2.769278e+003, 4.242613e-003
2.771207e+003, 4.079244e-003
2.773135e+003, 3.698713e-003
2.775063e+003, 3.539787e-003
2.776992e+003, 3.853800e-003
2.778920e+003, 4.346901e-003
2.780849e+003, 4.807045e-003
2.782777e+003, 4.535385e-003
2.784706e+003, 4.147852e-003
2.786634e+003, 4.351652e-003
2.788563e+003, 4.339955e-003
2.790491e+003, 4.156851e-003
2.792420e+003, 4.146544e-003
2.794348e+003, 4.232632e-003
2.796277e+003, 4.452772e-003
2.798205e+003, 4.699837e-003
2.800134e+003, 4.663488e-003
2.802062e+003, 4.726739e-003
2.803990e+003, 4.714539e-003
2.805919e+003, 4.197876e-003
2.807847e+003, 4.546226e-003
2.809776e+003, 4.785900e-003
2.811704e+003, 4.372945e-003
2.813633e+003, 4.136044e-003
2.815561e+003, 4.402671e-003
2.817490e+003, 4.915542e-003
2.819418e+003, 4.850667e-003
2.821347e+003, 4.889968e-003
2.823275e+003, 5.271409e-003
2.825204e+003, 5.644165e-003
2.827132e+003, 5.762177e-003
2.829061e+003, 6.078301e-003
2.830989e+003, 6.142904e-003
2.832917e+003, 5.652191e-003
2.834846e+003, 5.455077e-003
2.836774e+003, 5.892136e-003
2.838703e+003, 6.278711e-003
2.840631e+003, 6.703759e-003
2.842560e+003, 6.589391e-003
2.844488e+003, 6.831576e-003
2.846417e+003, 7.322514e-003
2.848345e+003, 8.267578e-003
2.850274e+003, 9.050777e-003
2.852202e+003, 8.587099e-003
2.854131e+003, 8.204058e-003
2.856059e+003, 8.692626e-003
2.857988e+003, 8.708054e-003
2.859916e+003, 8.676983e-003
2.861844e+003, 8.676459e-003
2.863773e+003, 8.751380e-003
2.865701e+003, 8.508841e-003
2.867630e+003, 8.032341e-003
2.869558e+003, 8.375206e-003
2.871487e+003, 9.021444e-003
2.873415e+003, 9.723380e-003
2.875344e+003, 9.398903e-003
2.877272e+003, 8.648022e-003
2.879201e+003, 8.930696e-003
2.881129e+003, 9.021619e-003
2.883058e+003, 8.665920e-003
2.884986e+003, 8.329423e-003
2.886915e+003, 8.495677e-003
2.888843e+003, 8.593317e-003
2.890771e+003, 8.577819e-003
2.892700e+003, 8.566428e-003
2.894628e+003, 8.919308e-003
2.896557e+003, 8.912159e-003
2.898485e+003, 8.612700e-003
2.900414e+003, 8.078701e-003
2.902342e+003, 8.276942e-003
2.904271e+003, 8.231780e-003
2.906199e+003, 7.842420e-003
2.908128e+003, 8.660494e-003
2.910056e+003, 9.068003e-003
2.911985e+003, 8.757065e-003
2.913913e+003, 9.150409e-003
2.915842e+003, 8.888528e-003
2.917770e+003, 8.194368e-003
2.919698e+003, 8.744107e-003
2.921627e+003, 9.667790e-003
2.923555e+003, 1.042082e-002
2.925484e+003, 1.079783e-002
2.927412e+003, 9.438191e-003
2.929341e+003, 8.069851e-003
2.931269e+003, 8.892624e-003
2.933198e+003, 8.950701e-003
2.935126e+003, 8.620321e-003
2.937055e+003, 8.784612e-003
2.938983e+003, 8.051683e-003
2.940912e+003, 7.182655e-003
2.942840e+003, 7.763708e-003
2.944769e+003, 8.482635e-003
2.946697e+003, 8.449838e-003
2.948625e+003, 7.962888e-003
2.950554e+003, 8.105541e-003
2.952482e+003, 7.745492e-003
2.954411e+003, 7.978115e-003
2.956339e+003, 9.053120e-003
2.958268e+003, 8.721401e-003
2.960196e+003, 7.944049e-003
2.962125e+003, 8.067213e-003
2.964053e+003, 8.241798e-003
2.965982e+003, 8.035303e-003
2.967910e+003, 8.647425e-003
2.969839e+003, 9.684970e-003
2.971767e+003, 9.174328e-003
2.973696e+003, 8.268829e-003
2.975624e+003, 7.166816e-003
2.977552e+003, 7.000963e-003
2.979481e+003, 8.027441e-003
2.981409e+003, 8.600935e-003
2.983338e+003, 8.873612e-003
2.985266e+003, 8.542701e-003
2.987195e+003, 8.232860e-003
2.989123e+003, 9.314124e-003
2.991052e+003, 9.332817e-003
2.992980e+003, 8.831206e-003
2.994909e+003, 8.923704e-003
2.996837e+003, 9.680297e-003
2.998766e+003, 9.976495e-003
3.000694e+003, 9.597088e-003
3.002623e+003, 9.297054e-003
3.004551e+003, 8.541030e-003
3.006479e+003, 8.515909e-003
3.008408e+003, 9.290110e-003
3.010336e+003, 9.674813e-003
3.012265e+003, 8.778549e-003
3.014193e+003, 8.089066e-003
3.016122e+003, 7.843459e-003
3.018050e+003, 8.131951e-003
3.019979e+003, 8.194715e-003
3.021907e+003, 7.210731e-003
3.023836e+003, 6.847854e-003
3.025764e+003, 7.066309e-003
3.027693e+003, 7.923893e-003
3.029621e+003, 8.907070e-003
3.031550e+003, 9.031806e-003
3.033478e+003, 8.406644e-003
3.035406e+003, 8.004773e-003
3.037335e+003, 7.969348e-003
3.039263e+003, 7.990982e-003
3.041192e+003, 8.283914e-003
3.043120e+003, 8.646213e-003
3.045049e+003, 8.083465e-003
3.046977e+003, 8.352384e-003
3.048906e+003, 8.631983e-003
3.050834e+003, 8.043688e-003
3.052763e+003, 8.522185e-003
3.054691e+003, 9.345789e-003
3.056620e+003, 9.722808e-003
3.058548e+003, 1.016404e-002
3.060477e+003, 9.022865e-003
3.062405e+003, 7.736289e-003
3.064333e+003, 8.013186e-003
3.066262e+003, 9.024746e-003
3.068190e+003, 1.064599e-002
3.070119e+003, 1.028004e-002
3.072047e+003, 9.695399e-003
3.073976e+003, 9.520487e-003
3.075904e+003, 8.718817e-003
3.077833e+003, 8.654644e-003
3.079761e+003, 9.844890e-003
3.081690e+003, 1.032512e-002
3.083618e+003, 1.043988e-002
3.085547e+003, 1.011794e-002
3.087475e+003, 1.007948e-002
3.089404e+003, 1.076004e-002
3.091332e+003, 1.093469e-002
3.093260e+003, 1.049804e-002
3.095189e+003, 1.042935e-002
3.097117e+003, 1.099622e-002
3.099046e+003, 1.085576e-002
3.100974e+003, 1.086635e-002
3.102903e+003, 1.156800e-002
3.104831e+003, 1.180408e-002
3.106760e+003, 1.227693e-002
3.108688e+003, 1.127358e-002
3.110617e+003, 1.120088e-002
3.112545e+003, 1.201657e-002
3.114474e+003, 1.189264e-002
3.116402e+003, 1.181837e-002
3.118331e+003, 1.189358e-002
3.120259e+003, 1.304722e-002
3.122188e+003, 1.329674e-002
3.124116e+003, 1.285747e-002
3.126044e+003, 1.251077e-002
3.127973e+003, 1.226959e-002
3.129901e+003, 1.350398e-002
3.131830e+003, 1.319982e-002
3.133758e+003, 1.315876e-002
3.135687e+003, 1.357165e-002
3.137615e+003, 1.292595e-002
3.139544e+003, 1.358982e-002
3.141472e+003, 1.461100e-002
3.143401e+003, 1.407581e-002
3.145329e+003, 1.419826e-002
3.147258e+003, 1.436026e-002
3.149186e+003, 1.318374e-002
3.151115e+003, 1.243477e-002
3.153043e+003, 1.406624e-002
3.154971e+003, 1.546642e-002
3.156900e+003, 1.544118e-002
3.158828e+003, 1.433604e-002
3.160757e+003, 1.350529e-002
3.162685e+003, 1.436565e-002
3.164614e+003, 1.573298e-002
3.166542e+003, 1.504848e-002
3.168471e+003, 1.516042e-002
3.170399e+003, 1.502735e-002
3.172328e+003, 1.427046e-002
3.174256e+003, 1.396209e-002
3.176185e+003, 1.330888e-002
3.178113e+003, 1.297786e-002
3.180042e+003, 1.330958e-002
3.181970e+003, 1.347557e-002
3.183898e+003, 1.493500e-002
3.185827e+003, 1.563037e-002
3.187755e+003, 1.443738e-002
3.189684e+003, 1.373728e-002
3.191612e+003, 1.383644e-002
3.193541e+003, 1.431579e-002
3.195469e+003, 1.437123e-002
3.197398e+003, 1.395605e-002
3.199326e+003, 1.400924e-002
3.201255e+003, 1.433353e-002
3.203183e+003, 1.456891e-002
3.205112e+003, 1.544884e-002
3.207040e+003, 1.616225e-002
3.208969e+003, 1.442496e-002
3.210897e+003, 1.294521e-002
3.212825e+003, 1.414229e-002
3.214754e+003, 1.515118e-002
3.216682e+003, 1.423054e-002
3.218611e+003, 1.423191e-002
3.220539e+003, 1.580796e-002
3.222468e+003, 1.720575e-002
3.224396e+003, 1.513417e-002
3.226325e+003, 1.384799e-002
3.228253e+003, 1.529704e-002
3.230182e+003, 1.634680e-002
3.232110e+003, 1.677134e-002
3.234039e+003, 1.714214e-002
3.235967e+003, 1.714546e-002
3.237896e+003, 1.706441e-002
3.239824e+003, 1.688614e-002
3.241752e+003, 1.608778e-002
3.243681e+003, 1.505149e-002
3.245609e+003, 1.449192e-002
3.247538e+003, 1.496218e-002
3.249466e+003, 1.679263e-002
3.251395e+003, 1.650178e-002
3.253323e+003, 1.609955e-002
3.255252e+003, 1.696800e-002
3.257180e+003, 1.703996e-002
3.259109e+003, 1.671774e-002
3.261037e+003, 1.792812e-002
3.262966e+003, 1.829393e-002
3.264894e+003, 1.732832e-002
3.266823e+003, 1.729742e-002
3.268751e+003, 1.717372e-002
3.270679e+003, 1.635372e-002
3.272608e+003, 1.634374e-002
3.274536e+003, 1.763206e-002
3.276465e+003, 1.804952e-002
3.278393e+003, 1.772886e-002
3.280322e+003, 1.829095e-002
3.282250e+003, 1.879148e-002
3.284179e+003, 1.807067e-002
3.286107e+003, 1.696498e-002
3.288036e+003, 1.701867e-002
3.289964e+003, 1.696048e-002
3.291893e+003, 1.608811e-002
3.293821e+003, 1.722839e-002
3.295750e+003, 1.884155e-002
3.297678e+003, 1.888498e-002
3.299606e+003, 1.985263e-002
3.301535e+003, 1.888207e-002
3.303463e+003, 1.722525e-002
3.305392e+003, 1.555798e-002
3.307320e+003, 1.609062e-002
3.309249e+003, 1.740763e-002
3.311177e+003, 1.786529e-002
3.313106e+003, 1.787307e-002
3.315034e+003, 1.769948e-002
3.316963e+003, 1.738600e-002
3.318891e+003, 1.786832e-002
3.320820e+003, 1.801928e-002
3.322748e+003, 1.775337e-002
3.324677e+003, 1.827259e-002
3.326605e+003, 1.883142e-002
3.328533e+003, 1.757120e-002
3.330462e+003, 1.739798e-002
3.332390e+003, 1.839344e-002
3.334319e+003, 1.765018e-002
3.336247e+003, 1.686961e-002
3.338176e+003, 1.930109e-002
3.340104e+003, 1.987305e-002
3.342033e+003, 1.830095e-002
3.343961e+003, 1.767429e-002
3.345890e+003, 1.795632e-002
3.347818e+003, 1.771030e-002
3.349747e+003, 1.752624e-002
3.351675e+003, 1.952389e-002
3.353604e+003, 2.038284e-002
3.355532e+003, 1.842687e-002
3.357460e+003, 1.765073e-002
3.359389e+003, 1.807089e-002
3.361317e+003, 1.809293e-002
3.363246e+003, 1.820641e-002
3.365174e+003, 1.803740e-002
3.367103e+003, 1.746435e-002
3.369031e+003, 1.732289e-002
3.370960e+003, 1.758400e-002
3.372888e+003, 1.856082e-002
3.374817e+003, 2.005891e-002
3.376745e+003, 2.062726e-002
3.378674e+003, 2.099490e-002
3.380602e+003, 1.953553e-002
3.382531e+003, 1.860700e-002
3.384459e+003, 2.017324e-002
3.386387e+003, 2.009491e-002
3.388316e+003, 1.888760e-002
3.390244e+003, 1.875811e-002
3.392173e+003, 1.936584e-002
3.394101e+003, 1.880343e-002
3.396030e+003, 1.803538e-002
3.397958e+003, 1.876141e-002
3.399887e+003, 1.900962e-002
3.401815e+003, 1.821652e-002
3.403744e+003, 1.903694e-002
3.405672e+003, 1.939981e-002
3.407601e+003, 1.820503e-002
3.409529e+003, 1.839766e-002
3.411458e+003, 1.961143e-002
3.413386e+003, 1.886077e-002
3.415314e+003, 1.806623e-002
3.417243e+003, 1.774541e-002
3.419171e+003, 1.866655e-002
3.421100e+003, 1.907097e-002
3.423028e+003, 1.836674e-002
3.424957e+003, 1.898434e-002
3.426885e+003, 1.859694e-002
3.428814e+003, 1.703654e-002
3.430742e+003, 1.744011e-002
3.432671e+003, 1.852921e-002
3.434599e+003, 1.848870e-002
3.436528e+003, 1.845664e-002
3.438456e+003, 1.818452e-002
3.440385e+003, 1.821010e-002
3.442313e+003, 1.862702e-002
3.444241e+003, 1.890259e-002
3.446170e+003, 1.899574e-002
3.448098e+003, 1.922467e-002
3.450027e+003, 1.832366e-002
3.451955e+003, 1.864590e-002
3.453884e+003, 1.927480e-002
3.455812e+003, 1.819040e-002
3.457741e+003, 1.666877e-002
3.459669e+003, 1.685312e-002
3.461598e+003, 1.845961e-002
3.463526e+003, 1.844662e-002
3.465455e+003, 1.789165e-002
3.467383e+003, 1.841836e-002
3.469312e+003, 1.864739e-002
3.471240e+003, 1.876160e-002
3.473168e+003, 1.821187e-002
3.475097e+003, 1.772562e-002
3.477025e+003, 1.818620e-002
3.478954e+003, 1.773677e-002
3.480882e+003, 1.720334e-002
3.482811e+003, 1.694910e-002
3.484739e+003, 1.738141e-002
3.486668e+003, 1.800621e-002
3.488596e+003, 1.889691e-002
3.490525e+003, 1.910539e-002
3.492453e+003, 1.783313e-002
3.494382e+003, 1.644484e-002
3.496310e+003, 1.738258e-002
3.498239e+003, 1.845644e-002
3.500167e+003, 1.802605e-002
3.502095e+003, 1.669445e-002
3.504024e+003, 1.576313e-002
3.505952e+003, 1.520787e-002
3.507881e+003, 1.687560e-002
3.509809e+003, 1.734471e-002
3.511738e+003, 1.627354e-002
3.513666e+003, 1.624941e-002
3.515595e+003, 1.797904e-002
3.517523e+003, 1.816314e-002
3.519452e+003, 1.717913e-002
3.521380e+003, 1.662881e-002
3.523309e+003, 1.783642e-002
3.525237e+003, 1.845429e-002
3.527166e+003, 1.688680e-002
3.529094e+003, 1.611793e-002
3.531022e+003, 1.678788e-002
3.532951e+003, 1.705796e-002
3.534879e+003, 1.744063e-002
3.536808e+003, 1.746593e-002
3.538736e+003, 1.583353e-002
3.540665e+003, 1.626160e-002
3.542593e+003, 1.699531e-002
3.544522e+003, 1.602222e-002
3.546450e+003, 1.652733e-002
3.548379e+003, 1.737546e-002
3.550307e+003, 1.753955e-002
3.552236e+003, 1.759770e-002
3.554164e+003, 1.856046e-002
3.556093e+003, 1.731721e-002
3.558021e+003, 1.649140e-002
3.559949e+003, 1.624399e-002
3.561878e+003, 1.702586e-002
3.563806e+003, 1.825989e-002
3.565735e+003, 1.790059e-002
3.567663e+003, 1.558215e-002
3.569592e+003, 1.497888e-002
3.571520e+003, 1.578363e-002
3.573449e+003, 1.652222e-002
3.575377e+003, 1.691533e-002
3.577306e+003, 1.687729e-002
3.579234e+003, 1.560114e-002
3.581163e+003, 1.326985e-002
3.583091e+003, 1.269448e-002
3.585020e+003, 1.516705e-002
3.586948e+003, 1.562303e-002
3.588876e+003, 1.522192e-002
3.590805e+003, 1.482687e-002
3.592733e+003, 1.359087e-002
3.594662e+003, 1.311497e-002
3.596590e+003, 1.453846e-002
3.598519e+003, 1.473163e-002
3.600447e+003, 1.355905e-002
3.602376e+003, 1.325900e-002
3.604304e+003, 1.355963e-002
3.606233e+003, 1.403054e-002
3.608161e+003, 1.558441e-002
3.610090e+003, 1.558329e-002
3.612018e+003, 1.563066e-002
3.613947e+003, 1.428147e-002
3.615875e+003, 1.223636e-002
3.617803e+003, 1.391471e-002
3.619732e+003, 1.539054e-002
3.621660e+003, 1.312623e-002
3.623589e+003, 1.239552e-002
3.625517e+003, 1.299883e-002
3.627446e+003, 1.459714e-002
3.629374e+003, 1.417404e-002
3.631303e+003, 1.436760e-002
3.633231e+003, 1.512169e-002
3.635160e+003, 1.423462e-002
3.637088e+003, 1.416320e-002
3.639017e+003, 1.314957e-002
3.640945e+003, 1.162451e-002
3.642874e+003, 1.368976e-002
3.644802e+003, 1.483158e-002
3.646730e+003, 1.505676e-002
3.648659e+003, 1.468517e-002
3.650587e+003, 1.248819e-002
3.652516e+003, 1.370442e-002
3.654444e+003, 1.453802e-002
3.656373e+003, 1.326025e-002
3.658301e+003, 1.228145e-002
3.660230e+003, 1.250562e-002
3.662158e+003, 1.257445e-002
3.664087e+003, 1.309030e-002
3.666015e+003, 1.412263e-002
3.667944e+003, 1.426115e-002
3.669872e+003, 1.563968e-002
3.671801e+003, 1.656382e-002
3.673729e+003, 1.603330e-002
3.675657e+003, 1.532724e-002
3.677586e+003, 1.267736e-002
3.679514e+003, 1.249263e-002
3.681443e+003, 1.466610e-002
3.683371e+003, 1.404821e-002
3.685300e+003, 1.254484e-002
3.687228e+003, 1.219954e-002
3.689157e+003, 1.400407e-002
3.691085e+003, 1.440473e-002
3.693014e+003, 1.420225e-002
3.694942e+003, 1.263708e-002
3.696871e+003, 1.264904e-002
3.698799e+003, 1.362427e-002
3.700728e+003, 1.360281e-002
3.702656e+003, 1.305959e-002
3.704584e+003, 1.242557e-002
3.706513e+003, 1.254547e-002
3.708441e+003, 1.297165e-002
3.710370e+003, 1.376940e-002
3.712298e+003, 1.376086e-002
3.714227e+003, 1.380488e-002
3.716155e+003, 1.513604e-002
3.718084e+003, 1.496377e-002
3.720012e+003, 1.337327e-002
3.721941e+003, 1.131927e-002
3.723869e+003, 1.088705e-002
3.725798e+003, 1.206600e-002
3.727726e+003, 1.367612e-002
3.729655e+003, 1.337088e-002
3.731583e+003, 1.322847e-002
3.733511e+003, 1.336969e-002
3.735440e+003, 1.281996e-002
3.737368e+003, 1.148676e-002
3.739297e+003, 1.256454e-002
3.741225e+003, 1.440535e-002
3.743154e+003, 1.298812e-002
3.745082e+003, 1.380205e-002
3.747011e+003, 1.343442e-002
3.748939e+003, 1.382796e-002
3.750868e+003, 1.494591e-002
3.752796e+003, 1.505900e-002
3.754725e+003, 1.375729e-002
3.756653e+003, 1.176369e-002
3.758582e+003, 1.187262e-002
3.760510e+003, 1.308077e-002
3.762438e+003, 1.202192e-002
3.764367e+003, 1.229183e-002
3.766295e+003, 1.359848e-002
3.768224e+003, 1.278164e-002
3.770152e+003, 1.132683e-002
3.772081e+003, 1.175873e-002
3.774009e+003, 1.339162e-002
3.775938e+003, 1.416381e-002
3.777866e+003, 1.314170e-002
3.779795e+003, 1.331409e-002
3.781723e+003, 1.532723e-002
3.783652e+003, 1.571469e-002
3.785580e+003, 1.368321e-002
3.787509e+003, 1.236974e-002
3.789437e+003, 1.180234e-002
3.791365e+003, 1.346761e-002
3.793294e+003, 1.352892e-002
3.795222e+003, 1.150202e-002
3.797151e+003, 1.180787e-002
3.799079e+003, 1.145988e-002
3.801008e+003, 1.282518e-002
3.802936e+003, 1.392946e-002
3.804865e+003, 1.329126e-002
3.806793e+003, 1.218978e-002
3.808722e+003, 1.197266e-002
3.810650e+003, 1.435495e-002
3.812579e+003, 1.462863e-002
3.814507e+003, 1.219391e-002
3.816436e+003, 1.380276e-002
3.818364e+003, 1.579417e-002
3.820292e+003, 1.795939e-002
3.822221e+003, 1.783769e-002
3.824149e+003, 1.569247e-002
3.826078e+003, 1.360724e-002
3.828006e+003, 1.393325e-002
3.829935e+003, 1.441923e-002
3.831863e+003, 1.411631e-002
3.833792e+003, 1.349244e-002
3.835720e+003, 1.339987e-002
3.837649e+003, 1.398893e-002
3.839577e+003, 1.578181e-002
3.841506e+003, 1.717111e-002
3.843434e+003, 1.650332e-002
3.845363e+003, 1.502573e-002
3.847291e+003, 1.544318e-002
3.849219e+003, 1.613365e-002
3.851148e+003, 1.357021e-002
3.853076e+003, 1.071418e-002
3.855005e+003, 1.208002e-002
3.856933e+003, 1.229731e-002
3.858862e+003, 1.336265e-002
3.860790e+003, 1.416891e-002
3.862719e+003, 1.425383e-002
3.864647e+003, 1.473804e-002
3.866576e+003, 1.613533e-002
3.868504e+003, 1.448015e-002
3.870433e+003, 1.436309e-002
3.872361e+003, 1.389101e-002
3.874290e+003, 1.473328e-002
3.876218e+003, 1.452223e-002
3.878146e+003, 1.384701e-002
3.880075e+003, 1.311654e-002
3.882003e+003, 1.429346e-002
3.883932e+003, 1.495380e-002
3.885860e+003, 1.475472e-002
3.887789e+003, 1.453231e-002
3.889717e+003, 1.473891e-002
3.891646e+003, 1.531519e-002
3.893574e+003, 1.567385e-002
3.895503e+003, 1.502885e-002
3.897431e+003, 1.242166e-002
3.899360e+003, 1.234212e-002
3.901288e+003, 1.498870e-002
3.903217e+003, 1.581129e-002
3.905145e+003, 1.524199e-002
3.907073e+003, 1.498793e-002
3.909002e+003, 1.479238e-002
3.910930e+003, 1.430894e-002
3.912859e+003, 1.568842e-002
3.914787e+003, 1.536678e-002
3.916716e+003, 1.402906e-002
3.918644e+003, 1.337929e-002
3.920573e+003, 1.419367e-002
3.922501e+003, 1.278985e-002
3.924430e+003, 1.102686e-002
3.926358e+003, 1.107784e-002
3.928287e+003, 1.222470e-002
3.930215e+003, 1.504006e-002
3.932144e+003, 1.587757e-002
3.934072e+003, 1.368820e-002
3.936000e+003, 1.215768e-002
3.937929e+003, 1.313921e-002
3.939857e+003, 1.512454e-002
3.941786e+003, 1.549171e-002
3.943714e+003, 1.469795e-002
3.945643e+003, 1.547334e-002
3.947571e+003, 1.612496e-002
3.949500e+003, 1.489437e-002
3.951428e+003, 1.409777e-002
3.953357e+003, 1.464187e-002
3.955285e+003, 1.566559e-002
3.957214e+003, 1.687625e-002
3.959142e+003, 1.822769e-002
3.961071e+003, 1.492809e-002
3.962999e+003, 1.302022e-002
3.964927e+003, 1.596735e-002
3.966856e+003, 1.770650e-002
3.968784e+003, 1.625926e-002
3.970713e+003, 1.670736e-002
3.972641e+003, 1.649887e-002
3.974570e+003, 1.474874e-002
3.976498e+003, 1.522267e-002
3.978427e+003, 1.506123e-002
3.980355e+003, 1.389944e-002
3.982284e+003, 1.434574e-002
3.984212e+003, 1.617653e-002
3.986141e+003, 1.522733e-002
3.988069e+003, 1.341694e-002
3.989998e+003, 1.383534e-002
3.991926e+003, 1.490029e-002
3.993854e+003, 1.666881e-002
3.995783e+003, 1.649612e-002
3.997711e+003, 1.557124e-002
3.999640e+003, 1.557688e-002
##END=



