##NAMES=Anorthite
##RRUFFID=R040059
##IDEAL CHEMISTRY=CaAl_2_Si_2_O_8_
##LOCALITY=Miyakejima, Japan
##OWNER=RRUFF
##SOURCE=University of Arizona Mineral Museum
##DESCRIPTION=Colorless fragments of crystals
##STATUS=The identification of this mineral has been confirmed by X-ray diffraction and chemical analysis
##URL=rruff.info/R040059
##MEASURED CHEMISTRY=(Ca_0.94_Na_0.04_Fe_0.02_)(Al_0.98_Si_0.02_)_2_Si_2.00_O_8_
3.991926e+002, 0.000000e+000
4.011211e+002, 7.179011e-002
4.030496e+002, 7.191223e-002
4.049780e+002, 7.076658e-002
4.069065e+002, 7.237633e-002
4.088350e+002, 7.046293e-002
4.107634e+002, 6.877488e-002
4.126919e+002, 6.615546e-002
4.146204e+002, 6.511660e-002
4.165488e+002, 6.321084e-002
4.184773e+002, 5.934156e-002
4.204058e+002, 5.706238e-002
4.223342e+002, 5.475150e-002
4.242627e+002, 5.207961e-002
4.261912e+002, 4.967969e-002
4.281196e+002, 4.795462e-002
4.300481e+002, 4.909415e-002
4.319766e+002, 4.741493e-002
4.339050e+002, 4.408704e-002
4.358335e+002, 4.131074e-002
4.377620e+002, 3.674119e-002
4.396904e+002, 3.394775e-002
4.416189e+002, 3.155923e-002
4.435474e+002, 2.998768e-002
4.454758e+002, 3.089214e-002
4.474043e+002, 3.102488e-002
4.493328e+002, 3.252843e-002
4.512612e+002, 3.425997e-002
4.531897e+002, 3.706299e-002
4.551182e+002, 3.920412e-002
4.570466e+002, 4.065635e-002
4.589751e+002, 4.352920e-002
4.609036e+002, 4.620999e-002
4.628320e+002, 4.976473e-002
4.647605e+002, 5.300514e-002
4.666890e+002, 5.433777e-002
4.686174e+002, 5.466952e-002
4.705459e+002, 5.255741e-002
4.724744e+002, 4.973724e-002
4.744028e+002, 4.727709e-002
4.763313e+002, 4.689244e-002
4.782598e+002, 4.813706e-002
4.801882e+002, 4.988115e-002
4.821167e+002, 5.196072e-002
4.840452e+002, 5.235396e-002
4.859736e+002, 5.034888e-002
4.879021e+002, 4.694368e-002
4.898306e+002, 4.299165e-002
4.917590e+002, 4.108885e-002
4.936875e+002, 4.002100e-002
4.956160e+002, 3.979212e-002
4.975444e+002, 4.015548e-002
4.994729e+002, 4.149692e-002
5.014014e+002, 4.327678e-002
5.033298e+002, 4.533743e-002
5.052583e+002, 4.851920e-002
5.071868e+002, 5.236743e-002
5.091152e+002, 5.619648e-002
5.110437e+002, 5.955559e-002
5.129722e+002, 6.206335e-002
5.149006e+002, 6.418233e-002
5.168291e+002, 6.719107e-002
5.187576e+002, 7.084228e-002
5.206860e+002, 7.420182e-002
5.226145e+002, 7.807431e-002
5.245430e+002, 8.234612e-002
5.264714e+002, 8.702538e-002
5.283999e+002, 9.246491e-002
5.303284e+002, 9.807976e-002
5.322568e+002, 1.035327e-001
5.341853e+002, 1.082854e-001
5.361138e+002, 1.110403e-001
5.380422e+002, 1.114007e-001
5.399707e+002, 1.089808e-001
5.418992e+002, 1.044239e-001
5.438276e+002, 9.945363e-002
5.457561e+002, 9.473620e-002
5.476846e+002, 9.117467e-002
5.496130e+002, 8.962188e-002
5.515415e+002, 8.976115e-002
5.534700e+002, 9.051012e-002
5.553984e+002, 9.266608e-002
5.573269e+002, 9.616877e-002
5.592554e+002, 1.002100e-001
5.611838e+002, 1.044834e-001
5.631123e+002, 1.075614e-001
5.650408e+002, 1.085193e-001
5.669692e+002, 1.080019e-001
5.688977e+002, 1.059237e-001
5.708262e+002, 1.028978e-001
5.727546e+002, 1.000289e-001
5.746831e+002, 9.785913e-002
5.766116e+002, 9.683196e-002
5.785400e+002, 9.574745e-002
5.804685e+002, 9.434519e-002
5.823970e+002, 9.259161e-002
5.843254e+002, 9.076771e-002
5.862539e+002, 8.929449e-002
5.881824e+002, 8.744726e-002
5.901108e+002, 8.569203e-002
5.920393e+002, 8.399574e-002
5.939678e+002, 8.368238e-002
5.958962e+002, 8.466138e-002
5.978247e+002, 8.567408e-002
5.997532e+002, 8.637241e-002
6.016816e+002, 8.660716e-002
6.036101e+002, 8.545012e-002
6.055386e+002, 8.319613e-002
6.074670e+002, 8.066354e-002
6.093955e+002, 7.835849e-002
6.113240e+002, 7.716469e-002
6.132524e+002, 7.739229e-002
6.151809e+002, 7.873755e-002
6.171094e+002, 8.056793e-002
6.190378e+002, 8.147085e-002
6.209663e+002, 8.043899e-002
6.228948e+002, 7.780553e-002
6.248232e+002, 7.377903e-002
6.267517e+002, 6.892134e-002
6.286802e+002, 6.410670e-002
6.306086e+002, 5.962581e-002
6.325371e+002, 5.544635e-002
6.344656e+002, 5.154655e-002
6.363940e+002, 4.746747e-002
6.383225e+002, 4.375327e-002
6.402510e+002, 4.042407e-002
6.421794e+002, 3.774171e-002
6.441079e+002, 3.535870e-002
6.460364e+002, 3.352216e-002
6.479648e+002, 3.238841e-002
6.498933e+002, 3.230555e-002
6.518218e+002, 3.296062e-002
6.537502e+002, 3.425930e-002
6.556787e+002, 3.651082e-002
6.576072e+002, 3.899272e-002
6.595356e+002, 4.173326e-002
6.614641e+002, 4.459898e-002
6.633926e+002, 4.649035e-002
6.653210e+002, 4.730530e-002
6.672495e+002, 4.717751e-002
6.691780e+002, 4.640904e-002
6.711064e+002, 4.509732e-002
6.730349e+002, 4.347400e-002
6.749634e+002, 4.279051e-002
6.768918e+002, 4.282211e-002
6.788203e+002, 4.300249e-002
6.807488e+002, 4.290275e-002
6.826772e+002, 4.250801e-002
6.846057e+002, 4.160763e-002
6.865342e+002, 4.005712e-002
6.884626e+002, 3.819910e-002
6.903911e+002, 3.623885e-002
6.923196e+002, 3.447878e-002
6.942480e+002, 3.342875e-002
6.961765e+002, 3.296933e-002
6.981050e+002, 3.265905e-002
7.000334e+002, 3.164750e-002
7.019619e+002, 3.031497e-002
7.038904e+002, 2.918870e-002
7.058188e+002, 2.850690e-002
7.077473e+002, 2.833651e-002
7.096758e+002, 2.866343e-002
7.116042e+002, 2.943554e-002
7.135327e+002, 3.066646e-002
7.154612e+002, 3.259512e-002
7.173896e+002, 3.508490e-002
7.193181e+002, 3.768992e-002
7.212466e+002, 4.040677e-002
7.231750e+002, 4.286520e-002
7.251035e+002, 4.456909e-002
7.270320e+002, 4.542103e-002
7.289604e+002, 4.538579e-002
7.308889e+002, 4.442663e-002
7.328174e+002, 4.312260e-002
7.347458e+002, 4.181428e-002
7.366743e+002, 4.056202e-002
7.386028e+002, 3.942885e-002
7.405313e+002, 3.835602e-002
7.424597e+002, 3.813125e-002
7.443882e+002, 3.896421e-002
7.463167e+002, 4.032342e-002
7.482451e+002, 4.229837e-002
7.501736e+002, 4.418546e-002
7.521021e+002, 4.624762e-002
7.540305e+002, 4.787694e-002
7.559590e+002, 4.816673e-002
7.578875e+002, 4.716939e-002
7.598159e+002, 4.483746e-002
7.617444e+002, 4.195266e-002
7.636729e+002, 3.943286e-002
7.656013e+002, 3.761794e-002
7.675298e+002, 3.624426e-002
7.694583e+002, 3.499421e-002
7.713867e+002, 3.372500e-002
7.733152e+002, 3.212833e-002
7.752437e+002, 3.044637e-002
7.771721e+002, 2.858310e-002
7.791006e+002, 2.657245e-002
7.810291e+002, 2.500162e-002
7.829575e+002, 2.362645e-002
7.848860e+002, 2.252476e-002
7.868145e+002, 2.201013e-002
7.887429e+002, 2.189817e-002
7.906714e+002, 2.201516e-002
7.925999e+002, 2.224275e-002
7.945283e+002, 2.255080e-002
7.964568e+002, 2.280496e-002
7.983853e+002, 2.339101e-002
8.003137e+002, 2.412822e-002
8.022422e+002, 2.458631e-002
8.041707e+002, 2.523753e-002
8.060991e+002, 2.622952e-002
8.080276e+002, 2.730165e-002
8.099561e+002, 2.838962e-002
8.118845e+002, 2.933457e-002
8.138130e+002, 3.054477e-002
8.157415e+002, 3.174087e-002
8.176699e+002, 3.299062e-002
8.195984e+002, 3.444666e-002
8.215269e+002, 3.577852e-002
8.234553e+002, 3.715526e-002
8.253838e+002, 3.886044e-002
8.273123e+002, 4.054618e-002
8.292407e+002, 4.235035e-002
8.311692e+002, 4.420113e-002
8.330977e+002, 4.596277e-002
8.350261e+002, 4.797195e-002
8.369546e+002, 5.008145e-002
8.388831e+002, 5.226508e-002
8.408115e+002, 5.442210e-002
8.427400e+002, 5.639797e-002
8.446685e+002, 5.851188e-002
8.465969e+002, 6.068743e-002
8.485254e+002, 6.291311e-002
8.504539e+002, 6.572148e-002
8.523823e+002, 6.874637e-002
8.543108e+002, 7.181801e-002
8.562393e+002, 7.475056e-002
8.581677e+002, 7.765097e-002
8.600962e+002, 8.100303e-002
8.620247e+002, 8.454763e-002
8.639531e+002, 8.789799e-002
8.658816e+002, 9.115477e-002
8.678101e+002, 9.493180e-002
8.697385e+002, 9.889229e-002
8.716670e+002, 1.027293e-001
8.735955e+002, 1.066684e-001
8.755239e+002, 1.110932e-001
8.774524e+002, 1.158103e-001
8.793809e+002, 1.204081e-001
8.813093e+002, 1.251716e-001
8.832378e+002, 1.304651e-001
8.851663e+002, 1.353619e-001
8.870947e+002, 1.397029e-001
8.890232e+002, 1.438700e-001
8.909517e+002, 1.475785e-001
8.928801e+002, 1.507777e-001
8.948085e+002, 1.532000e-001
8.967370e+002, 1.549835e-001
8.986655e+002, 1.566269e-001
9.005939e+002, 1.580596e-001
9.025224e+002, 1.593487e-001
9.044509e+002, 1.600977e-001
9.063793e+002, 1.606609e-001
9.083078e+002, 1.611096e-001
9.102363e+002, 1.616435e-001
9.121647e+002, 1.617576e-001
9.140932e+002, 1.617662e-001
9.160217e+002, 1.620151e-001
9.179501e+002, 1.617605e-001
9.198786e+002, 1.615501e-001
9.218071e+002, 1.609893e-001
9.237355e+002, 1.595053e-001
9.256640e+002, 1.577913e-001
9.275925e+002, 1.558160e-001
9.295209e+002, 1.534894e-001
9.314494e+002, 1.510037e-001
9.333779e+002, 1.484358e-001
9.353063e+002, 1.459024e-001
9.372348e+002, 1.431732e-001
9.391633e+002, 1.406196e-001
9.410917e+002, 1.382591e-001
9.430202e+002, 1.356883e-001
9.449487e+002, 1.332024e-001
9.468771e+002, 1.309478e-001
9.488056e+002, 1.285061e-001
9.507341e+002, 1.259389e-001
9.526625e+002, 1.233947e-001
9.545910e+002, 1.207268e-001
9.565195e+002, 1.178128e-001
9.584479e+002, 1.149448e-001
9.603764e+002, 1.121687e-001
9.623049e+002, 1.097959e-001
9.642333e+002, 1.075268e-001
9.661618e+002, 1.051045e-001
9.680903e+002, 1.025689e-001
9.700187e+002, 9.968621e-002
9.719472e+002, 9.661943e-002
9.738757e+002, 9.402332e-002
9.758041e+002, 9.209447e-002
9.777326e+002, 9.100424e-002
9.796611e+002, 9.072259e-002
9.815895e+002, 9.086629e-002
9.835180e+002, 9.105117e-002
9.854465e+002, 9.114433e-002
9.873749e+002, 9.103793e-002
9.893034e+002, 9.047668e-002
9.912319e+002, 8.975734e-002
9.931603e+002, 8.896819e-002
9.950888e+002, 8.829067e-002
9.970173e+002, 8.773663e-002
9.989457e+002, 8.717338e-002
1.000874e+003, 8.634213e-002
1.002803e+003, 8.552741e-002
1.004731e+003, 8.522608e-002
1.006660e+003, 8.542221e-002
1.008588e+003, 8.578444e-002
1.010517e+003, 8.599173e-002
1.012445e+003, 8.636212e-002
1.014373e+003, 8.694746e-002
1.016302e+003, 8.742129e-002
1.018230e+003, 8.775987e-002
1.020159e+003, 8.744873e-002
1.022087e+003, 8.641269e-002
1.024016e+003, 8.516435e-002
1.025944e+003, 8.373845e-002
1.027873e+003, 8.216318e-002
1.029801e+003, 8.064289e-002
1.031730e+003, 7.939209e-002
1.033658e+003, 7.839584e-002
1.035587e+003, 7.754758e-002
1.037515e+003, 7.648952e-002
1.039444e+003, 7.536226e-002
1.041372e+003, 7.424122e-002
1.043301e+003, 7.291121e-002
1.045229e+003, 7.179215e-002
1.047157e+003, 7.073481e-002
1.049086e+003, 6.983644e-002
1.051014e+003, 6.902433e-002
1.052943e+003, 6.819404e-002
1.054871e+003, 6.746262e-002
1.056800e+003, 6.695660e-002
1.058728e+003, 6.667224e-002
1.060657e+003, 6.648505e-002
1.062585e+003, 6.658036e-002
1.064514e+003, 6.684563e-002
1.066442e+003, 6.701686e-002
1.068371e+003, 6.707792e-002
1.070299e+003, 6.741058e-002
1.072228e+003, 6.798228e-002
1.074156e+003, 6.824416e-002
1.076084e+003, 6.821982e-002
1.078013e+003, 6.804882e-002
1.079941e+003, 6.774780e-002
1.081870e+003, 6.716999e-002
1.083798e+003, 6.680144e-002
1.085727e+003, 6.672981e-002
1.087655e+003, 6.705485e-002
1.089584e+003, 6.783468e-002
1.091512e+003, 6.816078e-002
1.093441e+003, 6.770310e-002
1.095369e+003, 6.670979e-002
1.097298e+003, 6.525210e-002
1.099226e+003, 6.388503e-002
1.101155e+003, 6.272605e-002
1.103083e+003, 6.149942e-002
1.105011e+003, 6.018988e-002
1.106940e+003, 5.920318e-002
1.108868e+003, 5.847544e-002
1.110797e+003, 5.764945e-002
1.112725e+003, 5.685381e-002
1.114654e+003, 5.654296e-002
1.116582e+003, 5.673343e-002
1.118511e+003, 5.738064e-002
1.120439e+003, 5.825426e-002
1.122368e+003, 5.878606e-002
1.124296e+003, 5.938298e-002
1.126225e+003, 5.993339e-002
1.128153e+003, 6.039978e-002
1.130082e+003, 6.102997e-002
1.132010e+003, 6.174198e-002
1.133938e+003, 6.215890e-002
1.135867e+003, 6.228918e-002
1.137795e+003, 6.209444e-002
1.139724e+003, 6.147431e-002
1.141652e+003, 6.053112e-002
1.143581e+003, 5.913847e-002
1.145509e+003, 5.748821e-002
1.147438e+003, 5.559818e-002
1.149366e+003, 5.353013e-002
1.151295e+003, 5.122791e-002
1.153223e+003, 4.878241e-002
1.155152e+003, 4.638940e-002
1.157080e+003, 4.405212e-002
1.159009e+003, 4.143345e-002
1.160937e+003, 3.901665e-002
1.162865e+003, 3.675056e-002
1.164794e+003, 3.437245e-002
1.166722e+003, 3.199294e-002
1.168651e+003, 2.985037e-002
1.170579e+003, 2.776111e-002
1.172508e+003, 2.577573e-002
1.174436e+003, 2.385111e-002
1.176365e+003, 2.194773e-002
1.178293e+003, 1.997248e-002
1.180222e+003, 1.785594e-002
1.182150e+003, 1.572182e-002
1.184079e+003, 1.397271e-002
1.186007e+003, 1.244972e-002
1.187936e+003, 1.092783e-002
1.189864e+003, 9.447109e-003
1.191792e+003, 8.244663e-003
1.193721e+003, 7.139704e-003
1.195649e+003, 6.304684e-003
1.197578e+003, 5.670473e-003
1.199506e+003, 4.922331e-003
1.201435e+003, 4.258990e-003
1.203363e+003, 3.644184e-003
1.205292e+003, 3.141931e-003
1.207220e+003, 2.632093e-003
1.209149e+003, 2.282325e-003
1.211077e+003, 2.022380e-003
1.213006e+003, 1.595247e-003
1.214934e+003, 1.207545e-003
1.216863e+003, 9.700165e-004
1.218791e+003, 7.980409e-004
1.220719e+003, 5.751397e-004
1.222648e+003, 4.334288e-004
1.224576e+003, 3.118570e-004
1.226505e+003, 1.412513e-004
1.228433e+003, -1.588560e-004
1.230362e+003, -3.155631e-004
1.232290e+003, -3.069387e-004
1.234219e+003, -2.441371e-004
1.236147e+003, -3.062132e-004
1.238076e+003, -3.366268e-004
1.240004e+003, -4.962312e-004
1.241933e+003, -7.633016e-004
1.243861e+003, -7.860982e-004
1.245790e+003, -6.802147e-004
1.247718e+003, -7.260040e-004
1.249646e+003, -7.511182e-004
1.251575e+003, -8.804382e-004
1.253503e+003, -1.046007e-003
1.255432e+003, -1.203338e-003
1.257360e+003, -1.153714e-003
1.259289e+003, -1.139298e-003
1.261217e+003, -1.286644e-003
1.263146e+003, -1.329279e-003
1.265074e+003, -1.405933e-003
1.267003e+003, -1.461745e-003
1.268931e+003, -1.161195e-003
1.270860e+003, -8.955543e-004
1.272788e+003, -9.840517e-004
1.274717e+003, -1.294364e-003
1.276645e+003, -1.380552e-003
1.278573e+003, -1.398156e-003
1.280502e+003, -1.326067e-003
1.282430e+003, -1.167049e-003
1.284359e+003, -1.115613e-003
1.286287e+003, -1.156827e-003
1.288216e+003, -1.132592e-003
1.290144e+003, -1.172693e-003
1.292073e+003, -1.130606e-003
1.294001e+003, -1.084326e-003
1.295930e+003, -1.021995e-003
1.297858e+003, -1.035918e-003
1.299787e+003, -1.089703e-003
1.301715e+003, -1.221892e-003
1.303644e+003, -1.254122e-003
1.305572e+003, -1.108076e-003
1.307500e+003, -9.424022e-004
1.309429e+003, -1.001391e-003
1.311357e+003, -1.017539e-003
1.313286e+003, -8.799810e-004
1.315214e+003, -9.072630e-004
1.317143e+003, -9.997990e-004
1.319071e+003, -1.218154e-003
1.321000e+003, -1.285132e-003
1.322928e+003, -1.183897e-003
1.324857e+003, -1.136227e-003
1.326785e+003, -1.153574e-003
1.328714e+003, -1.207967e-003
1.330642e+003, -1.031284e-003
1.332571e+003, -7.694397e-004
1.334499e+003, -6.731323e-004
1.336427e+003, -7.751211e-004
1.338356e+003, -8.922188e-004
1.340284e+003, -9.175982e-004
1.342213e+003, -9.502523e-004
1.344141e+003, -8.790349e-004
1.346070e+003, -9.700742e-004
1.347998e+003, -9.918432e-004
1.349927e+003, -7.290497e-004
1.351855e+003, -6.991874e-004
1.353784e+003, -6.404796e-004
1.355712e+003, -7.124830e-004
1.357641e+003, -9.441971e-004
1.359569e+003, -1.097703e-003
1.361498e+003, -9.319071e-004
1.363426e+003, -5.572359e-004
1.365354e+003, -7.139435e-004
1.367283e+003, -8.744873e-004
1.369211e+003, -6.083089e-004
1.371140e+003, -5.186769e-004
1.373068e+003, -5.926219e-004
1.374997e+003, -3.124555e-004
1.376925e+003, -4.814750e-004
1.378854e+003, -7.319654e-004
1.380782e+003, -1.025450e-003
1.382711e+003, -8.628737e-004
1.384639e+003, -5.780365e-004
1.386568e+003, -6.851897e-004
1.388496e+003, -1.949255e-005
1.390424e+003, -4.553529e-004
1.392353e+003, -5.067026e-004
1.394281e+003, -5.137976e-004
1.396210e+003, -4.052973e-005
1.398138e+003, -3.476783e-004
1.400067e+003, 2.875869e-004
1.401995e+003, -8.289504e-005
1.403924e+003, -1.328608e-004
1.405852e+003, 5.108109e-004
1.407781e+003, 4.399244e-004
1.409709e+003, 3.202762e-004
1.411638e+003, 2.345968e-004
1.413566e+003, 3.552836e-004
1.415495e+003, 3.334137e-004
1.417423e+003, 2.319915e-004
1.419351e+003, 8.814376e-004
1.421280e+003, 1.131624e-003
1.423208e+003, 7.333648e-004
1.425137e+003, 8.828614e-004
1.427065e+003, 6.699923e-004
1.428994e+003, 6.948812e-004
1.430922e+003, 1.181604e-003
1.432851e+003, 9.004618e-004
1.434779e+003, 4.584955e-004
1.436708e+003, 9.157881e-004
1.438636e+003, 1.289913e-003
1.440565e+003, 9.974765e-004
1.442493e+003, 1.001396e-003
1.444422e+003, 1.028721e-003
1.446350e+003, 9.592816e-004
1.448278e+003, 1.405471e-003
1.450207e+003, 1.286143e-003
1.452135e+003, 1.169537e-003
1.454064e+003, 7.002504e-004
1.455992e+003, -1.096463e-004
1.457921e+003, 2.104936e-003
1.459849e+003, 1.787588e-003
1.461778e+003, 1.403708e-003
1.463706e+003, 9.024973e-004
1.465635e+003, 1.805195e-003
1.467563e+003, 1.137233e-003
1.469492e+003, 8.594884e-004
1.471420e+003, 2.484073e-004
1.473349e+003, 1.341532e-003
1.475277e+003, 9.502671e-004
1.477205e+003, 1.455817e-003
1.479134e+003, 8.993226e-004
1.481062e+003, 9.201189e-004
1.482991e+003, 9.107223e-004
1.484919e+003, 5.520894e-004
1.486848e+003, 3.289703e-004
1.488776e+003, 3.826927e-004
1.490705e+003, 1.001113e-003
1.492633e+003, 6.089282e-004
1.494562e+003, -3.102109e-004
1.496490e+003, 8.793329e-006
1.498419e+003, -1.656839e-004
1.500347e+003, 5.083697e-004
1.502276e+003, 2.791800e-004
1.504204e+003, -1.201825e-003
1.506132e+003, -9.701620e-004
1.508061e+003, 6.678030e-004
1.509989e+003, 2.289692e-004
1.511918e+003, -1.357067e-004
1.513846e+003, -1.015234e-004
1.515775e+003, -5.621489e-004
1.517703e+003, 4.291791e-005
1.519632e+003, -1.442584e-003
1.521560e+003, -2.851538e-004
1.523489e+003, -1.441278e-004
1.525417e+003, -1.991145e-004
1.527346e+003, -4.264012e-005
1.529274e+003, -2.345390e-006
1.531203e+003, -3.973556e-004
1.533131e+003, -1.741234e-004
1.535059e+003, 6.844923e-004
1.536988e+003, -1.122954e-003
1.538916e+003, -1.866232e-003
1.540845e+003, -7.958994e-005
1.542773e+003, 5.084728e-004
1.544702e+003, 2.721836e-005
1.546630e+003, 5.889482e-004
1.548559e+003, -9.049712e-005
1.550487e+003, 6.773949e-004
1.552416e+003, 6.609006e-005
1.554344e+003, 2.855371e-004
1.556273e+003, -6.081483e-004
1.558201e+003, -6.212279e-004
1.560130e+003, 1.410173e-003
1.562058e+003, 1.250255e-003
1.563986e+003, 1.123118e-003
1.565915e+003, 1.714570e-003
1.567843e+003, 1.045035e-003
1.569772e+003, 1.775775e-003
1.571700e+003, 2.123658e-003
1.573629e+003, 1.852778e-003
1.575557e+003, 1.021557e-003
1.577486e+003, 3.093341e-003
1.579414e+003, 2.639508e-003
1.581343e+003, 2.928081e-003
1.583271e+003, 2.985455e-003
1.585200e+003, 2.954606e-003
1.587128e+003, 3.270283e-003
1.589057e+003, 3.480692e-003
1.590985e+003, 3.404949e-003
1.592913e+003, 3.445333e-003
1.594842e+003, 3.483224e-003
1.596770e+003, 3.369013e-003
1.598699e+003, 3.605222e-003
1.600627e+003, 3.468372e-003
1.602556e+003, 3.178570e-003
1.604484e+003, 3.469752e-003
1.606413e+003, 3.421890e-003
1.608341e+003, 3.462396e-003
1.610270e+003, 3.755555e-003
1.612198e+003, 3.754235e-003
1.614127e+003, 3.092820e-003
1.616055e+003, 2.346620e-003
1.617984e+003, 4.466682e-003
1.619912e+003, 3.492894e-003
1.621840e+003, 3.151192e-003
1.623769e+003, 3.883454e-003
1.625697e+003, 3.527567e-003
1.627626e+003, 3.685005e-003
1.629554e+003, 3.791303e-003
1.631483e+003, 3.554657e-003
1.633411e+003, 2.329975e-003
1.635340e+003, 2.284644e-003
1.637268e+003, 3.139644e-003
1.639197e+003, 3.058779e-003
1.641125e+003, 2.860636e-003
1.643054e+003, 2.541006e-003
1.644982e+003, 1.247870e-003
1.646911e+003, 2.656373e-003
1.648839e+003, 2.720116e-003
1.650767e+003, 4.975787e-004
1.652696e+003, 3.670599e-004
1.654624e+003, 3.411753e-003
1.656553e+003, 2.733931e-003
1.658481e+003, 2.882587e-003
1.660410e+003, 2.546891e-003
1.662338e+003, 2.320908e-003
1.664267e+003, 2.914371e-003
1.666195e+003, 2.418678e-003
1.668124e+003, 2.050609e-003
1.670052e+003, 3.407779e-003
1.671981e+003, 2.752898e-003
1.673909e+003, 1.574230e-003
1.675838e+003, 2.814705e-003
1.677766e+003, 1.921065e-003
1.679694e+003, 2.015621e-003
1.681623e+003, 1.265287e-003
1.683551e+003, -3.315685e-004
1.685480e+003, 2.275613e-003
1.687408e+003, 9.299900e-004
1.689337e+003, 1.270010e-003
1.691265e+003, 1.237199e-003
1.693194e+003, 3.389156e-004
1.695122e+003, -1.125526e-003
1.697051e+003, 8.568859e-004
1.698979e+003, -1.799414e-003
1.700908e+003, 1.701051e-003
1.702836e+003, 7.192843e-005
1.704765e+003, 4.062705e-004
1.706693e+003, 9.796037e-004
1.708621e+003, 4.630156e-004
1.710550e+003, 4.332857e-004
1.712478e+003, -1.633650e-004
1.714407e+003, -6.746250e-004
1.716335e+003, -1.502143e-003
1.718264e+003, -1.744028e-004
1.720192e+003, -6.681814e-004
1.722121e+003, -9.243687e-004
1.724049e+003, -6.506256e-004
1.725978e+003, -8.792666e-004
1.727906e+003, -1.240834e-003
1.729835e+003, -1.564352e-003
1.731763e+003, -2.852370e-003
1.733692e+003, -3.365956e-003
1.735620e+003, -1.351477e-003
1.737548e+003, -2.701587e-003
1.739477e+003, -2.947584e-003
1.741405e+003, -2.507989e-003
1.743334e+003, -2.516374e-003
1.745262e+003, -2.218583e-003
1.747191e+003, -2.317205e-003
1.749119e+003, -2.313355e-003
1.751048e+003, -2.525963e-003
1.752976e+003, -1.837401e-003
1.754905e+003, -2.218224e-003
1.756833e+003, -2.048860e-003
1.758762e+003, -2.044796e-003
1.760690e+003, -2.253815e-003
1.762619e+003, -1.091106e-003
1.764547e+003, -1.505977e-003
1.766475e+003, -1.743697e-003
1.768404e+003, -1.401835e-003
1.770332e+003, -2.318558e-003
1.772261e+003, -1.770644e-003
1.774189e+003, -1.088941e-003
1.776118e+003, -1.132505e-003
1.778046e+003, -1.412872e-003
1.779975e+003, -1.771156e-003
1.781903e+003, -1.762728e-003
1.783832e+003, -2.223073e-003
1.785760e+003, -1.729245e-003
1.787689e+003, -1.902023e-003
1.789617e+003, -2.184471e-003
1.791546e+003, -2.460849e-003
1.793474e+003, -1.759960e-003
1.795402e+003, -2.113231e-003
1.797331e+003, -1.599932e-003
1.799259e+003, -1.866276e-003
1.801188e+003, -2.023210e-003
1.803116e+003, -1.720970e-003
1.805045e+003, -1.610705e-003
1.806973e+003, -1.761050e-003
1.808902e+003, -2.169785e-003
1.810830e+003, -2.169682e-003
1.812759e+003, -2.252650e-003
1.814687e+003, -2.424119e-003
1.816616e+003, -2.332695e-003
1.818544e+003, -1.729470e-003
1.820473e+003, -2.020170e-003
1.822401e+003, -2.356889e-003
1.824329e+003, -2.405886e-003
1.826258e+003, -1.308939e-003
1.828186e+003, -1.872694e-003
1.830115e+003, -1.620166e-003
1.832043e+003, -2.142037e-003
1.833972e+003, -2.242815e-003
1.835900e+003, -2.186992e-003
1.837829e+003, -2.129704e-003
1.839757e+003, -2.460962e-003
1.841686e+003, -2.648474e-003
1.843614e+003, -3.205598e-003
1.845543e+003, -1.940964e-003
1.847471e+003, -2.732060e-003
1.849400e+003, -3.015388e-003
1.851328e+003, -3.471344e-003
1.853256e+003, -3.133016e-003
1.855185e+003, -2.911248e-003
1.857113e+003, -3.321970e-003
1.859042e+003, -3.274074e-003
1.860970e+003, -2.854259e-003
1.862899e+003, -2.765958e-003
1.864827e+003, -3.080178e-003
1.866756e+003, -3.548758e-003
1.868684e+003, -3.127190e-003
1.870613e+003, -2.512285e-003
1.872541e+003, -3.295031e-003
1.874470e+003, -3.073324e-003
1.876398e+003, -2.777791e-003
1.878327e+003, -3.280782e-003
1.880255e+003, -3.428702e-003
1.882183e+003, -3.171088e-003
1.884112e+003, -2.908025e-003
1.886040e+003, -3.061639e-003
1.887969e+003, -3.575351e-003
1.889897e+003, -3.656468e-003
1.891826e+003, -3.524151e-003
1.893754e+003, -3.088071e-003
1.895683e+003, -2.985780e-003
1.897611e+003, -3.164428e-003
1.899540e+003, -3.218346e-003
1.901468e+003, -3.424927e-003
1.903397e+003, -3.873244e-003
1.905325e+003, -3.879474e-003
1.907254e+003, -3.884282e-003
1.909182e+003, -4.409755e-003
1.911110e+003, -4.624387e-003
1.913039e+003, -4.248559e-003
1.914967e+003, -3.264267e-003
1.916896e+003, -3.365680e-003
1.918824e+003, -3.058501e-003
1.920753e+003, -3.875655e-003
1.922681e+003, -4.364582e-003
1.924610e+003, -4.750863e-003
1.926538e+003, -4.621173e-003
1.928467e+003, -4.281693e-003
1.930395e+003, -4.447679e-003
1.932324e+003, -4.820486e-003
1.934252e+003, -4.406115e-003
1.936181e+003, -4.001308e-003
1.938109e+003, -4.450890e-003
1.940037e+003, -4.512892e-003
1.941966e+003, -5.028796e-003
1.943894e+003, -4.542529e-003
1.945823e+003, -4.331641e-003
1.947751e+003, -4.467274e-003
1.949680e+003, -4.010236e-003
1.951608e+003, -4.523099e-003
1.953537e+003, -5.284811e-003
1.955465e+003, -5.813964e-003
1.957394e+003, -6.475619e-003
1.959322e+003, -6.722727e-003
1.961251e+003, -5.933461e-003
1.963179e+003, -6.013879e-003
1.965108e+003, -6.941814e-003
1.967036e+003, -5.633623e-003
1.968964e+003, -5.189914e-003
1.970893e+003, -6.879169e-003
1.972821e+003, -7.691592e-003
1.974750e+003, -8.345917e-003
1.976678e+003, -7.400227e-003
1.978607e+003, -5.516385e-003
1.980535e+003, -6.427401e-003
1.982464e+003, -7.166893e-003
1.984392e+003, -6.227438e-003
1.986321e+003, -6.716737e-003
1.988249e+003, -6.686252e-003
1.990178e+003, -6.279764e-003
1.992106e+003, -6.426337e-003
1.994035e+003, -5.019306e-003
1.995963e+003, -5.386769e-003
1.997891e+003, -6.353938e-003
1.999820e+003, -6.886496e-003
2.001748e+003, -7.796345e-003
2.003677e+003, -7.988530e-003
2.005605e+003, -7.309200e-003
2.007534e+003, -6.054736e-003
2.009462e+003, -5.687005e-003
2.011391e+003, -7.793173e-003
2.013319e+003, -9.138009e-003
2.015248e+003, -8.711881e-003
2.017176e+003, -7.156565e-003
2.019105e+003, -6.083672e-003
2.021033e+003, -8.053219e-003
2.022962e+003, -9.378161e-003
2.024890e+003, -9.647453e-003
2.026818e+003, -7.855536e-003
2.028747e+003, -6.326892e-003
2.030675e+003, -6.652992e-003
2.032604e+003, -5.676233e-003
2.034532e+003, -6.051638e-003
2.036461e+003, -7.346252e-003
2.038389e+003, -7.090014e-003
2.040318e+003, -6.129795e-003
2.042246e+003, -5.390302e-003
2.044175e+003, -4.719475e-003
2.046103e+003, -4.919139e-003
2.048032e+003, -4.658941e-003
2.049960e+003, -4.178801e-003
2.051889e+003, -5.141687e-003
2.053817e+003, -5.602756e-003
2.055746e+003, -5.149015e-003
2.057674e+003, -4.778748e-003
2.059603e+003, -3.969308e-003
2.061531e+003, -3.758368e-003
2.063459e+003, -5.112432e-003
2.065388e+003, -5.382972e-003
2.067316e+003, -3.283543e-003
2.069245e+003, -3.732530e-003
2.071173e+003, -3.966673e-003
2.073102e+003, -3.724620e-003
2.075030e+003, -4.364009e-003
2.076959e+003, -4.525457e-003
2.078887e+003, -3.491321e-003
2.080816e+003, -3.517485e-003
2.082744e+003, -3.348536e-003
2.084673e+003, -2.676046e-003
2.086601e+003, -2.696861e-003
2.088530e+003, -2.647606e-003
2.090458e+003, -3.263989e-003
2.092386e+003, -3.767868e-003
2.094315e+003, -3.996901e-003
2.096243e+003, -3.154596e-003
2.098172e+003, -3.181281e-003
2.100100e+003, -4.397529e-003
2.102029e+003, -3.635234e-003
2.103957e+003, -3.774269e-003
2.105886e+003, -4.185899e-003
2.107814e+003, -3.556212e-003
2.109743e+003, -3.499572e-003
2.111671e+003, -3.311174e-003
2.113600e+003, -3.514844e-003
2.115528e+003, -3.591107e-003
2.117457e+003, -3.344162e-003
2.119385e+003, -3.349891e-003
2.121313e+003, -4.380403e-003
2.123242e+003, -4.545416e-003
2.125170e+003, -4.677837e-003
2.127099e+003, -5.162533e-003
2.129027e+003, -5.064643e-003
2.130956e+003, -4.704460e-003
2.132884e+003, -4.640316e-003
2.134813e+003, -5.215615e-003
2.136741e+003, -5.552270e-003
2.138670e+003, -4.801089e-003
2.140598e+003, -4.971857e-003
2.142527e+003, -4.595569e-003
2.144455e+003, -4.054057e-003
2.146384e+003, -6.070930e-003
2.148312e+003, -6.251109e-003
2.150240e+003, -6.267224e-003
2.152169e+003, -7.503887e-003
2.154097e+003, -8.433091e-003
2.156026e+003, -9.559738e-003
2.157954e+003, -8.766359e-003
2.159883e+003, -4.968927e-003
2.161811e+003, -3.946185e-003
2.163740e+003, -4.459930e-003
2.165668e+003, -6.385617e-003
2.167597e+003, -7.268546e-003
2.169525e+003, -5.470234e-003
2.171454e+003, -4.973354e-003
2.173382e+003, -6.788161e-003
2.175311e+003, -6.503270e-003
2.177239e+003, -4.985417e-003
2.179167e+003, -3.206066e-003
2.181096e+003, -3.180817e-003
2.183024e+003, -4.620750e-003
2.184953e+003, -5.123141e-003
2.186881e+003, -3.869971e-003
2.188810e+003, -3.161970e-003
2.190738e+003, -2.426257e-003
2.192667e+003, -2.392342e-003
2.194595e+003, -3.283829e-003
2.196524e+003, -4.824544e-003
2.198452e+003, -4.702794e-003
2.200381e+003, -3.763409e-003
2.202309e+003, -3.445233e-003
2.204238e+003, -2.570340e-003
2.206166e+003, -3.701831e-003
2.208094e+003, -4.606558e-003
2.210023e+003, -4.197995e-003
2.211951e+003, -4.501361e-003
2.213880e+003, -4.282406e-003
2.215808e+003, -3.600826e-003
2.217737e+003, -2.524448e-003
2.219665e+003, -2.125825e-003
2.221594e+003, -3.220172e-003
2.223522e+003, -2.891297e-003
2.225451e+003, -2.139500e-003
2.227379e+003, -3.497461e-003
2.229308e+003, -2.677671e-003
2.231236e+003, -1.576549e-003
2.233165e+003, -2.344260e-003
2.235093e+003, -2.069320e-003
2.237021e+003, -2.452849e-003
2.238950e+003, -2.318093e-003
2.240878e+003, -2.822282e-003
2.242807e+003, -3.509776e-003
2.244735e+003, -3.398969e-003
2.246664e+003, -3.737347e-003
2.248592e+003, -3.137504e-003
2.250521e+003, -2.667987e-003
2.252449e+003, -3.073388e-003
2.254378e+003, -3.381249e-003
2.256306e+003, -3.310711e-003
2.258235e+003, -2.834950e-003
2.260163e+003, -2.210532e-003
2.262092e+003, -1.843976e-003
2.264020e+003, -2.701770e-003
2.265948e+003, -2.278866e-003
2.267877e+003, -2.268773e-003
2.269805e+003, -2.728205e-003
2.271734e+003, -2.182052e-003
2.273662e+003, -1.740769e-003
2.275591e+003, -1.396423e-003
2.277519e+003, -1.514310e-003
2.279448e+003, -1.208442e-003
2.281376e+003, -7.966945e-004
2.283305e+003, -1.394268e-003
2.285233e+003, -1.440938e-003
2.287162e+003, -7.386433e-004
2.289090e+003, -7.902305e-004
2.291019e+003, -9.878111e-004
2.292947e+003, -1.658312e-003
2.294875e+003, -1.763511e-003
2.296804e+003, -1.278609e-003
2.298732e+003, -1.284491e-003
2.300661e+003, -1.787865e-003
2.302589e+003, -1.622566e-003
2.304518e+003, -8.837632e-004
2.306446e+003, -4.593797e-004
2.308375e+003, -1.264548e-004
2.310303e+003, -1.387547e-004
2.312232e+003, 1.669038e-004
2.314160e+003, 9.063157e-004
2.316089e+003, 9.090827e-004
2.318017e+003, 2.852174e-004
2.319946e+003, 4.220202e-004
2.321874e+003, 5.636954e-004
2.323802e+003, 3.791567e-004
2.325731e+003, -3.992228e-004
2.327659e+003, -5.756083e-004
2.329588e+003, -2.389155e-004
2.331516e+003, -4.216879e-004
2.333445e+003, -3.198215e-004
2.335373e+003, -1.092986e-004
2.337302e+003, -3.719936e-004
2.339230e+003, -3.550682e-004
2.341159e+003, -3.852623e-004
2.343087e+003, -5.112215e-004
2.345016e+003, -3.578749e-004
2.346944e+003, -3.884553e-004
2.348873e+003, -4.305112e-004
2.350801e+003, -5.564038e-004
2.352729e+003, -1.033310e-004
2.354658e+003, 2.724563e-004
2.356586e+003, -4.853330e-004
2.358515e+003, -9.986419e-004
2.360443e+003, -1.084406e-003
2.362372e+003, -5.627049e-004
2.364300e+003, -6.544993e-004
2.366229e+003, -8.272506e-004
2.368157e+003, -6.473823e-004
2.370086e+003, -8.372345e-004
2.372014e+003, -6.109631e-004
2.373942e+003, 3.203521e-004
2.375871e+003, 3.860665e-005
2.377799e+003, -5.390438e-004
2.379728e+003, -3.656894e-004
2.381656e+003, -5.599837e-004
2.383585e+003, -7.494178e-004
2.385513e+003, -5.441623e-004
2.387442e+003, -6.419870e-005
2.389370e+003, 1.365089e-004
2.391299e+003, -1.288784e-004
2.393227e+003, -5.363366e-006
2.395156e+003, -6.701703e-004
2.397084e+003, -8.694509e-004
2.399012e+003, -1.172773e-004
2.400941e+003, 2.437809e-004
2.402869e+003, -3.990477e-006
2.404798e+003, 2.801424e-004
2.406726e+003, 1.082639e-004
2.408655e+003, -8.035070e-004
2.410583e+003, -9.988935e-004
2.412512e+003, -7.019428e-004
2.414440e+003, -6.543860e-004
2.416369e+003, -5.681231e-004
2.418297e+003, -4.023636e-004
2.420226e+003, -5.475348e-004
2.422154e+003, -3.039646e-004
2.424083e+003, 3.581367e-005
2.426011e+003, -7.068418e-006
2.427939e+003, -2.555987e-004
2.429868e+003, -2.810303e-004
2.431796e+003, -5.075771e-004
2.433725e+003, -6.984924e-004
2.435653e+003, -7.169173e-004
2.437582e+003, -7.955534e-004
2.439510e+003, -3.852651e-004
2.441439e+003, -6.490510e-004
2.443367e+003, -8.884264e-004
2.445296e+003, 3.404323e-005
2.447224e+003, 7.821519e-004
2.449153e+003, 2.962930e-004
2.451081e+003, 9.091011e-005
2.453010e+003, 5.246301e-004
2.454938e+003, 5.104516e-004
2.456866e+003, 8.000871e-004
2.458795e+003, 9.523168e-004
2.460723e+003, 5.692921e-004
2.462652e+003, -4.027404e-005
2.464580e+003, -5.304032e-004
2.466509e+003, -1.319893e-004
2.468437e+003, -3.954409e-004
2.470366e+003, -1.109722e-003
2.472294e+003, -4.092674e-004
2.474223e+003, -1.640031e-004
2.476151e+003, -2.052267e-004
2.478080e+003, -7.190126e-004
2.480008e+003, -3.144417e-004
2.481937e+003, 5.534900e-004
2.483865e+003, -3.823539e-005
2.485793e+003, -3.503349e-004
2.487722e+003, 8.669205e-004
2.489650e+003, 6.839351e-004
2.491579e+003, 4.900052e-004
2.493507e+003, 1.467660e-003
2.495436e+003, 1.983149e-003
2.497364e+003, 1.787651e-003
2.499293e+003, 8.004145e-004
2.501221e+003, -5.453033e-004
2.503150e+003, -1.493161e-004
2.505078e+003, 5.856685e-004
2.507007e+003, 5.773280e-004
2.508935e+003, 4.739397e-004
2.510864e+003, -4.753119e-004
2.512792e+003, -9.511866e-004
2.514720e+003, 8.062978e-005
2.516649e+003, 5.677264e-004
2.518577e+003, 1.694935e-004
2.520506e+003, -8.361063e-004
2.522434e+003, -5.990459e-004
2.524363e+003, -3.722060e-004
2.526291e+003, -4.004508e-004
2.528220e+003, 3.866883e-004
2.530148e+003, 7.129123e-004
2.532077e+003, 5.002357e-004
2.534005e+003, -5.263126e-004
2.535934e+003, -1.256851e-003
2.537862e+003, -1.568385e-003
2.539791e+003, -7.635526e-004
2.541719e+003, 1.372000e-005
2.543647e+003, -1.621594e-004
2.545576e+003, -1.616206e-005
2.547504e+003, 5.246230e-004
2.549433e+003, 6.992246e-004
2.551361e+003, 7.604784e-004
2.553290e+003, 3.728194e-004
2.555218e+003, 3.532654e-004
2.557147e+003, 2.976425e-004
2.559075e+003, -8.301878e-004
2.561004e+003, -4.133520e-004
2.562932e+003, 1.607325e-004
2.564861e+003, -1.152913e-004
2.566789e+003, 7.576900e-005
2.568718e+003, 2.070164e-004
2.570646e+003, -4.500956e-004
2.572574e+003, -2.516064e-004
2.574503e+003, -1.901197e-004
2.576431e+003, -3.559451e-004
2.578360e+003, 2.281591e-004
2.580288e+003, 2.866385e-004
2.582217e+003, -4.791925e-004
2.584145e+003, -4.117572e-004
2.586074e+003, 2.749102e-004
2.588002e+003, 1.229425e-004
2.589931e+003, 2.747552e-004
2.591859e+003, 5.558397e-004
2.593788e+003, 7.045013e-004
2.595716e+003, 7.946495e-004
2.597645e+003, 8.946422e-004
2.599573e+003, 1.024082e-003
2.601501e+003, 9.821360e-004
2.603430e+003, 1.343242e-003
2.605358e+003, 1.306130e-003
2.607287e+003, 4.032014e-004
2.609215e+003, 1.912659e-004
2.611144e+003, 8.111607e-004
2.613072e+003, 6.398322e-004
2.615001e+003, 1.608460e-004
2.616929e+003, 5.244006e-004
2.618858e+003, 2.530076e-004
2.620786e+003, 2.067109e-004
2.622715e+003, 7.663257e-004
2.624643e+003, 1.859684e-004
2.626572e+003, 2.813867e-004
2.628500e+003, 7.330448e-004
2.630428e+003, 7.279867e-004
2.632357e+003, 8.303876e-004
2.634285e+003, 5.863468e-004
2.636214e+003, 9.123095e-004
2.638142e+003, 9.547927e-004
2.640071e+003, 9.942441e-004
2.641999e+003, 7.740678e-004
2.643928e+003, 4.682696e-004
2.645856e+003, 3.642210e-004
2.647785e+003, 8.256867e-004
2.649713e+003, 1.412750e-003
2.651642e+003, 8.950385e-004
2.653570e+003, 3.632692e-004
2.655499e+003, 5.452489e-004
2.657427e+003, 8.742816e-004
2.659355e+003, 7.595923e-004
2.661284e+003, 5.369721e-004
2.663212e+003, 8.933861e-004
2.665141e+003, 3.763894e-004
2.667069e+003, -1.042679e-004
2.668998e+003, -2.912487e-004
2.670926e+003, -1.711576e-004
2.672855e+003, 2.536436e-004
2.674783e+003, 6.505048e-004
2.676712e+003, 8.272708e-004
2.678640e+003, 3.756070e-004
2.680569e+003, 4.502776e-005
2.682497e+003, -4.195758e-004
2.684426e+003, -1.110504e-003
2.686354e+003, -1.003272e-003
2.688282e+003, -2.312909e-004
2.690211e+003, -1.139644e-004
2.692139e+003, -1.442738e-004
2.694068e+003, -1.212497e-004
2.695996e+003, -1.417096e-004
2.697925e+003, 1.197274e-004
2.699853e+003, -1.306726e-004
2.701782e+003, -1.982476e-004
2.703710e+003, 1.418497e-004
2.705639e+003, 4.662166e-004
2.707567e+003, 2.467314e-004
2.709496e+003, -3.785411e-004
2.711424e+003, -7.347477e-004
2.713353e+003, -9.995939e-004
2.715281e+003, -4.798592e-004
2.717209e+003, -1.252005e-004
2.719138e+003, -4.431506e-005
2.721066e+003, -2.497799e-004
2.722995e+003, -2.259204e-004
2.724923e+003, 1.750497e-004
2.726852e+003, -5.508245e-005
2.728780e+003, -7.158057e-004
2.730709e+003, -7.466010e-004
2.732637e+003, -4.425265e-004
2.734566e+003, 6.867804e-005
2.736494e+003, -9.564972e-005
2.738423e+003, -5.692394e-004
2.740351e+003, -3.475839e-004
2.742280e+003, -1.684870e-004
2.744208e+003, -1.275389e-004
2.746136e+003, 7.653952e-004
2.748065e+003, 7.794595e-004
2.749993e+003, 1.585871e-004
2.751922e+003, 1.939999e-005
2.753850e+003, -3.092234e-004
2.755779e+003, -4.013061e-004
2.757707e+003, -3.380681e-004
2.759636e+003, -5.055454e-004
2.761564e+003, 1.986230e-004
2.763493e+003, 3.689648e-004
2.765421e+003, -1.155316e-004
2.767350e+003, -6.133167e-005
2.769278e+003, -5.014799e-004
2.771207e+003, -8.430951e-004
2.773135e+003, -4.531699e-004
2.775063e+003, -1.550203e-004
2.776992e+003, 6.734976e-004
2.778920e+003, 7.565020e-004
2.780849e+003, 7.975177e-007
2.782777e+003, -3.025825e-004
2.784706e+003, 3.600556e-004
2.786634e+003, 5.205743e-004
2.788563e+003, -1.541348e-004
2.790491e+003, -3.229654e-004
2.792420e+003, -8.789591e-005
2.794348e+003, 1.139547e-004
2.796277e+003, 5.824178e-004
2.798205e+003, 7.983824e-004
2.800134e+003, 7.978543e-004
2.802062e+003, 3.725313e-004
2.803990e+003, -1.834690e-004
2.805919e+003, -3.630508e-004
2.807847e+003, -7.992183e-004
2.809776e+003, -5.287683e-004
2.811704e+003, -2.270573e-004
2.813633e+003, -1.392578e-004
2.815561e+003, 4.691487e-004
2.817490e+003, 7.906517e-004
2.819418e+003, 6.633543e-004
2.821347e+003, 3.305449e-004
2.823275e+003, -1.460786e-004
2.825204e+003, -1.439171e-004
2.827132e+003, 4.078460e-004
2.829061e+003, 4.878505e-004
2.830989e+003, -1.540898e-004
2.832917e+003, 2.404238e-004
2.834846e+003, 4.553317e-004
2.836774e+003, 3.134872e-004
2.838703e+003, 2.110988e-004
2.840631e+003, -5.569507e-005
2.842560e+003, -3.862003e-004
2.844488e+003, -6.061858e-004
2.846417e+003, -3.420226e-004
2.848345e+003, 2.984246e-004
2.850274e+003, 1.278915e-004
2.852202e+003, 8.090027e-005
2.854131e+003, 6.884802e-006
2.856059e+003, -2.303275e-004
2.857988e+003, -4.974771e-004
2.859916e+003, -7.853180e-004
2.861844e+003, -9.849044e-004
2.863773e+003, -7.976885e-004
2.865701e+003, -9.377808e-004
2.867630e+003, -7.044392e-004
2.869558e+003, -1.901542e-004
2.871487e+003, -3.197227e-004
2.873415e+003, -6.415145e-004
2.875344e+003, -6.952706e-004
2.877272e+003, -1.521274e-004
2.879201e+003, -3.140257e-004
2.881129e+003, -6.108674e-004
2.883058e+003, -1.015660e-003
2.884986e+003, -1.028104e-003
2.886915e+003, -8.319104e-004
2.888843e+003, -5.260783e-004
2.890771e+003, -1.080588e-004
2.892700e+003, 2.505535e-004
2.894628e+003, 5.235756e-005
2.896557e+003, -8.324813e-004
2.898485e+003, -5.953899e-004
2.900414e+003, 2.224930e-005
2.902342e+003, -2.083464e-004
2.904271e+003, -7.582589e-004
2.906199e+003, -8.377323e-004
2.908128e+003, -4.991465e-004
2.910056e+003, -2.653715e-004
2.911985e+003, -5.746335e-004
2.913913e+003, -1.091128e-003
2.915842e+003, -7.657195e-004
2.917770e+003, 2.986495e-004
2.919698e+003, 4.721619e-004
2.921627e+003, -2.809865e-004
2.923555e+003, 1.664450e-004
2.925484e+003, 1.133177e-003
2.927412e+003, 9.778091e-004
2.929341e+003, 8.908566e-005
2.931269e+003, -4.169187e-004
2.933198e+003, -6.572572e-004
2.935126e+003, -2.813493e-004
2.937055e+003, -5.504061e-004
2.938983e+003, -1.381792e-003
2.940912e+003, -1.103296e-003
2.942840e+003, -5.144570e-004
2.944769e+003, -8.267877e-004
2.946697e+003, -7.642577e-004
2.948625e+003, -1.154332e-003
2.950554e+003, -1.685501e-003
2.952482e+003, -1.386242e-003
2.954411e+003, -6.648181e-004
2.956339e+003, -7.375004e-005
2.958268e+003, -5.358157e-004
2.960196e+003, -1.447319e-003
2.962125e+003, -1.475315e-003
2.964053e+003, -7.989048e-004
2.965982e+003, -8.453496e-004
2.967910e+003, -8.709378e-004
2.969839e+003, -4.730278e-004
2.971767e+003, -8.248333e-004
2.973696e+003, -1.183617e-003
2.975624e+003, -3.278275e-004
2.977552e+003, -5.915886e-004
2.979481e+003, -5.255595e-004
2.981409e+003, 4.858604e-004
2.983338e+003, 1.126410e-003
2.985266e+003, 6.939416e-004
2.987195e+003, -2.436206e-005
2.989123e+003, -6.250665e-005
2.991052e+003, -5.420833e-004
2.992980e+003, -9.655957e-004
2.994909e+003, -7.853197e-004
2.996837e+003, -3.327941e-004
2.998766e+003, 4.131419e-004
3.000694e+003, 5.335565e-004
3.002623e+003, 1.383336e-004
3.004551e+003, 4.859772e-004
3.006479e+003, 3.942471e-004
3.008408e+003, 2.610346e-005
3.010336e+003, 2.787907e-004
3.012265e+003, -2.892199e-005
3.014193e+003, -3.094491e-004
3.016122e+003, 2.455948e-004
3.018050e+003, 1.822274e-004
3.019979e+003, -2.951148e-004
3.021907e+003, -2.524251e-004
3.023836e+003, 9.117387e-004
3.025764e+003, 1.436365e-003
3.027693e+003, 8.300199e-004
3.029621e+003, -2.605210e-004
3.031550e+003, -8.024870e-004
3.033478e+003, -8.570076e-004
3.035406e+003, -1.302244e-003
3.037335e+003, -5.765883e-004
3.039263e+003, 1.861055e-004
3.041192e+003, 1.904790e-004
3.043120e+003, -7.580244e-005
3.045049e+003, -6.569661e-004
3.046977e+003, -9.077938e-004
3.048906e+003, -7.144557e-004
3.050834e+003, -5.903513e-004
3.052763e+003, -5.063998e-004
3.054691e+003, -3.918657e-004
3.056620e+003, -1.466079e-003
3.058548e+003, -1.999181e-003
3.060477e+003, -1.002461e-003
3.062405e+003, 3.428683e-004
3.064333e+003, 4.846393e-004
3.066262e+003, -5.265340e-005
3.068190e+003, 2.817404e-004
3.070119e+003, 5.890350e-004
3.072047e+003, 4.026332e-004
3.073976e+003, 4.829815e-005
3.075904e+003, -2.246252e-006
3.077833e+003, -4.773772e-004
3.079761e+003, -1.983280e-004
3.081690e+003, 4.934990e-005
3.083618e+003, 3.883113e-004
3.085547e+003, -6.859009e-005
3.087475e+003, -9.590260e-004
3.089404e+003, -4.406628e-004
3.091332e+003, -3.878371e-004
3.093260e+003, -4.071876e-004
3.095189e+003, 4.640315e-005
3.097117e+003, 9.494583e-005
3.099046e+003, -1.644745e-004
3.100974e+003, -2.999500e-004
3.102903e+003, 5.186549e-004
3.104831e+003, 8.500380e-004
3.106760e+003, -1.019820e-004
3.108688e+003, -3.567156e-004
3.110617e+003, -1.088869e-003
3.112545e+003, -1.145134e-003
3.114474e+003, -1.367227e-005
3.116402e+003, 9.269456e-004
3.118331e+003, 1.505324e-004
3.120259e+003, -6.864083e-004
3.122188e+003, -6.644035e-004
3.124116e+003, 2.089872e-004
3.126044e+003, 5.114739e-004
3.127973e+003, 2.017616e-004
3.129901e+003, 2.745325e-004
3.131830e+003, -3.911922e-004
3.133758e+003, -4.083458e-004
3.135687e+003, -4.354175e-005
3.137615e+003, 1.649177e-004
3.139544e+003, 1.763325e-004
3.141472e+003, 8.071407e-004
3.143401e+003, 6.668099e-004
3.145329e+003, 1.304301e-003
3.147258e+003, 8.945402e-004
3.149186e+003, -1.126881e-004
3.151115e+003, -1.819966e-004
3.153043e+003, 6.864009e-004
3.154971e+003, 1.296358e-003
3.156900e+003, 1.055906e-003
3.158828e+003, 5.703257e-004
3.160757e+003, -2.762364e-004
3.162685e+003, 2.782086e-004
3.164614e+003, 8.880591e-004
3.166542e+003, 5.749697e-004
3.168471e+003, 1.291846e-003
3.170399e+003, 1.967159e-003
3.172328e+003, 1.251151e-003
3.174256e+003, 2.866610e-004
3.176185e+003, -1.412510e-004
3.178113e+003, 4.235520e-004
3.180042e+003, 6.580414e-004
3.181970e+003, 3.980433e-004
3.183898e+003, 1.675478e-003
3.185827e+003, 1.818830e-003
3.187755e+003, 4.492242e-004
3.189684e+003, 6.631397e-004
3.191612e+003, 5.066106e-004
3.193541e+003, 2.504639e-004
3.195469e+003, 6.440970e-004
3.197398e+003, -2.474067e-004
3.199326e+003, 4.853457e-004
3.201255e+003, 1.628240e-003
3.203183e+003, 9.214225e-004
3.205112e+003, 5.126790e-004
3.207040e+003, -9.271747e-005
3.208969e+003, -6.486084e-005
3.210897e+003, 2.343407e-004
3.212825e+003, 2.511272e-004
3.214754e+003, 1.537333e-004
3.216682e+003, 7.608008e-004
3.218611e+003, 1.652974e-003
3.220539e+003, 2.207613e-003
3.222468e+003, 1.001819e-003
3.224396e+003, 1.052037e-003
3.226325e+003, 1.300875e-003
3.228253e+003, 1.049019e-003
3.230182e+003, 3.289595e-004
3.232110e+003, -4.516323e-004
3.234039e+003, 7.691415e-005
3.235967e+003, 4.262897e-004
3.237896e+003, 5.261691e-004
3.239824e+003, 5.185197e-004
3.241752e+003, -1.180533e-004
3.243681e+003, -7.279210e-004
3.245609e+003, -1.750820e-003
3.247538e+003, -6.306609e-004
3.249466e+003, 6.173791e-004
3.251395e+003, 1.033708e-005
3.253323e+003, -3.739925e-004
3.255252e+003, 2.801826e-004
3.257180e+003, 1.531602e-003
3.259109e+003, 2.452280e-003
3.261037e+003, 2.012254e-003
3.262966e+003, 1.388454e-003
3.264894e+003, 1.257168e-003
3.266823e+003, 1.267845e-003
3.268751e+003, 1.208950e-003
3.270679e+003, 6.446787e-004
3.272608e+003, 3.145465e-004
3.274536e+003, 5.074752e-004
3.276465e+003, 8.817097e-004
3.278393e+003, 1.204202e-003
3.280322e+003, 7.904626e-004
3.282250e+003, 2.415966e-004
3.284179e+003, 4.110706e-004
3.286107e+003, 1.056077e-003
3.288036e+003, 5.117742e-004
3.289964e+003, -6.577728e-004
3.291893e+003, 1.100593e-004
3.293821e+003, 1.621890e-003
3.295750e+003, 2.928095e-003
3.297678e+003, 2.753400e-003
3.299606e+003, 9.501311e-004
3.301535e+003, 6.745352e-004
3.303463e+003, 7.592874e-004
3.305392e+003, 5.154497e-004
3.307320e+003, 9.570490e-004
3.309249e+003, 7.364491e-004
3.311177e+003, -5.610827e-005
3.313106e+003, 1.032974e-003
3.315034e+003, 4.121223e-004
3.316963e+003, 3.134563e-004
3.318891e+003, 9.793683e-004
3.320820e+003, 5.099491e-004
3.322748e+003, 9.295805e-004
3.324677e+003, 9.090300e-004
3.326605e+003, 9.169981e-004
3.328533e+003, 2.228225e-003
3.330462e+003, 1.588113e-003
3.332390e+003, 1.175573e-003
3.334319e+003, 1.382879e-003
3.336247e+003, 6.163478e-004
3.338176e+003, 1.080114e-003
3.340104e+003, 2.096697e-003
3.342033e+003, 1.951446e-003
3.343961e+003, 7.176624e-004
3.345890e+003, -7.353057e-004
3.347818e+003, 3.413867e-004
3.349747e+003, 1.710333e-003
3.351675e+003, 2.620942e-003
3.353604e+003, 1.859900e-003
3.355532e+003, 5.641062e-004
3.357460e+003, 1.174389e-003
3.359389e+003, 7.046157e-004
3.361317e+003, -2.076437e-004
3.363246e+003, 8.541102e-004
3.365174e+003, 5.166839e-004
3.367103e+003, -6.114511e-004
3.369031e+003, -7.055403e-005
3.370960e+003, 1.226538e-003
3.372888e+003, 1.447589e-003
3.374817e+003, 1.383908e-003
3.376745e+003, 9.220047e-004
3.378674e+003, 1.428927e-003
3.380602e+003, 1.936484e-003
3.382531e+003, 1.065915e-003
3.384459e+003, 8.136469e-004
3.386387e+003, 1.062589e-003
3.388316e+003, -1.095954e-004
3.390244e+003, 3.381768e-004
3.392173e+003, 1.390088e-003
3.394101e+003, 1.429742e-003
3.396030e+003, 3.569992e-004
3.397958e+003, 5.596790e-004
3.399887e+003, 1.753330e-004
3.401815e+003, 7.691702e-004
3.403744e+003, 1.249921e-003
3.405672e+003, 1.091206e-003
3.407601e+003, 1.556347e-003
3.409529e+003, 1.126581e-003
3.411458e+003, -5.493036e-004
3.413386e+003, -2.364385e-004
3.415314e+003, 5.789063e-004
3.417243e+003, 2.093291e-004
3.419171e+003, 8.561399e-004
3.421100e+003, 1.702949e-003
3.423028e+003, 1.765773e-003
3.424957e+003, 5.954207e-005
3.426885e+003, 2.338261e-004
3.428814e+003, 2.019423e-003
3.430742e+003, 1.828332e-003
3.432671e+003, 1.376819e-003
3.434599e+003, 2.057323e-003
3.436528e+003, 1.805204e-003
3.438456e+003, 4.433327e-004
3.440385e+003, 2.053531e-004
3.442313e+003, -1.975128e-004
3.444241e+003, 1.140620e-004
3.446170e+003, 1.469319e-003
3.448098e+003, 1.999378e-003
3.450027e+003, 1.533420e-003
3.451955e+003, 1.652661e-003
3.453884e+003, 1.715276e-003
3.455812e+003, 1.669973e-003
3.457741e+003, 7.508901e-004
3.459669e+003, -6.154218e-004
3.461598e+003, -5.869265e-004
3.463526e+003, -4.501129e-004
3.465455e+003, -2.108674e-004
3.467383e+003, 5.952863e-004
3.469312e+003, 2.440545e-004
3.471240e+003, -1.447980e-003
3.473168e+003, -4.711291e-004
3.475097e+003, 2.453856e-003
3.477025e+003, 3.417406e-003
3.478954e+003, 1.353779e-003
3.480882e+003, -1.101546e-004
3.482811e+003, 1.528254e-003
3.484739e+003, 1.720427e-003
3.486668e+003, 1.028878e-003
3.488596e+003, 8.130223e-004
3.490525e+003, -8.023938e-004
3.492453e+003, -2.387967e-003
3.494382e+003, -1.629612e-003
3.496310e+003, 5.241679e-005
3.498239e+003, 2.002967e-004
3.500167e+003, -3.500069e-004
3.502095e+003, -2.237686e-003
3.504024e+003, -3.089472e-003
3.505952e+003, -1.851106e-003
3.507881e+003, -1.921095e-003
3.509809e+003, -2.333802e-003
3.511738e+003, -8.916726e-004
3.513666e+003, -1.264706e-003
3.515595e+003, -1.576685e-003
3.517523e+003, -1.782625e-003
3.519452e+003, -1.587638e-003
3.521380e+003, -1.568190e-003
3.523309e+003, -1.176859e-003
3.525237e+003, -7.254746e-004
3.527166e+003, -8.780665e-004
3.529094e+003, 1.101359e-004
3.531022e+003, 8.914263e-004
3.532951e+003, -1.391234e-003
3.534879e+003, -2.497907e-003
3.536808e+003, -1.504203e-003
3.538736e+003, -1.884366e-003
3.540665e+003, -3.637637e-003
3.542593e+003, -4.886401e-003
3.544522e+003, -4.001299e-003
3.546450e+003, -3.018833e-003
3.548379e+003, -2.284309e-003
3.550307e+003, -1.478307e-003
3.552236e+003, -2.086329e-003
3.554164e+003, -1.704869e-003
3.556093e+003, -1.807352e-003
3.558021e+003, -1.948595e-003
3.559949e+003, -1.382526e-003
3.561878e+003, -1.862889e-004
3.563806e+003, -9.058237e-004
3.565735e+003, -1.487142e-003
3.567663e+003, 7.434465e-004
3.569592e+003, 7.360075e-004
3.571520e+003, -3.836293e-004
3.573449e+003, -6.584605e-004
3.575377e+003, -7.135394e-004
3.577306e+003, -6.857339e-004
3.579234e+003, -4.287951e-004
3.581163e+003, -1.207991e-003
3.583091e+003, -2.923882e-003
3.585020e+003, -3.475939e-003
3.586948e+003, -2.742865e-003
3.588876e+003, -2.126322e-003
3.590805e+003, -1.130547e-003
3.592733e+003, -4.193854e-004
3.594662e+003, -2.072748e-005
3.596590e+003, 7.896936e-004
3.598519e+003, 8.800413e-004
3.600447e+003, 9.439111e-004
3.602376e+003, 1.489809e-004
3.604304e+003, -3.228021e-003
3.606233e+003, -6.107581e-003
3.608161e+003, -5.061434e-003
3.610090e+003, -1.706552e-003
3.612018e+003, -2.362090e-003
3.613947e+003, -2.776903e-003
3.615875e+003, -2.702007e-003
3.617803e+003, -1.880044e-003
3.619732e+003, -1.199498e-003
3.621660e+003, -9.448480e-004
3.623589e+003, -9.465124e-004
3.625517e+003, -2.246239e-003
3.627446e+003, -5.135756e-003
3.629374e+003, -4.074471e-003
3.631303e+003, -4.183435e-003
3.633231e+003, -3.239229e-003
3.635160e+003, -2.293253e-003
3.637088e+003, -3.023514e-003
3.639017e+003, -3.016047e-003
3.640945e+003, -2.787972e-003
3.642874e+003, -3.811431e-003
3.644802e+003, -4.181914e-003
3.646730e+003, -5.026832e-003
3.648659e+003, -5.608186e-003
3.650587e+003, -3.901597e-003
3.652516e+003, -3.064123e-003
3.654444e+003, -5.721680e-003
3.656373e+003, -4.737881e-003
3.658301e+003, -2.661665e-003
3.660230e+003, -1.648469e-003
3.662158e+003, -2.772814e-003
3.664087e+003, -3.670843e-003
3.666015e+003, -4.978276e-003
3.667944e+003, -6.126361e-003
3.669872e+003, -4.819479e-003
3.671801e+003, -3.300726e-003
3.673729e+003, -6.298709e-003
3.675657e+003, -3.383039e-003
3.677586e+003, -3.558618e-003
3.679514e+003, -4.148768e-003
3.681443e+003, -2.326380e-003
3.683371e+003, -3.336179e-003
3.685300e+003, -3.898923e-003
3.687228e+003, -4.148525e-003
3.689157e+003, -1.412436e-003
3.691085e+003, -3.848135e-003
3.693014e+003, -4.177104e-003
3.694942e+003, -3.346170e-003
3.696871e+003, -1.749848e-003
3.698799e+003, -8.925740e-004
3.700728e+003, -2.671951e-003
3.702656e+003, -3.816298e-003
3.704584e+003, -4.781482e-003
3.706513e+003, -3.868971e-003
3.708441e+003, -4.325110e-003
3.710370e+003, -4.834897e-003
3.712298e+003, -3.469986e-003
3.714227e+003, -3.677962e-003
3.716155e+003, -3.123719e-003
3.718084e+003, -2.824721e-003
3.720012e+003, -1.373296e-003
3.721941e+003, -1.224715e-004
3.723869e+003, -1.772423e-003
3.725798e+003, -4.323104e-003
3.727726e+003, -2.652400e-003
3.729655e+003, -3.220133e-003
3.731583e+003, -4.985497e-003
3.733511e+003, -4.566206e-003
3.735440e+003, -5.019952e-003
3.737368e+003, -4.171709e-003
3.739297e+003, -3.226113e-003
3.741225e+003, -3.407391e-003
3.743154e+003, -7.775275e-003
3.745082e+003, -3.079887e-003
3.747011e+003, -5.968428e-003
3.748939e+003, -6.265244e-003
3.750868e+003, -6.331876e-003
3.752796e+003, -3.202913e-003
3.754725e+003, -2.383351e-003
3.756653e+003, -8.522116e-004
3.758582e+003, -9.983587e-004
3.760510e+003, -1.835646e-003
3.762438e+003, -2.662787e-003
3.764367e+003, -2.261383e-003
3.766295e+003, -1.871293e-003
3.768224e+003, -4.640918e-003
3.770152e+003, -4.566953e-003
3.772081e+003, -6.398825e-003
3.774009e+003, -2.847285e-003
3.775938e+003, 1.495315e-004
3.777866e+003, -7.496921e-004
3.779795e+003, -1.883374e-003
3.781723e+003, -4.190390e-003
3.783652e+003, -4.701250e-003
3.785580e+003, -1.691251e-003
3.787509e+003, -1.420198e-003
3.789437e+003, -3.685742e-003
3.791365e+003, -4.240184e-003
3.793294e+003, -2.726001e-003
3.795222e+003, -3.192477e-003
3.797151e+003, -2.805221e-003
3.799079e+003, -5.082066e-003
3.801008e+003, -5.885332e-003
3.802936e+003, -3.142527e-003
3.804865e+003, -3.232001e-003
3.806793e+003, -3.002892e-003
3.808722e+003, -2.175288e-003
3.810650e+003, -5.058735e-003
3.812579e+003, -7.969188e-003
3.814507e+003, -7.158254e-003
3.816436e+003, -2.004687e-003
3.818364e+003, -3.682896e-003
3.820292e+003, -4.242969e-003
3.822221e+003, -2.478841e-003
3.824149e+003, -2.813035e-003
3.826078e+003, -2.145527e-003
3.828006e+003, -3.211159e-003
3.829935e+003, -4.216260e-003
3.831863e+003, -2.509639e-003
3.833792e+003, -2.761975e-003
3.835720e+003, -3.549370e-003
3.837649e+003, -5.697915e-003
3.839577e+003, -3.467763e-003
3.841506e+003, -2.613776e-003
3.843434e+003, -4.862220e-003
3.845363e+003, -5.202753e-003
3.847291e+003, -4.243667e-003
3.849219e+003, -2.640330e-003
3.851148e+003, -6.047772e-003
3.853076e+003, -8.855459e-003
3.855005e+003, -3.260663e-003
3.856933e+003, -5.267805e-003
3.858862e+003, -4.554065e-003
3.860790e+003, -4.542101e-003
3.862719e+003, -3.718923e-003
3.864647e+003, -2.118869e-003
3.866576e+003, -1.931564e-003
3.868504e+003, -4.585064e-003
3.870433e+003, -1.645960e-003
3.872361e+003, -3.351357e-003
3.874290e+003, -4.313506e-003
3.876218e+003, -5.384822e-003
3.878146e+003, -6.437145e-003
3.880075e+003, -7.131974e-003
3.882003e+003, -4.849677e-003
3.883932e+003, -4.804502e-003
3.885860e+003, -4.337546e-003
3.887789e+003, -3.234037e-003
3.889717e+003, -2.534380e-003
3.891646e+003, -2.068388e-003
3.893574e+003, -4.132244e-003
3.895503e+003, -4.403642e-003
3.897431e+003, -4.209201e-003
3.899360e+003, -3.629423e-003
3.901288e+003, -4.174788e-003
3.903217e+003, -3.321257e-003
3.905145e+003, -1.941395e-003
3.907073e+003, -2.193451e-003
3.909002e+003, -3.464705e-003
3.910930e+003, -4.118898e-003
3.912859e+003, -3.807797e-003
3.914787e+003, -3.744010e-003
3.916716e+003, -2.768331e-003
3.918644e+003, -2.688648e-003
3.920573e+003, -3.425892e-003
3.922501e+003, -4.215904e-003
3.924430e+003, -3.790385e-003
3.926358e+003, -3.656307e-003
3.928287e+003, -3.299845e-003
3.930215e+003, -1.612290e-003
3.932144e+003, -2.642239e-003
3.934072e+003, -4.719145e-003
3.936000e+003, -4.231455e-003
3.937929e+003, -3.765942e-003
3.939857e+003, -3.716788e-003
3.941786e+003, -5.032671e-003
3.943714e+003, -4.708908e-003
3.945643e+003, -3.287861e-003
3.947571e+003, -4.436172e-003
3.949500e+003, -3.819035e-003
3.951428e+003, -3.537388e-003
3.953357e+003, -3.087244e-003
3.955285e+003, -2.705040e-003
3.957214e+003, -2.250973e-003
3.959142e+003, -3.819903e-003
3.961071e+003, -3.535888e-003
3.962999e+003, -1.479372e-003
3.964927e+003, -2.737147e-003
3.966856e+003, -2.520660e-003
3.968784e+003, 4.258403e-004
3.970713e+003, 2.324189e-004
3.972641e+003, -9.698723e-004
3.974570e+003, -3.514811e-003
3.976498e+003, -5.600362e-003
3.978427e+003, -3.490378e-003
3.980355e+003, -9.264142e-004
3.982284e+003, -1.773455e-003
3.984212e+003, -3.185075e-003
3.986141e+003, -2.036924e-003
3.988069e+003, -2.647446e-003
3.989998e+003, -4.444540e-003
3.991926e+003, -3.415647e-003
3.993854e+003, -1.359612e-003
3.995783e+003, -7.916827e-004
3.997711e+003, -3.596828e-003
3.999640e+003, -3.606785e-003
##END=



