##NAMES=Aragonite
##RRUFFID=R040078
##IDEAL CHEMISTRY=CaCO_3_
##LOCALITY=Molina, Aragon, Spain
##OWNER=RRUFF
##SOURCE=University of Arizona Mineral Museum
##DESCRIPTION=Orange pseudohexagonal prisms
##STATUS=The identification of this mineral has been confirmed by X-ray diffraction and chemical analysis
##URL=rruff.info/R040078
##MEASURED CHEMISTRY=Ca_1.00_CO_3_
3.741225e+002, 2.580998e-002
3.760510e+002, 2.050852e-002
3.779795e+002, 1.703076e-002
3.799079e+002, 1.998926e-002
3.818364e+002, 2.241132e-002
3.837649e+002, 2.287578e-002
3.856933e+002, 2.297404e-002
3.876218e+002, 2.127694e-002
3.895503e+002, 1.957951e-002
3.914787e+002, 2.135535e-002
3.934072e+002, 2.450408e-002
3.953357e+002, 2.269993e-002
3.972641e+002, 2.155261e-002
3.991926e+002, 1.935312e-002
4.011211e+002, 2.018662e-002
4.030495e+002, 2.028162e-002
4.049780e+002, 1.832413e-002
4.069065e+002, 1.707371e-002
4.088349e+002, 1.817270e-002
4.107634e+002, 1.791209e-002
4.126919e+002, 1.771641e-002
4.146203e+002, 1.654960e-002
4.165488e+002, 1.577241e-002
4.184773e+002, 1.689025e-002
4.204057e+002, 1.726703e-002
4.223342e+002, 1.720596e-002
4.242627e+002, 1.663290e-002
4.261911e+002, 1.646938e-002
4.281196e+002, 1.715562e-002
4.300481e+002, 1.733965e-002
4.319765e+002, 1.765061e-002
4.339050e+002, 1.791633e-002
4.358335e+002, 1.754799e-002
4.377619e+002, 1.785479e-002
4.396904e+002, 1.785919e-002
4.416189e+002, 1.780914e-002
4.435473e+002, 1.846176e-002
4.454758e+002, 1.909788e-002
4.474043e+002, 1.932641e-002
4.493327e+002, 1.947574e-002
4.512612e+002, 1.914101e-002
4.531897e+002, 1.877572e-002
4.551181e+002, 1.933798e-002
4.570466e+002, 1.970511e-002
4.589751e+002, 1.967870e-002
4.609035e+002, 1.991352e-002
4.628320e+002, 1.982816e-002
4.647605e+002, 1.987233e-002
4.666889e+002, 2.040646e-002
4.686174e+002, 1.987983e-002
4.705459e+002, 1.922032e-002
4.724743e+002, 1.928425e-002
4.744028e+002, 1.932364e-002
4.763313e+002, 1.936026e-002
4.782597e+002, 1.909221e-002
4.801882e+002, 1.873210e-002
4.821167e+002, 1.787196e-002
4.840451e+002, 1.804632e-002
4.859736e+002, 1.809106e-002
4.879021e+002, 1.760106e-002
4.898305e+002, 1.734757e-002
4.917590e+002, 1.755166e-002
4.936875e+002, 1.753605e-002
4.956159e+002, 1.733275e-002
4.975444e+002, 1.717676e-002
4.994729e+002, 1.700403e-002
5.014013e+002, 1.676189e-002
5.033298e+002, 1.662942e-002
5.052583e+002, 1.639188e-002
5.071867e+002, 1.617041e-002
5.091152e+002, 1.609604e-002
5.110437e+002, 1.626800e-002
5.129721e+002, 1.644731e-002
5.149006e+002, 1.676069e-002
5.168290e+002, 1.667351e-002
5.187575e+002, 1.618317e-002
5.206860e+002, 1.624205e-002
5.226144e+002, 1.682353e-002
5.245429e+002, 1.666694e-002
5.264714e+002, 1.648796e-002
5.283998e+002, 1.642397e-002
5.303283e+002, 1.628729e-002
5.322568e+002, 1.602702e-002
5.341852e+002, 1.641505e-002
5.361137e+002, 1.667457e-002
5.380422e+002, 1.633351e-002
5.399706e+002, 1.619039e-002
5.418991e+002, 1.629351e-002
5.438276e+002, 1.627265e-002
5.457560e+002, 1.639749e-002
5.476845e+002, 1.623505e-002
5.496130e+002, 1.581088e-002
5.515414e+002, 1.559217e-002
5.534699e+002, 1.571180e-002
5.553984e+002, 1.562502e-002
5.573268e+002, 1.552582e-002
5.592553e+002, 1.557832e-002
5.611838e+002, 1.558791e-002
5.631122e+002, 1.543876e-002
5.650407e+002, 1.531409e-002
5.669692e+002, 1.518618e-002
5.688976e+002, 1.516216e-002
5.708261e+002, 1.526060e-002
5.727546e+002, 1.514831e-002
5.746830e+002, 1.494164e-002
5.766115e+002, 1.515462e-002
5.785400e+002, 1.532045e-002
5.804684e+002, 1.521602e-002
5.823969e+002, 1.500677e-002
5.843254e+002, 1.480170e-002
5.862538e+002, 1.440955e-002
5.881823e+002, 1.442657e-002
5.901108e+002, 1.467159e-002
5.920392e+002, 1.485464e-002
5.939677e+002, 1.473727e-002
5.958962e+002, 1.432206e-002
5.978246e+002, 1.395001e-002
5.997531e+002, 1.387856e-002
6.016816e+002, 1.373512e-002
6.036100e+002, 1.330972e-002
6.055385e+002, 1.303926e-002
6.074670e+002, 1.308893e-002
6.093954e+002, 1.318848e-002
6.113239e+002, 1.316737e-002
6.132524e+002, 1.311982e-002
6.151808e+002, 1.302041e-002
6.171093e+002, 1.308508e-002
6.190378e+002, 1.325966e-002
6.209662e+002, 1.308300e-002
6.228947e+002, 1.311967e-002
6.248232e+002, 1.336362e-002
6.267516e+002, 1.340831e-002
6.286801e+002, 1.314925e-002
6.306086e+002, 1.314140e-002
6.325370e+002, 1.335046e-002
6.344655e+002, 1.353099e-002
6.363940e+002, 1.352734e-002
6.383224e+002, 1.348547e-002
6.402509e+002, 1.338349e-002
6.421794e+002, 1.341940e-002
6.441078e+002, 1.367098e-002
6.460363e+002, 1.393232e-002
6.479648e+002, 1.387767e-002
6.498932e+002, 1.385628e-002
6.518217e+002, 1.399350e-002
6.537502e+002, 1.410735e-002
6.556786e+002, 1.422647e-002
6.576071e+002, 1.431399e-002
6.595356e+002, 1.437938e-002
6.614641e+002, 1.429615e-002
6.633925e+002, 1.414019e-002
6.653210e+002, 1.450250e-002
6.672495e+002, 1.494286e-002
6.691779e+002, 1.491105e-002
6.711064e+002, 1.492673e-002
6.730349e+002, 1.501786e-002
6.749633e+002, 1.504912e-002
6.768918e+002, 1.527962e-002
6.788203e+002, 1.560130e-002
6.807487e+002, 1.603555e-002
6.826772e+002, 1.634779e-002
6.846057e+002, 1.655641e-002
6.865341e+002, 1.674236e-002
6.884626e+002, 1.723323e-002
6.903911e+002, 1.785639e-002
6.923195e+002, 1.872415e-002
6.942480e+002, 2.051224e-002
6.961765e+002, 2.596145e-002
6.981049e+002, 4.020178e-002
7.000334e+002, 4.878071e-002
7.019619e+002, 3.476660e-002
7.038903e+002, 2.374269e-002
7.058188e+002, 2.314280e-002
7.077473e+002, 2.866580e-002
7.096757e+002, 4.502782e-002
7.116042e+002, 7.052923e-002
7.135327e+002, 6.805217e-002
7.154611e+002, 3.926895e-002
7.173896e+002, 2.222009e-002
7.193181e+002, 1.665778e-002
7.212465e+002, 1.422502e-002
7.231750e+002, 1.316074e-002
7.251035e+002, 1.286162e-002
7.270319e+002, 1.265663e-002
7.289604e+002, 1.260043e-002
7.308889e+002, 1.269909e-002
7.328173e+002, 1.295656e-002
7.347458e+002, 1.311825e-002
7.366743e+002, 1.320719e-002
7.386027e+002, 1.330469e-002
7.405312e+002, 1.341116e-002
7.424597e+002, 1.340566e-002
7.443881e+002, 1.359481e-002
7.463166e+002, 1.379766e-002
7.482451e+002, 1.386892e-002
7.501735e+002, 1.391979e-002
7.521020e+002, 1.396550e-002
7.540305e+002, 1.423417e-002
7.559589e+002, 1.434737e-002
7.578874e+002, 1.425400e-002
7.598159e+002, 1.427807e-002
7.617443e+002, 1.438121e-002
7.636728e+002, 1.455193e-002
7.656013e+002, 1.473406e-002
7.675297e+002, 1.492752e-002
7.694582e+002, 1.497340e-002
7.713867e+002, 1.485259e-002
7.733151e+002, 1.499792e-002
7.752436e+002, 1.529075e-002
7.771721e+002, 1.547442e-002
7.791005e+002, 1.553757e-002
7.810290e+002, 1.567096e-002
7.829575e+002, 1.580880e-002
7.848859e+002, 1.615917e-002
7.868144e+002, 1.651221e-002
7.887429e+002, 1.681741e-002
7.906713e+002, 1.712719e-002
7.925998e+002, 1.733878e-002
7.945283e+002, 1.755806e-002
7.964567e+002, 1.795531e-002
7.983852e+002, 1.826766e-002
8.003137e+002, 1.864589e-002
8.022421e+002, 1.914803e-002
8.041706e+002, 1.972265e-002
8.060991e+002, 2.034253e-002
8.080275e+002, 2.092752e-002
8.099560e+002, 2.145468e-002
8.118845e+002, 2.228417e-002
8.138129e+002, 2.300666e-002
8.157414e+002, 2.377543e-002
8.176699e+002, 2.474266e-002
8.195983e+002, 2.605861e-002
8.215268e+002, 2.745743e-002
8.234553e+002, 2.919063e-002
8.253837e+002, 3.116481e-002
8.273122e+002, 3.382589e-002
8.292407e+002, 3.707625e-002
8.311691e+002, 4.085641e-002
8.330976e+002, 4.536306e-002
8.350261e+002, 5.145625e-002
8.369545e+002, 5.917988e-002
8.388830e+002, 6.957946e-002
8.408115e+002, 8.463670e-002
8.427399e+002, 9.859871e-002
8.446684e+002, 9.985515e-002
8.465969e+002, 1.083271e-001
8.485253e+002, 1.328414e-001
8.504538e+002, 1.609953e-001
8.523823e+002, 1.863249e-001
8.543107e+002, 2.002435e-001
8.562392e+002, 2.004002e-001
8.581677e+002, 1.897996e-001
8.600961e+002, 1.726876e-001
8.620246e+002, 1.515919e-001
8.639531e+002, 1.289472e-001
8.658815e+002, 1.056969e-001
8.678100e+002, 8.339469e-002
8.697385e+002, 6.398550e-002
8.716669e+002, 4.883378e-002
8.735954e+002, 3.783520e-002
8.755239e+002, 3.098007e-002
8.774523e+002, 2.702546e-002
8.793808e+002, 2.454950e-002
8.813093e+002, 2.274469e-002
8.832377e+002, 2.131926e-002
8.851662e+002, 1.999861e-002
8.870947e+002, 1.880051e-002
8.890231e+002, 1.804786e-002
8.909516e+002, 1.770921e-002
8.928801e+002, 1.756282e-002
8.948085e+002, 1.739817e-002
8.967370e+002, 1.714710e-002
8.986655e+002, 1.714745e-002
9.005939e+002, 1.735422e-002
9.025224e+002, 1.753864e-002
9.044509e+002, 1.774028e-002
9.063793e+002, 1.839516e-002
9.083078e+002, 1.906094e-002
9.102363e+002, 1.848820e-002
9.121647e+002, 1.764875e-002
9.140932e+002, 1.761941e-002
9.160217e+002, 1.776158e-002
9.179501e+002, 1.796980e-002
9.198786e+002, 1.796630e-002
9.218071e+002, 1.813341e-002
9.237355e+002, 1.833480e-002
9.256640e+002, 1.845187e-002
9.275925e+002, 1.867332e-002
9.295209e+002, 1.895827e-002
9.314494e+002, 1.923263e-002
9.333779e+002, 1.957234e-002
9.353063e+002, 1.970837e-002
9.372348e+002, 1.990770e-002
9.391633e+002, 2.020346e-002
9.410917e+002, 2.056273e-002
9.430202e+002, 2.083731e-002
9.449487e+002, 2.105710e-002
9.468771e+002, 2.140707e-002
9.488056e+002, 2.179192e-002
9.507341e+002, 2.207012e-002
9.526625e+002, 2.250897e-002
9.545910e+002, 2.289259e-002
9.565195e+002, 2.309032e-002
9.584479e+002, 2.347804e-002
9.603764e+002, 2.391068e-002
9.623049e+002, 2.410094e-002
9.642333e+002, 2.431208e-002
9.661618e+002, 2.466367e-002
9.680903e+002, 2.493265e-002
9.700187e+002, 2.505609e-002
9.719472e+002, 2.528746e-002
9.738757e+002, 2.559792e-002
9.758041e+002, 2.580284e-002
9.777326e+002, 2.606242e-002
9.796611e+002, 2.645186e-002
9.815895e+002, 2.689272e-002
9.835180e+002, 2.718425e-002
9.854465e+002, 2.726278e-002
9.873749e+002, 2.738322e-002
9.893034e+002, 2.768506e-002
9.912319e+002, 2.808677e-002
9.931603e+002, 2.848529e-002
9.950888e+002, 2.880989e-002
9.970173e+002, 2.904674e-002
9.989457e+002, 2.937354e-002
1.000874e+003, 2.968785e-002
1.002803e+003, 2.990677e-002
1.004731e+003, 3.023579e-002
1.006660e+003, 3.055883e-002
1.008588e+003, 3.067515e-002
1.010517e+003, 3.074109e-002
1.012445e+003, 3.085841e-002
1.014373e+003, 3.098202e-002
1.016302e+003, 3.106054e-002
1.018230e+003, 3.102569e-002
1.020159e+003, 3.107920e-002
1.022087e+003, 3.125780e-002
1.024016e+003, 3.135049e-002
1.025944e+003, 3.133061e-002
1.027873e+003, 3.131709e-002
1.029801e+003, 3.127095e-002
1.031730e+003, 3.127460e-002
1.033658e+003, 3.108798e-002
1.035587e+003, 3.097785e-002
1.037515e+003, 3.097860e-002
1.039443e+003, 3.097981e-002
1.041372e+003, 3.107158e-002
1.043300e+003, 3.130819e-002
1.045229e+003, 3.141204e-002
1.047157e+003, 3.142538e-002
1.049086e+003, 3.151652e-002
1.051014e+003, 3.187602e-002
1.052943e+003, 3.203811e-002
1.054871e+003, 3.209855e-002
1.056800e+003, 3.229219e-002
1.058728e+003, 3.249371e-002
1.060657e+003, 3.271179e-002
1.062585e+003, 3.297096e-002
1.064514e+003, 3.299182e-002
1.066442e+003, 3.332494e-002
1.068370e+003, 3.363166e-002
1.070299e+003, 3.409804e-002
1.072227e+003, 3.452355e-002
1.074156e+003, 3.523774e-002
1.076084e+003, 3.632420e-002
1.078013e+003, 3.911904e-002
1.079941e+003, 4.766658e-002
1.081870e+003, 6.310927e-002
1.083798e+003, 6.124138e-002
1.085727e+003, 4.331849e-002
1.087655e+003, 3.437068e-002
1.089584e+003, 3.231582e-002
1.091512e+003, 3.207943e-002
1.093441e+003, 3.200490e-002
1.095369e+003, 3.199647e-002
1.097297e+003, 3.186844e-002
1.099226e+003, 3.206009e-002
1.101154e+003, 3.206698e-002
1.103083e+003, 3.234410e-002
1.105011e+003, 3.251034e-002
1.106940e+003, 3.260840e-002
1.108868e+003, 3.257852e-002
1.110797e+003, 3.284717e-002
1.112725e+003, 3.295089e-002
1.114654e+003, 3.304105e-002
1.116582e+003, 3.320450e-002
1.118511e+003, 3.351484e-002
1.120439e+003, 3.373188e-002
1.122368e+003, 3.410316e-002
1.124296e+003, 3.432755e-002
1.126224e+003, 3.458316e-002
1.128153e+003, 3.482154e-002
1.130081e+003, 3.510983e-002
1.132010e+003, 3.529933e-002
1.133938e+003, 3.553095e-002
1.135867e+003, 3.577158e-002
1.137795e+003, 3.625568e-002
1.139724e+003, 3.685755e-002
1.141652e+003, 3.734032e-002
1.143581e+003, 3.764483e-002
1.145509e+003, 3.789042e-002
1.147438e+003, 3.811995e-002
1.149366e+003, 3.854506e-002
1.151295e+003, 3.909380e-002
1.153223e+003, 3.960386e-002
1.155151e+003, 4.000752e-002
1.157080e+003, 4.050075e-002
1.159008e+003, 4.080937e-002
1.160937e+003, 4.122138e-002
1.162865e+003, 4.163677e-002
1.164794e+003, 4.219117e-002
1.166722e+003, 4.286060e-002
1.168651e+003, 4.337048e-002
1.170579e+003, 4.370818e-002
1.172508e+003, 4.413794e-002
1.174436e+003, 4.450331e-002
1.176365e+003, 4.490577e-002
1.178293e+003, 4.531029e-002
1.180222e+003, 4.562180e-002
1.182150e+003, 4.593677e-002
1.184078e+003, 4.629242e-002
1.186007e+003, 4.663969e-002
1.187935e+003, 4.695711e-002
1.189864e+003, 4.727361e-002
1.191792e+003, 4.762954e-002
1.193721e+003, 4.798700e-002
1.195649e+003, 4.848341e-002
1.197578e+003, 4.902089e-002
1.199506e+003, 4.962615e-002
1.201435e+003, 5.014534e-002
1.203363e+003, 5.070327e-002
1.205292e+003, 5.138532e-002
1.207220e+003, 5.214738e-002
1.209149e+003, 5.262690e-002
1.211077e+003, 5.308775e-002
1.213005e+003, 5.362130e-002
1.214934e+003, 5.429278e-002
1.216862e+003, 5.498793e-002
1.218791e+003, 5.565611e-002
1.220719e+003, 5.626325e-002
1.222648e+003, 5.680614e-002
1.224576e+003, 5.736232e-002
1.226505e+003, 5.818753e-002
1.228433e+003, 5.894633e-002
1.230362e+003, 5.959759e-002
1.232290e+003, 6.031986e-002
1.234219e+003, 6.105120e-002
1.236147e+003, 6.162413e-002
1.238076e+003, 6.231254e-002
1.240004e+003, 6.305028e-002
1.241932e+003, 6.385837e-002
1.243861e+003, 6.455249e-002
1.245789e+003, 6.522080e-002
1.247718e+003, 6.597902e-002
1.249646e+003, 6.665475e-002
1.251575e+003, 6.724562e-002
1.253503e+003, 6.794801e-002
1.255432e+003, 6.869013e-002
1.257360e+003, 6.956303e-002
1.259289e+003, 7.053882e-002
1.261217e+003, 7.149022e-002
1.263146e+003, 7.242335e-002
1.265074e+003, 7.344742e-002
1.267003e+003, 7.439213e-002
1.268931e+003, 7.534146e-002
1.270859e+003, 7.644368e-002
1.272788e+003, 7.755481e-002
1.274716e+003, 7.855328e-002
1.276645e+003, 7.964279e-002
1.278573e+003, 8.077735e-002
1.280502e+003, 8.197347e-002
1.282430e+003, 8.296967e-002
1.284359e+003, 8.384907e-002
1.286287e+003, 8.473146e-002
1.288216e+003, 8.570285e-002
1.290144e+003, 8.675157e-002
1.292073e+003, 8.809327e-002
1.294001e+003, 8.953676e-002
1.295930e+003, 9.087252e-002
1.297858e+003, 9.218273e-002
1.299786e+003, 9.372841e-002
1.301715e+003, 9.523360e-002
1.303643e+003, 9.675571e-002
1.305572e+003, 9.825049e-002
1.307500e+003, 9.979780e-002
1.309429e+003, 1.013269e-001
1.311357e+003, 1.028834e-001
1.313286e+003, 1.046133e-001
1.315214e+003, 1.063961e-001
1.317143e+003, 1.081576e-001
1.319071e+003, 1.101033e-001
1.321000e+003, 1.120625e-001
1.322928e+003, 1.140169e-001
1.324857e+003, 1.160825e-001
1.326785e+003, 1.182764e-001
1.328714e+003, 1.204801e-001
1.330642e+003, 1.227029e-001
1.332570e+003, 1.251547e-001
1.334499e+003, 1.278172e-001
1.336427e+003, 1.305144e-001
1.338356e+003, 1.332653e-001
1.340284e+003, 1.359790e-001
1.342213e+003, 1.387916e-001
1.344141e+003, 1.417504e-001
1.346070e+003, 1.447889e-001
1.347998e+003, 1.477959e-001
1.349927e+003, 1.510068e-001
1.351855e+003, 1.542140e-001
1.353784e+003, 1.574824e-001
1.355712e+003, 1.608313e-001
1.357641e+003, 1.642483e-001
1.359569e+003, 1.679067e-001
1.361497e+003, 1.717550e-001
1.363426e+003, 1.755988e-001
1.365354e+003, 1.794427e-001
1.367283e+003, 1.834482e-001
1.369211e+003, 1.876021e-001
1.371140e+003, 1.918328e-001
1.373068e+003, 1.962164e-001
1.374997e+003, 2.006797e-001
1.376925e+003, 2.052410e-001
1.378854e+003, 2.099121e-001
1.380782e+003, 2.147565e-001
1.382711e+003, 2.196261e-001
1.384639e+003, 2.245996e-001
1.386568e+003, 2.296940e-001
1.388496e+003, 2.347574e-001
1.390424e+003, 2.394462e-001
1.392353e+003, 2.440811e-001
1.394281e+003, 2.490426e-001
1.396210e+003, 2.542327e-001
1.398138e+003, 2.595317e-001
1.400067e+003, 2.648345e-001
1.401995e+003, 2.702112e-001
1.403924e+003, 2.756440e-001
1.405852e+003, 2.809764e-001
1.407781e+003, 2.862414e-001
1.409709e+003, 2.913139e-001
1.411638e+003, 2.959776e-001
1.413566e+003, 3.003908e-001
1.415495e+003, 3.048205e-001
1.417423e+003, 3.094677e-001
1.419351e+003, 3.141684e-001
1.421280e+003, 3.187057e-001
1.423208e+003, 3.236079e-001
1.425137e+003, 3.288192e-001
1.427065e+003, 3.342217e-001
1.428994e+003, 3.402760e-001
1.430922e+003, 3.468060e-001
1.432851e+003, 3.532058e-001
1.434779e+003, 3.596816e-001
1.436708e+003, 3.659953e-001
1.438636e+003, 3.714494e-001
1.440565e+003, 3.761908e-001
1.442493e+003, 3.798506e-001
1.444422e+003, 3.823531e-001
1.446350e+003, 3.836065e-001
1.448278e+003, 3.833909e-001
1.450207e+003, 3.820275e-001
1.452135e+003, 3.800714e-001
1.454064e+003, 3.774458e-001
1.455992e+003, 3.749670e-001
1.457921e+003, 3.729357e-001
1.459849e+003, 3.716366e-001
1.461778e+003, 3.713340e-001
1.463706e+003, 3.717307e-001
1.465635e+003, 3.719406e-001
1.467563e+003, 3.705997e-001
1.469492e+003, 3.674164e-001
1.471420e+003, 3.625238e-001
1.473349e+003, 3.556559e-001
1.475277e+003, 3.473453e-001
1.477205e+003, 3.383881e-001
1.479134e+003, 3.288342e-001
1.481062e+003, 3.190767e-001
1.482991e+003, 3.092870e-001
1.484919e+003, 2.998391e-001
1.486848e+003, 2.906846e-001
1.488776e+003, 2.815280e-001
1.490705e+003, 2.723736e-001
1.492633e+003, 2.634082e-001
1.494562e+003, 2.550378e-001
1.496490e+003, 2.469188e-001
1.498419e+003, 2.387938e-001
1.500347e+003, 2.308867e-001
1.502276e+003, 2.231229e-001
1.504204e+003, 2.160269e-001
1.506132e+003, 2.094066e-001
1.508061e+003, 2.021421e-001
1.509989e+003, 1.948210e-001
1.511918e+003, 1.881328e-001
1.513846e+003, 1.816090e-001
1.515775e+003, 1.752086e-001
1.517703e+003, 1.690148e-001
1.519632e+003, 1.631087e-001
1.521560e+003, 1.571867e-001
1.523489e+003, 1.510617e-001
1.525417e+003, 1.453166e-001
1.527346e+003, 1.396986e-001
1.529274e+003, 1.341487e-001
1.531203e+003, 1.287113e-001
1.533131e+003, 1.235115e-001
1.535059e+003, 1.181808e-001
1.536988e+003, 1.132079e-001
1.538916e+003, 1.088488e-001
1.540845e+003, 1.040639e-001
1.542773e+003, 9.920575e-002
1.544702e+003, 9.457655e-002
1.546630e+003, 8.998166e-002
1.548559e+003, 8.558974e-002
1.550487e+003, 8.151721e-002
1.552416e+003, 7.753290e-002
1.554344e+003, 7.364827e-002
1.556273e+003, 7.001100e-002
1.558201e+003, 6.689630e-002
1.560130e+003, 6.309820e-002
1.562058e+003, 5.884559e-002
1.563986e+003, 5.549826e-002
1.565915e+003, 5.263880e-002
1.567843e+003, 4.979464e-002
1.569772e+003, 4.689615e-002
1.571700e+003, 4.351110e-002
1.573629e+003, 3.997062e-002
1.575557e+003, 3.674135e-002
1.577486e+003, 3.328103e-002
1.579414e+003, 3.002615e-002
1.581343e+003, 2.734463e-002
1.583271e+003, 2.495268e-002
1.585200e+003, 2.312973e-002
1.587128e+003, 2.164594e-002
1.589057e+003, 2.049284e-002
1.590985e+003, 1.960963e-002
1.592913e+003, 1.876001e-002
1.594842e+003, 1.813446e-002
1.596770e+003, 1.770580e-002
1.598699e+003, 1.725181e-002
1.600627e+003, 1.678792e-002
1.602556e+003, 1.634288e-002
1.604484e+003, 1.593114e-002
1.606413e+003, 1.558622e-002
1.608341e+003, 1.519487e-002
1.610270e+003, 1.482926e-002
1.612198e+003, 1.447952e-002
1.614127e+003, 1.438601e-002
1.616055e+003, 1.436035e-002
1.617984e+003, 1.364748e-002
1.619912e+003, 1.288897e-002
1.621840e+003, 1.267864e-002
1.623769e+003, 1.241850e-002
1.625697e+003, 1.208762e-002
1.627626e+003, 1.185431e-002
1.629554e+003, 1.156643e-002
1.631483e+003, 1.132657e-002
1.633411e+003, 1.131489e-002
1.635340e+003, 1.139118e-002
1.637268e+003, 1.103057e-002
1.639197e+003, 1.049446e-002
1.641125e+003, 1.022686e-002
1.643054e+003, 1.003081e-002
1.644982e+003, 1.016575e-002
1.646911e+003, 1.019178e-002
1.648839e+003, 9.710510e-003
1.650767e+003, 9.814574e-003
1.652696e+003, 1.034585e-002
1.654624e+003, 9.656226e-003
1.656553e+003, 8.831946e-003
1.658481e+003, 8.520530e-003
1.660410e+003, 8.254752e-003
1.662338e+003, 8.099167e-003
1.664267e+003, 7.769640e-003
1.666195e+003, 7.514959e-003
1.668124e+003, 7.479538e-003
1.670052e+003, 7.330089e-003
1.671981e+003, 7.122460e-003
1.673909e+003, 7.091469e-003
1.675838e+003, 6.853581e-003
1.677766e+003, 6.427083e-003
1.679694e+003, 6.232421e-003
1.681623e+003, 6.206365e-003
1.683551e+003, 6.549089e-003
1.685480e+003, 6.315624e-003
1.687408e+003, 5.593178e-003
1.689337e+003, 5.335707e-003
1.691265e+003, 5.221913e-003
1.693194e+003, 5.229223e-003
1.695122e+003, 5.543138e-003
1.697051e+003, 5.346024e-003
1.698979e+003, 5.216646e-003
1.700908e+003, 5.205199e-003
1.702836e+003, 4.696653e-003
1.704765e+003, 4.490309e-003
1.706693e+003, 4.296459e-003
1.708621e+003, 4.226665e-003
1.710550e+003, 4.095843e-003
1.712478e+003, 4.048029e-003
1.714407e+003, 4.027057e-003
1.716335e+003, 4.347502e-003
1.718264e+003, 4.365444e-003
1.720192e+003, 3.951082e-003
1.722121e+003, 3.860468e-003
1.724049e+003, 3.779641e-003
1.725978e+003, 3.679611e-003
1.727906e+003, 3.765310e-003
1.729835e+003, 3.775042e-003
1.731763e+003, 4.110519e-003
1.733692e+003, 4.627015e-003
1.735620e+003, 4.441876e-003
1.737548e+003, 4.064745e-003
1.739477e+003, 4.094464e-003
1.741405e+003, 4.062108e-003
1.743334e+003, 3.994887e-003
1.745262e+003, 3.825739e-003
1.747191e+003, 3.704182e-003
1.749119e+003, 3.795518e-003
1.751048e+003, 3.823610e-003
1.752976e+003, 3.639523e-003
1.754905e+003, 3.584461e-003
1.756833e+003, 3.649520e-003
1.758762e+003, 3.539061e-003
1.760690e+003, 3.516040e-003
1.762619e+003, 3.544827e-003
1.764547e+003, 3.612028e-003
1.766475e+003, 3.896242e-003
1.768404e+003, 4.287577e-003
1.770332e+003, 4.798525e-003
1.772261e+003, 5.676412e-003
1.774189e+003, 6.828067e-003
1.776118e+003, 8.773745e-003
1.778046e+003, 1.142179e-002
1.779975e+003, 1.373598e-002
1.781903e+003, 1.515463e-002
1.783832e+003, 1.616734e-002
1.785760e+003, 1.680809e-002
1.787689e+003, 1.642714e-002
1.789617e+003, 1.467601e-002
1.791546e+003, 1.239680e-002
1.793474e+003, 1.033134e-002
1.795402e+003, 8.723051e-003
1.797331e+003, 7.487705e-003
1.799259e+003, 6.357688e-003
1.801188e+003, 5.286009e-003
1.803116e+003, 4.378648e-003
1.805045e+003, 3.782184e-003
1.806973e+003, 3.403929e-003
1.808902e+003, 3.271167e-003
1.810830e+003, 3.199948e-003
1.812759e+003, 3.284294e-003
1.814687e+003, 3.098703e-003
1.816616e+003, 2.963203e-003
1.818544e+003, 3.217935e-003
1.820473e+003, 3.304509e-003
1.822401e+003, 3.145823e-003
1.824329e+003, 3.044715e-003
1.826258e+003, 3.037971e-003
1.828186e+003, 3.137626e-003
1.830115e+003, 3.217709e-003
1.832043e+003, 3.363733e-003
1.833972e+003, 3.245113e-003
1.835900e+003, 3.084300e-003
1.837829e+003, 3.327331e-003
1.839757e+003, 3.440095e-003
1.841686e+003, 3.400986e-003
1.843614e+003, 3.419087e-003
1.845543e+003, 3.623260e-003
1.847471e+003, 3.715229e-003
1.849400e+003, 3.504160e-003
1.851328e+003, 3.384357e-003
1.853256e+003, 3.474217e-003
1.855185e+003, 3.530063e-003
1.857113e+003, 3.488493e-003
1.859042e+003, 3.654093e-003
1.860970e+003, 3.881894e-003
1.862899e+003, 3.704583e-003
1.864827e+003, 3.639272e-003
1.866756e+003, 3.792290e-003
1.868684e+003, 3.981295e-003
1.870613e+003, 4.053859e-003
1.872541e+003, 4.054609e-003
1.874470e+003, 3.819629e-003
1.876398e+003, 3.712254e-003
1.878327e+003, 3.965253e-003
1.880255e+003, 4.022539e-003
1.882183e+003, 4.076866e-003
1.884112e+003, 4.103191e-003
1.886040e+003, 4.312479e-003
1.887969e+003, 4.439211e-003
1.889897e+003, 4.257280e-003
1.891826e+003, 4.097751e-003
1.893754e+003, 4.141659e-003
1.895683e+003, 4.165825e-003
1.897611e+003, 4.283947e-003
1.899540e+003, 4.180943e-003
1.901468e+003, 4.219699e-003
1.903397e+003, 4.474916e-003
1.905325e+003, 4.524962e-003
1.907254e+003, 4.673667e-003
1.909182e+003, 4.896754e-003
1.911110e+003, 4.758648e-003
1.913039e+003, 4.999171e-003
1.914967e+003, 5.068685e-003
1.916896e+003, 5.489069e-003
1.918824e+003, 5.776426e-003
1.920753e+003, 5.632607e-003
1.922681e+003, 5.085577e-003
1.924610e+003, 4.541459e-003
1.926538e+003, 4.618666e-003
1.928467e+003, 4.687222e-003
1.930395e+003, 4.979473e-003
1.932324e+003, 5.451013e-003
1.934252e+003, 5.824999e-003
1.936181e+003, 5.731199e-003
1.938109e+003, 5.645553e-003
1.940037e+003, 5.720093e-003
1.941966e+003, 5.717229e-003
1.943894e+003, 5.683934e-003
1.945823e+003, 5.665882e-003
1.947751e+003, 6.061738e-003
1.949680e+003, 6.010940e-003
1.951608e+003, 5.609819e-003
1.953537e+003, 5.705351e-003
1.955465e+003, 5.872181e-003
1.957394e+003, 6.000757e-003
1.959322e+003, 6.851931e-003
1.961251e+003, 7.203325e-003
1.963179e+003, 7.260593e-003
1.965108e+003, 7.304501e-003
1.967036e+003, 6.318711e-003
1.968964e+003, 6.043653e-003
1.970893e+003, 6.703150e-003
1.972821e+003, 7.628061e-003
1.974750e+003, 7.582244e-003
1.976678e+003, 8.628874e-003
1.978607e+003, 1.011988e-002
1.980535e+003, 1.072556e-002
1.982464e+003, 9.369687e-003
1.984392e+003, 8.046502e-003
1.986321e+003, 7.763464e-003
1.988249e+003, 7.462284e-003
1.990178e+003, 7.816734e-003
1.992106e+003, 8.431837e-003
1.994035e+003, 8.646514e-003
1.995963e+003, 8.399946e-003
1.997891e+003, 8.076051e-003
1.999820e+003, 7.007984e-003
2.001748e+003, 6.676545e-003
2.003677e+003, 6.579420e-003
2.005605e+003, 6.202836e-003
2.007534e+003, 7.114749e-003
2.009462e+003, 7.243832e-003
2.011391e+003, 7.032138e-003
2.013319e+003, 7.544736e-003
2.015248e+003, 7.427168e-003
2.017176e+003, 7.679604e-003
2.019105e+003, 7.979294e-003
2.021033e+003, 7.447073e-003
2.022962e+003, 7.445120e-003
2.024890e+003, 8.155322e-003
2.026818e+003, 7.622894e-003
2.028747e+003, 6.908385e-003
2.030675e+003, 7.213519e-003
2.032604e+003, 8.117668e-003
2.034532e+003, 8.523261e-003
2.036461e+003, 9.218360e-003
2.038389e+003, 8.910339e-003
2.040318e+003, 8.500469e-003
2.042246e+003, 8.644949e-003
2.044175e+003, 7.655992e-003
2.046103e+003, 6.826193e-003
2.048031e+003, 7.491260e-003
2.049960e+003, 8.747086e-003
2.051888e+003, 8.120790e-003
2.053817e+003, 7.051712e-003
2.055745e+003, 6.799469e-003
2.057674e+003, 6.245842e-003
2.059602e+003, 6.196513e-003
2.061531e+003, 6.499846e-003
2.063459e+003, 6.661031e-003
2.065388e+003, 6.586250e-003
2.067316e+003, 6.803229e-003
2.069245e+003, 6.957843e-003
2.071173e+003, 6.682890e-003
2.073102e+003, 6.636659e-003
2.075030e+003, 6.958726e-003
2.076958e+003, 7.156902e-003
2.078887e+003, 7.396934e-003
2.080815e+003, 7.422843e-003
2.082744e+003, 6.656405e-003
2.084672e+003, 6.905170e-003
2.086601e+003, 7.220025e-003
2.088529e+003, 6.865369e-003
2.090458e+003, 6.742115e-003
2.092386e+003, 6.412856e-003
2.094315e+003, 6.406257e-003
2.096243e+003, 6.869241e-003
2.098172e+003, 6.921372e-003
2.100100e+003, 7.067414e-003
2.102029e+003, 7.558628e-003
2.103957e+003, 7.542718e-003
2.105885e+003, 7.470204e-003
2.107814e+003, 7.362419e-003
2.109742e+003, 7.704930e-003
2.111671e+003, 7.797353e-003
2.113599e+003, 7.638650e-003
2.115528e+003, 7.604696e-003
2.117456e+003, 6.950632e-003
2.119385e+003, 6.443482e-003
2.121313e+003, 6.602600e-003
2.123242e+003, 6.780803e-003
2.125170e+003, 6.591626e-003
2.127099e+003, 6.821805e-003
2.129027e+003, 6.768651e-003
2.130956e+003, 6.088600e-003
2.132884e+003, 5.687008e-003
2.134813e+003, 5.731295e-003
2.136741e+003, 7.306315e-003
2.138669e+003, 8.329527e-003
2.140598e+003, 7.757752e-003
2.142526e+003, 6.887374e-003
2.144455e+003, 5.895033e-003
2.146383e+003, 5.619108e-003
2.148312e+003, 6.374313e-003
2.150240e+003, 6.608897e-003
2.152169e+003, 7.334488e-003
2.154097e+003, 7.418970e-003
2.156026e+003, 7.038080e-003
2.157954e+003, 8.487247e-003
2.159883e+003, 1.094371e-002
2.161811e+003, 1.145939e-002
2.163740e+003, 1.018057e-002
2.165668e+003, 9.625388e-003
2.167596e+003, 9.807467e-003
2.169525e+003, 9.950218e-003
2.171453e+003, 1.010072e-002
2.173382e+003, 9.306447e-003
2.175310e+003, 9.505873e-003
2.177239e+003, 1.080783e-002
2.179167e+003, 1.032659e-002
2.181096e+003, 9.910534e-003
2.183024e+003, 1.013458e-002
2.184953e+003, 9.585816e-003
2.186881e+003, 9.304100e-003
2.188810e+003, 8.502710e-003
2.190738e+003, 9.364272e-003
2.192667e+003, 1.063363e-002
2.194595e+003, 1.066358e-002
2.196523e+003, 1.018423e-002
2.198452e+003, 1.010365e-002
2.200380e+003, 1.063168e-002
2.202309e+003, 1.024424e-002
2.204237e+003, 9.995317e-003
2.206166e+003, 1.005222e-002
2.208094e+003, 1.067065e-002
2.210023e+003, 1.060289e-002
2.211951e+003, 9.731214e-003
2.213880e+003, 9.655003e-003
2.215808e+003, 1.009950e-002
2.217737e+003, 1.070283e-002
2.219665e+003, 1.011232e-002
2.221594e+003, 9.903476e-003
2.223522e+003, 1.045090e-002
2.225450e+003, 1.052087e-002
2.227379e+003, 9.524619e-003
2.229307e+003, 9.562183e-003
2.231236e+003, 9.847272e-003
2.233164e+003, 1.023170e-002
2.235093e+003, 1.010081e-002
2.237021e+003, 9.928516e-003
2.238950e+003, 1.006877e-002
2.240878e+003, 1.026014e-002
2.242807e+003, 1.037133e-002
2.244735e+003, 1.065813e-002
2.246664e+003, 1.087540e-002
2.248592e+003, 1.033024e-002
2.250521e+003, 9.646997e-003
2.252449e+003, 9.625342e-003
2.254377e+003, 9.564786e-003
2.256306e+003, 9.704112e-003
2.258234e+003, 1.000271e-002
2.260163e+003, 1.021524e-002
2.262091e+003, 9.975877e-003
2.264020e+003, 9.415123e-003
2.265948e+003, 9.336504e-003
2.267877e+003, 9.714869e-003
2.269805e+003, 9.722978e-003
2.271734e+003, 9.541820e-003
2.273662e+003, 9.796411e-003
2.275591e+003, 1.029632e-002
2.277519e+003, 1.054886e-002
2.279448e+003, 1.074453e-002
2.281376e+003, 1.047069e-002
2.283304e+003, 1.047190e-002
2.285233e+003, 1.064605e-002
2.287161e+003, 1.024400e-002
2.289090e+003, 9.704787e-003
2.291018e+003, 9.715109e-003
2.292947e+003, 9.600236e-003
2.294875e+003, 9.747130e-003
2.296804e+003, 9.818724e-003
2.298732e+003, 9.871506e-003
2.300661e+003, 9.682102e-003
2.302589e+003, 9.471842e-003
2.304518e+003, 9.509066e-003
2.306446e+003, 9.770808e-003
2.308375e+003, 1.003381e-002
2.310303e+003, 9.943769e-003
2.312231e+003, 9.831369e-003
2.314160e+003, 1.006779e-002
2.316088e+003, 1.038155e-002
2.318017e+003, 1.066750e-002
2.319945e+003, 1.104391e-002
2.321874e+003, 1.158767e-002
2.323802e+003, 1.194769e-002
2.325731e+003, 1.143551e-002
2.327659e+003, 1.079988e-002
2.329588e+003, 1.055967e-002
2.331516e+003, 1.064383e-002
2.333445e+003, 1.078023e-002
2.335373e+003, 1.069913e-002
2.337302e+003, 1.085535e-002
2.339230e+003, 1.070395e-002
2.341158e+003, 1.082026e-002
2.343087e+003, 1.090466e-002
2.345015e+003, 1.027415e-002
2.346944e+003, 9.587180e-003
2.348872e+003, 9.538887e-003
2.350801e+003, 1.004964e-002
2.352729e+003, 1.071601e-002
2.354658e+003, 1.123377e-002
2.356586e+003, 1.161511e-002
2.358515e+003, 1.174286e-002
2.360443e+003, 1.193024e-002
2.362372e+003, 1.192780e-002
2.364300e+003, 1.181026e-002
2.366229e+003, 1.150381e-002
2.368157e+003, 1.078818e-002
2.370085e+003, 1.052409e-002
2.372014e+003, 1.065764e-002
2.373942e+003, 1.005325e-002
2.375871e+003, 9.579479e-003
2.377799e+003, 9.421624e-003
2.379728e+003, 9.446852e-003
2.381656e+003, 9.315467e-003
2.383585e+003, 9.392744e-003
2.385513e+003, 9.566979e-003
2.387442e+003, 9.832627e-003
2.389370e+003, 9.736674e-003
2.391299e+003, 9.541082e-003
2.393227e+003, 9.329280e-003
2.395156e+003, 9.051124e-003
2.397084e+003, 9.202395e-003
2.399012e+003, 9.682172e-003
2.400941e+003, 9.653501e-003
2.402869e+003, 9.358834e-003
2.404798e+003, 9.392958e-003
2.406726e+003, 9.855619e-003
2.408655e+003, 1.019042e-002
2.410583e+003, 9.775871e-003
2.412512e+003, 9.323641e-003
2.414440e+003, 9.492213e-003
2.416369e+003, 9.618485e-003
2.418297e+003, 9.579826e-003
2.420226e+003, 9.769648e-003
2.422154e+003, 9.643053e-003
2.424083e+003, 9.525825e-003
2.426011e+003, 9.787728e-003
2.427939e+003, 1.036738e-002
2.429868e+003, 1.052247e-002
2.431796e+003, 1.059275e-002
2.433725e+003, 1.065361e-002
2.435653e+003, 1.031581e-002
2.437582e+003, 1.002290e-002
2.439510e+003, 1.010525e-002
2.441439e+003, 1.042756e-002
2.443367e+003, 1.070767e-002
2.445296e+003, 1.047479e-002
2.447224e+003, 1.032870e-002
2.449153e+003, 1.066507e-002
2.451081e+003, 1.047464e-002
2.453010e+003, 1.056062e-002
2.454938e+003, 1.075772e-002
2.456866e+003, 1.103124e-002
2.458795e+003, 1.125872e-002
2.460723e+003, 1.123451e-002
2.462652e+003, 1.129262e-002
2.464580e+003, 1.135363e-002
2.466509e+003, 1.135243e-002
2.468437e+003, 1.095585e-002
2.470366e+003, 1.113453e-002
2.472294e+003, 1.165777e-002
2.474223e+003, 1.199427e-002
2.476151e+003, 1.240425e-002
2.478080e+003, 1.242155e-002
2.480008e+003, 1.268928e-002
2.481937e+003, 1.326155e-002
2.483865e+003, 1.307532e-002
2.485793e+003, 1.327090e-002
2.487722e+003, 1.395416e-002
2.489650e+003, 1.465879e-002
2.491579e+003, 1.494499e-002
2.493507e+003, 1.487187e-002
2.495436e+003, 1.494717e-002
2.497364e+003, 1.498448e-002
2.499293e+003, 1.513334e-002
2.501221e+003, 1.502426e-002
2.503150e+003, 1.525804e-002
2.505078e+003, 1.512797e-002
2.507007e+003, 1.487297e-002
2.508935e+003, 1.520277e-002
2.510864e+003, 1.524693e-002
2.512792e+003, 1.494503e-002
2.514720e+003, 1.541434e-002
2.516649e+003, 1.631572e-002
2.518577e+003, 1.690454e-002
2.520506e+003, 1.730388e-002
2.522434e+003, 1.720743e-002
2.524363e+003, 1.669323e-002
2.526291e+003, 1.626396e-002
2.528220e+003, 1.617903e-002
2.530148e+003, 1.608834e-002
2.532077e+003, 1.542782e-002
2.534005e+003, 1.470362e-002
2.535934e+003, 1.451752e-002
2.537862e+003, 1.471876e-002
2.539791e+003, 1.411811e-002
2.541719e+003, 1.392310e-002
2.543647e+003, 1.429390e-002
2.545576e+003, 1.494926e-002
2.547504e+003, 1.481737e-002
2.549433e+003, 1.435885e-002
2.551361e+003, 1.378271e-002
2.553290e+003, 1.340105e-002
2.555218e+003, 1.333148e-002
2.557147e+003, 1.334660e-002
2.559075e+003, 1.290699e-002
2.561004e+003, 1.289551e-002
2.562932e+003, 1.316272e-002
2.564861e+003, 1.299454e-002
2.566789e+003, 1.256961e-002
2.568718e+003, 1.225640e-002
2.570646e+003, 1.227800e-002
2.572574e+003, 1.221085e-002
2.574503e+003, 1.180363e-002
2.576431e+003, 1.178564e-002
2.578360e+003, 1.172738e-002
2.580288e+003, 1.164138e-002
2.582217e+003, 1.179732e-002
2.584145e+003, 1.189422e-002
2.586074e+003, 1.186170e-002
2.588002e+003, 1.197420e-002
2.589931e+003, 1.179111e-002
2.591859e+003, 1.141212e-002
2.593788e+003, 1.143858e-002
2.595716e+003, 1.143423e-002
2.597645e+003, 1.150454e-002
2.599573e+003, 1.158461e-002
2.601501e+003, 1.160017e-002
2.603430e+003, 1.168364e-002
2.605358e+003, 1.160804e-002
2.607287e+003, 1.136547e-002
2.609215e+003, 1.128183e-002
2.611144e+003, 1.179903e-002
2.613072e+003, 1.214497e-002
2.615001e+003, 1.185901e-002
2.616929e+003, 1.193637e-002
2.618858e+003, 1.182670e-002
2.620786e+003, 1.162168e-002
2.622715e+003, 1.164753e-002
2.624643e+003, 1.178587e-002
2.626572e+003, 1.206328e-002
2.628500e+003, 1.201555e-002
2.630428e+003, 1.186152e-002
2.632357e+003, 1.187021e-002
2.634285e+003, 1.160880e-002
2.636214e+003, 1.128530e-002
2.638142e+003, 1.111039e-002
2.640071e+003, 1.103540e-002
2.641999e+003, 1.121751e-002
2.643928e+003, 1.137503e-002
2.645856e+003, 1.124548e-002
2.647785e+003, 1.086552e-002
2.649713e+003, 1.095072e-002
2.651642e+003, 1.105050e-002
2.653570e+003, 1.084870e-002
2.655499e+003, 1.065960e-002
2.657427e+003, 1.063339e-002
2.659355e+003, 1.049910e-002
2.661284e+003, 1.023943e-002
2.663212e+003, 1.003400e-002
2.665141e+003, 9.845497e-003
2.667069e+003, 9.604433e-003
2.668998e+003, 9.678259e-003
2.670926e+003, 9.764588e-003
2.672855e+003, 9.619106e-003
2.674783e+003, 9.475030e-003
2.676712e+003, 9.801928e-003
2.678640e+003, 1.010448e-002
2.680569e+003, 9.970750e-003
2.682497e+003, 9.702382e-003
2.684426e+003, 9.821564e-003
2.686354e+003, 9.952140e-003
2.688282e+003, 9.816184e-003
2.690211e+003, 9.704127e-003
2.692139e+003, 9.660355e-003
2.694068e+003, 9.944797e-003
2.695996e+003, 1.028683e-002
2.697925e+003, 1.003810e-002
2.699853e+003, 9.643568e-003
2.701782e+003, 9.685658e-003
2.703710e+003, 9.973794e-003
2.705639e+003, 9.985248e-003
2.707567e+003, 9.822007e-003
2.709496e+003, 9.654475e-003
2.711424e+003, 9.651473e-003
2.713353e+003, 9.623712e-003
2.715281e+003, 9.825857e-003
2.717209e+003, 9.868969e-003
2.719138e+003, 9.791574e-003
2.721066e+003, 9.654071e-003
2.722995e+003, 9.509559e-003
2.724923e+003, 9.443574e-003
2.726852e+003, 9.404811e-003
2.728780e+003, 9.348580e-003
2.730709e+003, 9.472653e-003
2.732637e+003, 9.763680e-003
2.734566e+003, 9.970658e-003
2.736494e+003, 9.891011e-003
2.738423e+003, 9.779045e-003
2.740351e+003, 9.749496e-003
2.742280e+003, 9.854110e-003
2.744208e+003, 9.855356e-003
2.746136e+003, 9.848794e-003
2.748065e+003, 9.735906e-003
2.749993e+003, 9.658593e-003
2.751922e+003, 9.706455e-003
2.753850e+003, 9.724849e-003
2.755779e+003, 9.519950e-003
2.757707e+003, 9.535914e-003
2.759636e+003, 9.347109e-003
2.761564e+003, 9.450565e-003
2.763493e+003, 9.561735e-003
2.765421e+003, 9.561757e-003
2.767350e+003, 9.542268e-003
2.769278e+003, 9.408528e-003
2.771207e+003, 9.288952e-003
2.773135e+003, 9.475530e-003
2.775063e+003, 9.312072e-003
2.776992e+003, 9.179831e-003
2.778920e+003, 9.268599e-003
2.780849e+003, 9.259989e-003
2.782777e+003, 9.145721e-003
2.784706e+003, 9.274785e-003
2.786634e+003, 9.554136e-003
2.788563e+003, 9.718983e-003
2.790491e+003, 9.888172e-003
2.792420e+003, 9.988943e-003
2.794348e+003, 9.750627e-003
2.796277e+003, 9.766416e-003
2.798205e+003, 9.600534e-003
2.800134e+003, 9.458470e-003
2.802062e+003, 9.556404e-003
2.803990e+003, 9.587421e-003
2.805919e+003, 9.517459e-003
2.807847e+003, 9.598453e-003
2.809776e+003, 9.705170e-003
2.811704e+003, 9.635864e-003
2.813633e+003, 9.872521e-003
2.815561e+003, 1.015836e-002
2.817490e+003, 9.922007e-003
2.819418e+003, 9.703635e-003
2.821347e+003, 9.560180e-003
2.823275e+003, 9.478943e-003
2.825204e+003, 9.569569e-003
2.827132e+003, 9.732262e-003
2.829061e+003, 9.580838e-003
2.830989e+003, 9.545869e-003
2.832917e+003, 9.920128e-003
2.834846e+003, 1.027151e-002
2.836774e+003, 1.028797e-002
2.838703e+003, 1.037635e-002
2.840631e+003, 1.044975e-002
2.842560e+003, 1.050196e-002
2.844488e+003, 1.078240e-002
2.846417e+003, 1.097153e-002
2.848345e+003, 1.069439e-002
2.850274e+003, 1.072954e-002
2.852202e+003, 1.082994e-002
2.854131e+003, 1.078146e-002
2.856059e+003, 1.084936e-002
2.857988e+003, 1.094820e-002
2.859916e+003, 1.091869e-002
2.861844e+003, 1.062686e-002
2.863773e+003, 1.045287e-002
2.865701e+003, 1.034501e-002
2.867630e+003, 1.053344e-002
2.869558e+003, 1.075227e-002
2.871487e+003, 1.067293e-002
2.873415e+003, 1.076854e-002
2.875344e+003, 1.072061e-002
2.877272e+003, 1.091244e-002
2.879201e+003, 1.116585e-002
2.881129e+003, 1.089115e-002
2.883058e+003, 1.037982e-002
2.884986e+003, 1.032711e-002
2.886915e+003, 1.066149e-002
2.888843e+003, 1.104970e-002
2.890771e+003, 1.133376e-002
2.892700e+003, 1.153892e-002
2.894628e+003, 1.155610e-002
2.896557e+003, 1.141987e-002
2.898485e+003, 1.159622e-002
2.900414e+003, 1.182858e-002
2.902342e+003, 1.191955e-002
2.904271e+003, 1.219639e-002
2.906199e+003, 1.218748e-002
2.908128e+003, 1.237382e-002
2.910056e+003, 1.248553e-002
2.911985e+003, 1.269816e-002
2.913913e+003, 1.322219e-002
2.915842e+003, 1.349808e-002
2.917770e+003, 1.363482e-002
2.919698e+003, 1.374153e-002
2.921627e+003, 1.350715e-002
2.923555e+003, 1.339751e-002
2.925484e+003, 1.370742e-002
2.927412e+003, 1.359576e-002
2.929341e+003, 1.316322e-002
2.931269e+003, 1.305197e-002
2.933198e+003, 1.320412e-002
2.935126e+003, 1.311729e-002
2.937055e+003, 1.261228e-002
2.938983e+003, 1.208930e-002
2.940912e+003, 1.178867e-002
2.942840e+003, 1.187878e-002
2.944769e+003, 1.194427e-002
2.946697e+003, 1.207904e-002
2.948625e+003, 1.178528e-002
2.950554e+003, 1.183542e-002
2.952482e+003, 1.204064e-002
2.954411e+003, 1.204346e-002
2.956339e+003, 1.232999e-002
2.958268e+003, 1.274059e-002
2.960196e+003, 1.288809e-002
2.962125e+003, 1.291225e-002
2.964053e+003, 1.270947e-002
2.965982e+003, 1.253285e-002
2.967910e+003, 1.232702e-002
2.969839e+003, 1.226161e-002
2.971767e+003, 1.222355e-002
2.973696e+003, 1.203843e-002
2.975624e+003, 1.179916e-002
2.977552e+003, 1.179546e-002
2.979481e+003, 1.166472e-002
2.981409e+003, 1.176448e-002
2.983338e+003, 1.170895e-002
2.985266e+003, 1.166671e-002
2.987195e+003, 1.144286e-002
2.989123e+003, 1.153519e-002
2.991052e+003, 1.169302e-002
2.992980e+003, 1.135318e-002
2.994909e+003, 1.109154e-002
2.996837e+003, 1.122477e-002
2.998766e+003, 1.149090e-002
3.000694e+003, 1.130361e-002
3.002623e+003, 1.095706e-002
3.004551e+003, 1.131864e-002
3.006479e+003, 1.174318e-002
3.008408e+003, 1.191477e-002
3.010336e+003, 1.160125e-002
3.012265e+003, 1.088959e-002
3.014193e+003, 1.054595e-002
3.016122e+003, 1.103202e-002
3.018050e+003, 1.124169e-002
3.019979e+003, 1.108872e-002
3.021907e+003, 1.095141e-002
3.023836e+003, 1.086070e-002
3.025764e+003, 1.109237e-002
3.027693e+003, 1.109519e-002
3.029621e+003, 1.109375e-002
3.031550e+003, 1.148641e-002
3.033478e+003, 1.149513e-002
3.035406e+003, 1.136488e-002
3.037335e+003, 1.161097e-002
3.039263e+003, 1.187123e-002
3.041192e+003, 1.190653e-002
3.043120e+003, 1.153940e-002
3.045049e+003, 1.162519e-002
3.046977e+003, 1.193916e-002
3.048906e+003, 1.195334e-002
3.050834e+003, 1.204220e-002
3.052763e+003, 1.207839e-002
3.054691e+003, 1.195600e-002
3.056620e+003, 1.201864e-002
3.058548e+003, 1.206621e-002
3.060477e+003, 1.177361e-002
3.062405e+003, 1.174591e-002
3.064333e+003, 1.217489e-002
3.066262e+003, 1.242876e-002
3.068190e+003, 1.255376e-002
3.070119e+003, 1.271118e-002
3.072047e+003, 1.278082e-002
3.073976e+003, 1.268365e-002
3.075904e+003, 1.242875e-002
3.077833e+003, 1.243284e-002
3.079761e+003, 1.290925e-002
3.081690e+003, 1.350822e-002
3.083618e+003, 1.362845e-002
3.085547e+003, 1.325355e-002
3.087475e+003, 1.311347e-002
3.089404e+003, 1.317242e-002
3.091332e+003, 1.318250e-002
3.093260e+003, 1.312376e-002
3.095189e+003, 1.361277e-002
3.097117e+003, 1.405754e-002
3.099046e+003, 1.409794e-002
3.100974e+003, 1.406176e-002
3.102903e+003, 1.399622e-002
3.104831e+003, 1.368677e-002
3.106760e+003, 1.405585e-002
3.108688e+003, 1.459362e-002
3.110617e+003, 1.470770e-002
3.112545e+003, 1.463467e-002
3.114474e+003, 1.443616e-002
3.116402e+003, 1.394652e-002
3.118331e+003, 1.376037e-002
3.120259e+003, 1.425107e-002
3.122188e+003, 1.435178e-002
3.124116e+003, 1.385439e-002
3.126044e+003, 1.387603e-002
3.127973e+003, 1.415916e-002
3.129901e+003, 1.466532e-002
3.131830e+003, 1.512706e-002
3.133758e+003, 1.531645e-002
3.135687e+003, 1.532525e-002
3.137615e+003, 1.535107e-002
3.139544e+003, 1.568163e-002
3.141472e+003, 1.526152e-002
3.143401e+003, 1.506415e-002
3.145329e+003, 1.558287e-002
3.147258e+003, 1.581996e-002
3.149186e+003, 1.558910e-002
3.151115e+003, 1.530678e-002
3.153043e+003, 1.564676e-002
3.154971e+003, 1.609405e-002
3.156900e+003, 1.594144e-002
3.158828e+003, 1.555204e-002
3.160757e+003, 1.550052e-002
3.162685e+003, 1.605462e-002
3.164614e+003, 1.633083e-002
3.166542e+003, 1.636403e-002
3.168471e+003, 1.627520e-002
3.170399e+003, 1.624886e-002
3.172328e+003, 1.629203e-002
3.174256e+003, 1.636271e-002
3.176185e+003, 1.646924e-002
3.178113e+003, 1.670124e-002
3.180042e+003, 1.656016e-002
3.181970e+003, 1.654491e-002
3.183898e+003, 1.686385e-002
3.185827e+003, 1.671336e-002
3.187755e+003, 1.646361e-002
3.189684e+003, 1.638267e-002
3.191612e+003, 1.627454e-002
3.193541e+003, 1.703746e-002
3.195469e+003, 1.707712e-002
3.197398e+003, 1.721860e-002
3.199326e+003, 1.741200e-002
3.201255e+003, 1.699894e-002
3.203183e+003, 1.704915e-002
3.205112e+003, 1.729649e-002
3.207040e+003, 1.725138e-002
3.208969e+003, 1.706014e-002
3.210897e+003, 1.679664e-002
3.212825e+003, 1.682634e-002
3.214754e+003, 1.703968e-002
3.216682e+003, 1.678894e-002
3.218611e+003, 1.657861e-002
3.220539e+003, 1.664707e-002
3.222468e+003, 1.658962e-002
3.224396e+003, 1.719602e-002
3.226325e+003, 1.750265e-002
3.228253e+003, 1.692175e-002
3.230182e+003, 1.656478e-002
3.232110e+003, 1.677527e-002
3.234039e+003, 1.703115e-002
3.235967e+003, 1.692160e-002
3.237896e+003, 1.661520e-002
3.239824e+003, 1.732166e-002
3.241752e+003, 1.719779e-002
3.243681e+003, 1.645110e-002
3.245609e+003, 1.696691e-002
3.247538e+003, 1.740462e-002
3.249466e+003, 1.723904e-002
3.251395e+003, 1.725701e-002
3.253323e+003, 1.794461e-002
3.255252e+003, 1.835490e-002
3.257180e+003, 1.748230e-002
3.259109e+003, 1.706906e-002
3.261037e+003, 1.756919e-002
3.262966e+003, 1.763070e-002
3.264894e+003, 1.725770e-002
3.266823e+003, 1.654930e-002
3.268751e+003, 1.651163e-002
3.270679e+003, 1.720370e-002
3.272608e+003, 1.736587e-002
3.274536e+003, 1.720675e-002
3.276465e+003, 1.745172e-002
3.278393e+003, 1.752941e-002
3.280322e+003, 1.755589e-002
3.282250e+003, 1.721723e-002
3.284179e+003, 1.722889e-002
3.286107e+003, 1.734139e-002
3.288036e+003, 1.728198e-002
3.289964e+003, 1.749582e-002
3.291893e+003, 1.777629e-002
3.293821e+003, 1.755157e-002
3.295750e+003, 1.764034e-002
3.297678e+003, 1.747523e-002
3.299606e+003, 1.715248e-002
3.301535e+003, 1.738029e-002
3.303463e+003, 1.739365e-002
3.305392e+003, 1.731135e-002
3.307320e+003, 1.757558e-002
3.309249e+003, 1.731979e-002
3.311177e+003, 1.742305e-002
3.313106e+003, 1.792641e-002
3.315034e+003, 1.792116e-002
3.316963e+003, 1.769614e-002
3.318891e+003, 1.749347e-002
3.320820e+003, 1.736687e-002
3.322748e+003, 1.744883e-002
3.324677e+003, 1.763034e-002
3.326605e+003, 1.789823e-002
3.328533e+003, 1.744282e-002
3.330462e+003, 1.716211e-002
3.332390e+003, 1.695664e-002
3.334319e+003, 1.673375e-002
3.336247e+003, 1.716340e-002
3.338176e+003, 1.733439e-002
3.340104e+003, 1.733276e-002
3.342033e+003, 1.779917e-002
3.343961e+003, 1.768135e-002
3.345890e+003, 1.725429e-002
3.347818e+003, 1.711697e-002
3.349747e+003, 1.735280e-002
3.351675e+003, 1.766099e-002
3.353604e+003, 1.740247e-002
3.355532e+003, 1.762527e-002
3.357460e+003, 1.782514e-002
3.359389e+003, 1.720643e-002
3.361317e+003, 1.718881e-002
3.363246e+003, 1.765225e-002
3.365174e+003, 1.751623e-002
3.367103e+003, 1.700099e-002
3.369031e+003, 1.693562e-002
3.370960e+003, 1.741658e-002
3.372888e+003, 1.779234e-002
3.374817e+003, 1.760558e-002
3.376745e+003, 1.746753e-002
3.378674e+003, 1.779656e-002
3.380602e+003, 1.779482e-002
3.382531e+003, 1.729853e-002
3.384459e+003, 1.694307e-002
3.386387e+003, 1.697032e-002
3.388316e+003, 1.750591e-002
3.390244e+003, 1.751269e-002
3.392173e+003, 1.740118e-002
3.394101e+003, 1.794442e-002
3.396030e+003, 1.783366e-002
3.397958e+003, 1.770716e-002
3.399887e+003, 1.771766e-002
3.401815e+003, 1.764809e-002
3.403744e+003, 1.736902e-002
3.405672e+003, 1.760746e-002
3.407601e+003, 1.756224e-002
3.409529e+003, 1.741877e-002
3.411458e+003, 1.725319e-002
3.413386e+003, 1.728480e-002
3.415314e+003, 1.751130e-002
3.417243e+003, 1.663433e-002
3.419171e+003, 1.605175e-002
3.421100e+003, 1.710563e-002
3.423028e+003, 1.755338e-002
3.424957e+003, 1.778606e-002
3.426885e+003, 1.767841e-002
3.428814e+003, 1.704559e-002
3.430742e+003, 1.705403e-002
3.432671e+003, 1.735357e-002
3.434599e+003, 1.703004e-002
3.436528e+003, 1.692155e-002
3.438456e+003, 1.681179e-002
3.440385e+003, 1.711718e-002
3.442313e+003, 1.721077e-002
3.444241e+003, 1.710082e-002
3.446170e+003, 1.719656e-002
3.448098e+003, 1.739792e-002
3.450027e+003, 1.732821e-002
3.451955e+003, 1.725597e-002
3.453884e+003, 1.692866e-002
3.455812e+003, 1.615189e-002
3.457741e+003, 1.638234e-002
3.459669e+003, 1.710542e-002
3.461598e+003, 1.718815e-002
3.463526e+003, 1.736222e-002
3.465455e+003, 1.768288e-002
3.467383e+003, 1.794220e-002
3.469312e+003, 1.754054e-002
3.471240e+003, 1.680994e-002
3.473168e+003, 1.655247e-002
3.475097e+003, 1.655165e-002
3.477025e+003, 1.683458e-002
3.478954e+003, 1.715902e-002
3.480882e+003, 1.698645e-002
3.482811e+003, 1.684661e-002
3.484739e+003, 1.652170e-002
3.486668e+003, 1.610238e-002
3.488596e+003, 1.653122e-002
3.490525e+003, 1.687690e-002
3.492453e+003, 1.655534e-002
3.494382e+003, 1.639652e-002
3.496310e+003, 1.680624e-002
3.498239e+003, 1.737408e-002
3.500167e+003, 1.745463e-002
3.502095e+003, 1.689706e-002
3.504024e+003, 1.629554e-002
3.505952e+003, 1.587740e-002
3.507881e+003, 1.625521e-002
3.509809e+003, 1.661646e-002
3.511738e+003, 1.646455e-002
3.513666e+003, 1.674465e-002
3.515595e+003, 1.700247e-002
3.517523e+003, 1.710055e-002
3.519452e+003, 1.681644e-002
3.521380e+003, 1.626281e-002
3.523309e+003, 1.639584e-002
3.525237e+003, 1.666375e-002
3.527166e+003, 1.688236e-002
3.529094e+003, 1.687468e-002
3.531022e+003, 1.612111e-002
3.532951e+003, 1.547516e-002
3.534879e+003, 1.623353e-002
3.536808e+003, 1.643201e-002
3.538736e+003, 1.659730e-002
3.540665e+003, 1.656709e-002
3.542593e+003, 1.659439e-002
3.544522e+003, 1.657683e-002
3.546450e+003, 1.665771e-002
3.548379e+003, 1.712679e-002
3.550307e+003, 1.735891e-002
3.552236e+003, 1.678745e-002
3.554164e+003, 1.613037e-002
3.556093e+003, 1.666536e-002
3.558021e+003, 1.694053e-002
3.559949e+003, 1.674461e-002
3.561878e+003, 1.636646e-002
3.563806e+003, 1.604694e-002
3.565735e+003, 1.661573e-002
3.567663e+003, 1.676583e-002
3.569592e+003, 1.651391e-002
3.571520e+003, 1.651446e-002
3.573449e+003, 1.621610e-002
3.575377e+003, 1.607031e-002
3.577306e+003, 1.626402e-002
3.579234e+003, 1.574713e-002
3.581163e+003, 1.581915e-002
3.583091e+003, 1.594209e-002
3.585020e+003, 1.628073e-002
3.586948e+003, 1.679098e-002
3.588876e+003, 1.664772e-002
3.590805e+003, 1.652631e-002
3.592733e+003, 1.637290e-002
3.594662e+003, 1.586097e-002
3.596590e+003, 1.558876e-002
3.598519e+003, 1.562807e-002
3.600447e+003, 1.550427e-002
3.602376e+003, 1.530114e-002
3.604304e+003, 1.530897e-002
3.606233e+003, 1.528482e-002
3.608161e+003, 1.583418e-002
3.610090e+003, 1.585739e-002
3.612018e+003, 1.547456e-002
3.613947e+003, 1.583344e-002
3.615875e+003, 1.653200e-002
3.617803e+003, 1.695141e-002
3.619732e+003, 1.687098e-002
3.621660e+003, 1.669804e-002
3.623589e+003, 1.669370e-002
3.625517e+003, 1.657365e-002
3.627446e+003, 1.712283e-002
3.629374e+003, 1.765575e-002
3.631303e+003, 1.712802e-002
3.633231e+003, 1.622015e-002
3.635160e+003, 1.582297e-002
3.637088e+003, 1.591304e-002
3.639017e+003, 1.665766e-002
3.640945e+003, 1.651227e-002
3.642874e+003, 1.603858e-002
3.644802e+003, 1.567197e-002
3.646730e+003, 1.650847e-002
3.648659e+003, 1.690695e-002
3.650587e+003, 1.677933e-002
3.652516e+003, 1.612187e-002
3.654444e+003, 1.589052e-002
3.656373e+003, 1.640058e-002
3.658301e+003, 1.648492e-002
3.660230e+003, 1.581744e-002
3.662158e+003, 1.495415e-002
3.664087e+003, 1.529650e-002
3.666015e+003, 1.577447e-002
3.667944e+003, 1.655919e-002
3.669872e+003, 1.768184e-002
3.671801e+003, 1.734672e-002
3.673729e+003, 1.722773e-002
3.675657e+003, 1.755813e-002
3.677586e+003, 1.738686e-002
3.679514e+003, 1.785984e-002
3.681443e+003, 1.841278e-002
3.683371e+003, 1.805765e-002
3.685300e+003, 1.782235e-002
3.687228e+003, 1.966818e-002
3.689157e+003, 2.177339e-002
3.691085e+003, 2.328693e-002
3.693014e+003, 2.590710e-002
3.694942e+003, 3.001598e-002
3.696871e+003, 3.353562e-002
3.698799e+003, 3.273989e-002
3.700728e+003, 2.753016e-002
3.702656e+003, 2.180730e-002
3.704584e+003, 1.852865e-002
3.706513e+003, 1.712463e-002
3.708441e+003, 1.656721e-002
3.710370e+003, 1.658800e-002
3.712298e+003, 1.691542e-002
3.714227e+003, 1.599683e-002
3.716155e+003, 1.598537e-002
3.718084e+003, 1.563910e-002
3.720012e+003, 1.476094e-002
3.721941e+003, 1.501802e-002
3.723869e+003, 1.464015e-002
3.725798e+003, 1.374246e-002
3.727726e+003, 1.400271e-002
3.729655e+003, 1.522852e-002
3.731583e+003, 1.650459e-002
3.733511e+003, 1.637927e-002
3.735440e+003, 1.618920e-002
3.737368e+003, 1.584088e-002
3.739297e+003, 1.529953e-002
3.741225e+003, 1.552054e-002
3.743154e+003, 1.646367e-002
3.745082e+003, 1.638228e-002
3.747011e+003, 1.560032e-002
3.748939e+003, 1.630379e-002
3.750868e+003, 1.697475e-002
3.752796e+003, 1.641803e-002
3.754725e+003, 1.507948e-002
3.756653e+003, 1.460651e-002
3.758582e+003, 1.523148e-002
3.760510e+003, 1.583832e-002
3.762438e+003, 1.553718e-002
3.764367e+003, 1.513507e-002
3.766295e+003, 1.495756e-002
3.768224e+003, 1.470366e-002
3.770152e+003, 1.448885e-002
3.772081e+003, 1.508157e-002
3.774009e+003, 1.499387e-002
3.775938e+003, 1.378306e-002
3.777866e+003, 1.346861e-002
3.779795e+003, 1.451668e-002
3.781723e+003, 1.482638e-002
3.783652e+003, 1.444840e-002
3.785580e+003, 1.393766e-002
3.787509e+003, 1.391047e-002
3.789437e+003, 1.411611e-002
3.791365e+003, 1.442196e-002
3.793294e+003, 1.491955e-002
3.795222e+003, 1.502701e-002
3.797151e+003, 1.479050e-002
3.799079e+003, 1.462745e-002
3.801008e+003, 1.531239e-002
3.802936e+003, 1.496307e-002
3.804865e+003, 1.475491e-002
3.806793e+003, 1.521972e-002
3.808722e+003, 1.454655e-002
3.810650e+003, 1.485621e-002
3.812579e+003, 1.488514e-002
3.814507e+003, 1.525107e-002
3.816436e+003, 1.566455e-002
3.818364e+003, 1.477101e-002
3.820292e+003, 1.522400e-002
3.822221e+003, 1.511346e-002
3.824149e+003, 1.458898e-002
3.826078e+003, 1.464762e-002
3.828006e+003, 1.449417e-002
3.829935e+003, 1.498236e-002
3.831863e+003, 1.509278e-002
3.833792e+003, 1.469023e-002
3.835720e+003, 1.559988e-002
3.837649e+003, 1.637032e-002
3.839577e+003, 1.500159e-002
3.841506e+003, 1.429274e-002
3.843434e+003, 1.434423e-002
3.845363e+003, 1.405086e-002
3.847291e+003, 1.426001e-002
3.849219e+003, 1.440583e-002
3.851148e+003, 1.494766e-002
3.853076e+003, 1.545669e-002
3.855005e+003, 1.495773e-002
3.856933e+003, 1.418826e-002
3.858862e+003, 1.417949e-002
3.860790e+003, 1.387182e-002
3.862719e+003, 1.350119e-002
3.864647e+003, 1.446486e-002
3.866576e+003, 1.477061e-002
3.868504e+003, 1.466742e-002
3.870433e+003, 1.487617e-002
3.872361e+003, 1.462160e-002
3.874290e+003, 1.451545e-002
3.876218e+003, 1.405883e-002
3.878146e+003, 1.372261e-002
3.880075e+003, 1.423203e-002
3.882003e+003, 1.470589e-002
3.883932e+003, 1.542513e-002
3.885860e+003, 1.590466e-002
3.887789e+003, 1.509182e-002
3.889717e+003, 1.445795e-002
3.891646e+003, 1.431231e-002
3.893574e+003, 1.420842e-002
3.895503e+003, 1.380368e-002
3.897431e+003, 1.360234e-002
3.899360e+003, 1.367432e-002
3.901288e+003, 1.468740e-002
3.903217e+003, 1.490249e-002
3.905145e+003, 1.430702e-002
3.907073e+003, 1.392469e-002
3.909002e+003, 1.390192e-002
3.910930e+003, 1.437552e-002
3.912859e+003, 1.502014e-002
3.914787e+003, 1.402725e-002
3.916716e+003, 1.356381e-002
3.918644e+003, 1.358764e-002
3.920573e+003, 1.325717e-002
3.922501e+003, 1.331687e-002
3.924430e+003, 1.376473e-002
3.926358e+003, 1.433882e-002
3.928287e+003, 1.436883e-002
3.930215e+003, 1.440858e-002
3.932144e+003, 1.452235e-002
3.934072e+003, 1.435884e-002
3.936000e+003, 1.379545e-002
3.937929e+003, 1.324235e-002
3.939857e+003, 1.274097e-002
3.941786e+003, 1.304987e-002
3.943714e+003, 1.412602e-002
3.945643e+003, 1.442243e-002
3.947571e+003, 1.442064e-002
3.949500e+003, 1.448483e-002
3.951428e+003, 1.405716e-002
3.953357e+003, 1.325107e-002
3.955285e+003, 1.247440e-002
3.957214e+003, 1.290146e-002
3.959142e+003, 1.363497e-002
3.961071e+003, 1.381783e-002
3.962999e+003, 1.460148e-002
3.964927e+003, 1.464316e-002
3.966856e+003, 1.387617e-002
3.968784e+003, 1.398593e-002
3.970713e+003, 1.466652e-002
3.972641e+003, 1.434112e-002
3.974570e+003, 1.386864e-002
3.976498e+003, 1.388493e-002
3.978427e+003, 1.379772e-002
3.980355e+003, 1.367745e-002
3.982284e+003, 1.409602e-002
3.984212e+003, 1.455489e-002
3.986141e+003, 1.434151e-002
3.988069e+003, 1.412023e-002
3.989998e+003, 1.510206e-002
3.991926e+003, 1.529883e-002
3.993854e+003, 1.407254e-002
3.995783e+003, 1.385484e-002
3.997711e+003, 1.430595e-002
3.999640e+003, 1.395652e-002
##END=



