##NAMES=Arfvedsonite
##RRUFFID=R050514
##IDEAL CHEMISTRY=NaNa_2_(Fe^2+^_4_Fe^3+^)Si_8_O_22_(OH)_2_
##LOCALITY=unknown
##OWNER=RRUFF
##SOURCE=Frank Hawthorne
##DESCRIPTION=Small black fragments
##STATUS=The identification of this mineral has been confirmed by X-ray diffraction and chemical analysis
##URL=rruff.info/R050514
##MEASURED CHEMISTRY=(Na_2.44_K_0.22_Ca_0.17_[box]_0.17_)_Σ=3_(Fe^2+^_2.55_Fe^3+^_0.94_Mg_0.80_Mn_0.55_Ti_0.09_Al_0.07_)_Σ=5_(Si_7.81_Al_0.19_)_8_O_22_((OH)_1.40_F_0.60_)_Σ=2_
3.991926e+002, 1.927491e-001
4.011211e+002, 2.011341e-001
4.030495e+002, 2.057892e-001
4.049780e+002, 2.059296e-001
4.069065e+002, 2.098034e-001
4.088349e+002, 2.190310e-001
4.107634e+002, 2.176499e-001
4.126919e+002, 2.163470e-001
4.146203e+002, 2.186289e-001
4.165488e+002, 2.234479e-001
4.184773e+002, 2.302683e-001
4.204057e+002, 2.360636e-001
4.223342e+002, 2.403689e-001
4.242627e+002, 2.430718e-001
4.261911e+002, 2.442046e-001
4.281196e+002, 2.487760e-001
4.300481e+002, 2.546018e-001
4.319765e+002, 2.589520e-001
4.339050e+002, 2.616786e-001
4.358335e+002, 2.638374e-001
4.377619e+002, 2.649082e-001
4.396904e+002, 2.668068e-001
4.416189e+002, 2.668896e-001
4.435473e+002, 2.655828e-001
4.454758e+002, 2.653218e-001
4.474043e+002, 2.647565e-001
4.493327e+002, 2.613282e-001
4.512612e+002, 2.557181e-001
4.531897e+002, 2.498268e-001
4.551181e+002, 2.462489e-001
4.570466e+002, 2.433872e-001
4.589751e+002, 2.405806e-001
4.609035e+002, 2.369273e-001
4.628320e+002, 2.340855e-001
4.647605e+002, 2.306734e-001
4.666889e+002, 2.265793e-001
4.686174e+002, 2.241993e-001
4.705459e+002, 2.217342e-001
4.724743e+002, 2.190551e-001
4.744028e+002, 2.164606e-001
4.763313e+002, 2.137728e-001
4.782597e+002, 2.116303e-001
4.801882e+002, 2.092115e-001
4.821167e+002, 2.060559e-001
4.840451e+002, 2.023121e-001
4.859736e+002, 1.988840e-001
4.879021e+002, 1.953799e-001
4.898305e+002, 1.914555e-001
4.917590e+002, 1.870868e-001
4.936875e+002, 1.831451e-001
4.956159e+002, 1.789504e-001
4.975444e+002, 1.747128e-001
4.994729e+002, 1.702959e-001
5.014013e+002, 1.654147e-001
5.033298e+002, 1.607289e-001
5.052583e+002, 1.568996e-001
5.071867e+002, 1.534468e-001
5.091152e+002, 1.489393e-001
5.110437e+002, 1.443559e-001
5.129721e+002, 1.400211e-001
5.149006e+002, 1.359784e-001
5.168290e+002, 1.323905e-001
5.187575e+002, 1.291270e-001
5.206860e+002, 1.262948e-001
5.226144e+002, 1.237343e-001
5.245429e+002, 1.219633e-001
5.264714e+002, 1.203629e-001
5.283998e+002, 1.195349e-001
5.303283e+002, 1.188029e-001
5.322568e+002, 1.172831e-001
5.341852e+002, 1.161328e-001
5.361137e+002, 1.146781e-001
5.380422e+002, 1.123192e-001
5.399706e+002, 1.100433e-001
5.418991e+002, 1.075375e-001
5.438276e+002, 1.042928e-001
5.457560e+002, 1.001998e-001
5.476845e+002, 9.594658e-002
5.496130e+002, 9.222276e-002
5.515414e+002, 8.858988e-002
5.534699e+002, 8.506055e-002
5.553984e+002, 8.162007e-002
5.573268e+002, 7.836571e-002
5.592553e+002, 7.588600e-002
5.611838e+002, 7.367284e-002
5.631122e+002, 7.213914e-002
5.650407e+002, 7.117154e-002
5.669692e+002, 6.984206e-002
5.688976e+002, 6.844524e-002
5.708261e+002, 6.752015e-002
5.727546e+002, 6.670401e-002
5.746830e+002, 6.614252e-002
5.766115e+002, 6.540732e-002
5.785400e+002, 6.508002e-002
5.804684e+002, 6.514737e-002
5.823969e+002, 6.516884e-002
5.843254e+002, 6.536467e-002
5.862538e+002, 6.601962e-002
5.881823e+002, 6.647532e-002
5.901108e+002, 6.699808e-002
5.920392e+002, 6.795074e-002
5.939677e+002, 6.882828e-002
5.958962e+002, 6.971968e-002
5.978246e+002, 7.069831e-002
5.997531e+002, 7.183372e-002
6.016816e+002, 7.315026e-002
6.036100e+002, 7.438122e-002
6.055385e+002, 7.566179e-002
6.074670e+002, 7.706064e-002
6.093954e+002, 7.830770e-002
6.113239e+002, 7.966034e-002
6.132524e+002, 8.081026e-002
6.151808e+002, 8.190960e-002
6.171093e+002, 8.316152e-002
6.190378e+002, 8.440712e-002
6.209662e+002, 8.559430e-002
6.228947e+002, 8.672643e-002
6.248232e+002, 8.786567e-002
6.267516e+002, 8.919822e-002
6.286801e+002, 9.085984e-002
6.306086e+002, 9.310059e-002
6.325370e+002, 9.571564e-002
6.344655e+002, 9.846983e-002
6.363940e+002, 1.010413e-001
6.383224e+002, 1.029524e-001
6.402509e+002, 1.040780e-001
6.421794e+002, 1.044525e-001
6.441078e+002, 1.040917e-001
6.460363e+002, 1.029537e-001
6.479648e+002, 1.010601e-001
6.498932e+002, 9.864445e-002
6.518217e+002, 9.608024e-002
6.537502e+002, 9.376871e-002
6.556786e+002, 9.188978e-002
6.576071e+002, 9.045021e-002
6.595356e+002, 8.950868e-002
6.614641e+002, 8.884913e-002
6.633925e+002, 8.800986e-002
6.653210e+002, 8.692694e-002
6.672495e+002, 8.570658e-002
6.691779e+002, 8.403360e-002
6.711064e+002, 8.206597e-002
6.730349e+002, 8.040401e-002
6.749633e+002, 7.940139e-002
6.768918e+002, 7.865705e-002
6.788203e+002, 7.779993e-002
6.807487e+002, 7.705024e-002
6.826772e+002, 7.655291e-002
6.846057e+002, 7.622310e-002
6.865341e+002, 7.579210e-002
6.884626e+002, 7.545602e-002
6.903911e+002, 7.548577e-002
6.923195e+002, 7.555011e-002
6.942480e+002, 7.568966e-002
6.961765e+002, 7.580786e-002
6.981049e+002, 7.566253e-002
7.000334e+002, 7.581429e-002
7.019619e+002, 7.595786e-002
7.038903e+002, 7.630274e-002
7.058188e+002, 7.669117e-002
7.077473e+002, 7.658757e-002
7.096757e+002, 7.641712e-002
7.116042e+002, 7.646491e-002
7.135327e+002, 7.637420e-002
7.154611e+002, 7.623839e-002
7.173896e+002, 7.600728e-002
7.193181e+002, 7.600323e-002
7.212465e+002, 7.631867e-002
7.231750e+002, 7.655855e-002
7.251035e+002, 7.688673e-002
7.270319e+002, 7.734887e-002
7.289604e+002, 7.800098e-002
7.308889e+002, 7.894337e-002
7.328173e+002, 8.012922e-002
7.347458e+002, 8.176660e-002
7.366743e+002, 8.365968e-002
7.386027e+002, 8.563225e-002
7.405312e+002, 8.791494e-002
7.424597e+002, 9.014797e-002
7.443881e+002, 9.225274e-002
7.463166e+002, 9.442990e-002
7.482451e+002, 9.613509e-002
7.501735e+002, 9.700865e-002
7.521020e+002, 9.696409e-002
7.540305e+002, 9.602134e-002
7.559589e+002, 9.426818e-002
7.578874e+002, 9.210122e-002
7.598159e+002, 8.984080e-002
7.617443e+002, 8.755189e-002
7.636728e+002, 8.525097e-002
7.656013e+002, 8.303131e-002
7.675297e+002, 8.152166e-002
7.694582e+002, 8.061422e-002
7.713867e+002, 7.999627e-002
7.733151e+002, 7.928535e-002
7.752436e+002, 7.873937e-002
7.771721e+002, 7.818550e-002
7.791005e+002, 7.727312e-002
7.810290e+002, 7.618414e-002
7.829575e+002, 7.503299e-002
7.848859e+002, 7.405189e-002
7.868144e+002, 7.346824e-002
7.887429e+002, 7.334602e-002
7.906713e+002, 7.334981e-002
7.925998e+002, 7.319289e-002
7.945283e+002, 7.323267e-002
7.964567e+002, 7.375503e-002
7.983852e+002, 7.424431e-002
8.003137e+002, 7.448499e-002
8.022421e+002, 7.447207e-002
8.041706e+002, 7.444387e-002
8.060991e+002, 7.461033e-002
8.080275e+002, 7.489879e-002
8.099560e+002, 7.549714e-002
8.118845e+002, 7.619642e-002
8.138129e+002, 7.687265e-002
8.157414e+002, 7.796904e-002
8.176699e+002, 7.942811e-002
8.195983e+002, 8.090032e-002
8.215268e+002, 8.246726e-002
8.234553e+002, 8.428126e-002
8.253837e+002, 8.645002e-002
8.273122e+002, 8.876320e-002
8.292407e+002, 9.111441e-002
8.311691e+002, 9.383455e-002
8.330976e+002, 9.661108e-002
8.350261e+002, 9.956849e-002
8.369545e+002, 1.027092e-001
8.388830e+002, 1.060817e-001
8.408115e+002, 1.096776e-001
8.427399e+002, 1.136792e-001
8.446684e+002, 1.179810e-001
8.465969e+002, 1.225267e-001
8.485253e+002, 1.272736e-001
8.504538e+002, 1.322829e-001
8.523823e+002, 1.376712e-001
8.543107e+002, 1.433109e-001
8.562392e+002, 1.492220e-001
8.581677e+002, 1.555816e-001
8.600961e+002, 1.619188e-001
8.620246e+002, 1.683265e-001
8.639531e+002, 1.751318e-001
8.658815e+002, 1.821113e-001
8.678100e+002, 1.887733e-001
8.697385e+002, 1.952095e-001
8.716669e+002, 2.015621e-001
8.735954e+002, 2.075286e-001
8.755239e+002, 2.130170e-001
8.774523e+002, 2.182408e-001
8.793808e+002, 2.229538e-001
8.813093e+002, 2.275649e-001
8.832377e+002, 2.321784e-001
8.851662e+002, 2.368741e-001
8.870947e+002, 2.414213e-001
8.890231e+002, 2.457591e-001
8.909516e+002, 2.498899e-001
8.928801e+002, 2.540542e-001
8.948085e+002, 2.580027e-001
8.967370e+002, 2.616835e-001
8.986655e+002, 2.653382e-001
9.005939e+002, 2.690320e-001
9.025224e+002, 2.729197e-001
9.044509e+002, 2.772463e-001
9.063793e+002, 2.820745e-001
9.083078e+002, 2.869922e-001
9.102363e+002, 2.921711e-001
9.121647e+002, 2.978860e-001
9.140932e+002, 3.036916e-001
9.160217e+002, 3.095784e-001
9.179501e+002, 3.155861e-001
9.198786e+002, 3.219954e-001
9.218071e+002, 3.281224e-001
9.237355e+002, 3.342270e-001
9.256640e+002, 3.404859e-001
9.275925e+002, 3.470337e-001
9.295209e+002, 3.538193e-001
9.314494e+002, 3.610954e-001
9.333779e+002, 3.684742e-001
9.353063e+002, 3.757877e-001
9.372348e+002, 3.829083e-001
9.391633e+002, 3.896712e-001
9.410917e+002, 3.955153e-001
9.430202e+002, 4.006388e-001
9.449487e+002, 4.046015e-001
9.468771e+002, 4.077410e-001
9.488056e+002, 4.098432e-001
9.507341e+002, 4.108062e-001
9.526625e+002, 4.108441e-001
9.545910e+002, 4.097323e-001
9.565195e+002, 4.077320e-001
9.584479e+002, 4.048905e-001
9.603764e+002, 4.013408e-001
9.623049e+002, 3.976022e-001
9.642333e+002, 3.932429e-001
9.661618e+002, 3.884840e-001
9.680903e+002, 3.833025e-001
9.700187e+002, 3.776477e-001
9.719472e+002, 3.715903e-001
9.738757e+002, 3.652657e-001
9.758041e+002, 3.583820e-001
9.777326e+002, 3.509232e-001
9.796611e+002, 3.430710e-001
9.815895e+002, 3.349565e-001
9.835180e+002, 3.268587e-001
9.854465e+002, 3.186306e-001
9.873749e+002, 3.101663e-001
9.893034e+002, 3.018951e-001
9.912319e+002, 2.938046e-001
9.931603e+002, 2.856919e-001
9.950888e+002, 2.778624e-001
9.970173e+002, 2.705421e-001
9.989457e+002, 2.634250e-001
1.000874e+003, 2.565680e-001
1.002803e+003, 2.500274e-001
1.004731e+003, 2.438351e-001
1.006660e+003, 2.379825e-001
1.008588e+003, 2.325366e-001
1.010517e+003, 2.271760e-001
1.012445e+003, 2.220754e-001
1.014373e+003, 2.172254e-001
1.016302e+003, 2.124376e-001
1.018230e+003, 2.078743e-001
1.020159e+003, 2.036803e-001
1.022087e+003, 1.996225e-001
1.024016e+003, 1.958341e-001
1.025944e+003, 1.925128e-001
1.027873e+003, 1.890830e-001
1.029801e+003, 1.857725e-001
1.031730e+003, 1.827722e-001
1.033658e+003, 1.797094e-001
1.035587e+003, 1.765823e-001
1.037515e+003, 1.734776e-001
1.039443e+003, 1.707654e-001
1.041372e+003, 1.680565e-001
1.043300e+003, 1.656925e-001
1.045229e+003, 1.638108e-001
1.047157e+003, 1.620571e-001
1.049086e+003, 1.606725e-001
1.051014e+003, 1.597126e-001
1.052943e+003, 1.587767e-001
1.054871e+003, 1.577677e-001
1.056800e+003, 1.567464e-001
1.058728e+003, 1.560200e-001
1.060657e+003, 1.552459e-001
1.062585e+003, 1.543819e-001
1.064514e+003, 1.533131e-001
1.066442e+003, 1.519065e-001
1.068370e+003, 1.501481e-001
1.070299e+003, 1.478833e-001
1.072227e+003, 1.449578e-001
1.074156e+003, 1.418868e-001
1.076084e+003, 1.385184e-001
1.078013e+003, 1.346025e-001
1.079941e+003, 1.301044e-001
1.081870e+003, 1.254613e-001
1.083798e+003, 1.210256e-001
1.085727e+003, 1.168179e-001
1.087655e+003, 1.129271e-001
1.089584e+003, 1.091934e-001
1.091512e+003, 1.057563e-001
1.093441e+003, 1.027469e-001
1.095369e+003, 9.981181e-002
1.097297e+003, 9.716079e-002
1.099226e+003, 9.497826e-002
1.101154e+003, 9.290291e-002
1.103083e+003, 9.106191e-002
1.105011e+003, 8.968358e-002
1.106940e+003, 8.850954e-002
1.108868e+003, 8.770713e-002
1.110797e+003, 8.732998e-002
1.112725e+003, 8.731657e-002
1.114654e+003, 8.743048e-002
1.116582e+003, 8.775271e-002
1.118511e+003, 8.836747e-002
1.120439e+003, 8.894536e-002
1.122368e+003, 8.926462e-002
1.124296e+003, 8.912495e-002
1.126224e+003, 8.813058e-002
1.128153e+003, 8.618481e-002
1.130081e+003, 8.326042e-002
1.132010e+003, 7.947513e-002
1.133938e+003, 7.499035e-002
1.135867e+003, 7.027064e-002
1.137795e+003, 6.560022e-002
1.139724e+003, 6.122022e-002
1.141652e+003, 5.699718e-002
1.143581e+003, 5.311900e-002
1.145509e+003, 4.970327e-002
1.147438e+003, 4.670407e-002
1.149366e+003, 4.411584e-002
1.151295e+003, 4.187542e-002
1.153223e+003, 3.994855e-002
1.155151e+003, 3.821620e-002
1.157080e+003, 3.671246e-002
1.159008e+003, 3.548235e-002
1.160937e+003, 3.437322e-002
1.162865e+003, 3.331450e-002
1.164794e+003, 3.214173e-002
1.166722e+003, 3.089865e-002
1.168651e+003, 2.969753e-002
1.170579e+003, 2.862598e-002
1.172508e+003, 2.756031e-002
1.174436e+003, 2.661683e-002
1.176365e+003, 2.577800e-002
1.178293e+003, 2.494605e-002
1.180222e+003, 2.413073e-002
1.182150e+003, 2.333358e-002
1.184078e+003, 2.263243e-002
1.186007e+003, 2.188330e-002
1.187935e+003, 2.110610e-002
1.189864e+003, 2.033097e-002
1.191792e+003, 1.941342e-002
1.193721e+003, 1.847468e-002
1.195649e+003, 1.760433e-002
1.197578e+003, 1.676874e-002
1.199506e+003, 1.589366e-002
1.201435e+003, 1.508304e-002
1.203363e+003, 1.435773e-002
1.205292e+003, 1.375346e-002
1.207220e+003, 1.322467e-002
1.209149e+003, 1.268383e-002
1.211077e+003, 1.218503e-002
1.213005e+003, 1.173988e-002
1.214934e+003, 1.133601e-002
1.216862e+003, 1.093267e-002
1.218791e+003, 1.062946e-002
1.220719e+003, 1.032655e-002
1.222648e+003, 1.001105e-002
1.224576e+003, 9.718308e-003
1.226505e+003, 9.342762e-003
1.228433e+003, 9.010812e-003
1.230362e+003, 8.778847e-003
1.232290e+003, 8.628750e-003
1.234219e+003, 8.543455e-003
1.236147e+003, 8.272008e-003
1.238076e+003, 7.949333e-003
1.240004e+003, 7.754132e-003
1.241932e+003, 7.662900e-003
1.243861e+003, 7.451649e-003
1.245789e+003, 7.249415e-003
1.247718e+003, 7.099003e-003
1.249646e+003, 6.928887e-003
1.251575e+003, 6.946112e-003
1.253503e+003, 6.890885e-003
1.255432e+003, 6.651137e-003
1.257360e+003, 6.336892e-003
1.259289e+003, 6.204825e-003
1.261217e+003, 6.045790e-003
1.263146e+003, 5.892589e-003
1.265074e+003, 5.821248e-003
1.267003e+003, 5.811354e-003
1.268931e+003, 5.755393e-003
1.270859e+003, 5.738932e-003
1.272788e+003, 5.777455e-003
1.274716e+003, 5.880307e-003
1.276645e+003, 6.020274e-003
1.278573e+003, 5.845665e-003
1.280502e+003, 5.653118e-003
1.282430e+003, 5.811099e-003
1.284359e+003, 5.782289e-003
1.286287e+003, 5.562867e-003
1.288216e+003, 5.541489e-003
1.290144e+003, 5.606676e-003
1.292073e+003, 5.487973e-003
1.294001e+003, 5.422430e-003
1.295930e+003, 5.498000e-003
1.297858e+003, 5.537395e-003
1.299786e+003, 5.472077e-003
1.301715e+003, 5.449835e-003
1.303643e+003, 5.524019e-003
1.305572e+003, 5.629418e-003
1.307500e+003, 5.574508e-003
1.309429e+003, 5.523267e-003
1.311357e+003, 5.495685e-003
1.313286e+003, 5.500203e-003
1.315214e+003, 5.426619e-003
1.317143e+003, 5.447347e-003
1.319071e+003, 5.436605e-003
1.321000e+003, 5.285063e-003
1.322928e+003, 5.374885e-003
1.324857e+003, 5.571006e-003
1.326785e+003, 5.555671e-003
1.328714e+003, 5.513344e-003
1.330642e+003, 5.517650e-003
1.332570e+003, 5.473489e-003
1.334499e+003, 5.476047e-003
1.336427e+003, 5.496207e-003
1.338356e+003, 5.592190e-003
1.340284e+003, 5.699253e-003
1.342213e+003, 5.761166e-003
1.344141e+003, 5.704945e-003
1.346070e+003, 5.680931e-003
1.347998e+003, 5.678068e-003
1.349927e+003, 5.784879e-003
1.351855e+003, 5.935600e-003
1.353784e+003, 6.018654e-003
1.355712e+003, 6.007667e-003
1.357641e+003, 6.106518e-003
1.359569e+003, 6.310804e-003
1.361497e+003, 6.520227e-003
1.363426e+003, 6.616437e-003
1.365354e+003, 6.647478e-003
1.367283e+003, 6.613811e-003
1.369211e+003, 6.621172e-003
1.371140e+003, 6.672532e-003
1.373068e+003, 6.742332e-003
1.374997e+003, 6.870739e-003
1.376925e+003, 6.944579e-003
1.378854e+003, 7.011945e-003
1.380782e+003, 7.055498e-003
1.382711e+003, 7.032403e-003
1.384639e+003, 6.973476e-003
1.386568e+003, 7.052079e-003
1.388496e+003, 7.140285e-003
1.390424e+003, 7.142096e-003
1.392353e+003, 7.256772e-003
1.394281e+003, 7.460472e-003
1.396210e+003, 7.555857e-003
1.398138e+003, 7.590502e-003
1.400067e+003, 7.651809e-003
1.401995e+003, 7.633244e-003
1.403924e+003, 7.514846e-003
1.405852e+003, 7.413335e-003
1.407781e+003, 7.453498e-003
1.409709e+003, 7.568362e-003
1.411638e+003, 7.476971e-003
1.413566e+003, 7.280006e-003
1.415495e+003, 7.296739e-003
1.417423e+003, 7.445570e-003
1.419351e+003, 7.546350e-003
1.421280e+003, 7.356244e-003
1.423208e+003, 7.235265e-003
1.425137e+003, 7.173470e-003
1.427065e+003, 7.131292e-003
1.428994e+003, 7.125141e-003
1.430922e+003, 7.086046e-003
1.432851e+003, 7.109107e-003
1.434779e+003, 7.224775e-003
1.436708e+003, 7.305733e-003
1.438636e+003, 7.066703e-003
1.440565e+003, 6.968798e-003
1.442493e+003, 6.992935e-003
1.444422e+003, 6.999346e-003
1.446350e+003, 6.992915e-003
1.448278e+003, 6.957668e-003
1.450207e+003, 6.828548e-003
1.452135e+003, 6.819022e-003
1.454064e+003, 6.925704e-003
1.455992e+003, 7.377242e-003
1.457921e+003, 7.366651e-003
1.459849e+003, 6.974204e-003
1.461778e+003, 6.795038e-003
1.463706e+003, 6.710991e-003
1.465635e+003, 6.565041e-003
1.467563e+003, 6.323591e-003
1.469492e+003, 6.156645e-003
1.471420e+003, 6.181775e-003
1.473349e+003, 6.196206e-003
1.475277e+003, 6.020031e-003
1.477205e+003, 5.854920e-003
1.479134e+003, 5.793106e-003
1.481062e+003, 5.865505e-003
1.482991e+003, 5.859980e-003
1.484919e+003, 5.839917e-003
1.486848e+003, 5.972318e-003
1.488776e+003, 6.165222e-003
1.490705e+003, 6.213922e-003
1.492633e+003, 6.227782e-003
1.494562e+003, 6.454080e-003
1.496490e+003, 6.714782e-003
1.498419e+003, 6.759929e-003
1.500347e+003, 6.701506e-003
1.502276e+003, 6.670423e-003
1.504204e+003, 7.028292e-003
1.506132e+003, 7.513884e-003
1.508061e+003, 7.233823e-003
1.509989e+003, 6.683712e-003
1.511918e+003, 6.423004e-003
1.513846e+003, 6.287041e-003
1.515775e+003, 6.435398e-003
1.517703e+003, 6.553618e-003
1.519632e+003, 6.774883e-003
1.521560e+003, 6.961847e-003
1.523489e+003, 6.808965e-003
1.525417e+003, 6.796478e-003
1.527346e+003, 6.828165e-003
1.529274e+003, 6.902148e-003
1.531203e+003, 7.014242e-003
1.533131e+003, 7.324624e-003
1.535059e+003, 7.395215e-003
1.536988e+003, 7.568310e-003
1.538916e+003, 8.305948e-003
1.540845e+003, 8.481362e-003
1.542773e+003, 8.334386e-003
1.544702e+003, 8.313503e-003
1.546630e+003, 8.336933e-003
1.548559e+003, 8.558147e-003
1.550487e+003, 8.710589e-003
1.552416e+003, 8.806766e-003
1.554344e+003, 9.027530e-003
1.556273e+003, 9.374145e-003
1.558201e+003, 1.014922e-002
1.560130e+003, 1.017577e-002
1.562058e+003, 9.577741e-003
1.563986e+003, 9.453762e-003
1.565915e+003, 9.595739e-003
1.567843e+003, 9.849996e-003
1.569772e+003, 1.005215e-002
1.571700e+003, 9.943638e-003
1.573629e+003, 1.004391e-002
1.575557e+003, 1.054196e-002
1.577486e+003, 1.045842e-002
1.579414e+003, 1.023797e-002
1.581343e+003, 1.024711e-002
1.583271e+003, 1.030736e-002
1.585200e+003, 1.054755e-002
1.587128e+003, 1.062542e-002
1.589057e+003, 1.061639e-002
1.590985e+003, 1.071867e-002
1.592913e+003, 1.085448e-002
1.594842e+003, 1.083503e-002
1.596770e+003, 1.087016e-002
1.598699e+003, 1.103234e-002
1.600627e+003, 1.114092e-002
1.602556e+003, 1.104448e-002
1.604484e+003, 1.086913e-002
1.606413e+003, 1.072456e-002
1.608341e+003, 1.075302e-002
1.610270e+003, 1.077463e-002
1.612198e+003, 1.090119e-002
1.614127e+003, 1.099223e-002
1.616055e+003, 1.121631e-002
1.617984e+003, 1.109777e-002
1.619912e+003, 1.086583e-002
1.621840e+003, 1.101516e-002
1.623769e+003, 1.113351e-002
1.625697e+003, 1.102789e-002
1.627626e+003, 1.099089e-002
1.629554e+003, 1.103528e-002
1.631483e+003, 1.088820e-002
1.633411e+003, 1.102122e-002
1.635340e+003, 1.127311e-002
1.637268e+003, 1.102834e-002
1.639197e+003, 1.062527e-002
1.641125e+003, 1.032333e-002
1.643054e+003, 1.023748e-002
1.644982e+003, 1.058818e-002
1.646911e+003, 1.075374e-002
1.648839e+003, 1.012352e-002
1.650767e+003, 1.011628e-002
1.652696e+003, 1.082054e-002
1.654624e+003, 1.026263e-002
1.656553e+003, 9.436040e-003
1.658481e+003, 9.193243e-003
1.660410e+003, 9.135403e-003
1.662338e+003, 9.118572e-003
1.664267e+003, 8.869416e-003
1.666195e+003, 8.685512e-003
1.668124e+003, 8.863166e-003
1.670052e+003, 8.659021e-003
1.671981e+003, 8.166364e-003
1.673909e+003, 8.137984e-003
1.675838e+003, 8.152586e-003
1.677766e+003, 7.838746e-003
1.679694e+003, 7.767488e-003
1.681623e+003, 7.694749e-003
1.683551e+003, 8.001457e-003
1.685480e+003, 7.748079e-003
1.687408e+003, 7.135214e-003
1.689337e+003, 7.058033e-003
1.691265e+003, 6.897058e-003
1.693194e+003, 6.808890e-003
1.695122e+003, 7.317249e-003
1.697051e+003, 7.267543e-003
1.698979e+003, 7.289966e-003
1.700908e+003, 7.306444e-003
1.702836e+003, 6.703804e-003
1.704765e+003, 6.646257e-003
1.706693e+003, 6.473159e-003
1.708621e+003, 6.507712e-003
1.710550e+003, 6.519869e-003
1.712478e+003, 6.446353e-003
1.714407e+003, 6.701308e-003
1.716335e+003, 7.310119e-003
1.718264e+003, 7.297876e-003
1.720192e+003, 7.048443e-003
1.722121e+003, 7.008539e-003
1.724049e+003, 7.017090e-003
1.725978e+003, 7.262357e-003
1.727906e+003, 7.514823e-003
1.729835e+003, 7.549100e-003
1.731763e+003, 7.796878e-003
1.733692e+003, 7.881959e-003
1.735620e+003, 7.015890e-003
1.737548e+003, 6.168337e-003
1.739477e+003, 5.722496e-003
1.741405e+003, 5.043837e-003
1.743334e+003, 4.416571e-003
1.745262e+003, 3.987683e-003
1.747191e+003, 3.832430e-003
1.749119e+003, 3.714760e-003
1.751048e+003, 3.752802e-003
1.752976e+003, 3.688893e-003
1.754905e+003, 3.769628e-003
1.756833e+003, 3.987628e-003
1.758762e+003, 4.074328e-003
1.760690e+003, 4.436248e-003
1.762619e+003, 4.851884e-003
1.764547e+003, 4.937232e-003
1.766475e+003, 5.043854e-003
1.768404e+003, 5.029087e-003
1.770332e+003, 5.109576e-003
1.772261e+003, 5.219027e-003
1.774189e+003, 4.913058e-003
1.776118e+003, 4.617893e-003
1.778046e+003, 4.502207e-003
1.779975e+003, 4.407156e-003
1.781903e+003, 4.301275e-003
1.783832e+003, 4.382087e-003
1.785760e+003, 4.373157e-003
1.787689e+003, 4.113690e-003
1.789617e+003, 3.961206e-003
1.791546e+003, 4.093900e-003
1.793474e+003, 4.176945e-003
1.795402e+003, 4.107896e-003
1.797331e+003, 3.826337e-003
1.799259e+003, 3.363013e-003
1.801188e+003, 3.253473e-003
1.803116e+003, 3.295193e-003
1.805045e+003, 3.261862e-003
1.806973e+003, 3.181743e-003
1.808902e+003, 3.139786e-003
1.810830e+003, 3.039970e-003
1.812759e+003, 2.855912e-003
1.814687e+003, 2.856305e-003
1.816616e+003, 2.986716e-003
1.818544e+003, 3.121048e-003
1.820473e+003, 3.218432e-003
1.822401e+003, 3.181971e-003
1.824329e+003, 3.138570e-003
1.826258e+003, 3.092583e-003
1.828186e+003, 3.033714e-003
1.830115e+003, 2.965843e-003
1.832043e+003, 2.750225e-003
1.833972e+003, 2.588209e-003
1.835900e+003, 2.544452e-003
1.837829e+003, 2.610317e-003
1.839757e+003, 2.641826e-003
1.841686e+003, 2.624772e-003
1.843614e+003, 2.555598e-003
1.845543e+003, 2.316756e-003
1.847471e+003, 2.147265e-003
1.849400e+003, 2.175645e-003
1.851328e+003, 2.322434e-003
1.853256e+003, 2.417691e-003
1.855185e+003, 2.337362e-003
1.857113e+003, 2.128298e-003
1.859042e+003, 2.202859e-003
1.860970e+003, 2.395257e-003
1.862899e+003, 2.326018e-003
1.864827e+003, 2.099333e-003
1.866756e+003, 2.287965e-003
1.868684e+003, 2.634841e-003
1.870613e+003, 2.525295e-003
1.872541e+003, 2.244360e-003
1.874470e+003, 2.042323e-003
1.876398e+003, 1.599869e-003
1.878327e+003, 1.558257e-003
1.880255e+003, 1.781807e-003
1.882183e+003, 1.997205e-003
1.884112e+003, 2.054609e-003
1.886040e+003, 2.022375e-003
1.887969e+003, 1.733401e-003
1.889897e+003, 1.748067e-003
1.891826e+003, 1.911154e-003
1.893754e+003, 2.161909e-003
1.895683e+003, 2.370289e-003
1.897611e+003, 2.340103e-003
1.899540e+003, 2.059662e-003
1.901468e+003, 1.948288e-003
1.903397e+003, 1.965646e-003
1.905325e+003, 1.694212e-003
1.907254e+003, 1.642840e-003
1.909182e+003, 1.710065e-003
1.911110e+003, 1.737650e-003
1.913039e+003, 1.788872e-003
1.914967e+003, 1.816405e-003
1.916896e+003, 1.750064e-003
1.918824e+003, 1.723461e-003
1.920753e+003, 1.427624e-003
1.922681e+003, 1.581646e-003
1.924610e+003, 1.579684e-003
1.926538e+003, 1.553221e-003
1.928467e+003, 1.540367e-003
1.930395e+003, 1.476149e-003
1.932324e+003, 1.453309e-003
1.934252e+003, 6.903524e-004
1.936181e+003, 5.575533e-004
1.938109e+003, 7.118210e-004
1.940037e+003, 8.005225e-004
1.941966e+003, 9.215986e-004
1.943894e+003, 1.089918e-003
1.945823e+003, 9.413030e-004
1.947751e+003, 9.414764e-004
1.949680e+003, 1.188821e-003
1.951608e+003, 5.779810e-004
1.953537e+003, 3.805689e-004
1.955465e+003, 4.844470e-004
1.957394e+003, 3.394980e-004
1.959322e+003, 6.773481e-004
1.961251e+003, 3.654447e-004
1.963179e+003, 6.913310e-004
1.965108e+003, 1.641831e-003
1.967036e+003, 1.813375e-003
1.968964e+003, 1.121602e-003
1.970893e+003, 8.136737e-004
1.972821e+003, 7.527471e-004
1.974750e+003, 1.043201e-003
1.976678e+003, 1.486729e-003
1.978607e+003, 1.964462e-003
1.980535e+003, 1.557478e-003
1.982464e+003, 1.249015e-003
1.984392e+003, 1.705216e-003
1.986321e+003, 1.624057e-003
1.988249e+003, 6.261854e-004
1.990178e+003, 1.029687e-003
1.992106e+003, 2.051054e-003
1.994035e+003, 2.342765e-003
1.995963e+003, 2.046749e-003
1.997891e+003, 2.219962e-003
1.999820e+003, 2.215765e-003
2.001748e+003, 1.295792e-003
2.003677e+003, 4.881213e-004
2.005605e+003, 5.062805e-004
2.007534e+003, 1.444110e-003
2.009462e+003, 1.053688e-003
2.011391e+003, 4.199673e-004
2.013319e+003, 1.181025e-003
2.015248e+003, 1.185245e-003
2.017176e+003, 1.271727e-003
2.019105e+003, 1.625597e-003
2.021033e+003, 1.551500e-003
2.022962e+003, 7.115423e-004
2.024890e+003, 9.427762e-004
2.026818e+003, 1.744629e-003
2.028747e+003, 2.606343e-003
2.030675e+003, 1.848522e-003
2.032604e+003, 1.292735e-003
2.034532e+003, 1.579702e-003
2.036461e+003, 6.941101e-004
2.038389e+003, 1.013570e-003
2.040318e+003, 1.896348e-003
2.042246e+003, 1.941570e-003
2.044175e+003, 1.945860e-003
2.046103e+003, 1.863346e-003
2.048031e+003, 1.382437e-003
2.049960e+003, 1.661833e-003
2.051888e+003, 1.733577e-003
2.053817e+003, 1.937746e-003
2.055745e+003, 2.176400e-003
2.057674e+003, 2.146065e-003
2.059602e+003, 1.769009e-003
2.061531e+003, 1.801123e-003
2.063459e+003, 1.666255e-003
2.065388e+003, 1.298459e-003
2.067316e+003, 1.560651e-003
2.069245e+003, 2.008675e-003
2.071173e+003, 2.242284e-003
2.073102e+003, 2.234407e-003
2.075030e+003, 2.307710e-003
2.076958e+003, 1.653508e-003
2.078887e+003, 1.348283e-003
2.080815e+003, 1.750330e-003
2.082744e+003, 2.459572e-003
2.084672e+003, 2.731275e-003
2.086601e+003, 1.975613e-003
2.088529e+003, 2.004505e-003
2.090458e+003, 1.930749e-003
2.092386e+003, 1.702791e-003
2.094315e+003, 1.876830e-003
2.096243e+003, 2.473110e-003
2.098172e+003, 3.074206e-003
2.100100e+003, 2.984065e-003
2.102029e+003, 2.985852e-003
2.103957e+003, 2.801113e-003
2.105885e+003, 2.830444e-003
2.107814e+003, 3.245514e-003
2.109742e+003, 2.973038e-003
2.111671e+003, 2.397174e-003
2.113599e+003, 2.631139e-003
2.115528e+003, 3.322052e-003
2.117456e+003, 2.910936e-003
2.119385e+003, 2.246906e-003
2.121313e+003, 2.267586e-003
2.123242e+003, 2.417555e-003
2.125170e+003, 2.618755e-003
2.127099e+003, 2.463087e-003
2.129027e+003, 1.924273e-003
2.130956e+003, 1.631379e-003
2.132884e+003, 1.760917e-003
2.134813e+003, 1.974334e-003
2.136741e+003, 1.988868e-003
2.138669e+003, 1.796497e-003
2.140598e+003, 1.864334e-003
2.142526e+003, 2.064827e-003
2.144455e+003, 1.737360e-003
2.146383e+003, 1.646042e-003
2.148312e+003, 2.308564e-003
2.150240e+003, 2.006753e-003
2.152169e+003, 1.473813e-003
2.154097e+003, 2.000231e-003
2.156026e+003, 2.628984e-003
2.157954e+003, 3.195638e-003
2.159883e+003, 3.839200e-003
2.161811e+003, 3.797636e-003
2.163740e+003, 3.736336e-003
2.165668e+003, 4.406477e-003
2.167596e+003, 4.373026e-003
2.169525e+003, 4.526703e-003
2.171453e+003, 4.148545e-003
2.173382e+003, 4.120687e-003
2.175310e+003, 4.180783e-003
2.177239e+003, 3.887840e-003
2.179167e+003, 3.777387e-003
2.181096e+003, 4.003889e-003
2.183024e+003, 3.718211e-003
2.184953e+003, 4.306334e-003
2.186881e+003, 4.755868e-003
2.188810e+003, 4.967593e-003
2.190738e+003, 5.164485e-003
2.192667e+003, 4.637045e-003
2.194595e+003, 4.094072e-003
2.196523e+003, 4.836115e-003
2.198452e+003, 5.315090e-003
2.200380e+003, 5.650132e-003
2.202309e+003, 5.541539e-003
2.204237e+003, 5.264250e-003
2.206166e+003, 5.204905e-003
2.208094e+003, 5.166844e-003
2.210023e+003, 4.909380e-003
2.211951e+003, 4.525499e-003
2.213880e+003, 4.454101e-003
2.215808e+003, 4.795717e-003
2.217737e+003, 4.904361e-003
2.219665e+003, 4.927313e-003
2.221594e+003, 4.791473e-003
2.223522e+003, 4.238967e-003
2.225450e+003, 4.189804e-003
2.227379e+003, 4.305343e-003
2.229307e+003, 4.419493e-003
2.231236e+003, 4.259539e-003
2.233164e+003, 4.475639e-003
2.235093e+003, 5.276123e-003
2.237021e+003, 4.970611e-003
2.238950e+003, 5.096939e-003
2.240878e+003, 5.629699e-003
2.242807e+003, 5.236378e-003
2.244735e+003, 5.199098e-003
2.246664e+003, 5.272231e-003
2.248592e+003, 5.066424e-003
2.250521e+003, 4.224135e-003
2.252449e+003, 3.924585e-003
2.254377e+003, 4.390483e-003
2.256306e+003, 4.445173e-003
2.258234e+003, 4.278253e-003
2.260163e+003, 4.338879e-003
2.262091e+003, 4.081658e-003
2.264020e+003, 4.074655e-003
2.265948e+003, 4.024553e-003
2.267877e+003, 4.107860e-003
2.269805e+003, 4.818356e-003
2.271734e+003, 5.308773e-003
2.273662e+003, 5.609531e-003
2.275591e+003, 5.800667e-003
2.277519e+003, 5.549811e-003
2.279448e+003, 5.468599e-003
2.281376e+003, 5.013235e-003
2.283304e+003, 5.135510e-003
2.285233e+003, 5.734195e-003
2.287161e+003, 5.384293e-003
2.289090e+003, 5.050077e-003
2.291018e+003, 4.878314e-003
2.292947e+003, 5.043201e-003
2.294875e+003, 5.079645e-003
2.296804e+003, 4.938927e-003
2.298732e+003, 5.013642e-003
2.300661e+003, 4.987590e-003
2.302589e+003, 4.900234e-003
2.304518e+003, 4.969538e-003
2.306446e+003, 5.078407e-003
2.308375e+003, 4.676703e-003
2.310303e+003, 4.678940e-003
2.312231e+003, 5.212475e-003
2.314160e+003, 5.303494e-003
2.316088e+003, 5.226647e-003
2.318017e+003, 5.376561e-003
2.319945e+003, 5.851003e-003
2.321874e+003, 5.910818e-003
2.323802e+003, 5.870829e-003
2.325731e+003, 5.817356e-003
2.327659e+003, 5.611866e-003
2.329588e+003, 5.672298e-003
2.331516e+003, 5.619229e-003
2.333445e+003, 5.521199e-003
2.335373e+003, 5.733468e-003
2.337302e+003, 5.785528e-003
2.339230e+003, 5.629233e-003
2.341158e+003, 5.660768e-003
2.343087e+003, 5.795866e-003
2.345015e+003, 5.672517e-003
2.346944e+003, 5.270580e-003
2.348872e+003, 4.930644e-003
2.350801e+003, 5.147083e-003
2.352729e+003, 5.296438e-003
2.354658e+003, 5.573645e-003
2.356586e+003, 6.068122e-003
2.358515e+003, 6.549432e-003
2.360443e+003, 6.696608e-003
2.362372e+003, 6.564809e-003
2.364300e+003, 6.683208e-003
2.366229e+003, 6.375737e-003
2.368157e+003, 6.012616e-003
2.370085e+003, 5.672541e-003
2.372014e+003, 5.376071e-003
2.373942e+003, 5.272829e-003
2.375871e+003, 4.898376e-003
2.377799e+003, 4.596051e-003
2.379728e+003, 4.448618e-003
2.381656e+003, 4.440214e-003
2.383585e+003, 4.536743e-003
2.385513e+003, 4.679243e-003
2.387442e+003, 4.520894e-003
2.389370e+003, 4.310750e-003
2.391299e+003, 4.303308e-003
2.393227e+003, 4.315082e-003
2.395156e+003, 4.429516e-003
2.397084e+003, 4.451656e-003
2.399012e+003, 4.533315e-003
2.400941e+003, 4.676460e-003
2.402869e+003, 4.422209e-003
2.404798e+003, 4.004941e-003
2.406726e+003, 3.831286e-003
2.408655e+003, 4.031779e-003
2.410583e+003, 4.445750e-003
2.412512e+003, 4.462004e-003
2.414440e+003, 4.415256e-003
2.416369e+003, 4.609922e-003
2.418297e+003, 4.641176e-003
2.420226e+003, 4.488596e-003
2.422154e+003, 4.393391e-003
2.424083e+003, 4.326520e-003
2.426011e+003, 4.147128e-003
2.427939e+003, 4.466080e-003
2.429868e+003, 4.694260e-003
2.431796e+003, 4.604993e-003
2.433725e+003, 4.254777e-003
2.435653e+003, 4.390969e-003
2.437582e+003, 4.848490e-003
2.439510e+003, 5.078348e-003
2.441439e+003, 4.746418e-003
2.443367e+003, 4.108781e-003
2.445296e+003, 4.348743e-003
2.447224e+003, 5.064008e-003
2.449153e+003, 5.130643e-003
2.451081e+003, 4.998099e-003
2.453010e+003, 5.011527e-003
2.454938e+003, 5.086336e-003
2.456866e+003, 5.176977e-003
2.458795e+003, 5.117448e-003
2.460723e+003, 4.683375e-003
2.462652e+003, 4.360878e-003
2.464580e+003, 4.372587e-003
2.466509e+003, 4.111598e-003
2.468437e+003, 4.214911e-003
2.470366e+003, 4.646678e-003
2.472294e+003, 4.565010e-003
2.474223e+003, 4.195802e-003
2.476151e+003, 4.063126e-003
2.478080e+003, 4.312675e-003
2.480008e+003, 4.736554e-003
2.481937e+003, 4.771887e-003
2.483865e+003, 4.605184e-003
2.485793e+003, 4.645665e-003
2.487722e+003, 4.495334e-003
2.489650e+003, 4.394327e-003
2.491579e+003, 4.643953e-003
2.493507e+003, 5.053880e-003
2.495436e+003, 5.269064e-003
2.497364e+003, 5.011280e-003
2.499293e+003, 4.578080e-003
2.501221e+003, 4.584552e-003
2.503150e+003, 4.820342e-003
2.505078e+003, 4.941628e-003
2.507007e+003, 5.064704e-003
2.508935e+003, 4.623486e-003
2.510864e+003, 4.617711e-003
2.512792e+003, 4.968138e-003
2.514720e+003, 4.928634e-003
2.516649e+003, 4.786027e-003
2.518577e+003, 4.664763e-003
2.520506e+003, 4.834854e-003
2.522434e+003, 4.870385e-003
2.524363e+003, 4.631034e-003
2.526291e+003, 4.633327e-003
2.528220e+003, 4.818610e-003
2.530148e+003, 4.652822e-003
2.532077e+003, 4.578552e-003
2.534005e+003, 4.677426e-003
2.535934e+003, 5.045248e-003
2.537862e+003, 5.108076e-003
2.539791e+003, 4.583225e-003
2.541719e+003, 4.459386e-003
2.543647e+003, 4.756455e-003
2.545576e+003, 4.900965e-003
2.547504e+003, 5.014843e-003
2.549433e+003, 4.787202e-003
2.551361e+003, 4.781259e-003
2.553290e+003, 5.208769e-003
2.555218e+003, 5.114664e-003
2.557147e+003, 4.889772e-003
2.559075e+003, 4.895960e-003
2.561004e+003, 4.972636e-003
2.562932e+003, 5.503152e-003
2.564861e+003, 5.467184e-003
2.566789e+003, 5.145844e-003
2.568718e+003, 5.577933e-003
2.570646e+003, 5.635128e-003
2.572574e+003, 5.257545e-003
2.574503e+003, 5.008796e-003
2.576431e+003, 5.083238e-003
2.578360e+003, 5.050944e-003
2.580288e+003, 5.096995e-003
2.582217e+003, 5.214892e-003
2.584145e+003, 5.208828e-003
2.586074e+003, 5.163509e-003
2.588002e+003, 5.268700e-003
2.589931e+003, 5.377155e-003
2.591859e+003, 5.429599e-003
2.593788e+003, 5.296796e-003
2.595716e+003, 5.213670e-003
2.597645e+003, 5.106806e-003
2.599573e+003, 5.168947e-003
2.601501e+003, 5.113663e-003
2.603430e+003, 5.118612e-003
2.605358e+003, 5.425110e-003
2.607287e+003, 5.751141e-003
2.609215e+003, 5.741960e-003
2.611144e+003, 5.828151e-003
2.613072e+003, 5.813343e-003
2.615001e+003, 5.824709e-003
2.616929e+003, 5.865207e-003
2.618858e+003, 5.998828e-003
2.620786e+003, 5.872073e-003
2.622715e+003, 5.714497e-003
2.624643e+003, 5.767142e-003
2.626572e+003, 5.641619e-003
2.628500e+003, 5.464291e-003
2.630428e+003, 5.725987e-003
2.632357e+003, 6.018906e-003
2.634285e+003, 5.892610e-003
2.636214e+003, 5.918644e-003
2.638142e+003, 6.185834e-003
2.640071e+003, 6.221612e-003
2.641999e+003, 6.006883e-003
2.643928e+003, 5.861335e-003
2.645856e+003, 5.823956e-003
2.647785e+003, 5.889343e-003
2.649713e+003, 6.204855e-003
2.651642e+003, 6.267607e-003
2.653570e+003, 6.125201e-003
2.655499e+003, 5.905204e-003
2.657427e+003, 5.954576e-003
2.659355e+003, 6.069293e-003
2.661284e+003, 5.806233e-003
2.663212e+003, 5.714978e-003
2.665141e+003, 5.905157e-003
2.667069e+003, 6.170359e-003
2.668998e+003, 6.157065e-003
2.670926e+003, 5.694835e-003
2.672855e+003, 5.510063e-003
2.674783e+003, 5.649686e-003
2.676712e+003, 5.912806e-003
2.678640e+003, 5.914059e-003
2.680569e+003, 5.931208e-003
2.682497e+003, 5.857248e-003
2.684426e+003, 5.943023e-003
2.686354e+003, 6.181831e-003
2.688282e+003, 6.051014e-003
2.690211e+003, 6.089529e-003
2.692139e+003, 6.336308e-003
2.694068e+003, 6.355424e-003
2.695996e+003, 6.381735e-003
2.697925e+003, 6.350746e-003
2.699853e+003, 6.313412e-003
2.701782e+003, 6.080190e-003
2.703710e+003, 6.067099e-003
2.705639e+003, 6.381472e-003
2.707567e+003, 6.487446e-003
2.709496e+003, 6.526397e-003
2.711424e+003, 6.775558e-003
2.713353e+003, 6.659620e-003
2.715281e+003, 6.541986e-003
2.717209e+003, 6.628060e-003
2.719138e+003, 6.596915e-003
2.721066e+003, 6.593745e-003
2.722995e+003, 6.576128e-003
2.724923e+003, 6.662809e-003
2.726852e+003, 6.865913e-003
2.728780e+003, 6.965296e-003
2.730709e+003, 7.107054e-003
2.732637e+003, 7.038416e-003
2.734566e+003, 6.898150e-003
2.736494e+003, 6.817413e-003
2.738423e+003, 6.812950e-003
2.740351e+003, 7.003725e-003
2.742280e+003, 7.249364e-003
2.744208e+003, 7.420731e-003
2.746136e+003, 7.374979e-003
2.748065e+003, 7.143577e-003
2.749993e+003, 7.177860e-003
2.751922e+003, 7.330444e-003
2.753850e+003, 7.460655e-003
2.755779e+003, 7.479426e-003
2.757707e+003, 7.534444e-003
2.759636e+003, 7.565966e-003
2.761564e+003, 7.440367e-003
2.763493e+003, 7.412241e-003
2.765421e+003, 7.371923e-003
2.767350e+003, 7.434756e-003
2.769278e+003, 7.736558e-003
2.771207e+003, 7.926361e-003
2.773135e+003, 7.851443e-003
2.775063e+003, 7.723778e-003
2.776992e+003, 7.646115e-003
2.778920e+003, 7.858023e-003
2.780849e+003, 8.086288e-003
2.782777e+003, 8.018797e-003
2.784706e+003, 7.930221e-003
2.786634e+003, 8.275755e-003
2.788563e+003, 8.236873e-003
2.790491e+003, 8.054495e-003
2.792420e+003, 8.156133e-003
2.794348e+003, 8.072040e-003
2.796277e+003, 7.879292e-003
2.798205e+003, 7.883824e-003
2.800134e+003, 8.211973e-003
2.802062e+003, 8.368635e-003
2.803990e+003, 8.348235e-003
2.805919e+003, 8.416832e-003
2.807847e+003, 8.341341e-003
2.809776e+003, 8.465131e-003
2.811704e+003, 8.833597e-003
2.813633e+003, 8.943559e-003
2.815561e+003, 8.893726e-003
2.817490e+003, 8.785054e-003
2.819418e+003, 8.762790e-003
2.821347e+003, 8.921257e-003
2.823275e+003, 8.899320e-003
2.825204e+003, 8.898938e-003
2.827132e+003, 8.969113e-003
2.829061e+003, 9.273026e-003
2.830989e+003, 9.402250e-003
2.832917e+003, 9.329819e-003
2.834846e+003, 9.204849e-003
2.836774e+003, 9.268071e-003
2.838703e+003, 9.552298e-003
2.840631e+003, 9.707177e-003
2.842560e+003, 9.960088e-003
2.844488e+003, 1.000669e-002
2.846417e+003, 9.504865e-003
2.848345e+003, 8.947795e-003
2.850274e+003, 8.967786e-003
2.852202e+003, 9.347003e-003
2.854131e+003, 9.700615e-003
2.856059e+003, 1.017225e-002
2.857988e+003, 1.032791e-002
2.859916e+003, 1.014365e-002
2.861844e+003, 1.024766e-002
2.863773e+003, 1.058778e-002
2.865701e+003, 1.085037e-002
2.867630e+003, 1.112267e-002
2.869558e+003, 1.132917e-002
2.871487e+003, 1.129640e-002
2.873415e+003, 1.120480e-002
2.875344e+003, 1.134156e-002
2.877272e+003, 1.112922e-002
2.879201e+003, 1.073108e-002
2.881129e+003, 1.071781e-002
2.883058e+003, 1.091880e-002
2.884986e+003, 1.102170e-002
2.886915e+003, 1.111500e-002
2.888843e+003, 1.101895e-002
2.890771e+003, 1.078182e-002
2.892700e+003, 1.108209e-002
2.894628e+003, 1.133949e-002
2.896557e+003, 1.152045e-002
2.898485e+003, 1.159600e-002
2.900414e+003, 1.175915e-002
2.902342e+003, 1.186417e-002
2.904271e+003, 1.175593e-002
2.906199e+003, 1.188809e-002
2.908128e+003, 1.218067e-002
2.910056e+003, 1.188353e-002
2.911985e+003, 1.127528e-002
2.913913e+003, 1.096469e-002
2.915842e+003, 1.116037e-002
2.917770e+003, 1.116928e-002
2.919698e+003, 1.151599e-002
2.921627e+003, 1.211615e-002
2.923555e+003, 1.275435e-002
2.925484e+003, 1.284524e-002
2.927412e+003, 1.227669e-002
2.929341e+003, 1.227228e-002
2.931269e+003, 1.252716e-002
2.933198e+003, 1.266814e-002
2.935126e+003, 1.288143e-002
2.937055e+003, 1.282751e-002
2.938983e+003, 1.243169e-002
2.940912e+003, 1.220613e-002
2.942840e+003, 1.238607e-002
2.944769e+003, 1.257887e-002
2.946697e+003, 1.258104e-002
2.948625e+003, 1.264843e-002
2.950554e+003, 1.315602e-002
2.952482e+003, 1.363135e-002
2.954411e+003, 1.395516e-002
2.956339e+003, 1.439880e-002
2.958268e+003, 1.474629e-002
2.960196e+003, 1.446479e-002
2.962125e+003, 1.407245e-002
2.964053e+003, 1.368783e-002
2.965982e+003, 1.356302e-002
2.967910e+003, 1.349507e-002
2.969839e+003, 1.307131e-002
2.971767e+003, 1.253748e-002
2.973696e+003, 1.192558e-002
2.975624e+003, 1.172164e-002
2.977552e+003, 1.171743e-002
2.979481e+003, 1.141829e-002
2.981409e+003, 1.119295e-002
2.983338e+003, 1.125028e-002
2.985266e+003, 1.108012e-002
2.987195e+003, 1.098950e-002
2.989123e+003, 1.108574e-002
2.991052e+003, 1.106316e-002
2.992980e+003, 1.106845e-002
2.994909e+003, 1.102379e-002
2.996837e+003, 1.120879e-002
2.998766e+003, 1.154863e-002
3.000694e+003, 1.136512e-002
3.002623e+003, 1.120419e-002
3.004551e+003, 1.160802e-002
3.006479e+003, 1.148808e-002
3.008408e+003, 1.140841e-002
3.010336e+003, 1.156097e-002
3.012265e+003, 1.214422e-002
3.014193e+003, 1.236424e-002
3.016122e+003, 1.262475e-002
3.018050e+003, 1.244599e-002
3.019979e+003, 1.182209e-002
3.021907e+003, 1.156622e-002
3.023836e+003, 1.165927e-002
3.025764e+003, 1.185926e-002
3.027693e+003, 1.208563e-002
3.029621e+003, 1.233837e-002
3.031550e+003, 1.232893e-002
3.033478e+003, 1.235915e-002
3.035406e+003, 1.242066e-002
3.037335e+003, 1.259430e-002
3.039263e+003, 1.243634e-002
3.041192e+003, 1.243034e-002
3.043120e+003, 1.276210e-002
3.045049e+003, 1.274446e-002
3.046977e+003, 1.264474e-002
3.048906e+003, 1.233800e-002
3.050834e+003, 1.213456e-002
3.052763e+003, 1.236484e-002
3.054691e+003, 1.252778e-002
3.056620e+003, 1.336156e-002
3.058548e+003, 1.385902e-002
3.060477e+003, 1.363042e-002
3.062405e+003, 1.356198e-002
3.064333e+003, 1.356431e-002
3.066262e+003, 1.349367e-002
3.068190e+003, 1.328688e-002
3.070119e+003, 1.299727e-002
3.072047e+003, 1.313664e-002
3.073976e+003, 1.353524e-002
3.075904e+003, 1.338618e-002
3.077833e+003, 1.326793e-002
3.079761e+003, 1.390470e-002
3.081690e+003, 1.403913e-002
3.083618e+003, 1.365785e-002
3.085547e+003, 1.405732e-002
3.087475e+003, 1.453340e-002
3.089404e+003, 1.446409e-002
3.091332e+003, 1.397569e-002
3.093260e+003, 1.391436e-002
3.095189e+003, 1.408039e-002
3.097117e+003, 1.431903e-002
3.099046e+003, 1.455363e-002
3.100974e+003, 1.481007e-002
3.102903e+003, 1.500395e-002
3.104831e+003, 1.463536e-002
3.106760e+003, 1.449207e-002
3.108688e+003, 1.479974e-002
3.110617e+003, 1.518103e-002
3.112545e+003, 1.533901e-002
3.114474e+003, 1.480502e-002
3.116402e+003, 1.456967e-002
3.118331e+003, 1.482598e-002
3.120259e+003, 1.515592e-002
3.122188e+003, 1.553247e-002
3.124116e+003, 1.532216e-002
3.126044e+003, 1.524252e-002
3.127973e+003, 1.531697e-002
3.129901e+003, 1.538855e-002
3.131830e+003, 1.567015e-002
3.133758e+003, 1.574572e-002
3.135687e+003, 1.573171e-002
3.137615e+003, 1.602721e-002
3.139544e+003, 1.598954e-002
3.141472e+003, 1.570004e-002
3.143401e+003, 1.557289e-002
3.145329e+003, 1.578006e-002
3.147258e+003, 1.600595e-002
3.149186e+003, 1.600347e-002
3.151115e+003, 1.603171e-002
3.153043e+003, 1.595205e-002
3.154971e+003, 1.632604e-002
3.156900e+003, 1.684436e-002
3.158828e+003, 1.692719e-002
3.160757e+003, 1.650548e-002
3.162685e+003, 1.625611e-002
3.164614e+003, 1.627436e-002
3.166542e+003, 1.659002e-002
3.168471e+003, 1.705686e-002
3.170399e+003, 1.696232e-002
3.172328e+003, 1.671127e-002
3.174256e+003, 1.673819e-002
3.176185e+003, 1.677825e-002
3.178113e+003, 1.668927e-002
3.180042e+003, 1.666927e-002
3.181970e+003, 1.693461e-002
3.183898e+003, 1.717850e-002
3.185827e+003, 1.705463e-002
3.187755e+003, 1.704212e-002
3.189684e+003, 1.714152e-002
3.191612e+003, 1.693976e-002
3.193541e+003, 1.695080e-002
3.195469e+003, 1.725524e-002
3.197398e+003, 1.786233e-002
3.199326e+003, 1.769590e-002
3.201255e+003, 1.728052e-002
3.203183e+003, 1.786355e-002
3.205112e+003, 1.817333e-002
3.207040e+003, 1.813512e-002
3.208969e+003, 1.811583e-002
3.210897e+003, 1.785778e-002
3.212825e+003, 1.764345e-002
3.214754e+003, 1.820672e-002
3.216682e+003, 1.834210e-002
3.218611e+003, 1.803822e-002
3.220539e+003, 1.726553e-002
3.222468e+003, 1.690294e-002
3.224396e+003, 1.723117e-002
3.226325e+003, 1.791441e-002
3.228253e+003, 1.853742e-002
3.230182e+003, 1.863836e-002
3.232110e+003, 1.891828e-002
3.234039e+003, 1.890443e-002
3.235967e+003, 1.846083e-002
3.237896e+003, 1.860842e-002
3.239824e+003, 1.843586e-002
3.241752e+003, 1.792702e-002
3.243681e+003, 1.811802e-002
3.245609e+003, 1.839838e-002
3.247538e+003, 1.851839e-002
3.249466e+003, 1.862152e-002
3.251395e+003, 1.857139e-002
3.253323e+003, 1.850034e-002
3.255252e+003, 1.851443e-002
3.257180e+003, 1.870512e-002
3.259109e+003, 1.908846e-002
3.261037e+003, 1.912916e-002
3.262966e+003, 1.883878e-002
3.264894e+003, 1.832179e-002
3.266823e+003, 1.838531e-002
3.268751e+003, 1.886337e-002
3.270679e+003, 1.923471e-002
3.272608e+003, 1.936503e-002
3.274536e+003, 1.909289e-002
3.276465e+003, 1.886635e-002
3.278393e+003, 1.902127e-002
3.280322e+003, 1.928986e-002
3.282250e+003, 1.912192e-002
3.284179e+003, 1.939826e-002
3.286107e+003, 1.937891e-002
3.288036e+003, 1.919214e-002
3.289964e+003, 1.941373e-002
3.291893e+003, 1.904985e-002
3.293821e+003, 1.899827e-002
3.295750e+003, 1.887191e-002
3.297678e+003, 1.862309e-002
3.299606e+003, 1.870382e-002
3.301535e+003, 1.912572e-002
3.303463e+003, 1.960048e-002
3.305392e+003, 1.975132e-002
3.307320e+003, 1.986568e-002
3.309249e+003, 1.964977e-002
3.311177e+003, 1.947645e-002
3.313106e+003, 1.980635e-002
3.315034e+003, 2.006485e-002
3.316963e+003, 1.995992e-002
3.318891e+003, 1.960680e-002
3.320820e+003, 1.964984e-002
3.322748e+003, 1.963687e-002
3.324677e+003, 2.014690e-002
3.326605e+003, 2.050551e-002
3.328533e+003, 2.018830e-002
3.330462e+003, 2.026877e-002
3.332390e+003, 2.000470e-002
3.334319e+003, 1.997412e-002
3.336247e+003, 2.053445e-002
3.338176e+003, 2.052260e-002
3.340104e+003, 2.059783e-002
3.342033e+003, 2.094779e-002
3.343961e+003, 2.050589e-002
3.345890e+003, 2.000214e-002
3.347818e+003, 1.988059e-002
3.349747e+003, 1.988287e-002
3.351675e+003, 2.006440e-002
3.353604e+003, 2.017323e-002
3.355532e+003, 2.028332e-002
3.357460e+003, 2.043188e-002
3.359389e+003, 2.047235e-002
3.361317e+003, 2.071437e-002
3.363246e+003, 2.084478e-002
3.365174e+003, 2.056967e-002
3.367103e+003, 2.000154e-002
3.369031e+003, 2.003887e-002
3.370960e+003, 2.026206e-002
3.372888e+003, 1.995534e-002
3.374817e+003, 1.949717e-002
3.376745e+003, 1.957742e-002
3.378674e+003, 1.948147e-002
3.380602e+003, 1.980642e-002
3.382531e+003, 2.044827e-002
3.384459e+003, 2.014368e-002
3.386387e+003, 1.970951e-002
3.388316e+003, 1.973970e-002
3.390244e+003, 1.958843e-002
3.392173e+003, 1.942710e-002
3.394101e+003, 1.942681e-002
3.396030e+003, 1.943918e-002
3.397958e+003, 1.950197e-002
3.399887e+003, 1.962715e-002
3.401815e+003, 1.983849e-002
3.403744e+003, 1.985574e-002
3.405672e+003, 1.923326e-002
3.407601e+003, 1.936055e-002
3.409529e+003, 1.978849e-002
3.411458e+003, 1.972770e-002
3.413386e+003, 1.967817e-002
3.415314e+003, 1.944559e-002
3.417243e+003, 1.926977e-002
3.419171e+003, 1.914989e-002
3.421100e+003, 1.907109e-002
3.423028e+003, 1.869470e-002
3.424957e+003, 1.884584e-002
3.426885e+003, 1.900384e-002
3.428814e+003, 1.901403e-002
3.430742e+003, 1.874643e-002
3.432671e+003, 1.831356e-002
3.434599e+003, 1.895284e-002
3.436528e+003, 1.915489e-002
3.438456e+003, 1.848615e-002
3.440385e+003, 1.796246e-002
3.442313e+003, 1.779161e-002
3.444241e+003, 1.844538e-002
3.446170e+003, 1.852724e-002
3.448098e+003, 1.817104e-002
3.450027e+003, 1.811405e-002
3.451955e+003, 1.777050e-002
3.453884e+003, 1.756212e-002
3.455812e+003, 1.773513e-002
3.457741e+003, 1.754489e-002
3.459669e+003, 1.774474e-002
3.461598e+003, 1.826775e-002
3.463526e+003, 1.840870e-002
3.465455e+003, 1.801363e-002
3.467383e+003, 1.803885e-002
3.469312e+003, 1.816914e-002
3.471240e+003, 1.767604e-002
3.473168e+003, 1.715044e-002
3.475097e+003, 1.654187e-002
3.477025e+003, 1.661939e-002
3.478954e+003, 1.690607e-002
3.480882e+003, 1.710191e-002
3.482811e+003, 1.726960e-002
3.484739e+003, 1.729664e-002
3.486668e+003, 1.706489e-002
3.488596e+003, 1.668295e-002
3.490525e+003, 1.595680e-002
3.492453e+003, 1.549636e-002
3.494382e+003, 1.635770e-002
3.496310e+003, 1.690393e-002
3.498239e+003, 1.670624e-002
3.500167e+003, 1.665420e-002
3.502095e+003, 1.635623e-002
3.504024e+003, 1.622555e-002
3.505952e+003, 1.601959e-002
3.507881e+003, 1.563833e-002
3.509809e+003, 1.578707e-002
3.511738e+003, 1.581814e-002
3.513666e+003, 1.589714e-002
3.515595e+003, 1.567843e-002
3.517523e+003, 1.527456e-002
3.519452e+003, 1.530798e-002
3.521380e+003, 1.498121e-002
3.523309e+003, 1.522186e-002
3.525237e+003, 1.546434e-002
3.527166e+003, 1.509185e-002
3.529094e+003, 1.470982e-002
3.531022e+003, 1.473530e-002
3.532951e+003, 1.428834e-002
3.534879e+003, 1.459262e-002
3.536808e+003, 1.536166e-002
3.538736e+003, 1.508781e-002
3.540665e+003, 1.439811e-002
3.542593e+003, 1.412738e-002
3.544522e+003, 1.350769e-002
3.546450e+003, 1.330151e-002
3.548379e+003, 1.331950e-002
3.550307e+003, 1.325004e-002
3.552236e+003, 1.317909e-002
3.554164e+003, 1.279312e-002
3.556093e+003, 1.241786e-002
3.558021e+003, 1.246936e-002
3.559949e+003, 1.272485e-002
3.561878e+003, 1.313276e-002
3.563806e+003, 1.333930e-002
3.565735e+003, 1.303334e-002
3.567663e+003, 1.262831e-002
3.569592e+003, 1.236073e-002
3.571520e+003, 1.224774e-002
3.573449e+003, 1.191364e-002
3.575377e+003, 1.176747e-002
3.577306e+003, 1.174749e-002
3.579234e+003, 1.141363e-002
3.581163e+003, 1.110266e-002
3.583091e+003, 1.075159e-002
3.585020e+003, 1.135980e-002
3.586948e+003, 1.168650e-002
3.588876e+003, 1.094892e-002
3.590805e+003, 9.995336e-003
3.592733e+003, 1.022591e-002
3.594662e+003, 1.015151e-002
3.596590e+003, 9.521223e-003
3.598519e+003, 8.879010e-003
3.600447e+003, 9.055172e-003
3.602376e+003, 9.182202e-003
3.604304e+003, 8.983228e-003
3.606233e+003, 8.583661e-003
3.608161e+003, 9.011631e-003
3.610090e+003, 8.990785e-003
3.612018e+003, 8.940543e-003
3.613947e+003, 9.175541e-003
3.615875e+003, 9.307541e-003
3.617803e+003, 1.014976e-002
3.619732e+003, 9.655352e-003
3.621660e+003, 8.540403e-003
3.623589e+003, 7.892109e-003
3.625517e+003, 6.749514e-003
3.627446e+003, 6.252446e-003
3.629374e+003, 5.940775e-003
3.631303e+003, 5.716365e-003
3.633231e+003, 5.326630e-003
3.635160e+003, 5.222337e-003
3.637088e+003, 5.565343e-003
3.639017e+003, 5.851661e-003
3.640945e+003, 5.770077e-003
3.642874e+003, 5.315971e-003
3.644802e+003, 4.936245e-003
3.646730e+003, 4.295224e-003
3.648659e+003, 4.997664e-003
3.650587e+003, 4.757973e-003
3.652516e+003, 3.523784e-003
3.654444e+003, 3.254030e-003
3.656373e+003, 2.860369e-003
3.658301e+003, 2.280283e-003
3.660230e+003, 1.781637e-003
3.662158e+003, 1.032954e-003
3.664087e+003, 8.163857e-004
3.666015e+003, 9.189881e-004
3.667944e+003, 1.906893e-003
3.669872e+003, 2.793040e-003
3.671801e+003, 1.748768e-003
3.673729e+003, 1.795723e-003
3.675657e+003, 1.971222e-003
3.677586e+003, 7.084162e-004
3.679514e+003, 6.500844e-004
3.681443e+003, 5.921702e-004
3.683371e+003, 1.183237e-004
3.685300e+003, 2.794161e-004
3.687228e+003, 1.702961e-003
3.689157e+003, 1.708820e-003
3.691085e+003, 5.675766e-004
3.693014e+003, 3.267151e-004
3.694942e+003, 3.307560e-004
3.696871e+003, 3.198199e-005
3.698799e+003, 3.277177e-004
3.700728e+003, -3.451740e-005
3.702656e+003, -5.226499e-004
3.704584e+003, -9.969088e-005
3.706513e+003, 5.298213e-005
3.708441e+003, 7.496809e-005
3.710370e+003, 6.550366e-005
3.712298e+003, 4.391032e-004
3.714227e+003, 3.532508e-004
3.716155e+003, 5.699092e-004
3.718084e+003, 9.384410e-004
3.720012e+003, 4.519399e-004
3.721941e+003, -5.584547e-004
3.723869e+003, -1.049720e-003
3.725798e+003, -6.574582e-004
3.727726e+003, -1.299476e-004
3.729655e+003, -1.376001e-004
3.731583e+003, -5.151058e-004
3.733511e+003, -4.549465e-004
3.735440e+003, 7.874174e-004
3.737368e+003, 1.400192e-003
3.739297e+003, 9.744909e-004
3.741225e+003, 9.197772e-004
3.743154e+003, 1.836539e-003
3.745082e+003, 1.420981e-003
3.747011e+003, 3.117947e-004
3.748939e+003, 3.971652e-004
3.750868e+003, 4.003329e-004
3.752796e+003, 1.581320e-004
3.754725e+003, -2.687578e-004
3.756653e+003, -9.742378e-005
3.758582e+003, -3.134093e-004
3.760510e+003, -2.462030e-004
3.762438e+003, 2.337287e-004
3.764367e+003, 4.606330e-004
3.766295e+003, 2.789794e-004
3.768224e+003, 1.905709e-004
3.770152e+003, 5.015047e-004
3.772081e+003, 6.944143e-004
3.774009e+003, 4.145435e-004
3.775938e+003, 2.138994e-004
3.777866e+003, 2.783434e-004
3.779795e+003, 3.739108e-004
3.781723e+003, -5.191534e-004
3.783652e+003, -9.443708e-004
3.785580e+003, -8.139750e-004
3.787509e+003, -1.089338e-003
3.789437e+003, -1.106468e-003
3.791365e+003, -7.013810e-004
3.793294e+003, -1.335831e-003
3.795222e+003, -1.553878e-003
3.797151e+003, -1.027063e-003
3.799079e+003, -6.668825e-006
3.801008e+003, 9.051205e-004
3.802936e+003, 4.113054e-004
3.804865e+003, 7.144579e-005
3.806793e+003, 2.011379e-004
3.808722e+003, -3.497214e-004
3.810650e+003, -1.130847e-004
3.812579e+003, -1.072127e-004
3.814507e+003, 6.030430e-005
3.816436e+003, 6.631349e-004
3.818364e+003, 1.736040e-004
3.820292e+003, 6.434053e-004
3.822221e+003, 9.616302e-004
3.824149e+003, 8.984557e-004
3.826078e+003, 5.470836e-004
3.828006e+003, -1.622625e-004
3.829935e+003, -2.715394e-006
3.831863e+003, 7.531426e-004
3.833792e+003, 7.790517e-004
3.835720e+003, 4.251064e-004
3.837649e+003, 5.421970e-004
3.839577e+003, -2.411525e-004
3.841506e+003, -6.057359e-004
3.843434e+003, -3.647871e-004
3.845363e+003, -2.769577e-004
3.847291e+003, -7.798306e-004
3.849219e+003, -3.728727e-004
3.851148e+003, 9.794028e-004
3.853076e+003, 1.968146e-003
3.855005e+003, 8.515504e-004
3.856933e+003, -2.178733e-004
3.858862e+003, -3.935108e-004
3.860790e+003, -9.104429e-004
3.862719e+003, -7.973005e-004
3.864647e+003, 1.253976e-005
3.866576e+003, 1.091516e-004
3.868504e+003, 4.831057e-005
3.870433e+003, -3.126371e-004
3.872361e+003, -1.203746e-003
3.874290e+003, -1.457417e-003
3.876218e+003, -1.624180e-003
3.878146e+003, -1.082652e-003
3.880075e+003, -6.523355e-004
3.882003e+003, -1.084756e-003
3.883932e+003, -7.212893e-004
3.885860e+003, -9.990793e-005
3.887789e+003, -4.034009e-004
3.889717e+003, -8.894225e-004
3.891646e+003, -9.970900e-004
3.893574e+003, -7.644469e-004
3.895503e+003, -1.319505e-003
3.897431e+003, -1.298987e-003
3.899360e+003, -2.115903e-004
3.901288e+003, 3.215540e-004
3.903217e+003, 1.474922e-004
3.905145e+003, -1.211339e-005
3.907073e+003, -4.881831e-004
3.909002e+003, -7.269171e-004
3.910930e+003, -1.031373e-003
3.912859e+003, -1.462001e-003
3.914787e+003, -1.267129e-003
3.916716e+003, -7.971939e-004
3.918644e+003, -5.800473e-004
3.920573e+003, -7.850972e-004
3.922501e+003, -9.738384e-004
3.924430e+003, -1.134274e-003
3.926358e+003, -1.287973e-003
3.928287e+003, -1.161515e-003
3.930215e+003, -6.566762e-004
3.932144e+003, -8.153564e-004
3.934072e+003, -1.057672e-003
3.936000e+003, -6.007753e-004
3.937929e+003, -6.800941e-004
3.939857e+003, -7.075630e-004
3.941786e+003, -5.909107e-004
3.943714e+003, -1.125494e-003
3.945643e+003, -1.211349e-003
3.947571e+003, -8.350508e-004
3.949500e+003, -5.182304e-004
3.951428e+003, -5.465933e-004
3.953357e+003, -1.070441e-003
3.955285e+003, -1.578524e-003
3.957214e+003, -1.763852e-003
3.959142e+003, -7.907195e-004
3.961071e+003, -2.726840e-004
3.962999e+003, -9.943597e-004
3.964927e+003, -1.198455e-003
3.966856e+003, -1.071089e-003
3.968784e+003, -1.129542e-003
3.970713e+003, -1.252746e-003
3.972641e+003, -9.560348e-004
3.974570e+003, -6.746487e-004
3.976498e+003, -1.081233e-003
3.978427e+003, -1.259968e-003
3.980355e+003, -1.359800e-003
3.982284e+003, -1.269852e-003
3.984212e+003, -1.146169e-003
3.986141e+003, -1.134291e-003
3.988069e+003, -1.375270e-003
3.989998e+003, -1.015376e-003
3.991926e+003, -8.755771e-004
3.993854e+003, -1.157823e-003
3.995783e+003, -1.022598e-003
3.997711e+003, -1.038298e-003
3.999640e+003, -1.333439e-003
4.001568e+003, 0.000000e+000
##END=



