##NAMES=Argesite
##RRUFFID=R130008
##IDEAL CHEMISTRY=(N^3-^H_4_)_7_Bi^3+^_3_Cl_16_
##LOCALITY=La Fossa crater, Vulcano, Aeolian Islands, Sicily, Italy
##OWNER=Francesco Demartin
##SOURCE=Francesco Demartin
##DESCRIPTION=Pale-yellow crystals up to 0.15 mm in length, associated with bismuthinite, adranosite, brontesite, demicheleite-(Br), demicheleite-(Cl), and panichiite. Data from Demartin et al (2012).
##STATUS=The identification of this mineral is confirmed by single-crystal X-ray diffraction and chemical analysis.
##URL=rruff.info/R130008
##MEASURED CHEMISTRY=[(NH_4_)_6.29_K_0.91_Tl_0.06_]_Σ=7.26_Bi_2.93_(Cl_13.33_Br_2.37_I_0.11_)_Σ=15.81_
999.9101, -0.3200650
1000.874, -0.3211270
1001.839, -0.3223540
1002.803, -0.3234040
1003.767, -0.3239080
1004.731, -0.3237480
1005.695, -0.3231830
1006.660, -0.3227460
1007.624, -0.3229600
1008.588, -0.3240320
1009.552, -0.3257190
1010.517, -0.3274740
1011.481, -0.3287920
1012.445, -0.3295180
1013.409, -0.3299170
1014.374, -0.3304610
1015.338, -0.3314850
1016.302, -0.3329290
1017.266, -0.3343600
1018.231, -0.3352750
1019.195, -0.3354590
1020.159, -0.3351480
1021.123, -0.3348950
1022.088, -0.3352300
1023.052, -0.3363240
1024.016, -0.3378920
1024.980, -0.3393900
1025.944, -0.3403920
1026.909, -0.3408520
1027.873, -0.3411060
1028.837, -0.3416240
1029.801, -0.3426800
1030.766, -0.3441370
1031.730, -0.3455150
1032.694, -0.3463330
1033.658, -0.3464520
1034.623, -0.3462110
1035.587, -0.3462640
1036.551, -0.3472080
1037.515, -0.3492130
1038.479, -0.3518740
1039.444, -0.3544360
1040.408, -0.3562550
1041.372, -0.3571680
1042.336, -0.3575650
1043.301, -0.3581370
1044.265, -0.3594470
1045.229, -0.3615740
1046.193, -0.3640540
1047.158, -0.3661860
1048.122, -0.3674990
1049.086, -0.3680440
1050.050, -0.3683620
1051.015, -0.3691390
1051.979, -0.3707610
1052.943, -0.3730140
1053.907, -0.3751820
1054.871, -0.3765170
1055.836, -0.3767850
1056.800, -0.3765040
1057.764, -0.3767190
1058.728, -0.3784240
1059.693, -0.3819050
1060.657, -0.3864320
1061.621, -0.3905980
1062.585, -0.3931570
1063.550, -0.3938090
1064.514, -0.3933930
1065.478, -0.3933970
1066.442, -0.3950510
1067.406, -0.3985060
1068.371, -0.4026450
1069.335, -0.4057780
1070.299, -0.4067860
1071.263, -0.4059140
1072.228, -0.4046880
1073.192, -0.4050180
1074.156, -0.4080120
1075.120, -0.4131770
1076.085, -0.4186220
1077.049, -0.4222240
1078.013, -0.4229610
1078.977, -0.4214720
1079.942, -0.4195680
1080.906, -0.4190820
1081.870, -0.4207520
1082.834, -0.4238090
1083.798, -0.4265610
1084.763, -0.4275840
1085.727, -0.4266340
1086.691, -0.4247270
1087.655, -0.4234330
1088.620, -0.4238730
1089.584, -0.4260160
1090.548, -0.4286830
1091.512, -0.4303420
1092.476, -0.4301190
1093.441, -0.4283220
1094.405, -0.4262070
1095.369, -0.4252010
1096.333, -0.4260310
1097.298, -0.4281970
1098.262, -0.4301860
1099.226, -0.4303940
1100.190, -0.4281750
1101.155, -0.4242880
1102.119, -0.4204930
1103.083, -0.4185740
1104.047, -0.4193130
1105.012, -0.4219720
1105.976, -0.4246940
1106.940, -0.4256570
1107.904, -0.4241870
1108.869, -0.4211010
1109.833, -0.4181440
1110.797, -0.4169170
1111.761, -0.4179100
1112.725, -0.4202070
1113.690, -0.4220970
1114.654, -0.4222210
1115.618, -0.4204280
1116.582, -0.4178170
1117.547, -0.4160330
1118.511, -0.4162590
1119.475, -0.4184890
1120.439, -0.4215360
1121.403, -0.4238270
1122.368, -0.4244380
1123.332, -0.4236580
1124.296, -0.4227250
1125.260, -0.4229810
1126.225, -0.4249740
1127.189, -0.4280600
1128.153, -0.4307930
1129.117, -0.4318810
1130.082, -0.4310400
1131.046, -0.4291790
1132.010, -0.4278770
1132.974, -0.4285060
1133.939, -0.4314560
1134.903, -0.4358640
1135.867, -0.4400490
1136.831, -0.4424610
1137.796, -0.4425360
1138.760, -0.4409440
1139.724, -0.4391570
1140.688, -0.4386300
1141.652, -0.4400020
1142.617, -0.4427450
1143.581, -0.4455170
1144.545, -0.4470050
1145.509, -0.4467380
1146.474, -0.4453460
1147.438, -0.4441430
1148.402, -0.4442440
1149.366, -0.4457830
1150.330, -0.4477430
1151.295, -0.4485990
1152.259, -0.4473350
1153.223, -0.4441300
1154.188, -0.4402850
1155.152, -0.4374690
1156.116, -0.4367540
1157.080, -0.4380250
1158.044, -0.4401280
1159.009, -0.4416580
1159.973, -0.4418210
1160.937, -0.4408360
1161.901, -0.4396420
1162.866, -0.4391870
1163.830, -0.4397650
1164.794, -0.4408340
1165.758, -0.4414490
1166.723, -0.4409700
1167.687, -0.4395390
1168.651, -0.4380110
1169.615, -0.4374170
1170.579, -0.4383150
1171.544, -0.4404020
1172.508, -0.4426450
1173.472, -0.4438830
1174.436, -0.4435180
1175.401, -0.4418740
1176.365, -0.4399870
1177.329, -0.4389760
1178.293, -0.4393810
1179.257, -0.4408670
1180.222, -0.4424770
1181.186, -0.4432610
1182.150, -0.4428780
1183.115, -0.4417890
1184.079, -0.4409510
1185.043, -0.4412050
1186.007, -0.4427200
1186.971, -0.4448730
1187.936, -0.4466630
1188.900, -0.4473880
1189.864, -0.4471020
1190.828, -0.4465500
1191.793, -0.4466530
1192.757, -0.4478840
1193.721, -0.4499300
1194.685, -0.4518940
1195.650, -0.4529000
1196.614, -0.4526860
1197.578, -0.4517860
1198.542, -0.4511720
1199.506, -0.4515970
1200.471, -0.4530740
1201.435, -0.4548760
1202.399, -0.4560600
1203.363, -0.4561190
1204.328, -0.4553220
1205.292, -0.4545160
1206.256, -0.4545480
1207.220, -0.4556880
1208.184, -0.4574250
1209.149, -0.4588030
1210.113, -0.4590700
1211.077, -0.4581990
1212.042, -0.4569440
1213.006, -0.4563900
1213.970, -0.4572560
1214.934, -0.4594050
1215.898, -0.4618880
1216.863, -0.4635190
1217.827, -0.4636180
1218.791, -0.4624460
1219.755, -0.4610650
1220.720, -0.4606830
1221.684, -0.4618920
1222.648, -0.4642510
1223.612, -0.4665360
1224.577, -0.4675190
1225.541, -0.4668080
1226.505, -0.4651500
1227.469, -0.4639470
1228.433, -0.4643310
1229.398, -0.4663940
1230.362, -0.4690830
1231.326, -0.4708430
1232.290, -0.4706160
1233.255, -0.4685490
1234.219, -0.4659380
1235.183, -0.4644680
1236.147, -0.4652120
1237.111, -0.4679640
1238.076, -0.4713390
1239.040, -0.4736200
1240.004, -0.4738360
1240.969, -0.4723420
1241.933, -0.4705690
1242.897, -0.4701280
1243.861, -0.4717840
1244.825, -0.4749420
1245.790, -0.4780040
1246.754, -0.4794200
1247.718, -0.4786970
1248.682, -0.4766930
1249.647, -0.4750910
1250.611, -0.4754040
1251.575, -0.4780690
1252.539, -0.4821360
1253.504, -0.4857930
1254.468, -0.4874580
1255.432, -0.4867060
1256.396, -0.4844680
1257.360, -0.4824570
1258.325, -0.4821950
1259.289, -0.4840810
1260.253, -0.4870710
1261.217, -0.4893760
1262.182, -0.4897850
1263.146, -0.4885140
1264.110, -0.4869990
1265.074, -0.4869290
1266.039, -0.4891830
1267.003, -0.4932330
1267.967, -0.4973460
1268.931, -0.4995980
1269.896, -0.4991530
1270.860, -0.4969610
1271.824, -0.4952280
1272.788, -0.4959340
1273.752, -0.4994920
1274.717, -0.5045560
1275.681, -0.5089550
1276.645, -0.5109720
1277.609, -0.5102580
1278.574, -0.5080220
1279.538, -0.5063910
1280.502, -0.5071680
1281.466, -0.5106760
1282.431, -0.5155240
1283.395, -0.5194790
1284.359, -0.5208190
1285.323, -0.5193450
1286.287, -0.5165390
1287.252, -0.5148100
1288.216, -0.5160710
1289.180, -0.5204000
1290.144, -0.5258930
1291.109, -0.5300040
1292.073, -0.5312530
1293.037, -0.5300330
1294.001, -0.5282290
1294.966, -0.5280750
1295.930, -0.5308150
1296.894, -0.5358770
1297.858, -0.5412090
1298.823, -0.5446440
1299.787, -0.5453040
1300.751, -0.5440660
1301.715, -0.5428980
1302.679, -0.5436120
1303.644, -0.5468070
1304.608, -0.5515760
1305.572, -0.5561150
1306.536, -0.5588670
1307.501, -0.5594960
1308.465, -0.5590120
1309.429, -0.5590390
1310.393, -0.5607820
1311.358, -0.5642900
1312.322, -0.5683440
1313.286, -0.5711350
1314.250, -0.5714740
1315.214, -0.5696790
1316.179, -0.5675140
1317.143, -0.5673240
1318.107, -0.5707770
1319.071, -0.5775960
1320.036, -0.5853870
1321.000, -0.5912770
1321.964, -0.5939050
1322.928, -0.5939170
1323.893, -0.5931460
1324.857, -0.5935450
1325.821, -0.5962800
1326.785, -0.6012020
1327.750, -0.6069640
1328.714, -0.6118790
1329.678, -0.6149710
1330.642, -0.6165330
1331.606, -0.6178590
1332.571, -0.6203420
1333.535, -0.6246200
1334.499, -0.6303850
1335.463, -0.6367710
1336.428, -0.6428870
1337.392, -0.6481950
1338.356, -0.6527350
1339.320, -0.6569760
1340.285, -0.6610740
1341.249, -0.6644740
1342.213, -0.6665570
1343.177, -0.6671960
1344.141, -0.6667980
1345.106, -0.6662560
1346.070, -0.6668860
1347.034, -0.6700620
1347.998, -0.6764320
1348.963, -0.6851820
1349.927, -0.6942430
1350.891, -0.7015260
1351.855, -0.7061930
1352.820, -0.7090700
1353.784, -0.7121270
1354.748, -0.7172540
1355.712, -0.7248820
1356.677, -0.7336310
1357.641, -0.7414860
1358.605, -0.7472770
1359.569, -0.7513790
1360.533, -0.7558130
1361.498, -0.7635620
1362.462, -0.7759200
1363.426, -0.7898970
1364.390, -0.8010800
1365.355, -0.8080080
1366.319, -0.8118570
1367.283, -0.8144730
1368.247, -0.8174030
1369.212, -0.8216070
1370.176, -0.8274590
1371.140, -0.8351030
1372.104, -0.8449060
1373.068, -0.8574540
1374.033, -0.8726740
1374.997, -0.8888000
1375.961, -0.9032850
1376.925, -0.9151350
1377.890, -0.9252860
1378.854, -0.9351110
1379.818, -0.9452580
1380.782, -0.9554360
1381.747, -0.9649180
1382.711, -0.9733030
1383.675, -0.9809170
1384.639, -0.9887050
1385.604, -0.9977940
1386.568, -1.008550
1387.532, -1.019420
1388.496, -1.027780
1389.460, -1.032660
1390.425, -1.035130
1391.389, -1.036750
1392.353, -1.038910
1393.317, -1.042850
1394.282, -1.049460
1395.246, -1.058180
1396.210, -1.065810
1397.174, -1.068470
1398.139, -1.065930
1399.103, -1.061440
1400.067, -1.057660
1401.031, -1.055000
1401.995, -1.052310
1402.960, -1.047860
1403.924, -1.040450
1404.888, -1.030550
1405.852, -1.020520
1406.817, -1.012560
1407.781, -1.006670
1408.745, -1.000560
1409.709, -0.9912310
1410.674, -0.9769440
1411.638, -0.9589630
1412.602, -0.9410600
1413.566, -0.9266700
1414.531, -0.9167580
1415.495, -0.9096870
1416.459, -0.9014170
1417.423, -0.8858480
1418.387, -0.8595230
1419.352, -0.8294330
1420.316, -0.8056270
1421.280, -0.7886610
1422.244, -0.7737900
1423.209, -0.7577750
1424.173, -0.7404730
1425.137, -0.7236630
1426.101, -0.7090910
1427.066, -0.6972480
1428.030, -0.6873610
1428.994, -0.6780350
1429.958, -0.6681330
1430.922, -0.6574710
1431.887, -0.6465800
1432.851, -0.6358300
1433.815, -0.6250480
1434.779, -0.6139030
1435.744, -0.6026970
1436.708, -0.5926560
1437.672, -0.5844390
1438.636, -0.5770600
1439.601, -0.5694770
1440.565, -0.5617630
1441.529, -0.5548210
1442.493, -0.5497430
1443.458, -0.5471560
1444.422, -0.5466380
1445.386, -0.5464250
1446.350, -0.5438400
1447.314, -0.5370190
1448.279, -0.5272670
1449.243, -0.5187120
1450.207, -0.5145560
1451.171, -0.5150340
1452.136, -0.5186700
1453.100, -0.5238800
1454.064, -0.5295400
1455.028, -0.5347150
1455.993, -0.5373920
1456.957, -0.5336390
1457.921, -0.5265400
1458.885, -0.5232540
1459.849, -0.5221840
1460.814, -0.5210370
1461.778, -0.5189580
1462.742, -0.5157440
1463.706, -0.5118910
1464.671, -0.5089450
1465.635, -0.5086080
1466.599, -0.5107820
1467.563, -0.5139070
1468.528, -0.5167400
1469.492, -0.5187490
1470.456, -0.5195980
1471.420, -0.5185400
1472.385, -0.5140600
1473.349, -0.5058510
1474.313, -0.4984590
1475.277, -0.4950060
1476.241, -0.4936840
1477.206, -0.4929520
1478.170, -0.4926090
1479.134, -0.4929960
1480.098, -0.4944370
1481.063, -0.4968540
1482.027, -0.4996360
1482.991, -0.5018930
1483.955, -0.5029240
1484.920, -0.5024550
1485.884, -0.5005600
1486.848, -0.4975790
1487.812, -0.4943950
1488.776, -0.4928330
1489.741, -0.4935220
1490.705, -0.4940380
1491.669, -0.4931780
1492.633, -0.4915240
1493.598, -0.4897960
1494.562, -0.4885840
1495.526, -0.4885020
1496.490, -0.4900710
1497.455, -0.4927150
1498.419, -0.4941330
1499.383, -0.4930950
1500.347, -0.4907270
1501.312, -0.4881950
1502.276, -0.4858840
1503.240, -0.4837620
1504.204, -0.4816470
1505.168, -0.4793140
1506.133, -0.4768180
1507.097, -0.4763550
1508.061, -0.4820550
1509.025, -0.4886780
1509.990, -0.4927790
1510.954, -0.4960430
1511.918, -0.4994080
1512.882, -0.5029840
1513.847, -0.5063850
1514.811, -0.5087900
1515.775, -0.5090960
1516.739, -0.5065550
1517.703, -0.5017830
1518.668, -0.4969220
1519.632, -0.4941400
1520.596, -0.4937270
1521.560, -0.4938450
1522.525, -0.4926890
1523.489, -0.4908740
1524.453, -0.4905820
1525.417, -0.4925710
1526.382, -0.4953070
1527.346, -0.4969680
1528.310, -0.4969450
1529.274, -0.4955870
1530.239, -0.4936150
1531.203, -0.4919830
1532.167, -0.4919500
1533.131, -0.4946080
1534.095, -0.4994150
1535.060, -0.5039960
1536.024, -0.5066720
1536.988, -0.5075590
1537.952, -0.5073970
1538.917, -0.5064820
1539.881, -0.5034710
1540.845, -0.4929300
1541.809, -0.4811930
1542.774, -0.4873330
1543.738, -0.4954370
1544.702, -0.5011200
1545.666, -0.5049840
1546.630, -0.5074440
1547.595, -0.5086990
1548.559, -0.5089270
1549.523, -0.5084290
1550.487, -0.5077350
1551.452, -0.5075670
1552.416, -0.5085640
1553.380, -0.5109590
1554.344, -0.5145740
1555.309, -0.5190750
1556.273, -0.5239710
1557.237, -0.5276770
1558.201, -0.5269870
1559.166, -0.5237830
1560.130, -0.5226450
1561.094, -0.5228930
1562.058, -0.5231080
1563.022, -0.5226930
1563.987, -0.5215380
1564.951, -0.5198020
1565.915, -0.5178670
1566.879, -0.5164070
1567.844, -0.5164230
1568.808, -0.5186770
1569.772, -0.5224780
1570.736, -0.5259050
1571.701, -0.5277480
1572.665, -0.5280310
1573.629, -0.5273060
1574.593, -0.5264130
1575.557, -0.5266920
1576.522, -0.5290890
1577.486, -0.5320800
1578.450, -0.5335530
1579.414, -0.5333760
1580.379, -0.5323610
1581.343, -0.5313720
1582.307, -0.5312080
1583.271, -0.5324320
1584.236, -0.5350170
1585.200, -0.5382290
1586.164, -0.5410050
1587.128, -0.5425640
1588.093, -0.5428080
1589.057, -0.5423810
1590.021, -0.5423300
1590.985, -0.5434740
1591.949, -0.5458680
1592.914, -0.5487630
1593.878, -0.5510490
1594.842, -0.5519660
1595.806, -0.5516770
1596.771, -0.5511210
1597.735, -0.5512600
1598.699, -0.5524860
1599.663, -0.5545360
1600.628, -0.5566510
1601.592, -0.5578780
1602.556, -0.5576030
1603.520, -0.5560580
1604.484, -0.5541700
1605.449, -0.5528280
1606.413, -0.5523430
1607.377, -0.5523540
1608.341, -0.5520910
1609.306, -0.5510010
1610.270, -0.5493070
1611.234, -0.5477680
1612.198, -0.5470440
1613.163, -0.5474560
1614.127, -0.5490140
1615.091, -0.5511610
1616.055, -0.5522120
1617.020, -0.5502680
1617.984, -0.5461240
1618.948, -0.5422420
1619.912, -0.5397060
1620.876, -0.5384390
1621.841, -0.5381410
1622.805, -0.5385840
1623.769, -0.5396140
1624.733, -0.5411700
1625.698, -0.5433120
1626.662, -0.5460600
1627.626, -0.5491500
1628.590, -0.5520270
1629.555, -0.5541430
1630.519, -0.5552480
1631.483, -0.5553350
1632.447, -0.5543790
1633.411, -0.5520660
1634.376, -0.5477330
1635.340, -0.5414560
1636.304, -0.5371360
1637.268, -0.5386380
1638.233, -0.5425090
1639.197, -0.5454600
1640.161, -0.5470720
1641.125, -0.5477700
1642.090, -0.5480520
1643.054, -0.5483980
1644.018, -0.5493260
1644.982, -0.5513790
1645.947, -0.5546360
1646.911, -0.5572940
1647.875, -0.5564410
1648.839, -0.5525700
1649.803, -0.5479000
1650.768, -0.5430450
1651.732, -0.5377450
1652.696, -0.5333680
1653.660, -0.5345470
1654.625, -0.5407540
1655.589, -0.5466190
1656.553, -0.5508640
1657.517, -0.5540680
1658.482, -0.5566030
1659.446, -0.5583730
1660.410, -0.5588340
1661.374, -0.5572890
1662.339, -0.5539590
1663.303, -0.5507060
1664.267, -0.5492490
1665.231, -0.5495690
1666.195, -0.5506930
1667.160, -0.5515080
1668.124, -0.5507390
1669.088, -0.5471240
1670.052, -0.5413010
1671.017, -0.5373600
1671.981, -0.5380150
1672.945, -0.5416180
1673.909, -0.5455430
1674.874, -0.5479300
1675.838, -0.5479190
1676.802, -0.5458820
1677.766, -0.5429820
1678.730, -0.5403020
1679.695, -0.5385320
1680.659, -0.5381960
1681.623, -0.5398460
1682.587, -0.5435230
1683.552, -0.5467580
1684.516, -0.5451680
1685.480, -0.5395960
1686.444, -0.5344090
1687.409, -0.5314400
1688.373, -0.5304310
1689.337, -0.5305200
1690.301, -0.5309170
1691.266, -0.5311600
1692.230, -0.5311120
1693.194, -0.5308090
1694.158, -0.5303000
1695.122, -0.5294470
1696.087, -0.5276120
1697.051, -0.5235230
1698.015, -0.5174300
1698.979, -0.5140040
1699.944, -0.5158060
1700.908, -0.5205660
1701.872, -0.5259570
1702.836, -0.5304550
1703.801, -0.5327800
1704.765, -0.5321360
1705.729, -0.5290980
1706.693, -0.5256080
1707.657, -0.5233960
1708.622, -0.5229010
1709.586, -0.5236970
1710.550, -0.5251780
1711.514, -0.5268530
1712.479, -0.5283410
1713.443, -0.5292200
1714.407, -0.5287350
1715.371, -0.5254970
1716.336, -0.5193880
1717.300, -0.5160270
1718.264, -0.5176140
1719.228, -0.5201540
1720.193, -0.5217800
1721.157, -0.5223100
1722.121, -0.5219560
1723.085, -0.5210640
1724.049, -0.5200390
1725.014, -0.5191810
1725.978, -0.5185490
1726.942, -0.5179770
1727.906, -0.5172390
1728.871, -0.5162310
1729.835, -0.5151140
1730.799, -0.5144350
1731.763, -0.5150940
1732.728, -0.5175080
1733.692, -0.5199070
1734.656, -0.5197880
1735.620, -0.5174140
1736.584, -0.5144260
1737.549, -0.5119090
1738.513, -0.5103790
1739.477, -0.5100210
1740.441, -0.5106370
1741.406, -0.5115850
1742.370, -0.5120620
1743.334, -0.5115720
1744.298, -0.5101220
1745.263, -0.5080700
1746.227, -0.5059250
1747.191, -0.5042770
1748.155, -0.5037790
1749.120, -0.5046830
1750.084, -0.5060960
1751.048, -0.5069430
1752.012, -0.5071260
1752.976, -0.5069570
1753.941, -0.5066570
1754.905, -0.5063410
1755.869, -0.5061130
1756.833, -0.5061120
1757.798, -0.5065090
1758.762, -0.5074350
1759.726, -0.5088900
1760.690, -0.5106610
1761.655, -0.5123090
1762.619, -0.5133710
1763.583, -0.5136470
1764.547, -0.5132630
1765.511, -0.5125050
1766.476, -0.5116830
1767.440, -0.5111040
1768.404, -0.5110390
1769.368, -0.5115670
1770.333, -0.5122260
1771.297, -0.5117700
1772.261, -0.5092510
1773.225, -0.5058980
1774.190, -0.5037900
1775.154, -0.5035610
1776.118, -0.5048330
1777.082, -0.5070990
1778.047, -0.5098760
1779.011, -0.5125240
1779.975, -0.5141850
1780.939, -0.5141230
1781.903, -0.5123190
1782.868, -0.5096040
1783.832, -0.5071000
1784.796, -0.5055550
1785.760, -0.5050790
1786.725, -0.5053100
1787.689, -0.5057620
1788.653, -0.5060870
1789.617, -0.5061850
1790.582, -0.5062320
1791.546, -0.5066160
1792.510, -0.5075190
1793.474, -0.5084190
1794.438, -0.5087180
1795.403, -0.5084340
1796.367, -0.5078530
1797.331, -0.5071520
1798.295, -0.5063190
1799.260, -0.5052210
1800.224, -0.5038120
1801.188, -0.5023830
1802.152, -0.5014620
1803.117, -0.5013660
1804.081, -0.5020130
1805.045, -0.5031100
1806.009, -0.5043810
1806.974, -0.5056490
1807.938, -0.5068160
1808.902, -0.5077890
1809.866, -0.5083910
1810.830, -0.5083930
1811.795, -0.5077290
1812.759, -0.5066070
1813.723, -0.5053610
1814.687, -0.5042890
1815.652, -0.5036260
1816.616, -0.5035350
1817.580, -0.5040330
1818.544, -0.5048950
1819.509, -0.5056960
1820.473, -0.5059640
1821.437, -0.5053380
1822.401, -0.5036820
1823.365, -0.5012540
1824.330, -0.4988280
1825.294, -0.4974160
1826.258, -0.4975800
1827.222, -0.4990070
1828.187, -0.5007160
1829.151, -0.5016190
1830.115, -0.5012990
1831.079, -0.5004360
1832.044, -0.5000380
1833.008, -0.5005730
1833.972, -0.5019770
1834.936, -0.5039350
1835.901, -0.5059620
1836.865, -0.5074420
1837.829, -0.5078680
1838.793, -0.5071380
1839.757, -0.5055140
1840.722, -0.5033400
1841.686, -0.5008900
1842.650, -0.4984640
1843.614, -0.4966100
1844.579, -0.4960380
1845.543, -0.4968850
1846.507, -0.4984690
1847.471, -0.5001720
1848.436, -0.5018190
1849.400, -0.5033750
1850.364, -0.5046940
1851.328, -0.5055110
1852.292, -0.5055770
1853.257, -0.5048310
1854.221, -0.5035050
1855.185, -0.5020610
1856.149, -0.5009870
1857.114, -0.5005690
1858.078, -0.5007610
1859.042, -0.5012280
1860.006, -0.5015460
1860.971, -0.5014640
1861.935, -0.5010540
1862.899, -0.5006220
1863.863, -0.5004980
1864.828, -0.5008890
1865.792, -0.5018230
1866.756, -0.5030460
1867.720, -0.5038700
1868.684, -0.5034830
1869.649, -0.5020410
1870.613, -0.5005810
1871.577, -0.4996820
1872.541, -0.4993160
1873.506, -0.4993230
1874.470, -0.4996420
1875.434, -0.5003040
1876.398, -0.5012990
1877.363, -0.5024300
1878.327, -0.5032950
1879.291, -0.5034880
1880.255, -0.5028640
1881.219, -0.5016670
1882.184, -0.5004410
1883.148, -0.4997430
1884.112, -0.4998040
1885.076, -0.5004040
1886.041, -0.5010540
1887.005, -0.5013330
1887.969, -0.5011550
1888.933, -0.5008190
1889.898, -0.5007480
1890.862, -0.5010540
1891.826, -0.5014200
1892.790, -0.5014130
1893.755, -0.5008460
1894.719, -0.4999410
1895.683, -0.4992510
1896.647, -0.4993230
1897.611, -0.5002870
1898.576, -0.5017690
1899.540, -0.5031520
1900.504, -0.5039010
1901.468, -0.5037840
1902.433, -0.5029840
1903.397, -0.5020360
1904.361, -0.5015610
1905.325, -0.5019360
1906.290, -0.5030990
1907.254, -0.5045470
1908.218, -0.5055030
1909.182, -0.5053290
1910.146, -0.5039960
1911.111, -0.5021020
1912.075, -0.5003300
1913.039, -0.4989860
1914.003, -0.4980100
1914.968, -0.4972020
1915.932, -0.4964770
1916.896, -0.4960320
1917.860, -0.4962890
1918.825, -0.4975620
1919.789, -0.4997020
1920.753, -0.5020920
1921.717, -0.5038960
1922.682, -0.5044100
1923.646, -0.5034560
1924.610, -0.5015040
1925.574, -0.4993070
1926.538, -0.4974240
1927.503, -0.4960720
1928.467, -0.4952560
1929.431, -0.4949120
1930.395, -0.4949870
1931.360, -0.4954300
1932.324, -0.4961520
1933.288, -0.4969920
1934.252, -0.4977440
1935.217, -0.4982260
1936.181, -0.4983730
1937.145, -0.4982620
1938.109, -0.4980370
1939.073, -0.4978140
1940.038, -0.4976220
1941.002, -0.4974180
1941.966, -0.4971460
1942.930, -0.4968170
1943.895, -0.4964950
1944.859, -0.4961950
1945.823, -0.4958280
1946.787, -0.4952920
1947.752, -0.4946020
1948.716, -0.4939420
1949.680, -0.4936100
1950.644, -0.4938490
1951.609, -0.4946810
1952.573, -0.4958460
1953.537, -0.4969170
1954.501, -0.4975220
1955.465, -0.4975670
1956.430, -0.4972590
1957.394, -0.4969180
1958.358, -0.4967330
1959.322, -0.4966690
1960.287, -0.4965600
1961.251, -0.4962880
1962.215, -0.4958860
1963.179, -0.4954920
1964.144, -0.4952190
1965.108, -0.4950360
1966.072, -0.4947540
1967.036, -0.4941760
1968.000, -0.4933210
1968.965, -0.4924890
1969.929, -0.4920620
1970.893, -0.4922890
1971.857, -0.4931970
1972.822, -0.4945840
1973.786, -0.4960480
1974.750, -0.4971160
1975.714, -0.4974600
1976.679, -0.4970720
1977.643, -0.4962690
1978.607, -0.4955010
1979.571, -0.4951100
1980.536, -0.4951550
1981.500, -0.4954040
1982.464, -0.4955070
1983.428, -0.4952100
1984.392, -0.4945000
1985.357, -0.4935890
1986.321, -0.4927900
1987.285, -0.4923450
1988.249, -0.4923050
1989.214, -0.4925140
1990.178, -0.4927050
1991.142, -0.4926750
1992.106, -0.4924430
1993.071, -0.4922710
1994.035, -0.4924670
1994.999, -0.4931620
1995.963, -0.4942510
1996.927, -0.4954560
1997.892, -0.4964410
1998.856, -0.4969350
1999.820, -0.4968570
2000.784, -0.4963510
2001.749, -0.4956770
2002.713, -0.4950160
2003.677, -0.4943800
2004.641, -0.4936600
2005.606, -0.4927880
2006.570, -0.4918700
2007.534, -0.4911970
2008.498, -0.4911070
2009.463, -0.4917490
2010.427, -0.4929350
2011.391, -0.4941870
2012.355, -0.4949740
2013.319, -0.4949500
2014.284, -0.4940810
2015.248, -0.4926480
2016.212, -0.4911420
2017.176, -0.4900280
2018.141, -0.4894820
2019.105, -0.4893370
2020.069, -0.4893220
2021.033, -0.4893150
2021.998, -0.4893820
2022.962, -0.4896360
2023.926, -0.4900700
2024.890, -0.4904930
2025.854, -0.4906430
2026.819, -0.4903910
2027.783, -0.4898460
2028.747, -0.4892690
2029.712, -0.4888750
2030.676, -0.4886890
2031.640, -0.4885540
2032.604, -0.4882940
2033.568, -0.4878880
2034.533, -0.4875220
2035.497, -0.4874870
2036.461, -0.4880030
2037.425, -0.4890920
2038.390, -0.4905510
2039.354, -0.4920040
2040.318, -0.4930240
2041.282, -0.4933130
2042.246, -0.4928720
2043.211, -0.4920280
2044.175, -0.4912480
2045.139, -0.4908520
2046.103, -0.4908140
2047.068, -0.4907680
2048.032, -0.4902480
2048.996, -0.4890320
2049.960, -0.4873670
2050.925, -0.4858780
2051.889, -0.4852020
2052.853, -0.4855870
2053.817, -0.4867220
2054.781, -0.4879180
2055.746, -0.4885430
2056.710, -0.4883950
2057.674, -0.4877680
2058.638, -0.4871950
2059.603, -0.4870630
2060.567, -0.4873660
2061.531, -0.4877530
2062.495, -0.4877850
2063.460, -0.4872350
2064.424, -0.4862490
2065.388, -0.4852950
2066.352, -0.4849150
2067.317, -0.4854280
2068.281, -0.4867720
2069.245, -0.4885450
2070.209, -0.4901610
2071.174, -0.4910710
2072.138, -0.4909860
2073.102, -0.4900480
2074.066, -0.4887860
2075.031, -0.4878450
2075.995, -0.4876110
2076.959, -0.4879850
2077.923, -0.4884620
2078.887, -0.4884760
2079.852, -0.4877930
2080.816, -0.4866730
2081.780, -0.4857030
2082.744, -0.4853940
2083.708, -0.4858340
2084.673, -0.4866350
2085.637, -0.4872180
2086.601, -0.4872280
2087.565, -0.4867770
2088.530, -0.4863620
2089.494, -0.4864810
2090.458, -0.4872150
2091.422, -0.4880890
2092.387, -0.4883700
2093.351, -0.4875810
2094.315, -0.4858730
2095.279, -0.4839910
2096.244, -0.4828710
2097.208, -0.4830970
2098.172, -0.4845280
2099.136, -0.4863620
2100.101, -0.4876200
2101.065, -0.4877490
2102.029, -0.4869260
2102.993, -0.4858890
2103.958, -0.4854240
2104.922, -0.4858310
2105.886, -0.4867220
2106.850, -0.4872650
2107.814, -0.4867450
2108.779, -0.4850570
2109.743, -0.4828060
2110.707, -0.4809700
2111.671, -0.4803490
2112.635, -0.4811210
2113.600, -0.4827550
2114.564, -0.4843290
2115.528, -0.4850870
2116.492, -0.4848580
2117.457, -0.4840800
2118.421, -0.4834360
2119.385, -0.4833900
2120.349, -0.4839060
2121.314, -0.4845030
2122.278, -0.4845960
2123.242, -0.4839090
2124.206, -0.4826720
2125.171, -0.4814970
2126.135, -0.4810010
2127.099, -0.4814200
2128.063, -0.4824220
2129.028, -0.4832460
2129.992, -0.4831210
2130.956, -0.4817280
2131.920, -0.4794270
2132.885, -0.4770990
2133.849, -0.4757030
2134.813, -0.4757540
2135.777, -0.4770290
2136.741, -0.4786770
2137.706, -0.4797310
2138.670, -0.4797000
2139.634, -0.4788440
2140.598, -0.4779730
2141.562, -0.4779130
2142.527, -0.4789960
2143.491, -0.4808800
2144.455, -0.4827720
2145.419, -0.4839260
2146.384, -0.4840790
2147.348, -0.4835710
2148.312, -0.4830760
2149.276, -0.4831280
2150.240, -0.4837410
2151.205, -0.4843750
2152.169, -0.4842770
2153.133, -0.4830080
2154.098, -0.4808110
2155.062, -0.4785680
2156.026, -0.4773520
2156.990, -0.4777910
2157.955, -0.4796490
2158.919, -0.4818800
2159.883, -0.4831850
2160.847, -0.4827430
2161.811, -0.4806690
2162.776, -0.4779140
2163.740, -0.4757070
2164.704, -0.4749230
2165.668, -0.4757110
2166.633, -0.4775300
2167.597, -0.4795050
2168.561, -0.4808550
2169.525, -0.4811980
2170.490, -0.4806000
2171.454, -0.4794020
2172.418, -0.4779650
2173.382, -0.4764800
2174.346, -0.4749660
2175.311, -0.4734150
2176.275, -0.4719750
2177.239, -0.4709990
2178.203, -0.4709060
2179.167, -0.4719060
2180.132, -0.4737910
2181.096, -0.4759390
2182.060, -0.4775880
2183.025, -0.4782280
2183.989, -0.4778710
2184.953, -0.4770170
2185.917, -0.4763420
2186.882, -0.4762860
2187.846, -0.4768180
2188.810, -0.4775070
2189.774, -0.4778370
2190.738, -0.4775750
2191.703, -0.4769370
2192.667, -0.4764540
2193.631, -0.4766310
2194.595, -0.4775940
2195.560, -0.4789640
2196.524, -0.4800500
2197.488, -0.4802490
2198.452, -0.4794080
2199.417, -0.4779150
2200.381, -0.4764670
2201.345, -0.4756510
2202.309, -0.4756180
2203.273, -0.4760510
2204.238, -0.4764370
2205.202, -0.4764630
2206.166, -0.4762380
2207.130, -0.4762060
2208.094, -0.4767880
2209.059, -0.4780100
2210.023, -0.4793850
2210.987, -0.4801580
2211.952, -0.4797730
2212.916, -0.4782750
2213.880, -0.4763490
2214.844, -0.4749620
2215.809, -0.4748030
2216.773, -0.4758710
2217.737, -0.4774730
2218.701, -0.4786610
2219.665, -0.4788280
2220.630, -0.4780610
2221.594, -0.4770270
2222.558, -0.4764970
2223.522, -0.4768280
2224.487, -0.4777410
2225.451, -0.4785370
2226.415, -0.4785860
2227.379, -0.4777570
2228.344, -0.4764920
2229.308, -0.4755160
2230.272, -0.4753770
2231.236, -0.4761160
2232.200, -0.4772520
2233.165, -0.4780800
2234.129, -0.4781050
2235.093, -0.4773440
2236.057, -0.4763160
2237.021, -0.4757490
2237.986, -0.4761520
2238.950, -0.4774880
2239.914, -0.4791550
2240.879, -0.4802920
2241.843, -0.4802710
2242.807, -0.4790640
2243.771, -0.4772600
2244.736, -0.4757030
2245.700, -0.4749880
2246.664, -0.4751330
2247.628, -0.4756500
2248.592, -0.4759340
2249.557, -0.4757180
2250.521, -0.4752660
2251.485, -0.4751790
2252.449, -0.4759610
2253.414, -0.4776290
2254.378, -0.4796530
2255.342, -0.4812530
2256.306, -0.4818650
2257.271, -0.4814700
2258.235, -0.4805900
2259.199, -0.4799420
2260.163, -0.4799950
2261.127, -0.4806920
2262.092, -0.4815010
2263.056, -0.4817760
2264.020, -0.4811810
2264.984, -0.4799220
2265.948, -0.4786160
2266.913, -0.4779060
2267.877, -0.4780560
2268.841, -0.4787900
2269.806, -0.4794760
2270.770, -0.4795220
2271.734, -0.4787360
2272.698, -0.4774050
2273.663, -0.4760890
2274.627, -0.4752530
2275.591, -0.4750050
2276.555, -0.4750830
2277.520, -0.4750870
2278.484, -0.4748000
2279.448, -0.4743710
2280.412, -0.4742530
2281.376, -0.4749300
2282.341, -0.4765950
2283.305, -0.4789540
2284.269, -0.4812940
2285.233, -0.4827990
2286.198, -0.4829760
2287.162, -0.4819690
2288.126, -0.4805350
2289.090, -0.4796290
2290.054, -0.4798080
2291.019, -0.4808470
2291.983, -0.4818530
2292.947, -0.4818620
2293.911, -0.4805500
2294.876, -0.4785780
2295.840, -0.4772950
2296.804, -0.4779080
2297.768, -0.4806680
2298.733, -0.4845940
2299.697, -0.4879190
2300.661, -0.4890270
2301.625, -0.4873410
2302.590, -0.4836310
2303.554, -0.4795760
2304.518, -0.4768850
2305.482, -0.4765130
2306.447, -0.4783080
2307.411, -0.4811460
2308.375, -0.4834980
2309.339, -0.4842390
2310.303, -0.4833050
2311.268, -0.4817560
2312.232, -0.4810690
2313.196, -0.4821550
2314.160, -0.4848200
2315.125, -0.4879870
2316.089, -0.4904190
2317.053, -0.4914510
2318.017, -0.4913330
2318.981, -0.4910350
2319.946, -0.4915850
2320.910, -0.4933330
2321.874, -0.4956690
2322.838, -0.4975430
2323.803, -0.4984140
2324.767, -0.4987700
2325.731, -0.4997160
2326.695, -0.5019630
2327.660, -0.5050190
2328.624, -0.5071750
2329.588, -0.5064630
2330.552, -0.5021020
2331.517, -0.4953160
2332.481, -0.4886250
2333.445, -0.4841660
2334.409, -0.4825070
2335.374, -0.4827790
2336.338, -0.4837990
2337.302, -0.4852700
2338.266, -0.4880840
2339.230, -0.4933980
2340.195, -0.5011420
2341.159, -0.5091350
2342.123, -0.5136730
2343.087, -0.5120110
2344.052, -0.5052980
2345.016, -0.4979140
2345.980, -0.4933110
2346.944, -0.4920170
2347.908, -0.4928820
2348.873, -0.4945630
2349.837, -0.4961030
2350.801, -0.4969460
2351.765, -0.4968000
2352.730, -0.4954800
2353.694, -0.4928150
2354.658, -0.4888730
2355.622, -0.4846690
2356.587, -0.4827630
2357.551, -0.4866850
2358.515, -0.4987490
2359.479, -0.5167870
2360.444, -0.5328550
2361.408, -0.5382440
2362.372, -0.5314200
2363.336, -0.5189940
2364.301, -0.5092380
2365.265, -0.5060650
2366.229, -0.5076240
2367.193, -0.5090330
2368.157, -0.5067340
2369.122, -0.5010060
2370.086, -0.4948760
2371.050, -0.4911600
2372.014, -0.4905500
2372.979, -0.4917760
2373.943, -0.4929760
2374.907, -0.4930400
2375.871, -0.4920730
2376.835, -0.4909220
2377.800, -0.4903240
2378.764, -0.4903360
2379.728, -0.4903450
2380.692, -0.4895610
2381.657, -0.4875980
2382.621, -0.4847900
2383.585, -0.4820640
2384.549, -0.4804590
2385.514, -0.4805700
2386.478, -0.4822120
2387.442, -0.4844720
2388.406, -0.4861470
2389.371, -0.4863560
2390.335, -0.4850040
2391.299, -0.4828090
2392.263, -0.4808730
2393.228, -0.4800480
2394.192, -0.4804990
2395.156, -0.4816960
2396.120, -0.4828180
2397.084, -0.4832540
2398.049, -0.4829240
2399.013, -0.4822370
2399.977, -0.4817680
2400.941, -0.4818710
2401.906, -0.4824780
2402.870, -0.4831800
2403.834, -0.4835310
2404.798, -0.4833670
2405.762, -0.4829350
2406.727, -0.4827400
2407.691, -0.4831820
2408.655, -0.4842380
2409.619, -0.4854120
2410.584, -0.4860260
2411.548, -0.4856740
2412.512, -0.4845470
2413.476, -0.4833790
2414.441, -0.4830300
2415.405, -0.4839340
2416.369, -0.4857930
2417.333, -0.4877170
2418.298, -0.4887310
2419.262, -0.4883390
2420.226, -0.4868060
2421.190, -0.4849880
2422.155, -0.4838230
2423.119, -0.4838090
2424.083, -0.4847710
2425.047, -0.4860360
2426.011, -0.4868930
2426.976, -0.4870450
2427.940, -0.4867740
2428.904, -0.4867240
2429.868, -0.4874290
2430.833, -0.4889170
2431.797, -0.4906350
2432.761, -0.4917660
2433.725, -0.4917340
2434.689, -0.4905780
2435.654, -0.4889450
2436.618, -0.4877000
2437.582, -0.4874060
2438.546, -0.4880030
2439.511, -0.4888950
2440.475, -0.4893490
2441.439, -0.4889800
2442.403, -0.4879970
2443.368, -0.4870930
2444.332, -0.4870130
2445.296, -0.4880810
2446.260, -0.4899690
2447.225, -0.4918440
2448.189, -0.4928240
2449.153, -0.4924810
2450.117, -0.4910920
2451.082, -0.4894750
2452.046, -0.4884940
2453.010, -0.4885610
2453.974, -0.4894490
2454.938, -0.4904930
2455.903, -0.4910420
2456.867, -0.4908520
2457.831, -0.4901800
2458.795, -0.4895320
2459.760, -0.4892630
2460.724, -0.4893230
2461.688, -0.4893340
2462.652, -0.4889140
2463.616, -0.4880230
2464.581, -0.4870620
2465.545, -0.4866600
2466.509, -0.4872640
2467.473, -0.4888160
2468.438, -0.4907320
2469.402, -0.4921900
2470.366, -0.4925700
2471.330, -0.4917740
2472.295, -0.4902580
2473.259, -0.4887560
2474.223, -0.4878550
2475.187, -0.4877020
2476.152, -0.4880000
2477.116, -0.4882800
2478.080, -0.4882620
2479.044, -0.4880640
2480.009, -0.4881220
2480.973, -0.4888510
2481.937, -0.4902790
2482.901, -0.4919070
2483.865, -0.4929250
2484.830, -0.4926870
2485.794, -0.4911380
2486.758, -0.4889290
2487.722, -0.4871000
2488.687, -0.4864930
2489.651, -0.4872590
2490.615, -0.4887760
2491.579, -0.4900230
2492.543, -0.4902050
2493.508, -0.4892320
2494.472, -0.4877770
2495.436, -0.4868410
2496.400, -0.4871220
2497.365, -0.4885780
2498.329, -0.4904570
2499.293, -0.4917450
2500.257, -0.4917660
2501.222, -0.4905900
2502.186, -0.4889890
2503.150, -0.4879730
2504.114, -0.4881900
2505.079, -0.4895690
2506.043, -0.4913940
2507.007, -0.4927420
2507.971, -0.4930250
2508.936, -0.4923220
2509.900, -0.4912900
2510.864, -0.4907220
2511.828, -0.4910300
2512.792, -0.4920080
2513.757, -0.4930010
2514.721, -0.4933510
2515.685, -0.4928400
2516.649, -0.4918290
2517.614, -0.4910080
2518.578, -0.4909390
2519.542, -0.4916800
2520.506, -0.4927580
2521.470, -0.4934750
2522.435, -0.4933570
2523.399, -0.4924490
2524.363, -0.4912850
2525.327, -0.4905460
2526.292, -0.4906440
2527.256, -0.4914900
2528.220, -0.4925800
2529.184, -0.4933130
2530.149, -0.4933520
2531.113, -0.4928120
2532.077, -0.4921810
2533.041, -0.4920130
2534.006, -0.4925840
2534.970, -0.4937360
2535.934, -0.4949860
2536.898, -0.4958170
2537.863, -0.4959700
2538.827, -0.4955550
2539.791, -0.4949380
2540.755, -0.4944690
2541.719, -0.4942700
2542.684, -0.4942190
2543.648, -0.4941300
2544.612, -0.4939640
2545.576, -0.4939120
2546.541, -0.4942680
2547.505, -0.4951750
2548.469, -0.4964460
2549.433, -0.4975910
2550.397, -0.4980740
2551.362, -0.4976180
2552.326, -0.4963800
2553.290, -0.4948810
2554.254, -0.4937250
2555.219, -0.4932850
2556.183, -0.4935490
2557.147, -0.4941900
2558.111, -0.4948180
2559.076, -0.4952150
2560.040, -0.4954250
2561.004, -0.4956670
2561.968, -0.4961340
2562.933, -0.4968240
2563.897, -0.4975130
2564.861, -0.4978740
2565.825, -0.4976690
2566.790, -0.4968900
2567.754, -0.4957960
2568.718, -0.4948070
2569.682, -0.4943210
2570.646, -0.4945250
2571.611, -0.4952990
2572.575, -0.4962700
2573.539, -0.4969730
2574.503, -0.4970760
2575.468, -0.4965420
2576.432, -0.4956510
2577.396, -0.4948370
2578.360, -0.4944460
2579.324, -0.4945560
2580.289, -0.4949750
2581.253, -0.4954140
2582.217, -0.4957050
2583.181, -0.4959200
2584.146, -0.4963070
2585.110, -0.4970920
2586.074, -0.4982770
2587.038, -0.4995870
2588.003, -0.5005930
2588.967, -0.5009500
2589.931, -0.5005760
2590.895, -0.4997010
2591.860, -0.4987260
2592.824, -0.4980170
2593.788, -0.4977440
2594.752, -0.4978720
2595.717, -0.4982610
2596.681, -0.4987940
2597.645, -0.4994400
2598.609, -0.5002190
2599.573, -0.5011010
2600.538, -0.5019350
2601.502, -0.5024600
2602.466, -0.5024320
2603.430, -0.5017730
2604.395, -0.5006720
2605.359, -0.4995660
2606.323, -0.4989580
2607.287, -0.4991750
2608.251, -0.5001850
2609.216, -0.5015910
2610.180, -0.5028130
2611.144, -0.5033610
2612.108, -0.5030780
2613.073, -0.5022070
2614.037, -0.5012350
2615.001, -0.5006040
2615.965, -0.5004780
2616.930, -0.5007110
2617.894, -0.5010220
2618.858, -0.5012350
2619.822, -0.5014240
2620.787, -0.5018370
2621.751, -0.5026660
2622.715, -0.5038370
2623.679, -0.5049810
2624.644, -0.5056450
2625.608, -0.5055840
2626.572, -0.5049520
2627.536, -0.5042310
2628.500, -0.5039500
2629.465, -0.5043580
2630.429, -0.5052830
2631.393, -0.5062720
2632.357, -0.5068940
2633.322, -0.5070090
2634.286, -0.5068230
2635.250, -0.5067110
2636.214, -0.5069290
2637.178, -0.5074410
2638.143, -0.5079650
2639.107, -0.5081870
2640.071, -0.5079930
2641.035, -0.5075350
2642.000, -0.5071270
2642.964, -0.5070310
2643.928, -0.5072940
2644.892, -0.5077320
2645.857, -0.5080570
2646.821, -0.5080460
2647.785, -0.5076640
2648.749, -0.5070810
2649.714, -0.5066040
2650.678, -0.5065440
2651.642, -0.5070730
2652.606, -0.5081300
2653.571, -0.5094320
2654.535, -0.5105870
2655.499, -0.5112810
2656.463, -0.5114470
2657.427, -0.5113040
2658.392, -0.5112110
2659.356, -0.5114140
2660.320, -0.5118750
2661.284, -0.5123000
2662.249, -0.5123840
2663.213, -0.5120860
2664.177, -0.5117410
2665.141, -0.5118960
2666.105, -0.5129500
2667.070, -0.5148430
2668.034, -0.5170110
2668.998, -0.5186490
2669.962, -0.5191270
2670.927, -0.5183170
2671.891, -0.5166540
2672.855, -0.5148940
2673.819, -0.5137390
2674.784, -0.5135580
2675.748, -0.5143170
2676.712, -0.5157070
2677.676, -0.5173210
2678.641, -0.5188070
2679.605, -0.5199370
2680.569, -0.5206060
2681.533, -0.5207930
2682.498, -0.5205310
2683.462, -0.5199200
2684.426, -0.5191510
2685.390, -0.5185190
2686.354, -0.5183640
2687.319, -0.5189250
2688.283, -0.5201930
2689.247, -0.5218390
2690.211, -0.5233130
2691.176, -0.5240800
2692.140, -0.5239030
2693.104, -0.5230040
2694.068, -0.5220040
2695.032, -0.5216200
2695.997, -0.5223060
2696.961, -0.5240260
2697.925, -0.5262860
2698.889, -0.5283960
2699.854, -0.5297910
2700.818, -0.5302860
2701.782, -0.5301260
2702.746, -0.5298280
2703.711, -0.5298800
2704.675, -0.5304890
2705.639, -0.5314960
2706.603, -0.5324960
2707.568, -0.5330830
2708.532, -0.5331030
2709.496, -0.5327520
2710.460, -0.5324490
2711.425, -0.5325430
2712.389, -0.5330750
2713.353, -0.5337470
2714.317, -0.5341250
2715.281, -0.5339530
2716.246, -0.5333570
2717.210, -0.5327870
2718.174, -0.5327440
2719.138, -0.5334730
2720.103, -0.5348420
2721.067, -0.5364390
2722.031, -0.5378090
2722.995, -0.5386710
2723.959, -0.5390100
2724.924, -0.5390330
2725.888, -0.5390500
2726.852, -0.5393490
2727.816, -0.5401210
2728.781, -0.5413940
2729.745, -0.5430060
2730.709, -0.5446340
2731.673, -0.5459300
2732.638, -0.5467120
2733.602, -0.5470830
2734.566, -0.5473950
2735.530, -0.5480410
2736.495, -0.5492170
2737.459, -0.5507910
2738.423, -0.5523670
2739.387, -0.5535120
2740.352, -0.5539920
2741.316, -0.5538810
2742.280, -0.5534820
2743.244, -0.5531600
2744.208, -0.5531930
2745.173, -0.5537140
2746.137, -0.5547120
2747.101, -0.5560700
2748.065, -0.5575780
2749.030, -0.5589590
2749.994, -0.5599210
2750.958, -0.5602700
2751.922, -0.5600270
2752.886, -0.5594770
2753.851, -0.5590890
2754.815, -0.5593130
2755.779, -0.5603800
2756.743, -0.5622080
2757.708, -0.5644640
2758.672, -0.5667160
2759.636, -0.5686100
2760.600, -0.5699710
2761.565, -0.5708120
2762.529, -0.5712720
2763.493, -0.5715350
2764.457, -0.5717860
2765.422, -0.5721830
2766.386, -0.5728410
2767.350, -0.5738190
2768.314, -0.5751070
2769.279, -0.5766500
2770.243, -0.5783880
2771.207, -0.5802810
2772.171, -0.5823080
2773.135, -0.5844350
2774.100, -0.5865900
2775.064, -0.5886750
2776.028, -0.5905940
2776.992, -0.5922860
2777.957, -0.5937260
2778.921, -0.5949140
2779.885, -0.5958840
2780.849, -0.5967420
2781.813, -0.5976860
2782.778, -0.5989640
2783.742, -0.6007420
2784.706, -0.6029710
2785.670, -0.6053770
2786.635, -0.6075900
2787.599, -0.6093720
2788.563, -0.6107690
2789.527, -0.6120740
2790.492, -0.6136030
2791.456, -0.6154470
2792.420, -0.6174050
2793.385, -0.6191510
2794.349, -0.6205100
2795.313, -0.6216140
2796.277, -0.6228100
2797.241, -0.6243910
2798.206, -0.6263560
2799.170, -0.6283730
2800.134, -0.6299870
2801.098, -0.6308960
2802.062, -0.6310900
2803.027, -0.6307960
2803.991, -0.6303120
2804.955, -0.6298870
2805.919, -0.6296950
2806.884, -0.6298780
2807.848, -0.6305280
2808.812, -0.6316100
2809.776, -0.6328840
2810.740, -0.6339560
2811.705, -0.6344670
2812.669, -0.6343230
2813.633, -0.6337700
2814.597, -0.6332410
2815.562, -0.6330900
2816.526, -0.6334030
2817.490, -0.6340150
2818.454, -0.6346720
2819.419, -0.6352040
2820.383, -0.6355590
2821.347, -0.6357100
2822.311, -0.6355780
2823.276, -0.6350540
2824.240, -0.6341280
2825.204, -0.6329770
2826.168, -0.6319100
2827.133, -0.6311810
2828.097, -0.6308130
2829.061, -0.6305950
2830.025, -0.6302420
2830.990, -0.6296050
2831.954, -0.6287580
2832.918, -0.6279220
2833.882, -0.6273110
2834.846, -0.6270270
2835.811, -0.6270760
2836.775, -0.6274310
2837.739, -0.6280630
2838.703, -0.6288930
2839.667, -0.6297200
2840.632, -0.6302330
2841.596, -0.6301230
2842.560, -0.6292490
2843.524, -0.6277520
2844.489, -0.6260310
2845.453, -0.6246200
2846.417, -0.6240090
2847.381, -0.6244580
2848.346, -0.6258360
2849.310, -0.6275990
2850.274, -0.6289670
2851.238, -0.6293100
2852.203, -0.6285040
2853.167, -0.6270270
2854.131, -0.6256940
2855.095, -0.6251810
2856.060, -0.6256410
2857.024, -0.6266600
2857.988, -0.6275980
2858.952, -0.6280660
2859.917, -0.6281690
2860.881, -0.6283570
2861.845, -0.6290120
2862.809, -0.6301060
2863.773, -0.6311740
2864.738, -0.6316270
2865.702, -0.6311520
2866.666, -0.6299360
2867.630, -0.6285660
2868.594, -0.6277320
2869.559, -0.6279180
2870.523, -0.6292220
2871.487, -0.6313340
2872.451, -0.6336750
2873.416, -0.6356440
2874.380, -0.6368770
2875.344, -0.6374010
2876.308, -0.6375820
2877.273, -0.6378880
2878.237, -0.6385930
2879.201, -0.6396280
2880.165, -0.6406740
2881.130, -0.6414380
2882.094, -0.6418930
2883.058, -0.6423000
2884.022, -0.6430060
2884.987, -0.6441790
2885.951, -0.6456660
2886.915, -0.6470920
2887.879, -0.6480990
2888.844, -0.6485720
2889.808, -0.6486800
2890.772, -0.6487470
2891.736, -0.6490610
2892.700, -0.6497210
2893.665, -0.6506240
2894.629, -0.6515600
2895.593, -0.6523810
2896.557, -0.6531030
2897.521, -0.6539020
2898.486, -0.6549880
2899.450, -0.6564430
2900.414, -0.6581280
2901.378, -0.6597460
2902.343, -0.6610280
2903.307, -0.6619130
2904.271, -0.6625950
2905.235, -0.6634010
2906.200, -0.6645880
2907.164, -0.6661930
2908.128, -0.6680360
2909.092, -0.6698600
2910.057, -0.6714950
2911.021, -0.6729190
2911.985, -0.6741880
2912.949, -0.6753050
2913.914, -0.6761340
2914.878, -0.6764590
2915.842, -0.6761500
2916.806, -0.6753540
2917.771, -0.6745330
2918.735, -0.6743260
2919.699, -0.6752670
2920.663, -0.6775050
2921.627, -0.6806560
2922.592, -0.6839110
2923.556, -0.6863780
2924.520, -0.6874970
2925.484, -0.6872950
2926.448, -0.6863540
2927.413, -0.6855500
2928.377, -0.6857060
2929.341, -0.6872980
2930.305, -0.6902920
2931.270, -0.6941470
2932.234, -0.6980070
2933.198, -0.7010300
2934.162, -0.7027380
2935.127, -0.7032110
2936.091, -0.7029950
2937.055, -0.7027700
2938.019, -0.7029760
2938.984, -0.7036580
2939.948, -0.7046190
2940.912, -0.7057120
2941.876, -0.7070330
2942.841, -0.7088330
2943.805, -0.7112110
2944.769, -0.7138410
2945.733, -0.7159650
2946.698, -0.7167620
2947.662, -0.7158620
2948.626, -0.7136630
2949.590, -0.7112340
2950.554, -0.7098460
2951.519, -0.7103920
2952.483, -0.7129860
2953.447, -0.7169370
2954.411, -0.7211150
2955.375, -0.7245290
2956.340, -0.7267900
2957.304, -0.7281780
2958.268, -0.7292970
2959.232, -0.7305550
2960.197, -0.7318670
2961.161, -0.7327540
2962.125, -0.7327760
2963.089, -0.7319710
2964.054, -0.7309860
2965.018, -0.7307900
2965.982, -0.7321880
2966.946, -0.7354190
2967.911, -0.7400620
2968.875, -0.7452540
2969.839, -0.7500470
2970.803, -0.7536670
2971.768, -0.7556160
2972.732, -0.7557050
2973.696, -0.7541060
2974.660, -0.7514210
2975.625, -0.7486370
2976.589, -0.7469080
2977.553, -0.7472460
2978.517, -0.7502250
2979.481, -0.7557750
2980.446, -0.7631030
2981.410, -0.7708240
2982.374, -0.7773550
2983.338, -0.7814330
2984.302, -0.7825380
2985.267, -0.7810080
2986.231, -0.7778760
2987.195, -0.7745170
2988.159, -0.7722160
2989.124, -0.7717870
2990.088, -0.7733720
2991.052, -0.7764820
2992.016, -0.7802190
2992.981, -0.7836390
2993.945, -0.7861410
2994.909, -0.7877480
2995.873, -0.7890510
2996.838, -0.7907720
2997.802, -0.7931950
2998.766, -0.7958700
2999.730, -0.7978090
3000.695, -0.7980770
3001.659, -0.7964740
3002.623, -0.7938490
3003.587, -0.7917570
3004.552, -0.7916140
3005.516, -0.7938990
3006.480, -0.7979310
3007.444, -0.8023380
3008.408, -0.8058510
3009.373, -0.8079420
3010.337, -0.8089800
3011.301, -0.8098600
3012.265, -0.8113220
3013.229, -0.8134430
3014.194, -0.8156620
3015.158, -0.8172830
3016.122, -0.8180320
3017.086, -0.8182310
3018.051, -0.8185070
3019.015, -0.8193030
3019.979, -0.8205580
3020.943, -0.8218060
3021.908, -0.8225910
3022.872, -0.8228890
3023.836, -0.8232130
3024.800, -0.8242950
3025.765, -0.8265970
3026.729, -0.8300140
3027.693, -0.8339660
3028.657, -0.8377190
3029.622, -0.8406560
3030.586, -0.8423810
3031.550, -0.8427100
3032.514, -0.8416900
3033.479, -0.8396550
3034.443, -0.8372250
3035.407, -0.8351500
3036.371, -0.8340590
3037.335, -0.8342270
3038.300, -0.8354730
3039.264, -0.8372270
3040.228, -0.8387660
3041.192, -0.8395170
3042.156, -0.8393110
3043.121, -0.8384650
3044.085, -0.8376830
3045.049, -0.8377910
3046.013, -0.8394240
3046.978, -0.8426980
3047.942, -0.8470200
3048.906, -0.8512120
3049.871, -0.8540510
3050.835, -0.8549230
3051.799, -0.8540980
3052.763, -0.8524360
3053.727, -0.8508360
3054.692, -0.8497850
3055.656, -0.8492360
3056.620, -0.8488440
3057.584, -0.8483820
3058.549, -0.8480120
3059.513, -0.8481640
3060.477, -0.8491640
3061.441, -0.8508720
3062.406, -0.8526000
3063.370, -0.8533850
3064.334, -0.8525820
3065.298, -0.8504300
3066.262, -0.8480950
3067.227, -0.8470210
3068.191, -0.8480660
3069.155, -0.8510530
3070.119, -0.8549530
3071.083, -0.8585320
3072.048, -0.8610420
3073.012, -0.8625560
3073.976, -0.8637530
3074.940, -0.8653230
3075.905, -0.8674200
3076.869, -0.8695220
3077.833, -0.8707870
3078.798, -0.8706830
3079.762, -0.8694770
3080.726, -0.8681850
3081.690, -0.8680120
3082.654, -0.8696620
3083.619, -0.8729460
3084.583, -0.8768200
3085.547, -0.8798130
3086.511, -0.8806730
3087.476, -0.8790180
3088.440, -0.8756450
3089.404, -0.8722620
3090.368, -0.8707030
3091.333, -0.8720620
3092.297, -0.8761340
3093.261, -0.8814130
3094.225, -0.8857100
3095.189, -0.8873170
3096.154, -0.8861100
3097.118, -0.8837080
3098.082, -0.8824670
3099.046, -0.8840900
3100.010, -0.8887110
3100.975, -0.8948070
3101.939, -0.8999980
3102.903, -0.9024470
3103.867, -0.9019550
3104.832, -0.8999060
3105.796, -0.8982510
3106.760, -0.8984170
3107.725, -0.9006970
3108.689, -0.9042690
3109.653, -0.9077330
3110.617, -0.9099270
3111.581, -0.9105420
3112.546, -0.9102070
3113.510, -0.9100710
3114.474, -0.9112060
3115.438, -0.9141230
3116.403, -0.9186090
3117.367, -0.9238950
3118.331, -0.9290210
3119.295, -0.9331370
3120.260, -0.9356250
3121.224, -0.9361270
3122.188, -0.9346240
3123.152, -0.9316100
3124.116, -0.9281870
3125.081, -0.9258590
3126.045, -0.9259630
3127.009, -0.9289740
3127.973, -0.9340940
3128.938, -0.9394820
3129.902, -0.9431300
3130.866, -0.9439560
3131.830, -0.9424250
3132.794, -0.9402290
3133.759, -0.9391390
3134.723, -0.9398190
3135.687, -0.9415050
3136.652, -0.9427440
3137.616, -0.9425380
3138.580, -0.9409880
3139.544, -0.9390710
3140.508, -0.9378540
3141.473, -0.9377960
3142.437, -0.9386200
3143.401, -0.9397750
3144.365, -0.9410080
3145.330, -0.9425190
3146.294, -0.9446490
3147.258, -0.9474900
3148.222, -0.9508260
3149.187, -0.9544090
3150.151, -0.9582190
3151.115, -0.9623420
3152.079, -0.9665420
3153.043, -0.9700040
3154.008, -0.9716920
3154.972, -0.9711890
3155.936, -0.9693050
3156.900, -0.9677570
3157.865, -0.9680080
3158.829, -0.9700990
3159.793, -0.9724090
3160.757, -0.9726760
3161.721, -0.9696850
3162.686, -0.9643660
3163.650, -0.9593880
3164.614, -0.9575950
3165.579, -0.9603940
3166.543, -0.9670230
3167.507, -0.9749380
3168.471, -0.9810750
3169.435, -0.9833180
3170.400, -0.9813680
3171.364, -0.9765400
3172.328, -0.9707780
3173.292, -0.9656910
3174.257, -0.9621370
3175.221, -0.9603650
3176.185, -0.9603400
3177.149, -0.9619240
3178.114, -0.9648210
3179.078, -0.9684310
3180.042, -0.9718650
3181.006, -0.9742320
3181.970, -0.9750170
3182.935, -0.9743270
3183.899, -0.9728940
3184.863, -0.9717840
3185.827, -0.9718980
3186.792, -0.9734960
3187.756, -0.9760850
3188.720, -0.9787260
3189.684, -0.9805220
3190.648, -0.9809890
3191.613, -0.9801730
3192.577, -0.9784960
3193.541, -0.9764820
3194.506, -0.9745300
3195.470, -0.9728780
3196.434, -0.9717100
3197.398, -0.9712690
3198.362, -0.9718120
3199.327, -0.9734040
3200.291, -0.9757400
3201.255, -0.9781530
3202.219, -0.9798710
3203.184, -0.9803530
3204.148, -0.9794970
3205.112, -0.9775990
3206.076, -0.9751140
3207.041, -0.9724570
3208.005, -0.9699890
3208.969, -0.9681310
3209.933, -0.9673910
3210.897, -0.9681430
3211.862, -0.9702800
3212.826, -0.9730260
3213.790, -0.9751350
3214.754, -0.9754720
3215.719, -0.9736440
3216.683, -0.9702050
3217.647, -0.9662780
3218.611, -0.9629230
3219.575, -0.9607090
3220.540, -0.9596700
3221.504, -0.9595360
3222.468, -0.9599830
3223.433, -0.9607310
3224.397, -0.9615060
3225.361, -0.9620140
3226.325, -0.9620350
3227.289, -0.9615850
3228.254, -0.9609700
3229.218, -0.9606200
3230.182, -0.9607630
3231.146, -0.9611680
3232.111, -0.9611700
3233.075, -0.9600190
3234.039, -0.9573710
3235.003, -0.9536250
3235.968, -0.9498700
3236.932, -0.9474240
3237.896, -0.9471510
3238.860, -0.9489190
3239.824, -0.9515440
3240.789, -0.9533590
3241.753, -0.9530760
3242.717, -0.9505200
3243.681, -0.9468080
3244.646, -0.9438300
3245.610, -0.9431540
3246.574, -0.9449900
3247.538, -0.9479130
3248.502, -0.9495350
3249.467, -0.9476920
3250.431, -0.9415290
3251.395, -0.9320460
3252.360, -0.9218390
3253.324, -0.9140120
3254.288, -0.9107250
3255.252, -0.9121580
3256.216, -0.9165400
3257.181, -0.9212010
3258.145, -0.9239670
3259.109, -0.9239910
3260.073, -0.9215790
3261.038, -0.9173920
3262.002, -0.9118230
3262.966, -0.9050770
3263.930, -0.8977240
3264.895, -0.8910270
3265.859, -0.8865540
3266.823, -0.8852720
3267.787, -0.8868310
3268.751, -0.8896440
3269.716, -0.8917620
3270.680, -0.8919380
3271.644, -0.8901410
3272.608, -0.8872280
3273.573, -0.8841320
3274.537, -0.8812250
3275.501, -0.8783180
3276.465, -0.8751950
3277.429, -0.8720820
3278.394, -0.8695880
3279.358, -0.8682580
3280.322, -0.8681740
3281.287, -0.8688530
3282.251, -0.8694660
3283.215, -0.8692250
3284.179, -0.8677230
3285.143, -0.8650500
3286.108, -0.8617020
3287.072, -0.8583970
3288.036, -0.8558630
3289.000, -0.8545620
3289.965, -0.8543550
3290.929, -0.8542940
3291.893, -0.8528740
3292.857, -0.8488030
3293.822, -0.8418750
3294.786, -0.8333110
3295.750, -0.8253560
3296.714, -0.8203410
3297.678, -0.8196560
3298.643, -0.8230190
3299.607, -0.8284280
3300.571, -0.8329680
3301.535, -0.8341870
3302.500, -0.8312420
3303.464, -0.8250500
3304.428, -0.8174220
3305.392, -0.8099360
3306.357, -0.8033260
3307.321, -0.7976350
3308.285, -0.7928310
3309.249, -0.7893130
3310.213, -0.7878400
3311.178, -0.7888800
3312.142, -0.7919250
3313.106, -0.7953660
3314.070, -0.7970970
3315.035, -0.7955600
3315.999, -0.7905870
3316.963, -0.7834950
3317.927, -0.7763920
3318.892, -0.7711700
3319.856, -0.7687500
3320.820, -0.7688540
3321.784, -0.7702650
3322.749, -0.7714130
3323.713, -0.7710520
3324.677, -0.7687740
3325.641, -0.7651450
3326.605, -0.7613410
3327.570, -0.7584540
3328.534, -0.7568920
3329.498, -0.7562330
3330.462, -0.7555560
3331.427, -0.7540000
3332.391, -0.7512220
3333.355, -0.7475470
3334.319, -0.7437600
3335.284, -0.7406520
3336.248, -0.7385890
3337.212, -0.7373760
3338.176, -0.7364920
3339.140, -0.7354900
3340.105, -0.7342210
3341.069, -0.7328100
3342.033, -0.7314580
3342.997, -0.7302670
3343.962, -0.7291830
3344.926, -0.7280810
3345.890, -0.7268820
3346.854, -0.7256150
3347.819, -0.7243730
3348.783, -0.7232030
3349.747, -0.7220220
3350.711, -0.7206340
3351.676, -0.7188520
3352.640, -0.7166740
3353.604, -0.7143870
3354.568, -0.7125060
3355.532, -0.7114980
3356.497, -0.7114270
3357.461, -0.7117850
3358.425, -0.7117070
3359.389, -0.7104780
3360.354, -0.7080010
3361.318, -0.7049210
3362.282, -0.7023040
3363.246, -0.7010180
3364.211, -0.7011740
3365.175, -0.7020110
3366.139, -0.7023300
3367.103, -0.7012310
3368.067, -0.6986280
3369.032, -0.6952450
3369.996, -0.6921620
3370.960, -0.6902960
3371.924, -0.6900530
3372.889, -0.6912390
3373.853, -0.6931470
3374.817, -0.6948030
3375.781, -0.6953400
3376.746, -0.6944000
3377.710, -0.6923460
3378.674, -0.6900750
3379.638, -0.6884940
3380.603, -0.6879470
3381.567, -0.6879760
3382.531, -0.6875510
3383.495, -0.6856800
3384.459, -0.6821230
3385.424, -0.6776970
3386.388, -0.6738020
3387.352, -0.6715170
3388.316, -0.6710680
3389.281, -0.6719410
3390.245, -0.6733460
3391.209, -0.6746800
3392.173, -0.6757920
3393.138, -0.6768840
3394.102, -0.6780900
3395.066, -0.6790760
3396.030, -0.6790710
3396.994, -0.6773440
3397.959, -0.6738120
3398.923, -0.6693360
3399.887, -0.6653980
3400.851, -0.6633270
3401.816, -0.6635830
3402.780, -0.6655290
3403.744, -0.6678270
3404.708, -0.6692510
3405.673, -0.6694480
3406.637, -0.6690890
3407.601, -0.6693080
3408.565, -0.6708790
3409.530, -0.6736870
3410.494, -0.6768030
3411.458, -0.6790630
3412.422, -0.6797700
3413.386, -0.6790500
3414.351, -0.6776410
3415.315, -0.6763080
3416.279, -0.6753730
3417.243, -0.6746480
3418.208, -0.6737490
3419.172, -0.6725340
3420.136, -0.6714220
3421.100, -0.6712320
3422.065, -0.6725120
3423.029, -0.6749290
3423.993, -0.6773790
3424.957, -0.6786500
3425.921, -0.6780690
3426.886, -0.6758210
3427.850, -0.6728710
3428.814, -0.6704690
3429.778, -0.6694000
3430.743, -0.6694670
3431.707, -0.6696180
3432.671, -0.6687190
3433.635, -0.6663730
3434.600, -0.6632080
3435.564, -0.6604440
3436.528, -0.6591280
3437.492, -0.6595610
3438.457, -0.6612070
3439.421, -0.6630540
3440.385, -0.6641720
3441.349, -0.6641810
3442.313, -0.6633820
3443.278, -0.6625160
3444.242, -0.6623130
3445.206, -0.6631030
3446.170, -0.6645940
3447.135, -0.6659540
3448.099, -0.6662810
3449.063, -0.6652440
3450.027, -0.6633360
3450.992, -0.6615920
3451.956, -0.6611160
3452.920, -0.6626360
3453.884, -0.6661090
3454.848, -0.6705140
3455.813, -0.6741480
3456.777, -0.6754270
3457.741, -0.6737140
3458.705, -0.6695950
3459.670, -0.6645760
3460.634, -0.6604580
3461.598, -0.6586150
3462.562, -0.6594520
3463.527, -0.6623700
3464.491, -0.6662370
3465.455, -0.6699610
3466.419, -0.6727830
3467.384, -0.6742520
3468.348, -0.6741090
3469.312, -0.6722550
3470.276, -0.6688600
3471.240, -0.6645090
3472.205, -0.6602920
3473.169, -0.6576530
3474.133, -0.6578410
3475.097, -0.6611330
3476.062, -0.6665080
3477.026, -0.6721230
3477.990, -0.6761100
3478.954, -0.6771170
3479.919, -0.6746760
3480.883, -0.6696040
3481.847, -0.6639900
3482.811, -0.6601330
3483.775, -0.6592190
3484.740, -0.6611230
3485.704, -0.6650400
3486.668, -0.6699320
3487.632, -0.6745910
3488.597, -0.6777740
3489.561, -0.6786670
3490.525, -0.6772560
3491.490, -0.6741700
3492.454, -0.6702490
3493.418, -0.6662970
3494.382, -0.6630730
3495.346, -0.6612920
3496.311, -0.6614770
3497.275, -0.6638040
3498.239, -0.6681430
3499.203, -0.6741490
3500.167, -0.6810560
3501.132, -0.6871170
3502.096, -0.6894510
3503.060, -0.6858980
3504.024, -0.6779580
3504.989, -0.6699960
3505.953, -0.6654460
3506.917, -0.6653480
3507.881, -0.6690520
3508.846, -0.6747900
3509.810, -0.6800440
3510.774, -0.6826700
3511.738, -0.6823190
3512.702, -0.6803140
3513.667, -0.6781800
3514.631, -0.6766900
3515.595, -0.6758710
3516.559, -0.6753510
3517.524, -0.6746540
3518.488, -0.6733920
3519.452, -0.6713890
3520.417, -0.6688260
3521.381, -0.6664170
3522.345, -0.6654140
3523.309, -0.6670940
3524.273, -0.6717130
3525.238, -0.6777130
3526.202, -0.6821880
3527.166, -0.6826320
3528.130, -0.6788670
3529.094, -0.6733500
3530.059, -0.6691070
3531.023, -0.6674450
3531.987, -0.6676530
3532.951, -0.6681100
3533.916, -0.6673390
3534.880, -0.6646790
3535.844, -0.6606980
3536.808, -0.6570140
3537.773, -0.6552160
3538.737, -0.6557180
3539.701, -0.6577380
3540.665, -0.6600900
3541.629, -0.6618120
3542.594, -0.6623240
3543.558, -0.6613500
3544.522, -0.6588870
3545.486, -0.6552620
3546.451, -0.6510620
3547.415, -0.6468120
3548.379, -0.6428520
3549.344, -0.6395210
3550.308, -0.6372800
3551.272, -0.6365670
3552.236, -0.6373530
3553.200, -0.6387930
3554.165, -0.6396780
3555.129, -0.6393910
3556.093, -0.6382090
3557.057, -0.6368950
3558.021, -0.6362980
3558.986, -0.6371040
3559.950, -0.6396200
3560.914, -0.6436280
3561.878, -0.6484960
3562.843, -0.6534530
3563.807, -0.6574630
3564.771, -0.6584020
3565.735, -0.6525730
3566.700, -0.6385790
3567.664, -0.6230540
3568.628, -0.6133730
3569.592, -0.6099180
3570.556, -0.6101040
3571.521, -0.6118030
3572.485, -0.6135570
3573.449, -0.6142060
3574.414, -0.6129000
3575.378, -0.6095150
3576.342, -0.6049160
3577.306, -0.6005110
3578.271, -0.5973780
3579.235, -0.5957640
3580.199, -0.5951900
3581.163, -0.5948860
3582.127, -0.5942070
3583.092, -0.5927850
3584.056, -0.5904310
3585.020, -0.5870040
3585.984, -0.5825670
3586.948, -0.5780180
3587.913, -0.5749500
3588.877, -0.5736620
3589.841, -0.5730680
3590.805, -0.5724530
3591.770, -0.5718770
3592.734, -0.5718370
3593.698, -0.5728830
3594.662, -0.5749520
3595.627, -0.5767690
3596.591, -0.5763690
3597.555, -0.5725510
3598.519, -0.5656340
3599.483, -0.5573650
3600.448, -0.5502140
3601.412, -0.5458500
3602.376, -0.5441360
3603.341, -0.5439320
3604.305, -0.5443630
3605.269, -0.5453080
3606.233, -0.5472820
3607.198, -0.5508820
3608.162, -0.5556620
3609.126, -0.5593830
3610.090, -0.5594130
3611.054, -0.5549390
3612.019, -0.5473510
3612.983, -0.5394680
3613.947, -0.5343670
3614.911, -0.5337930
3615.875, -0.5373670
3616.840, -0.5431400
3617.804, -0.5481970
3618.768, -0.5492340
3619.732, -0.5450850
3620.697, -0.5386250
3621.661, -0.5331890
3622.625, -0.5296420
3623.589, -0.5273710
3624.554, -0.5255440
3625.518, -0.5234970
3626.482, -0.5209260
3627.446, -0.5185320
3628.410, -0.5188660
3629.375, -0.5235430
3630.339, -0.5289140
3631.303, -0.5313920
3632.268, -0.5309200
3633.232, -0.5287410
3634.196, -0.5261490
3635.160, -0.5241640
3636.125, -0.5232690
3637.089, -0.5232530
3638.053, -0.5233770
3639.017, -0.5227660
3639.981, -0.5208720
3640.946, -0.5178150
3641.910, -0.5143810
3642.874, -0.5116380
3643.838, -0.5104680
3644.802, -0.5114330
3645.767, -0.5149500
3646.731, -0.5212130
3647.695, -0.5277250
3648.659, -0.5214870
3649.624, -0.4994470
3650.588, -0.4874670
3651.552, -0.4860250
3652.516, -0.4884110
3653.481, -0.4919420
3654.445, -0.4956370
3655.409, -0.4990210
3656.373, -0.5020090
3657.337, -0.5049990
3658.302, -0.5084990
3659.266, -0.5125390
3660.230, -0.5165750
3661.195, -0.5197610
3662.159, -0.5213140
3663.123, -0.5208650
3664.087, -0.5186120
3665.052, -0.5150930
3666.016, -0.5107930
3666.980, -0.5059860
3667.944, -0.5010370
3668.908, -0.4972790
3669.873, -0.4974140
3670.837, -0.5023890
3671.801, -0.5085160
3672.765, -0.5116840
3673.729, -0.5100490
3674.694, -0.5031710
3675.658, -0.4933350
3676.622, -0.4868160
3677.586, -0.4870430
3678.551, -0.4908550
3679.515, -0.4947990
3680.479, -0.4977620
3681.443, -0.4998200
3682.408, -0.5012730
3683.372, -0.5022800
3684.336, -0.5028070
3685.300, -0.5027340
3686.264, -0.5020810
3687.229, -0.5014480
3688.193, -0.5027540
3689.157, -0.5086040
3690.122, -0.5166200
3691.086, -0.5200630
3692.050, -0.5181840
3693.014, -0.5136940
3693.979, -0.5084310
3694.943, -0.5033150
3695.907, -0.4988880
3696.871, -0.4955510
3697.835, -0.4936550
3698.800, -0.4935550
3699.764, -0.4955510
3700.728, -0.4995110
3701.692, -0.5043070
3702.656, -0.5080600
3703.621, -0.5096480
3704.585, -0.5094260
3705.549, -0.5082950
3706.513, -0.5068030
3707.478, -0.5049340
3708.442, -0.5022180
3709.406, -0.4982320
3710.370, -0.4943040
3711.335, -0.4945480
3712.299, -0.4993610
3713.263, -0.5040380
3714.227, -0.5062570
3715.191, -0.5062420
3716.156, -0.5048800
3717.120, -0.5032030
3718.084, -0.5023190
3719.049, -0.5032160
3720.013, -0.5063280
3720.977, -0.5110390
3721.941, -0.5156280
3722.906, -0.5179440
3723.870, -0.5166800
3724.834, -0.5125320
3725.798, -0.5077400
3726.762, -0.5039780
3727.727, -0.5013590
3728.691, -0.4992500
3729.655, -0.4971170
3730.619, -0.4948220
3731.583, -0.4927290
3732.548, -0.4919140
3733.512, -0.4940320
3734.476, -0.4988920
3735.440, -0.5008870
3736.405, -0.4964500
3737.369, -0.4897910
3738.333, -0.4849090
3739.297, -0.4830290
3740.262, -0.4840270
3741.226, -0.4870970
3742.190, -0.4905040
3743.154, -0.4909200
3744.118, -0.4839770
3745.083, -0.4687690
3746.047, -0.4517680
3747.011, -0.4408100
3747.976, -0.4394640
3748.940, -0.4502640
3749.904, -0.4755970
3750.868, -0.5049770
3751.833, -0.5183160
3752.797, -0.5170390
3753.761, -0.5118290
3754.725, -0.5076680
3755.689, -0.5060460
3756.654, -0.5074030
3757.618, -0.5111820
3758.582, -0.5150650
3759.546, -0.5160180
3760.510, -0.5130430
3761.475, -0.5074400
3762.439, -0.5008630
3763.403, -0.4943310
3764.367, -0.4883740
3765.332, -0.4834170
3766.296, -0.4801110
3767.260, -0.4794380
3768.224, -0.4823760
3769.189, -0.4889040
3770.153, -0.4970660
3771.117, -0.5038910
3772.081, -0.5077370
3773.045, -0.5090140
3774.010, -0.5090060
3774.974, -0.5088450
3775.938, -0.5091680
3776.903, -0.5099970
3777.867, -0.5105360
3778.831, -0.5093590
3779.795, -0.5057010
3780.760, -0.5005090
3781.724, -0.4955660
3782.688, -0.4923220
3783.652, -0.4917140
3784.616, -0.4940290
3785.581, -0.4983490
3786.545, -0.5025980
3787.509, -0.5048730
3788.473, -0.5046730
3789.438, -0.5027770
3790.402, -0.5004230
3791.366, -0.4986220
3792.330, -0.4977870
3793.294, -0.4976320
3794.259, -0.4973300
3795.223, -0.4959780
3796.187, -0.4933990
3797.151, -0.4908240
3798.115, -0.4906200
3799.080, -0.4947840
3800.044, -0.5029670
##END=



