##NAMES=Arsenolite
##RRUFFID=R050383
##IDEAL CHEMISTRY=As^3+^_2_O_3_
##LOCALITY=Eureka, Nevada, USA
##OWNER=RRUFF
##SOURCE=University of Arizona Mineral Museum
##DESCRIPTION=Colorless hoppered octahedra
##STATUS=The identification of this mineral has been confirmed by X-ray diffraction and chemical analysis
##URL=rruff.info/R050383
##MEASURED CHEMISTRY=As_2.00_O_3_
3.741225e+002, 1.194564e-003
3.760510e+002, 2.646050e-003
3.779795e+002, -3.833528e-003
3.799079e+002, -5.687389e-003
3.818364e+002, -4.997894e-003
3.837649e+002, -5.272537e-003
3.856933e+002, -6.407683e-003
3.876218e+002, -3.209754e-003
3.895503e+002, -1.089673e-003
3.914787e+002, -1.442495e-003
3.934072e+002, -1.187668e-003
3.953357e+002, 4.924644e-005
3.972641e+002, 2.384444e-003
3.991926e+002, 3.508708e-003
4.011211e+002, 1.742855e-003
4.030495e+002, 2.253513e-003
4.049780e+002, 3.369768e-003
4.069065e+002, 2.951128e-003
4.088349e+002, 3.380446e-003
4.107634e+002, 6.419953e-003
4.126919e+002, 7.288815e-003
4.146203e+002, 7.016381e-003
4.165488e+002, 8.316912e-003
4.184773e+002, 9.477002e-003
4.204057e+002, 9.804291e-003
4.223342e+002, 1.059526e-002
4.242627e+002, 1.148012e-002
4.261911e+002, 1.301997e-002
4.281196e+002, 1.477258e-002
4.300481e+002, 1.658689e-002
4.319765e+002, 1.973332e-002
4.339050e+002, 2.294699e-002
4.358335e+002, 2.743452e-002
4.377619e+002, 3.257879e-002
4.396904e+002, 3.675510e-002
4.416189e+002, 4.095801e-002
4.435473e+002, 4.547074e-002
4.454758e+002, 5.074125e-002
4.474043e+002, 5.924335e-002
4.493327e+002, 6.967566e-002
4.512612e+002, 8.118597e-002
4.531897e+002, 9.582195e-002
4.551181e+002, 1.157061e-001
4.570466e+002, 1.407040e-001
4.589751e+002, 1.691438e-001
4.609035e+002, 1.980793e-001
4.628320e+002, 2.309019e-001
4.647605e+002, 2.691737e-001
4.666889e+002, 3.087127e-001
4.686174e+002, 3.442417e-001
4.705459e+002, 3.709703e-001
4.724743e+002, 3.848670e-001
4.744028e+002, 3.797444e-001
4.763313e+002, 3.506918e-001
4.782597e+002, 3.086655e-001
4.801882e+002, 2.675072e-001
4.821167e+002, 2.348679e-001
4.840451e+002, 2.108352e-001
4.859736e+002, 1.946481e-001
4.879021e+002, 1.840670e-001
4.898305e+002, 1.737476e-001
4.917590e+002, 1.597026e-001
4.936875e+002, 1.417887e-001
4.956159e+002, 1.224194e-001
4.975444e+002, 1.039018e-001
4.994729e+002, 8.802960e-002
5.014013e+002, 7.522540e-002
5.033298e+002, 6.390183e-002
5.052583e+002, 5.369633e-002
5.071867e+002, 4.517685e-002
5.091152e+002, 3.900327e-002
5.110437e+002, 3.457148e-002
5.129721e+002, 3.097084e-002
5.149006e+002, 2.772239e-002
5.168290e+002, 2.599652e-002
5.187575e+002, 2.540053e-002
5.206860e+002, 2.486287e-002
5.226144e+002, 2.426019e-002
5.245429e+002, 2.371934e-002
5.264714e+002, 2.324420e-002
5.283998e+002, 2.223513e-002
5.303283e+002, 2.089684e-002
5.322568e+002, 1.931399e-002
5.341852e+002, 1.733632e-002
5.361137e+002, 1.599136e-002
5.380422e+002, 1.569383e-002
5.399706e+002, 1.593813e-002
5.418991e+002, 1.582657e-002
5.438276e+002, 1.525515e-002
5.457560e+002, 1.477319e-002
5.476845e+002, 1.470377e-002
5.496130e+002, 1.479617e-002
5.515414e+002, 1.501322e-002
5.534699e+002, 1.506556e-002
5.553984e+002, 1.506343e-002
5.573268e+002, 1.559623e-002
5.592553e+002, 1.635078e-002
5.611838e+002, 1.679427e-002
5.631122e+002, 1.697355e-002
5.650407e+002, 1.709209e-002
5.669692e+002, 1.748025e-002
5.688976e+002, 1.831692e-002
5.708261e+002, 1.908531e-002
5.727546e+002, 1.964436e-002
5.746830e+002, 2.018339e-002
5.766115e+002, 2.062592e-002
5.785400e+002, 2.108618e-002
5.804684e+002, 2.184023e-002
5.823969e+002, 2.290358e-002
5.843254e+002, 2.405468e-002
5.862538e+002, 2.490098e-002
5.881823e+002, 2.567156e-002
5.901108e+002, 2.679979e-002
5.920392e+002, 2.821800e-002
5.939677e+002, 2.959141e-002
5.958962e+002, 3.077202e-002
5.978246e+002, 3.200492e-002
5.997531e+002, 3.370588e-002
6.016816e+002, 3.556907e-002
6.036100e+002, 3.742700e-002
6.055385e+002, 3.990232e-002
6.074670e+002, 4.250425e-002
6.093954e+002, 4.377280e-002
6.113239e+002, 4.343196e-002
6.132524e+002, 4.293283e-002
6.151808e+002, 4.344103e-002
6.171093e+002, 4.491661e-002
6.190378e+002, 4.672905e-002
6.209662e+002, 4.842610e-002
6.228947e+002, 4.996718e-002
6.248232e+002, 5.207174e-002
6.267516e+002, 5.448957e-002
6.286801e+002, 5.703874e-002
6.306086e+002, 5.938997e-002
6.325370e+002, 6.182341e-002
6.344655e+002, 6.439763e-002
6.363940e+002, 6.709682e-002
6.383224e+002, 7.031982e-002
6.402509e+002, 7.379761e-002
6.421794e+002, 7.729297e-002
6.441078e+002, 8.054522e-002
6.460363e+002, 8.348534e-002
6.479648e+002, 8.661276e-002
6.498932e+002, 9.054416e-002
6.518217e+002, 9.515019e-002
6.537502e+002, 1.000673e-001
6.556786e+002, 1.051756e-001
6.576071e+002, 1.104387e-001
6.595356e+002, 1.156037e-001
6.614641e+002, 1.203192e-001
6.633925e+002, 1.249860e-001
6.653210e+002, 1.298688e-001
6.672495e+002, 1.347778e-001
6.691779e+002, 1.396374e-001
6.711064e+002, 1.444001e-001
6.730349e+002, 1.496024e-001
6.749633e+002, 1.553573e-001
6.768918e+002, 1.617550e-001
6.788203e+002, 1.685280e-001
6.807487e+002, 1.755578e-001
6.826772e+002, 1.832484e-001
6.846057e+002, 1.913529e-001
6.865341e+002, 1.997694e-001
6.884626e+002, 2.087862e-001
6.903911e+002, 2.179467e-001
6.923195e+002, 2.272288e-001
6.942480e+002, 2.368270e-001
6.961765e+002, 2.466707e-001
6.981049e+002, 2.565583e-001
7.000334e+002, 2.667168e-001
7.019619e+002, 2.772652e-001
7.038903e+002, 2.878643e-001
7.058188e+002, 2.985616e-001
7.077473e+002, 3.091016e-001
7.096757e+002, 3.190112e-001
7.116042e+002, 3.294889e-001
7.135327e+002, 3.409928e-001
7.154611e+002, 3.530408e-001
7.173896e+002, 3.653025e-001
7.193181e+002, 3.776494e-001
7.212465e+002, 3.898948e-001
7.231750e+002, 4.022745e-001
7.251035e+002, 4.143103e-001
7.270319e+002, 4.252308e-001
7.289604e+002, 4.350535e-001
7.308889e+002, 4.447863e-001
7.328173e+002, 4.543148e-001
7.347458e+002, 4.639950e-001
7.366743e+002, 4.743792e-001
7.386027e+002, 4.863271e-001
7.405312e+002, 4.993525e-001
7.424597e+002, 5.127032e-001
7.443881e+002, 5.261859e-001
7.463166e+002, 5.400557e-001
7.482451e+002, 5.542444e-001
7.501735e+002, 5.685726e-001
7.521020e+002, 5.829589e-001
7.540305e+002, 5.983096e-001
7.559589e+002, 6.129717e-001
7.578874e+002, 6.273400e-001
7.598159e+002, 6.406669e-001
7.617443e+002, 6.538412e-001
7.636728e+002, 6.668507e-001
7.656013e+002, 6.776783e-001
7.675297e+002, 6.851569e-001
7.694582e+002, 6.906705e-001
7.713867e+002, 6.947418e-001
7.733151e+002, 6.986616e-001
7.752436e+002, 7.030630e-001
7.771721e+002, 7.076210e-001
7.791005e+002, 7.093379e-001
7.810290e+002, 7.076679e-001
7.829575e+002, 7.031721e-001
7.848859e+002, 6.944834e-001
7.868144e+002, 6.779764e-001
7.887429e+002, 6.515036e-001
7.906713e+002, 6.124877e-001
7.925998e+002, 5.554558e-001
7.945283e+002, 4.794773e-001
7.964567e+002, 4.007447e-001
7.983852e+002, 3.404112e-001
8.003137e+002, 3.047436e-001
8.022421e+002, 2.836517e-001
8.041706e+002, 2.654316e-001
8.060991e+002, 2.458013e-001
8.080275e+002, 2.262763e-001
8.099560e+002, 2.082513e-001
8.118845e+002, 1.918605e-001
8.138129e+002, 1.771608e-001
8.157414e+002, 1.641773e-001
8.176699e+002, 1.539558e-001
8.195983e+002, 1.468587e-001
8.215268e+002, 1.407312e-001
8.234553e+002, 1.336091e-001
8.253837e+002, 1.259287e-001
8.273122e+002, 1.193553e-001
8.292407e+002, 1.144200e-001
8.311691e+002, 1.104031e-001
8.330976e+002, 1.076550e-001
8.350261e+002, 1.064898e-001
8.369545e+002, 1.068094e-001
8.388830e+002, 1.061102e-001
8.408115e+002, 9.995719e-002
8.427399e+002, 8.851758e-002
8.446684e+002, 7.557388e-002
8.465969e+002, 6.369993e-002
8.485253e+002, 5.369163e-002
8.504538e+002, 4.551605e-002
8.523823e+002, 3.864465e-002
8.543107e+002, 3.238254e-002
8.562392e+002, 2.658657e-002
8.581677e+002, 2.150208e-002
8.600961e+002, 1.745509e-002
8.620246e+002, 1.478405e-002
8.639531e+002, 1.322427e-002
8.658815e+002, 1.226819e-002
8.678100e+002, 1.169575e-002
8.697385e+002, 1.131409e-002
8.716669e+002, 1.099094e-002
8.735954e+002, 1.079710e-002
8.755239e+002, 1.050329e-002
8.774523e+002, 9.898814e-003
8.793808e+002, 9.445389e-003
8.813093e+002, 9.304501e-003
8.832377e+002, 8.959333e-003
8.851662e+002, 8.305726e-003
8.870947e+002, 7.698370e-003
8.890231e+002, 7.126397e-003
8.909516e+002, 6.608528e-003
8.928801e+002, 6.311871e-003
8.948085e+002, 6.119163e-003
8.967370e+002, 5.925011e-003
8.986655e+002, 5.969498e-003
9.005939e+002, 6.169305e-003
9.025224e+002, 6.445297e-003
9.044509e+002, 6.969384e-003
9.063793e+002, 7.971197e-003
9.083078e+002, 9.394210e-003
9.102363e+002, 1.158601e-002
9.121647e+002, 1.466306e-002
9.140932e+002, 1.752795e-002
9.160217e+002, 1.843251e-002
9.179501e+002, 1.731848e-002
9.198786e+002, 1.553549e-002
9.218071e+002, 1.412315e-002
9.237355e+002, 1.349498e-002
9.256640e+002, 1.357962e-002
9.275925e+002, 1.378128e-002
9.295209e+002, 1.395736e-002
9.314494e+002, 1.445680e-002
9.333779e+002, 1.461519e-002
9.353063e+002, 1.329955e-002
9.372348e+002, 1.087811e-002
9.391633e+002, 8.725691e-003
9.410917e+002, 7.468411e-003
9.430202e+002, 6.567464e-003
9.449487e+002, 6.065288e-003
9.468771e+002, 5.905538e-003
9.488056e+002, 5.845239e-003
9.507341e+002, 5.956853e-003
9.526625e+002, 6.009000e-003
9.545910e+002, 6.042153e-003
9.565195e+002, 6.108615e-003
9.584479e+002, 6.205150e-003
9.603764e+002, 6.462437e-003
9.623049e+002, 6.630525e-003
9.642333e+002, 6.676664e-003
9.661618e+002, 6.872991e-003
9.680903e+002, 7.171526e-003
9.700187e+002, 7.444366e-003
9.719472e+002, 7.814243e-003
9.738757e+002, 8.355325e-003
9.758041e+002, 9.019315e-003
9.777326e+002, 9.799958e-003
9.796611e+002, 1.055960e-002
9.815895e+002, 1.133740e-002
9.835180e+002, 1.213087e-002
9.854465e+002, 1.241743e-002
9.873749e+002, 1.197536e-002
9.893034e+002, 1.132269e-002
9.912319e+002, 1.085892e-002
9.931603e+002, 1.057437e-002
9.950888e+002, 1.061095e-002
9.970173e+002, 1.096523e-002
9.989457e+002, 1.147897e-002
1.000874e+003, 1.195112e-002
1.002803e+003, 1.224462e-002
1.004731e+003, 1.260937e-002
1.006660e+003, 1.318832e-002
1.008588e+003, 1.402407e-002
1.010517e+003, 1.531281e-002
1.012445e+003, 1.714346e-002
1.014373e+003, 1.950414e-002
1.016302e+003, 2.225519e-002
1.018230e+003, 2.543106e-002
1.020159e+003, 2.865678e-002
1.022087e+003, 3.172050e-002
1.024016e+003, 3.514531e-002
1.025944e+003, 3.955837e-002
1.027873e+003, 4.543865e-002
1.029801e+003, 5.252534e-002
1.031730e+003, 6.021622e-002
1.033658e+003, 6.755549e-002
1.035587e+003, 7.346083e-002
1.037515e+003, 7.730072e-002
1.039443e+003, 7.920083e-002
1.041372e+003, 7.972863e-002
1.043300e+003, 8.004710e-002
1.045229e+003, 8.091941e-002
1.047157e+003, 8.226752e-002
1.049086e+003, 8.229409e-002
1.051014e+003, 7.979222e-002
1.052943e+003, 7.565688e-002
1.054871e+003, 7.100971e-002
1.056800e+003, 6.648827e-002
1.058728e+003, 6.209575e-002
1.060657e+003, 5.714212e-002
1.062585e+003, 5.150312e-002
1.064514e+003, 4.588911e-002
1.066442e+003, 4.047189e-002
1.068370e+003, 3.527283e-002
1.070299e+003, 3.058627e-002
1.072227e+003, 2.630615e-002
1.074156e+003, 2.252824e-002
1.076084e+003, 1.947920e-002
1.078013e+003, 1.708550e-002
1.079941e+003, 1.517363e-002
1.081870e+003, 1.369510e-002
1.083798e+003, 1.247474e-002
1.085727e+003, 1.144725e-002
1.087655e+003, 1.071198e-002
1.089584e+003, 1.015540e-002
1.091512e+003, 9.639144e-003
1.093441e+003, 9.205080e-003
1.095369e+003, 8.927663e-003
1.097297e+003, 8.771367e-003
1.099226e+003, 8.730805e-003
1.101154e+003, 8.691799e-003
1.103083e+003, 8.500903e-003
1.105011e+003, 8.389067e-003
1.106940e+003, 8.339813e-003
1.108868e+003, 8.421152e-003
1.110797e+003, 8.435498e-003
1.112725e+003, 8.577950e-003
1.114654e+003, 8.790867e-003
1.116582e+003, 8.992113e-003
1.118511e+003, 9.316119e-003
1.120439e+003, 9.650890e-003
1.122368e+003, 9.957247e-003
1.124296e+003, 1.010813e-002
1.126224e+003, 1.006064e-002
1.128153e+003, 1.001743e-002
1.130081e+003, 1.027810e-002
1.132010e+003, 1.051814e-002
1.133938e+003, 1.064032e-002
1.135867e+003, 1.077919e-002
1.137795e+003, 1.093858e-002
1.139724e+003, 1.119895e-002
1.141652e+003, 1.158616e-002
1.143581e+003, 1.210661e-002
1.145509e+003, 1.262634e-002
1.147438e+003, 1.313806e-002
1.149366e+003, 1.347766e-002
1.151295e+003, 1.361606e-002
1.153223e+003, 1.367056e-002
1.155151e+003, 1.397894e-002
1.157080e+003, 1.443414e-002
1.159008e+003, 1.481825e-002
1.160937e+003, 1.500349e-002
1.162865e+003, 1.487169e-002
1.164794e+003, 1.434559e-002
1.166722e+003, 1.375411e-002
1.168651e+003, 1.326500e-002
1.170579e+003, 1.292098e-002
1.172508e+003, 1.246926e-002
1.174436e+003, 1.185801e-002
1.176365e+003, 1.129826e-002
1.178293e+003, 1.084270e-002
1.180222e+003, 1.048751e-002
1.182150e+003, 1.024705e-002
1.184078e+003, 1.018428e-002
1.186007e+003, 1.014904e-002
1.187935e+003, 1.011802e-002
1.189864e+003, 1.018052e-002
1.191792e+003, 1.022755e-002
1.193721e+003, 1.030510e-002
1.195649e+003, 1.031936e-002
1.197578e+003, 1.025368e-002
1.199506e+003, 1.025074e-002
1.201435e+003, 1.030478e-002
1.203363e+003, 1.023625e-002
1.205292e+003, 1.017805e-002
1.207220e+003, 1.025033e-002
1.209149e+003, 1.038214e-002
1.211077e+003, 1.051101e-002
1.213005e+003, 1.068342e-002
1.214934e+003, 1.078672e-002
1.216862e+003, 1.085504e-002
1.218791e+003, 1.094068e-002
1.220719e+003, 1.105768e-002
1.222648e+003, 1.116723e-002
1.224576e+003, 1.149709e-002
1.226505e+003, 1.195623e-002
1.228433e+003, 1.246857e-002
1.230362e+003, 1.316482e-002
1.232290e+003, 1.377770e-002
1.234219e+003, 1.427792e-002
1.236147e+003, 1.486751e-002
1.238076e+003, 1.548916e-002
1.240004e+003, 1.615342e-002
1.241932e+003, 1.680211e-002
1.243861e+003, 1.735194e-002
1.245789e+003, 1.793475e-002
1.247718e+003, 1.865865e-002
1.249646e+003, 1.959972e-002
1.251575e+003, 2.066627e-002
1.253503e+003, 2.170903e-002
1.255432e+003, 2.271147e-002
1.257360e+003, 2.353824e-002
1.259289e+003, 2.410982e-002
1.261217e+003, 2.426275e-002
1.263146e+003, 2.388422e-002
1.265074e+003, 2.316281e-002
1.267003e+003, 2.225135e-002
1.268931e+003, 2.121216e-002
1.270859e+003, 2.015801e-002
1.272788e+003, 1.914172e-002
1.274716e+003, 1.813843e-002
1.276645e+003, 1.717150e-002
1.278573e+003, 1.645169e-002
1.280502e+003, 1.579308e-002
1.282430e+003, 1.516570e-002
1.284359e+003, 1.462878e-002
1.286287e+003, 1.418563e-002
1.288216e+003, 1.393354e-002
1.290144e+003, 1.363987e-002
1.292073e+003, 1.337971e-002
1.294001e+003, 1.329597e-002
1.295930e+003, 1.322553e-002
1.297858e+003, 1.291903e-002
1.299786e+003, 1.274318e-002
1.301715e+003, 1.269054e-002
1.303643e+003, 1.259970e-002
1.305572e+003, 1.251423e-002
1.307500e+003, 1.246766e-002
1.309429e+003, 1.242298e-002
1.311357e+003, 1.245838e-002
1.313286e+003, 1.259876e-002
1.315214e+003, 1.281252e-002
1.317143e+003, 1.291767e-002
1.319071e+003, 1.293037e-002
1.321000e+003, 1.299109e-002
1.322928e+003, 1.313634e-002
1.324857e+003, 1.326787e-002
1.326785e+003, 1.327454e-002
1.328714e+003, 1.335520e-002
1.330642e+003, 1.376407e-002
1.332570e+003, 1.466331e-002
1.334499e+003, 1.560041e-002
1.336427e+003, 1.609259e-002
1.338356e+003, 1.620085e-002
1.340284e+003, 1.587611e-002
1.342213e+003, 1.526504e-002
1.344141e+003, 1.476121e-002
1.346070e+003, 1.458971e-002
1.347998e+003, 1.462989e-002
1.349927e+003, 1.467774e-002
1.351855e+003, 1.475888e-002
1.353784e+003, 1.486499e-002
1.355712e+003, 1.481002e-002
1.357641e+003, 1.456110e-002
1.359569e+003, 1.438137e-002
1.361497e+003, 1.430591e-002
1.363426e+003, 1.415144e-002
1.365354e+003, 1.399861e-002
1.367283e+003, 1.390433e-002
1.369211e+003, 1.374122e-002
1.371140e+003, 1.344640e-002
1.373068e+003, 1.333187e-002
1.374997e+003, 1.315682e-002
1.376925e+003, 1.297592e-002
1.378854e+003, 1.292196e-002
1.380782e+003, 1.279153e-002
1.382711e+003, 1.267719e-002
1.384639e+003, 1.266629e-002
1.386568e+003, 1.277074e-002
1.388496e+003, 1.287803e-002
1.390424e+003, 1.297165e-002
1.392353e+003, 1.305394e-002
1.394281e+003, 1.331339e-002
1.396210e+003, 1.340525e-002
1.398138e+003, 1.351792e-002
1.400067e+003, 1.368852e-002
1.401995e+003, 1.382697e-002
1.403924e+003, 1.405669e-002
1.405852e+003, 1.409841e-002
1.407781e+003, 1.404128e-002
1.409709e+003, 1.396206e-002
1.411638e+003, 1.382791e-002
1.413566e+003, 1.371766e-002
1.415495e+003, 1.353574e-002
1.417423e+003, 1.342889e-002
1.419351e+003, 1.336608e-002
1.421280e+003, 1.326615e-002
1.423208e+003, 1.336178e-002
1.425137e+003, 1.339730e-002
1.427065e+003, 1.334721e-002
1.428994e+003, 1.335383e-002
1.430922e+003, 1.328683e-002
1.432851e+003, 1.334907e-002
1.434779e+003, 1.367821e-002
1.436708e+003, 1.398181e-002
1.438636e+003, 1.397738e-002
1.440565e+003, 1.394081e-002
1.442493e+003, 1.400747e-002
1.444422e+003, 1.398832e-002
1.446350e+003, 1.397955e-002
1.448278e+003, 1.405889e-002
1.450207e+003, 1.398278e-002
1.452135e+003, 1.391726e-002
1.454064e+003, 1.412574e-002
1.455992e+003, 1.446276e-002
1.457921e+003, 1.453386e-002
1.459849e+003, 1.438028e-002
1.461778e+003, 1.423823e-002
1.463706e+003, 1.421317e-002
1.465635e+003, 1.426084e-002
1.467563e+003, 1.420835e-002
1.469492e+003, 1.414533e-002
1.471420e+003, 1.419499e-002
1.473349e+003, 1.411473e-002
1.475277e+003, 1.391451e-002
1.477205e+003, 1.382231e-002
1.479134e+003, 1.374697e-002
1.481062e+003, 1.376269e-002
1.482991e+003, 1.375671e-002
1.484919e+003, 1.378682e-002
1.486848e+003, 1.390358e-002
1.488776e+003, 1.397650e-002
1.490705e+003, 1.401585e-002
1.492633e+003, 1.399083e-002
1.494562e+003, 1.405642e-002
1.496490e+003, 1.438098e-002
1.498419e+003, 1.448002e-002
1.500347e+003, 1.439106e-002
1.502276e+003, 1.436177e-002
1.504204e+003, 1.451224e-002
1.506132e+003, 1.487111e-002
1.508061e+003, 1.485013e-002
1.509989e+003, 1.461583e-002
1.511918e+003, 1.464228e-002
1.513846e+003, 1.457116e-002
1.515775e+003, 1.459552e-002
1.517703e+003, 1.482405e-002
1.519632e+003, 1.494455e-002
1.521560e+003, 1.498647e-002
1.523489e+003, 1.481980e-002
1.525417e+003, 1.482140e-002
1.527346e+003, 1.478455e-002
1.529274e+003, 1.472369e-002
1.531203e+003, 1.476042e-002
1.533131e+003, 1.480529e-002
1.535059e+003, 1.472178e-002
1.536988e+003, 1.480687e-002
1.538916e+003, 1.522648e-002
1.540845e+003, 1.524472e-002
1.542773e+003, 1.499908e-002
1.544702e+003, 1.487595e-002
1.546630e+003, 1.470739e-002
1.548559e+003, 1.471833e-002
1.550487e+003, 1.492809e-002
1.552416e+003, 1.499125e-002
1.554344e+003, 1.502315e-002
1.556273e+003, 1.509583e-002
1.558201e+003, 1.540799e-002
1.560130e+003, 1.544070e-002
1.562058e+003, 1.504388e-002
1.563986e+003, 1.492042e-002
1.565915e+003, 1.499244e-002
1.567843e+003, 1.519819e-002
1.569772e+003, 1.536226e-002
1.571700e+003, 1.532419e-002
1.573629e+003, 1.547259e-002
1.575557e+003, 1.579349e-002
1.577486e+003, 1.570312e-002
1.579414e+003, 1.553076e-002
1.581343e+003, 1.557700e-002
1.583271e+003, 1.558301e-002
1.585200e+003, 1.548138e-002
1.587128e+003, 1.554195e-002
1.589057e+003, 1.575231e-002
1.590985e+003, 1.583227e-002
1.592913e+003, 1.595061e-002
1.594842e+003, 1.605845e-002
1.596770e+003, 1.609769e-002
1.598699e+003, 1.623446e-002
1.600627e+003, 1.640950e-002
1.602556e+003, 1.640252e-002
1.604484e+003, 1.635128e-002
1.606413e+003, 1.637197e-002
1.608341e+003, 1.642883e-002
1.610270e+003, 1.654779e-002
1.612198e+003, 1.667811e-002
1.614127e+003, 1.692156e-002
1.616055e+003, 1.720354e-002
1.617984e+003, 1.720028e-002
1.619912e+003, 1.721006e-002
1.621840e+003, 1.729344e-002
1.623769e+003, 1.741248e-002
1.625697e+003, 1.746237e-002
1.627626e+003, 1.743184e-002
1.629554e+003, 1.747585e-002
1.631483e+003, 1.755676e-002
1.633411e+003, 1.768682e-002
1.635340e+003, 1.776926e-002
1.637268e+003, 1.764499e-002
1.639197e+003, 1.767931e-002
1.641125e+003, 1.782498e-002
1.643054e+003, 1.781367e-002
1.644982e+003, 1.794009e-002
1.646911e+003, 1.783904e-002
1.648839e+003, 1.757544e-002
1.650767e+003, 1.779794e-002
1.652696e+003, 1.840155e-002
1.654624e+003, 1.812818e-002
1.656553e+003, 1.771982e-002
1.658481e+003, 1.764691e-002
1.660410e+003, 1.779429e-002
1.662338e+003, 1.802207e-002
1.664267e+003, 1.788853e-002
1.666195e+003, 1.766647e-002
1.668124e+003, 1.781872e-002
1.670052e+003, 1.812193e-002
1.671981e+003, 1.804862e-002
1.673909e+003, 1.803300e-002
1.675838e+003, 1.820395e-002
1.677766e+003, 1.805779e-002
1.679694e+003, 1.811672e-002
1.681623e+003, 1.839712e-002
1.683551e+003, 1.879089e-002
1.685480e+003, 1.877271e-002
1.687408e+003, 1.854212e-002
1.689337e+003, 1.853891e-002
1.691265e+003, 1.854335e-002
1.693194e+003, 1.865397e-002
1.695122e+003, 1.896920e-002
1.697051e+003, 1.905840e-002
1.698979e+003, 1.928488e-002
1.700908e+003, 1.946657e-002
1.702836e+003, 1.914011e-002
1.704765e+003, 1.908481e-002
1.706693e+003, 1.916831e-002
1.708621e+003, 1.911532e-002
1.710550e+003, 1.919046e-002
1.712478e+003, 1.945960e-002
1.714407e+003, 1.951434e-002
1.716335e+003, 1.982790e-002
1.718264e+003, 1.994467e-002
1.720192e+003, 1.977213e-002
1.722121e+003, 1.994091e-002
1.724049e+003, 2.021280e-002
1.725978e+003, 2.036503e-002
1.727906e+003, 2.057800e-002
1.729835e+003, 2.074708e-002
1.731763e+003, 2.090389e-002
1.733692e+003, 2.110963e-002
1.735620e+003, 2.095198e-002
1.737548e+003, 2.073272e-002
1.739477e+003, 2.055825e-002
1.741405e+003, 2.012581e-002
1.743334e+003, 1.983163e-002
1.745262e+003, 1.966743e-002
1.747191e+003, 1.951498e-002
1.749119e+003, 1.962584e-002
1.751048e+003, 1.955508e-002
1.752976e+003, 1.924200e-002
1.754905e+003, 1.932997e-002
1.756833e+003, 1.950574e-002
1.758762e+003, 1.942087e-002
1.760690e+003, 1.946777e-002
1.762619e+003, 1.965902e-002
1.764547e+003, 1.973745e-002
1.766475e+003, 1.970185e-002
1.768404e+003, 1.958931e-002
1.770332e+003, 1.974981e-002
1.772261e+003, 2.007630e-002
1.774189e+003, 1.999986e-002
1.776118e+003, 1.981054e-002
1.778046e+003, 1.985055e-002
1.779975e+003, 2.000377e-002
1.781903e+003, 1.998987e-002
1.783832e+003, 2.006579e-002
1.785760e+003, 2.015410e-002
1.787689e+003, 2.012705e-002
1.789617e+003, 2.033409e-002
1.791546e+003, 2.055047e-002
1.793474e+003, 2.052378e-002
1.795402e+003, 2.035439e-002
1.797331e+003, 2.029099e-002
1.799259e+003, 2.042878e-002
1.801188e+003, 2.046287e-002
1.803116e+003, 2.049299e-002
1.805045e+003, 2.057729e-002
1.806973e+003, 2.070955e-002
1.808902e+003, 2.077885e-002
1.810830e+003, 2.072751e-002
1.812759e+003, 2.081193e-002
1.814687e+003, 2.079289e-002
1.816616e+003, 2.063504e-002
1.818544e+003, 2.071812e-002
1.820473e+003, 2.091628e-002
1.822401e+003, 2.090819e-002
1.824329e+003, 2.109046e-002
1.826258e+003, 2.128292e-002
1.828186e+003, 2.128187e-002
1.830115e+003, 2.117197e-002
1.832043e+003, 2.113394e-002
1.833972e+003, 2.115201e-002
1.835900e+003, 2.128838e-002
1.837829e+003, 2.150177e-002
1.839757e+003, 2.164414e-002
1.841686e+003, 2.156376e-002
1.843614e+003, 2.152911e-002
1.845543e+003, 2.147525e-002
1.847471e+003, 2.156227e-002
1.849400e+003, 2.163280e-002
1.851328e+003, 2.183914e-002
1.853256e+003, 2.196190e-002
1.855185e+003, 2.202708e-002
1.857113e+003, 2.216710e-002
1.859042e+003, 2.219709e-002
1.860970e+003, 2.202625e-002
1.862899e+003, 2.197538e-002
1.864827e+003, 2.198270e-002
1.866756e+003, 2.224265e-002
1.868684e+003, 2.240711e-002
1.870613e+003, 2.262058e-002
1.872541e+003, 2.266413e-002
1.874470e+003, 2.245638e-002
1.876398e+003, 2.245136e-002
1.878327e+003, 2.248908e-002
1.880255e+003, 2.246517e-002
1.882183e+003, 2.246859e-002
1.884112e+003, 2.237618e-002
1.886040e+003, 2.250551e-002
1.887969e+003, 2.293622e-002
1.889897e+003, 2.314216e-002
1.891826e+003, 2.322645e-002
1.893754e+003, 2.333837e-002
1.895683e+003, 2.340420e-002
1.897611e+003, 2.330505e-002
1.899540e+003, 2.324107e-002
1.901468e+003, 2.331962e-002
1.903397e+003, 2.336215e-002
1.905325e+003, 2.336316e-002
1.907254e+003, 2.326526e-002
1.909182e+003, 2.337954e-002
1.911110e+003, 2.362015e-002
1.913039e+003, 2.357290e-002
1.914967e+003, 2.360822e-002
1.916896e+003, 2.404958e-002
1.918824e+003, 2.407194e-002
1.920753e+003, 2.368439e-002
1.922681e+003, 2.372186e-002
1.924610e+003, 2.406877e-002
1.926538e+003, 2.415622e-002
1.928467e+003, 2.394965e-002
1.930395e+003, 2.391549e-002
1.932324e+003, 2.409559e-002
1.934252e+003, 2.414635e-002
1.936181e+003, 2.402723e-002
1.938109e+003, 2.373688e-002
1.940037e+003, 2.389341e-002
1.941966e+003, 2.404347e-002
1.943894e+003, 2.383351e-002
1.945823e+003, 2.368998e-002
1.947751e+003, 2.384595e-002
1.949680e+003, 2.426409e-002
1.951608e+003, 2.458186e-002
1.953537e+003, 2.412240e-002
1.955465e+003, 2.336311e-002
1.957394e+003, 2.384086e-002
1.959322e+003, 2.420853e-002
1.961251e+003, 2.422227e-002
1.963179e+003, 2.458178e-002
1.965108e+003, 2.519540e-002
1.967036e+003, 2.503675e-002
1.968964e+003, 2.444004e-002
1.970893e+003, 2.467251e-002
1.972821e+003, 2.558520e-002
1.974750e+003, 2.502209e-002
1.976678e+003, 2.553670e-002
1.978607e+003, 2.721182e-002
1.980535e+003, 2.711657e-002
1.982464e+003, 2.713694e-002
1.984392e+003, 2.751905e-002
1.986321e+003, 2.764432e-002
1.988249e+003, 2.689189e-002
1.990178e+003, 2.597697e-002
1.992106e+003, 2.601969e-002
1.994035e+003, 2.641263e-002
1.995963e+003, 2.652668e-002
1.997891e+003, 2.577673e-002
1.999820e+003, 2.481179e-002
2.001748e+003, 2.442073e-002
2.003677e+003, 2.462064e-002
2.005605e+003, 2.522635e-002
2.007534e+003, 2.611166e-002
2.009462e+003, 2.674536e-002
2.011391e+003, 2.680415e-002
2.013319e+003, 2.636916e-002
2.015248e+003, 2.549680e-002
2.017176e+003, 2.502953e-002
2.019105e+003, 2.593024e-002
2.021033e+003, 2.657303e-002
2.022962e+003, 2.687527e-002
2.024890e+003, 2.691196e-002
2.026818e+003, 2.666356e-002
2.028747e+003, 2.659873e-002
2.030675e+003, 2.695672e-002
2.032604e+003, 2.758832e-002
2.034532e+003, 2.823595e-002
2.036461e+003, 2.860938e-002
2.038389e+003, 2.836988e-002
2.040318e+003, 2.766358e-002
2.042246e+003, 2.709428e-002
2.044175e+003, 2.694404e-002
2.046103e+003, 2.696750e-002
2.048031e+003, 2.729229e-002
2.049960e+003, 2.731204e-002
2.051888e+003, 2.682386e-002
2.053817e+003, 2.672103e-002
2.055745e+003, 2.705183e-002
2.057674e+003, 2.697798e-002
2.059602e+003, 2.677435e-002
2.061531e+003, 2.633840e-002
2.063459e+003, 2.655042e-002
2.065388e+003, 2.679703e-002
2.067316e+003, 2.581162e-002
2.069245e+003, 2.569974e-002
2.071173e+003, 2.618706e-002
2.073102e+003, 2.634278e-002
2.075030e+003, 2.683586e-002
2.076958e+003, 2.694368e-002
2.078887e+003, 2.702470e-002
2.080815e+003, 2.710127e-002
2.082744e+003, 2.650112e-002
2.084672e+003, 2.614236e-002
2.086601e+003, 2.650947e-002
2.088529e+003, 2.699048e-002
2.090458e+003, 2.694776e-002
2.092386e+003, 2.651044e-002
2.094315e+003, 2.622014e-002
2.096243e+003, 2.678933e-002
2.098172e+003, 2.750493e-002
2.100100e+003, 2.765128e-002
2.102029e+003, 2.769455e-002
2.103957e+003, 2.762302e-002
2.105885e+003, 2.759390e-002
2.107814e+003, 2.756914e-002
2.109742e+003, 2.786658e-002
2.111671e+003, 2.786457e-002
2.113599e+003, 2.794207e-002
2.115528e+003, 2.819103e-002
2.117456e+003, 2.843850e-002
2.119385e+003, 2.822142e-002
2.121313e+003, 2.805434e-002
2.123242e+003, 2.817450e-002
2.125170e+003, 2.802804e-002
2.127099e+003, 2.731127e-002
2.129027e+003, 2.716790e-002
2.130956e+003, 2.730399e-002
2.132884e+003, 2.760052e-002
2.134813e+003, 2.764348e-002
2.136741e+003, 2.767217e-002
2.138669e+003, 2.753158e-002
2.140598e+003, 2.804692e-002
2.142526e+003, 2.837975e-002
2.144455e+003, 2.823301e-002
2.146383e+003, 2.838237e-002
2.148312e+003, 2.833772e-002
2.150240e+003, 2.788113e-002
2.152169e+003, 2.794765e-002
2.154097e+003, 2.718144e-002
2.156026e+003, 2.668338e-002
2.157954e+003, 2.924601e-002
2.159883e+003, 3.267194e-002
2.161811e+003, 3.323431e-002
2.163740e+003, 3.291344e-002
2.165668e+003, 3.227566e-002
2.167596e+003, 3.159446e-002
2.169525e+003, 3.146334e-002
2.171453e+003, 3.127820e-002
2.173382e+003, 3.056937e-002
2.175310e+003, 3.011806e-002
2.177239e+003, 3.114641e-002
2.179167e+003, 3.105812e-002
2.181096e+003, 3.026874e-002
2.183024e+003, 3.117080e-002
2.184953e+003, 3.200347e-002
2.186881e+003, 3.221520e-002
2.188810e+003, 3.207655e-002
2.190738e+003, 3.187156e-002
2.192667e+003, 3.234432e-002
2.194595e+003, 3.197173e-002
2.196523e+003, 3.108139e-002
2.198452e+003, 3.090506e-002
2.200380e+003, 3.147536e-002
2.202309e+003, 3.162196e-002
2.204237e+003, 3.142766e-002
2.206166e+003, 3.205731e-002
2.208094e+003, 3.212959e-002
2.210023e+003, 3.201227e-002
2.211951e+003, 3.210879e-002
2.213880e+003, 3.182282e-002
2.215808e+003, 3.183180e-002
2.217737e+003, 3.145559e-002
2.219665e+003, 3.162634e-002
2.221594e+003, 3.236742e-002
2.223522e+003, 3.265970e-002
2.225450e+003, 3.242911e-002
2.227379e+003, 3.252857e-002
2.229307e+003, 3.263290e-002
2.231236e+003, 3.300459e-002
2.233164e+003, 3.357062e-002
2.235093e+003, 3.352004e-002
2.237021e+003, 3.263497e-002
2.238950e+003, 3.188279e-002
2.240878e+003, 3.256263e-002
2.242807e+003, 3.283988e-002
2.244735e+003, 3.258530e-002
2.246664e+003, 3.285855e-002
2.248592e+003, 3.295719e-002
2.250521e+003, 3.294349e-002
2.252449e+003, 3.314303e-002
2.254377e+003, 3.313455e-002
2.256306e+003, 3.291932e-002
2.258234e+003, 3.282327e-002
2.260163e+003, 3.271572e-002
2.262091e+003, 3.289080e-002
2.264020e+003, 3.272865e-002
2.265948e+003, 3.244734e-002
2.267877e+003, 3.273018e-002
2.269805e+003, 3.301672e-002
2.271734e+003, 3.270741e-002
2.273662e+003, 3.341495e-002
2.275591e+003, 3.458822e-002
2.277519e+003, 3.431591e-002
2.279448e+003, 3.398886e-002
2.281376e+003, 3.435329e-002
2.283304e+003, 3.456390e-002
2.285233e+003, 3.464743e-002
2.287161e+003, 3.440564e-002
2.289090e+003, 3.407667e-002
2.291018e+003, 3.410475e-002
2.292947e+003, 3.401105e-002
2.294875e+003, 3.370831e-002
2.296804e+003, 3.376190e-002
2.298732e+003, 3.376543e-002
2.300661e+003, 3.392797e-002
2.302589e+003, 3.422299e-002
2.304518e+003, 3.405476e-002
2.306446e+003, 3.359348e-002
2.308375e+003, 3.381845e-002
2.310303e+003, 3.422152e-002
2.312231e+003, 3.443639e-002
2.314160e+003, 3.459978e-002
2.316088e+003, 3.489569e-002
2.318017e+003, 3.516921e-002
2.319945e+003, 3.543380e-002
2.321874e+003, 3.561021e-002
2.323802e+003, 3.568286e-002
2.325731e+003, 3.493064e-002
2.327659e+003, 3.432046e-002
2.329588e+003, 3.418696e-002
2.331516e+003, 3.422269e-002
2.333445e+003, 3.445727e-002
2.335373e+003, 3.476847e-002
2.337302e+003, 3.490434e-002
2.339230e+003, 3.491870e-002
2.341158e+003, 3.471091e-002
2.343087e+003, 3.464207e-002
2.345015e+003, 3.453465e-002
2.346944e+003, 3.437692e-002
2.348872e+003, 3.442931e-002
2.350801e+003, 3.465643e-002
2.352729e+003, 3.493869e-002
2.354658e+003, 3.508529e-002
2.356586e+003, 3.503815e-002
2.358515e+003, 3.500819e-002
2.360443e+003, 3.524200e-002
2.362372e+003, 3.513316e-002
2.364300e+003, 3.488057e-002
2.366229e+003, 3.489872e-002
2.368157e+003, 3.496800e-002
2.370085e+003, 3.516361e-002
2.372014e+003, 3.526029e-002
2.373942e+003, 3.505529e-002
2.375871e+003, 3.506178e-002
2.377799e+003, 3.529183e-002
2.379728e+003, 3.516365e-002
2.381656e+003, 3.519214e-002
2.383585e+003, 3.546122e-002
2.385513e+003, 3.540428e-002
2.387442e+003, 3.536914e-002
2.389370e+003, 3.551854e-002
2.391299e+003, 3.542537e-002
2.393227e+003, 3.538141e-002
2.395156e+003, 3.561538e-002
2.397084e+003, 3.543687e-002
2.399012e+003, 3.532936e-002
2.400941e+003, 3.546426e-002
2.402869e+003, 3.572069e-002
2.404798e+003, 3.585846e-002
2.406726e+003, 3.610041e-002
2.408655e+003, 3.622988e-002
2.410583e+003, 3.615503e-002
2.412512e+003, 3.599002e-002
2.414440e+003, 3.607253e-002
2.416369e+003, 3.582518e-002
2.418297e+003, 3.545712e-002
2.420226e+003, 3.551725e-002
2.422154e+003, 3.610255e-002
2.424083e+003, 3.617369e-002
2.426011e+003, 3.597679e-002
2.427939e+003, 3.592490e-002
2.429868e+003, 3.593735e-002
2.431796e+003, 3.612145e-002
2.433725e+003, 3.620626e-002
2.435653e+003, 3.615035e-002
2.437582e+003, 3.629849e-002
2.439510e+003, 3.665500e-002
2.441439e+003, 3.700116e-002
2.443367e+003, 3.688217e-002
2.445296e+003, 3.675091e-002
2.447224e+003, 3.682673e-002
2.449153e+003, 3.677082e-002
2.451081e+003, 3.677749e-002
2.453010e+003, 3.670967e-002
2.454938e+003, 3.665779e-002
2.456866e+003, 3.666856e-002
2.458795e+003, 3.659195e-002
2.460723e+003, 3.655813e-002
2.462652e+003, 3.662402e-002
2.464580e+003, 3.686221e-002
2.466509e+003, 3.731484e-002
2.468437e+003, 3.743413e-002
2.470366e+003, 3.723090e-002
2.472294e+003, 3.732552e-002
2.474223e+003, 3.743876e-002
2.476151e+003, 3.740389e-002
2.478080e+003, 3.742111e-002
2.480008e+003, 3.735895e-002
2.481937e+003, 3.705916e-002
2.483865e+003, 3.676892e-002
2.485793e+003, 3.673611e-002
2.487722e+003, 3.692554e-002
2.489650e+003, 3.720208e-002
2.491579e+003, 3.766522e-002
2.493507e+003, 3.756735e-002
2.495436e+003, 3.695406e-002
2.497364e+003, 3.708417e-002
2.499293e+003, 3.757290e-002
2.501221e+003, 3.744146e-002
2.503150e+003, 3.745428e-002
2.505078e+003, 3.746827e-002
2.507007e+003, 3.776075e-002
2.508935e+003, 3.804733e-002
2.510864e+003, 3.789990e-002
2.512792e+003, 3.756494e-002
2.514720e+003, 3.735207e-002
2.516649e+003, 3.764643e-002
2.518577e+003, 3.774645e-002
2.520506e+003, 3.767888e-002
2.522434e+003, 3.773522e-002
2.524363e+003, 3.779246e-002
2.526291e+003, 3.805330e-002
2.528220e+003, 3.820412e-002
2.530148e+003, 3.803112e-002
2.532077e+003, 3.795102e-002
2.534005e+003, 3.845969e-002
2.535934e+003, 3.861113e-002
2.537862e+003, 3.858902e-002
2.539791e+003, 3.829541e-002
2.541719e+003, 3.831681e-002
2.543647e+003, 3.878637e-002
2.545576e+003, 3.912218e-002
2.547504e+003, 3.920630e-002
2.549433e+003, 3.901414e-002
2.551361e+003, 3.844861e-002
2.553290e+003, 3.869938e-002
2.555218e+003, 3.894342e-002
2.557147e+003, 3.926710e-002
2.559075e+003, 3.921071e-002
2.561004e+003, 3.916176e-002
2.562932e+003, 3.954193e-002
2.564861e+003, 3.978939e-002
2.566789e+003, 3.965088e-002
2.568718e+003, 3.920584e-002
2.570646e+003, 3.924640e-002
2.572574e+003, 3.960547e-002
2.574503e+003, 3.951877e-002
2.576431e+003, 3.944508e-002
2.578360e+003, 3.972534e-002
2.580288e+003, 4.000063e-002
2.582217e+003, 3.991287e-002
2.584145e+003, 3.962278e-002
2.586074e+003, 3.986381e-002
2.588002e+003, 4.029965e-002
2.589931e+003, 4.078519e-002
2.591859e+003, 4.084664e-002
2.593788e+003, 4.048747e-002
2.595716e+003, 4.009613e-002
2.597645e+003, 3.994310e-002
2.599573e+003, 3.999988e-002
2.601501e+003, 4.023596e-002
2.603430e+003, 4.041517e-002
2.605358e+003, 4.037729e-002
2.607287e+003, 4.031345e-002
2.609215e+003, 4.045749e-002
2.611144e+003, 4.078726e-002
2.613072e+003, 4.113911e-002
2.615001e+003, 4.124216e-002
2.616929e+003, 4.112296e-002
2.618858e+003, 4.129155e-002
2.620786e+003, 4.142408e-002
2.622715e+003, 4.129352e-002
2.624643e+003, 4.124688e-002
2.626572e+003, 4.139008e-002
2.628500e+003, 4.151132e-002
2.630428e+003, 4.154729e-002
2.632357e+003, 4.155107e-002
2.634285e+003, 4.140049e-002
2.636214e+003, 4.144303e-002
2.638142e+003, 4.168645e-002
2.640071e+003, 4.171964e-002
2.641999e+003, 4.200315e-002
2.643928e+003, 4.201473e-002
2.645856e+003, 4.173069e-002
2.647785e+003, 4.168806e-002
2.649713e+003, 4.207908e-002
2.651642e+003, 4.215035e-002
2.653570e+003, 4.204220e-002
2.655499e+003, 4.179601e-002
2.657427e+003, 4.196715e-002
2.659355e+003, 4.204796e-002
2.661284e+003, 4.200347e-002
2.663212e+003, 4.197186e-002
2.665141e+003, 4.203650e-002
2.667069e+003, 4.224105e-002
2.668998e+003, 4.238240e-002
2.670926e+003, 4.227937e-002
2.672855e+003, 4.226150e-002
2.674783e+003, 4.221074e-002
2.676712e+003, 4.207141e-002
2.678640e+003, 4.207760e-002
2.680569e+003, 4.223766e-002
2.682497e+003, 4.236694e-002
2.684426e+003, 4.247581e-002
2.686354e+003, 4.255571e-002
2.688282e+003, 4.271468e-002
2.690211e+003, 4.294875e-002
2.692139e+003, 4.295177e-002
2.694068e+003, 4.289605e-002
2.695996e+003, 4.278462e-002
2.697925e+003, 4.293790e-002
2.699853e+003, 4.320766e-002
2.701782e+003, 4.322710e-002
2.703710e+003, 4.313294e-002
2.705639e+003, 4.323086e-002
2.707567e+003, 4.321104e-002
2.709496e+003, 4.320112e-002
2.711424e+003, 4.319924e-002
2.713353e+003, 4.320237e-002
2.715281e+003, 4.309112e-002
2.717209e+003, 4.334998e-002
2.719138e+003, 4.388903e-002
2.721066e+003, 4.404182e-002
2.722995e+003, 4.388153e-002
2.724923e+003, 4.385217e-002
2.726852e+003, 4.379274e-002
2.728780e+003, 4.391265e-002
2.730709e+003, 4.410379e-002
2.732637e+003, 4.424056e-002
2.734566e+003, 4.420417e-002
2.736494e+003, 4.415431e-002
2.738423e+003, 4.432142e-002
2.740351e+003, 4.444830e-002
2.742280e+003, 4.452419e-002
2.744208e+003, 4.464121e-002
2.746136e+003, 4.459427e-002
2.748065e+003, 4.455177e-002
2.749993e+003, 4.472719e-002
2.751922e+003, 4.467317e-002
2.753850e+003, 4.463713e-002
2.755779e+003, 4.466612e-002
2.757707e+003, 4.474983e-002
2.759636e+003, 4.492484e-002
2.761564e+003, 4.509455e-002
2.763493e+003, 4.514943e-002
2.765421e+003, 4.520700e-002
2.767350e+003, 4.515380e-002
2.769278e+003, 4.516973e-002
2.771207e+003, 4.511720e-002
2.773135e+003, 4.504395e-002
2.775063e+003, 4.500073e-002
2.776992e+003, 4.506772e-002
2.778920e+003, 4.521602e-002
2.780849e+003, 4.550647e-002
2.782777e+003, 4.568950e-002
2.784706e+003, 4.566886e-002
2.786634e+003, 4.556011e-002
2.788563e+003, 4.584332e-002
2.790491e+003, 4.599113e-002
2.792420e+003, 4.586195e-002
2.794348e+003, 4.581026e-002
2.796277e+003, 4.588209e-002
2.798205e+003, 4.594214e-002
2.800134e+003, 4.602718e-002
2.802062e+003, 4.625927e-002
2.803990e+003, 4.636880e-002
2.805919e+003, 4.632883e-002
2.807847e+003, 4.650468e-002
2.809776e+003, 4.651147e-002
2.811704e+003, 4.640529e-002
2.813633e+003, 4.644215e-002
2.815561e+003, 4.652254e-002
2.817490e+003, 4.699553e-002
2.819418e+003, 4.709438e-002
2.821347e+003, 4.685131e-002
2.823275e+003, 4.717883e-002
2.825204e+003, 4.758858e-002
2.827132e+003, 4.771017e-002
2.829061e+003, 4.770158e-002
2.830989e+003, 4.786205e-002
2.832917e+003, 4.815856e-002
2.834846e+003, 4.827995e-002
2.836774e+003, 4.844594e-002
2.838703e+003, 4.850334e-002
2.840631e+003, 4.868618e-002
2.842560e+003, 4.897997e-002
2.844488e+003, 4.914903e-002
2.846417e+003, 4.953031e-002
2.848345e+003, 4.993712e-002
2.850274e+003, 5.006956e-002
2.852202e+003, 5.011868e-002
2.854131e+003, 5.028788e-002
2.856059e+003, 5.033585e-002
2.857988e+003, 5.005756e-002
2.859916e+003, 4.976886e-002
2.861844e+003, 4.986746e-002
2.863773e+003, 4.976171e-002
2.865701e+003, 4.966002e-002
2.867630e+003, 4.968267e-002
2.869558e+003, 4.973161e-002
2.871487e+003, 5.001092e-002
2.873415e+003, 5.022975e-002
2.875344e+003, 5.014503e-002
2.877272e+003, 5.013708e-002
2.879201e+003, 5.029244e-002
2.881129e+003, 5.030049e-002
2.883058e+003, 4.993832e-002
2.884986e+003, 4.951549e-002
2.886915e+003, 4.956720e-002
2.888843e+003, 5.020042e-002
2.890771e+003, 5.079922e-002
2.892700e+003, 5.093970e-002
2.894628e+003, 5.093871e-002
2.896557e+003, 5.123082e-002
2.898485e+003, 5.140158e-002
2.900414e+003, 5.148543e-002
2.902342e+003, 5.167635e-002
2.904271e+003, 5.181687e-002
2.906199e+003, 5.195973e-002
2.908128e+003, 5.229668e-002
2.910056e+003, 5.304299e-002
2.911985e+003, 5.336917e-002
2.913913e+003, 5.325880e-002
2.915842e+003, 5.360122e-002
2.917770e+003, 5.423489e-002
2.919698e+003, 5.478903e-002
2.921627e+003, 5.521726e-002
2.923555e+003, 5.555414e-002
2.925484e+003, 5.530059e-002
2.927412e+003, 5.473407e-002
2.929341e+003, 5.428546e-002
2.931269e+003, 5.400145e-002
2.933198e+003, 5.371872e-002
2.935126e+003, 5.336751e-002
2.937055e+003, 5.299500e-002
2.938983e+003, 5.271647e-002
2.940912e+003, 5.260859e-002
2.942840e+003, 5.250958e-002
2.944769e+003, 5.241417e-002
2.946697e+003, 5.267372e-002
2.948625e+003, 5.290877e-002
2.950554e+003, 5.302285e-002
2.952482e+003, 5.340330e-002
2.954411e+003, 5.362669e-002
2.956339e+003, 5.379795e-002
2.958268e+003, 5.372071e-002
2.960196e+003, 5.329038e-002
2.962125e+003, 5.329216e-002
2.964053e+003, 5.333893e-002
2.965982e+003, 5.278099e-002
2.967910e+003, 5.244111e-002
2.969839e+003, 5.232218e-002
2.971767e+003, 5.206752e-002
2.973696e+003, 5.162006e-002
2.975624e+003, 5.167498e-002
2.977552e+003, 5.132059e-002
2.979481e+003, 5.086232e-002
2.981409e+003, 5.097713e-002
2.983338e+003, 5.127890e-002
2.985266e+003, 5.116212e-002
2.987195e+003, 5.082240e-002
2.989123e+003, 5.093710e-002
2.991052e+003, 5.116159e-002
2.992980e+003, 5.102953e-002
2.994909e+003, 5.111577e-002
2.996837e+003, 5.140794e-002
2.998766e+003, 5.153219e-002
3.000694e+003, 5.149117e-002
3.002623e+003, 5.122560e-002
3.004551e+003, 5.123862e-002
3.006479e+003, 5.167947e-002
3.008408e+003, 5.173315e-002
3.010336e+003, 5.165538e-002
3.012265e+003, 5.168318e-002
3.014193e+003, 5.147670e-002
3.016122e+003, 5.165412e-002
3.018050e+003, 5.202069e-002
3.019979e+003, 5.192233e-002
3.021907e+003, 5.192737e-002
3.023836e+003, 5.240004e-002
3.025764e+003, 5.270236e-002
3.027693e+003, 5.260490e-002
3.029621e+003, 5.233597e-002
3.031550e+003, 5.234911e-002
3.033478e+003, 5.232060e-002
3.035406e+003, 5.264147e-002
3.037335e+003, 5.315083e-002
3.039263e+003, 5.345836e-002
3.041192e+003, 5.316944e-002
3.043120e+003, 5.257578e-002
3.045049e+003, 5.272186e-002
3.046977e+003, 5.311987e-002
3.048906e+003, 5.328706e-002
3.050834e+003, 5.321068e-002
3.052763e+003, 5.352422e-002
3.054691e+003, 5.325498e-002
3.056620e+003, 5.276326e-002
3.058548e+003, 5.293882e-002
3.060477e+003, 5.350258e-002
3.062405e+003, 5.370807e-002
3.064333e+003, 5.376283e-002
3.066262e+003, 5.388553e-002
3.068190e+003, 5.383589e-002
3.070119e+003, 5.408434e-002
3.072047e+003, 5.422994e-002
3.073976e+003, 5.416438e-002
3.075904e+003, 5.416355e-002
3.077833e+003, 5.419262e-002
3.079761e+003, 5.402946e-002
3.081690e+003, 5.386269e-002
3.083618e+003, 5.435992e-002
3.085547e+003, 5.486599e-002
3.087475e+003, 5.478955e-002
3.089404e+003, 5.455648e-002
3.091332e+003, 5.398387e-002
3.093260e+003, 5.392228e-002
3.095189e+003, 5.422302e-002
3.097117e+003, 5.437979e-002
3.099046e+003, 5.444402e-002
3.100974e+003, 5.436568e-002
3.102903e+003, 5.433600e-002
3.104831e+003, 5.436174e-002
3.106760e+003, 5.448135e-002
3.108688e+003, 5.494766e-002
3.110617e+003, 5.534442e-002
3.112545e+003, 5.528494e-002
3.114474e+003, 5.500371e-002
3.116402e+003, 5.476603e-002
3.118331e+003, 5.514447e-002
3.120259e+003, 5.535797e-002
3.122188e+003, 5.529672e-002
3.124116e+003, 5.539050e-002
3.126044e+003, 5.561287e-002
3.127973e+003, 5.558240e-002
3.129901e+003, 5.577117e-002
3.131830e+003, 5.596447e-002
3.133758e+003, 5.596355e-002
3.135687e+003, 5.548029e-002
3.137615e+003, 5.509108e-002
3.139544e+003, 5.524257e-002
3.141472e+003, 5.571417e-002
3.143401e+003, 5.616494e-002
3.145329e+003, 5.638120e-002
3.147258e+003, 5.631666e-002
3.149186e+003, 5.613002e-002
3.151115e+003, 5.599089e-002
3.153043e+003, 5.596715e-002
3.154971e+003, 5.621265e-002
3.156900e+003, 5.667004e-002
3.158828e+003, 5.665317e-002
3.160757e+003, 5.640805e-002
3.162685e+003, 5.655865e-002
3.164614e+003, 5.681748e-002
3.166542e+003, 5.708230e-002
3.168471e+003, 5.704987e-002
3.170399e+003, 5.705634e-002
3.172328e+003, 5.729868e-002
3.174256e+003, 5.778202e-002
3.176185e+003, 5.807527e-002
3.178113e+003, 5.776922e-002
3.180042e+003, 5.756048e-002
3.181970e+003, 5.757176e-002
3.183898e+003, 5.759026e-002
3.185827e+003, 5.797845e-002
3.187755e+003, 5.817238e-002
3.189684e+003, 5.771771e-002
3.191612e+003, 5.802540e-002
3.193541e+003, 5.828800e-002
3.195469e+003, 5.827494e-002
3.197398e+003, 5.842115e-002
3.199326e+003, 5.818908e-002
3.201255e+003, 5.841374e-002
3.203183e+003, 5.883452e-002
3.205112e+003, 5.865924e-002
3.207040e+003, 5.875106e-002
3.208969e+003, 5.863101e-002
3.210897e+003, 5.867602e-002
3.212825e+003, 5.863243e-002
3.214754e+003, 5.886482e-002
3.216682e+003, 5.868136e-002
3.218611e+003, 5.829786e-002
3.220539e+003, 5.889886e-002
3.222468e+003, 5.932774e-002
3.224396e+003, 5.920498e-002
3.226325e+003, 5.895616e-002
3.228253e+003, 5.889702e-002
3.230182e+003, 5.894381e-002
3.232110e+003, 5.922016e-002
3.234039e+003, 5.973252e-002
3.235967e+003, 5.976299e-002
3.237896e+003, 5.916525e-002
3.239824e+003, 5.906099e-002
3.241752e+003, 5.915036e-002
3.243681e+003, 5.895086e-002
3.245609e+003, 5.884944e-002
3.247538e+003, 5.878299e-002
3.249466e+003, 5.938263e-002
3.251395e+003, 5.973173e-002
3.253323e+003, 5.978572e-002
3.255252e+003, 6.028223e-002
3.257180e+003, 6.010611e-002
3.259109e+003, 5.925905e-002
3.261037e+003, 5.933445e-002
3.262966e+003, 5.956776e-002
3.264894e+003, 5.939955e-002
3.266823e+003, 5.955260e-002
3.268751e+003, 5.950350e-002
3.270679e+003, 5.922740e-002
3.272608e+003, 5.946516e-002
3.274536e+003, 5.978816e-002
3.276465e+003, 5.987239e-002
3.278393e+003, 5.975243e-002
3.280322e+003, 5.992337e-002
3.282250e+003, 5.984155e-002
3.284179e+003, 5.959621e-002
3.286107e+003, 5.954084e-002
3.288036e+003, 5.989817e-002
3.289964e+003, 5.984748e-002
3.291893e+003, 5.917789e-002
3.293821e+003, 5.955875e-002
3.295750e+003, 6.025543e-002
3.297678e+003, 6.008647e-002
3.299606e+003, 5.974634e-002
3.301535e+003, 5.987192e-002
3.303463e+003, 6.010183e-002
3.305392e+003, 6.006212e-002
3.307320e+003, 5.978022e-002
3.309249e+003, 5.967300e-002
3.311177e+003, 5.995081e-002
3.313106e+003, 6.018168e-002
3.315034e+003, 6.026848e-002
3.316963e+003, 6.047981e-002
3.318891e+003, 6.063563e-002
3.320820e+003, 6.046442e-002
3.322748e+003, 6.026982e-002
3.324677e+003, 5.979779e-002
3.326605e+003, 6.032047e-002
3.328533e+003, 6.051769e-002
3.330462e+003, 6.000720e-002
3.332390e+003, 6.005875e-002
3.334319e+003, 6.083936e-002
3.336247e+003, 6.101222e-002
3.338176e+003, 6.078989e-002
3.340104e+003, 6.072980e-002
3.342033e+003, 6.029845e-002
3.343961e+003, 6.004798e-002
3.345890e+003, 6.043530e-002
3.347818e+003, 6.095993e-002
3.349747e+003, 6.110906e-002
3.351675e+003, 6.114204e-002
3.353604e+003, 6.087665e-002
3.355532e+003, 6.102480e-002
3.357460e+003, 6.082093e-002
3.359389e+003, 6.062575e-002
3.361317e+003, 6.057081e-002
3.363246e+003, 6.064029e-002
3.365174e+003, 6.088173e-002
3.367103e+003, 6.103235e-002
3.369031e+003, 6.136541e-002
3.370960e+003, 6.124353e-002
3.372888e+003, 6.106859e-002
3.374817e+003, 6.156711e-002
3.376745e+003, 6.146975e-002
3.378674e+003, 6.173613e-002
3.380602e+003, 6.227521e-002
3.382531e+003, 6.212822e-002
3.384459e+003, 6.179155e-002
3.386387e+003, 6.157928e-002
3.388316e+003, 6.177931e-002
3.390244e+003, 6.186543e-002
3.392173e+003, 6.144541e-002
3.394101e+003, 6.133719e-002
3.396030e+003, 6.185823e-002
3.397958e+003, 6.207689e-002
3.399887e+003, 6.224782e-002
3.401815e+003, 6.240835e-002
3.403744e+003, 6.233303e-002
3.405672e+003, 6.215684e-002
3.407601e+003, 6.200200e-002
3.409529e+003, 6.197936e-002
3.411458e+003, 6.203386e-002
3.413386e+003, 6.253143e-002
3.415314e+003, 6.284606e-002
3.417243e+003, 6.284671e-002
3.419171e+003, 6.249160e-002
3.421100e+003, 6.224490e-002
3.423028e+003, 6.285904e-002
3.424957e+003, 6.259071e-002
3.426885e+003, 6.182016e-002
3.428814e+003, 6.204433e-002
3.430742e+003, 6.272584e-002
3.432671e+003, 6.299316e-002
3.434599e+003, 6.286319e-002
3.436528e+003, 6.295110e-002
3.438456e+003, 6.278417e-002
3.440385e+003, 6.255393e-002
3.442313e+003, 6.271150e-002
3.444241e+003, 6.338824e-002
3.446170e+003, 6.318061e-002
3.448098e+003, 6.275114e-002
3.450027e+003, 6.265916e-002
3.451955e+003, 6.289849e-002
3.453884e+003, 6.338841e-002
3.455812e+003, 6.314109e-002
3.457741e+003, 6.232878e-002
3.459669e+003, 6.251363e-002
3.461598e+003, 6.307467e-002
3.463526e+003, 6.316055e-002
3.465455e+003, 6.314399e-002
3.467383e+003, 6.313672e-002
3.469312e+003, 6.319376e-002
3.471240e+003, 6.280699e-002
3.473168e+003, 6.277122e-002
3.475097e+003, 6.337035e-002
3.477025e+003, 6.378415e-002
3.478954e+003, 6.375929e-002
3.480882e+003, 6.370549e-002
3.482811e+003, 6.346000e-002
3.484739e+003, 6.379391e-002
3.486668e+003, 6.436891e-002
3.488596e+003, 6.435350e-002
3.490525e+003, 6.426297e-002
3.492453e+003, 6.445785e-002
3.494382e+003, 6.408782e-002
3.496310e+003, 6.385228e-002
3.498239e+003, 6.415432e-002
3.500167e+003, 6.443783e-002
3.502095e+003, 6.407871e-002
3.504024e+003, 6.368464e-002
3.505952e+003, 6.405842e-002
3.507881e+003, 6.399849e-002
3.509809e+003, 6.370795e-002
3.511738e+003, 6.374986e-002
3.513666e+003, 6.395823e-002
3.515595e+003, 6.429060e-002
3.517523e+003, 6.470933e-002
3.519452e+003, 6.454797e-002
3.521380e+003, 6.408587e-002
3.523309e+003, 6.400642e-002
3.525237e+003, 6.432940e-002
3.527166e+003, 6.454572e-002
3.529094e+003, 6.438453e-002
3.531022e+003, 6.414789e-002
3.532951e+003, 6.439301e-002
3.534879e+003, 6.470386e-002
3.536808e+003, 6.507546e-002
3.538736e+003, 6.548054e-002
3.540665e+003, 6.572901e-002
3.542593e+003, 6.508468e-002
3.544522e+003, 6.493977e-002
3.546450e+003, 6.521867e-002
3.548379e+003, 6.545433e-002
3.550307e+003, 6.527942e-002
3.552236e+003, 6.512260e-002
3.554164e+003, 6.566636e-002
3.556093e+003, 6.532605e-002
3.558021e+003, 6.494203e-002
3.559949e+003, 6.496431e-002
3.561878e+003, 6.498756e-002
3.563806e+003, 6.532930e-002
3.565735e+003, 6.559378e-002
3.567663e+003, 6.575517e-002
3.569592e+003, 6.549260e-002
3.571520e+003, 6.507649e-002
3.573449e+003, 6.541405e-002
3.575377e+003, 6.539671e-002
3.577306e+003, 6.520960e-002
3.579234e+003, 6.492680e-002
3.581163e+003, 6.570230e-002
3.583091e+003, 6.603184e-002
3.585020e+003, 6.561148e-002
3.586948e+003, 6.627355e-002
3.588876e+003, 6.727558e-002
3.590805e+003, 6.670166e-002
3.592733e+003, 6.630468e-002
3.594662e+003, 6.608875e-002
3.596590e+003, 6.612372e-002
3.598519e+003, 6.652628e-002
3.600447e+003, 6.645201e-002
3.602376e+003, 6.546245e-002
3.604304e+003, 6.480789e-002
3.606233e+003, 6.544122e-002
3.608161e+003, 6.666274e-002
3.610090e+003, 6.690970e-002
3.612018e+003, 6.693545e-002
3.613947e+003, 6.652863e-002
3.615875e+003, 6.628904e-002
3.617803e+003, 6.683064e-002
3.619732e+003, 6.691921e-002
3.621660e+003, 6.687534e-002
3.623589e+003, 6.710966e-002
3.625517e+003, 6.693415e-002
3.627446e+003, 6.744213e-002
3.629374e+003, 6.748212e-002
3.631303e+003, 6.643771e-002
3.633231e+003, 6.647223e-002
3.635160e+003, 6.714296e-002
3.637088e+003, 6.731301e-002
3.639017e+003, 6.757696e-002
3.640945e+003, 6.758470e-002
3.642874e+003, 6.686105e-002
3.644802e+003, 6.684593e-002
3.646730e+003, 6.741897e-002
3.648659e+003, 6.712299e-002
3.650587e+003, 6.739371e-002
3.652516e+003, 6.800651e-002
3.654444e+003, 6.812482e-002
3.656373e+003, 6.792203e-002
3.658301e+003, 6.722096e-002
3.660230e+003, 6.705588e-002
3.662158e+003, 6.757352e-002
3.664087e+003, 6.753728e-002
3.666015e+003, 6.787956e-002
3.667944e+003, 6.884353e-002
3.669872e+003, 6.927668e-002
3.671801e+003, 6.873363e-002
3.673729e+003, 6.839309e-002
3.675657e+003, 6.861296e-002
3.677586e+003, 6.857276e-002
3.679514e+003, 6.842075e-002
3.681443e+003, 6.839270e-002
3.683371e+003, 6.839260e-002
3.685300e+003, 6.894082e-002
3.687228e+003, 6.970908e-002
3.689157e+003, 6.965169e-002
3.691085e+003, 6.893095e-002
3.693014e+003, 6.894192e-002
3.694942e+003, 6.919661e-002
3.696871e+003, 6.895190e-002
3.698799e+003, 6.863175e-002
3.700728e+003, 6.925145e-002
3.702656e+003, 6.938129e-002
3.704584e+003, 6.845332e-002
3.706513e+003, 6.831531e-002
3.708441e+003, 6.877130e-002
3.710370e+003, 6.960388e-002
3.712298e+003, 6.980523e-002
3.714227e+003, 6.951614e-002
3.716155e+003, 6.917330e-002
3.718084e+003, 6.899678e-002
3.720012e+003, 6.857210e-002
3.721941e+003, 6.914506e-002
3.723869e+003, 6.983625e-002
3.725798e+003, 7.034644e-002
3.727726e+003, 7.010307e-002
3.729655e+003, 6.945592e-002
3.731583e+003, 6.955921e-002
3.733511e+003, 7.079937e-002
3.735440e+003, 7.101475e-002
3.737368e+003, 7.052456e-002
3.739297e+003, 7.092383e-002
3.741225e+003, 7.100067e-002
3.743154e+003, 7.161057e-002
3.745082e+003, 7.133303e-002
3.747011e+003, 7.025027e-002
3.748939e+003, 7.099304e-002
3.750868e+003, 7.170478e-002
3.752796e+003, 7.103620e-002
3.754725e+003, 6.986708e-002
3.756653e+003, 6.989724e-002
3.758582e+003, 7.042924e-002
3.760510e+003, 7.050168e-002
3.762438e+003, 7.030173e-002
3.764367e+003, 7.102817e-002
3.766295e+003, 7.066056e-002
3.768224e+003, 7.018070e-002
3.770152e+003, 7.095950e-002
3.772081e+003, 7.118481e-002
3.774009e+003, 7.110536e-002
3.775938e+003, 7.119069e-002
3.777866e+003, 7.128732e-002
3.779795e+003, 7.143162e-002
3.781723e+003, 7.166714e-002
3.783652e+003, 7.160246e-002
3.785580e+003, 7.161066e-002
3.787509e+003, 7.162368e-002
3.789437e+003, 7.108136e-002
3.791365e+003, 7.080315e-002
3.793294e+003, 7.132182e-002
3.795222e+003, 7.231223e-002
3.797151e+003, 7.247452e-002
3.799079e+003, 7.157718e-002
3.801008e+003, 7.181279e-002
3.802936e+003, 7.191358e-002
3.804865e+003, 7.221066e-002
3.806793e+003, 7.225332e-002
3.808722e+003, 7.186955e-002
3.810650e+003, 7.221296e-002
3.812579e+003, 7.237395e-002
3.814507e+003, 7.235167e-002
3.816436e+003, 7.239525e-002
3.818364e+003, 7.223082e-002
3.820292e+003, 7.315564e-002
3.822221e+003, 7.278179e-002
3.824149e+003, 7.206275e-002
3.826078e+003, 7.264504e-002
3.828006e+003, 7.270855e-002
3.829935e+003, 7.263422e-002
3.831863e+003, 7.308333e-002
3.833792e+003, 7.329692e-002
3.835720e+003, 7.297736e-002
3.837649e+003, 7.318597e-002
3.839577e+003, 7.322075e-002
3.841506e+003, 7.335223e-002
3.843434e+003, 7.322364e-002
3.845363e+003, 7.301186e-002
3.847291e+003, 7.263302e-002
3.849219e+003, 7.253996e-002
3.851148e+003, 7.292242e-002
3.853076e+003, 7.403094e-002
3.855005e+003, 7.429511e-002
3.856933e+003, 7.332233e-002
3.858862e+003, 7.264063e-002
3.860790e+003, 7.244650e-002
3.862719e+003, 7.289755e-002
3.864647e+003, 7.349387e-002
3.866576e+003, 7.375221e-002
3.868504e+003, 7.431102e-002
3.870433e+003, 7.463346e-002
3.872361e+003, 7.429713e-002
3.874290e+003, 7.399017e-002
3.876218e+003, 7.349896e-002
3.878146e+003, 7.309893e-002
3.880075e+003, 7.287374e-002
3.882003e+003, 7.278305e-002
3.883932e+003, 7.300114e-002
3.885860e+003, 7.369296e-002
3.887789e+003, 7.359524e-002
3.889717e+003, 7.356080e-002
3.891646e+003, 7.420117e-002
3.893574e+003, 7.428040e-002
3.895503e+003, 7.402050e-002
3.897431e+003, 7.413891e-002
3.899360e+003, 7.480852e-002
3.901288e+003, 7.466490e-002
3.903217e+003, 7.444111e-002
3.905145e+003, 7.479902e-002
3.907073e+003, 7.469702e-002
3.909002e+003, 7.397285e-002
3.910930e+003, 7.381634e-002
3.912859e+003, 7.370786e-002
3.914787e+003, 7.327366e-002
3.916716e+003, 7.320718e-002
3.918644e+003, 7.368491e-002
3.920573e+003, 7.321255e-002
3.922501e+003, 7.294115e-002
3.924430e+003, 7.373259e-002
3.926358e+003, 7.449971e-002
3.928287e+003, 7.464468e-002
3.930215e+003, 7.433756e-002
3.932144e+003, 7.465781e-002
3.934072e+003, 7.489910e-002
3.936000e+003, 7.461904e-002
3.937929e+003, 7.472975e-002
3.939857e+003, 7.492441e-002
3.941786e+003, 7.433351e-002
3.943714e+003, 7.434027e-002
3.945643e+003, 7.506967e-002
3.947571e+003, 7.514805e-002
3.949500e+003, 7.476861e-002
3.951428e+003, 7.444261e-002
3.953357e+003, 7.507603e-002
3.955285e+003, 7.561930e-002
3.957214e+003, 7.526118e-002
3.959142e+003, 7.532541e-002
3.961071e+003, 7.542120e-002
3.962999e+003, 7.531401e-002
3.964927e+003, 7.601358e-002
3.966856e+003, 7.652715e-002
3.968784e+003, 7.634633e-002
3.970713e+003, 7.610922e-002
3.972641e+003, 7.581977e-002
3.974570e+003, 7.546181e-002
3.976498e+003, 7.540965e-002
3.978427e+003, 7.564549e-002
3.980355e+003, 7.573135e-002
3.982284e+003, 7.548366e-002
3.984212e+003, 7.504162e-002
3.986141e+003, 7.554767e-002
3.988069e+003, 7.624291e-002
3.989998e+003, 7.626126e-002
3.991926e+003, 7.544510e-002
3.993854e+003, 7.504262e-002
3.995783e+003, 7.619157e-002
3.997711e+003, 7.681999e-002
3.999640e+003, 7.672670e-002
##END=



