##NAMES=Augelite
##RRUFFID=R050060
##IDEAL CHEMISTRY=Al_2_PO_4_(OH)_3_
##LOCALITY=Machacamarca, Potosi Department, Bolivia
##OWNER=RRUFF
##SOURCE=Rock Currier
##DESCRIPTION=Colorless prismatic crystals
##STATUS=The identification of this mineral has been confirmed by X-ray diffraction and chemical analysis
##URL=rruff.info/R050060
##MEASURED CHEMISTRY=Al_2.00_(P_1.00_O_4_)(OH)_3_; OH estimated by difference
3.991926e+002, 2.356551e-001
4.011211e+002, 2.251386e-001
4.030495e+002, 2.085830e-001
4.049780e+002, 1.979233e-001
4.069065e+002, 1.910766e-001
4.088349e+002, 1.860948e-001
4.107634e+002, 1.828423e-001
4.126919e+002, 1.809513e-001
4.146203e+002, 1.785789e-001
4.165488e+002, 1.787164e-001
4.184773e+002, 1.811310e-001
4.204057e+002, 1.844200e-001
4.223342e+002, 1.895402e-001
4.242627e+002, 1.944827e-001
4.261911e+002, 1.976315e-001
4.281196e+002, 1.998517e-001
4.300481e+002, 2.011315e-001
4.319765e+002, 1.995461e-001
4.339050e+002, 1.927571e-001
4.358335e+002, 1.852335e-001
4.377619e+002, 1.762515e-001
4.396904e+002, 1.671528e-001
4.416189e+002, 1.569835e-001
4.435473e+002, 1.477764e-001
4.454758e+002, 1.393436e-001
4.474043e+002, 1.327661e-001
4.493327e+002, 1.261707e-001
4.512612e+002, 1.199531e-001
4.531897e+002, 1.137677e-001
4.551181e+002, 1.084171e-001
4.570466e+002, 1.038691e-001
4.589751e+002, 9.939015e-002
4.609035e+002, 9.510121e-002
4.628320e+002, 9.167441e-002
4.647605e+002, 8.805560e-002
4.666889e+002, 8.615941e-002
4.686174e+002, 8.520085e-002
4.705459e+002, 8.418360e-002
4.724743e+002, 8.405917e-002
4.744028e+002, 8.510073e-002
4.763313e+002, 8.670724e-002
4.782597e+002, 8.863328e-002
4.801882e+002, 9.033094e-002
4.821167e+002, 9.194411e-002
4.840451e+002, 9.385897e-002
4.859736e+002, 9.634128e-002
4.879021e+002, 9.806214e-002
4.898305e+002, 9.979816e-002
4.917590e+002, 1.020721e-001
4.936875e+002, 1.044653e-001
4.956159e+002, 1.064562e-001
4.975444e+002, 1.088612e-001
4.994729e+002, 1.117325e-001
5.014013e+002, 1.147360e-001
5.033298e+002, 1.175658e-001
5.052583e+002, 1.217516e-001
5.071867e+002, 1.268744e-001
5.091152e+002, 1.312480e-001
5.110437e+002, 1.360863e-001
5.129721e+002, 1.421818e-001
5.149006e+002, 1.487179e-001
5.168290e+002, 1.554213e-001
5.187575e+002, 1.621430e-001
5.206860e+002, 1.696460e-001
5.226144e+002, 1.771329e-001
5.245429e+002, 1.853576e-001
5.264714e+002, 1.936724e-001
5.283998e+002, 2.018027e-001
5.303283e+002, 2.095890e-001
5.322568e+002, 2.161104e-001
5.341852e+002, 2.219033e-001
5.361137e+002, 2.259621e-001
5.380422e+002, 2.284525e-001
5.399706e+002, 2.310474e-001
5.418991e+002, 2.341267e-001
5.438276e+002, 2.362498e-001
5.457560e+002, 2.370452e-001
5.476845e+002, 2.368689e-001
5.496130e+002, 2.347435e-001
5.515414e+002, 2.311442e-001
5.534699e+002, 2.263169e-001
5.553984e+002, 2.205714e-001
5.573268e+002, 2.140351e-001
5.592553e+002, 2.067586e-001
5.611838e+002, 1.994731e-001
5.631122e+002, 1.934954e-001
5.650407e+002, 1.884378e-001
5.669692e+002, 1.832327e-001
5.688976e+002, 1.780679e-001
5.708261e+002, 1.726526e-001
5.727546e+002, 1.674960e-001
5.746830e+002, 1.636147e-001
5.766115e+002, 1.598099e-001
5.785400e+002, 1.561449e-001
5.804684e+002, 1.531096e-001
5.823969e+002, 1.503982e-001
5.843254e+002, 1.481932e-001
5.862538e+002, 1.471522e-001
5.881823e+002, 1.464713e-001
5.901108e+002, 1.468792e-001
5.920392e+002, 1.483835e-001
5.939677e+002, 1.500400e-001
5.958962e+002, 1.528169e-001
5.978246e+002, 1.565978e-001
5.997531e+002, 1.611475e-001
6.016816e+002, 1.658544e-001
6.036100e+002, 1.699372e-001
6.055385e+002, 1.732467e-001
6.074670e+002, 1.752522e-001
6.093954e+002, 1.747496e-001
6.113239e+002, 1.714002e-001
6.132524e+002, 1.660543e-001
6.151808e+002, 1.613887e-001
6.171093e+002, 1.592096e-001
6.190378e+002, 1.592611e-001
6.209662e+002, 1.607247e-001
6.228947e+002, 1.636081e-001
6.248232e+002, 1.668438e-001
6.267516e+002, 1.692859e-001
6.286801e+002, 1.710947e-001
6.306086e+002, 1.721750e-001
6.325370e+002, 1.721002e-001
6.344655e+002, 1.708039e-001
6.363940e+002, 1.685631e-001
6.383224e+002, 1.653409e-001
6.402509e+002, 1.615781e-001
6.421794e+002, 1.575700e-001
6.441078e+002, 1.534812e-001
6.460363e+002, 1.494130e-001
6.479648e+002, 1.454638e-001
6.498932e+002, 1.415276e-001
6.518217e+002, 1.373327e-001
6.537502e+002, 1.326350e-001
6.556786e+002, 1.276700e-001
6.576071e+002, 1.222518e-001
6.595356e+002, 1.166002e-001
6.614641e+002, 1.108661e-001
6.633925e+002, 1.053255e-001
6.653210e+002, 1.002440e-001
6.672495e+002, 9.541234e-002
6.691779e+002, 9.047265e-002
6.711064e+002, 8.570090e-002
6.730349e+002, 8.166230e-002
6.749633e+002, 7.837749e-002
6.768918e+002, 7.567090e-002
6.788203e+002, 7.358080e-002
6.807487e+002, 7.238901e-002
6.826772e+002, 7.180449e-002
6.846057e+002, 7.201517e-002
6.865341e+002, 7.300428e-002
6.884626e+002, 7.456647e-002
6.903911e+002, 7.722849e-002
6.923195e+002, 8.085014e-002
6.942480e+002, 8.542576e-002
6.961765e+002, 9.119233e-002
6.981049e+002, 9.783380e-002
7.000334e+002, 1.060302e-001
7.019619e+002, 1.155848e-001
7.038903e+002, 1.260844e-001
7.058188e+002, 1.365671e-001
7.077473e+002, 1.461009e-001
7.096757e+002, 1.537186e-001
7.116042e+002, 1.586050e-001
7.135327e+002, 1.600129e-001
7.154611e+002, 1.581532e-001
7.173896e+002, 1.532530e-001
7.193181e+002, 1.455960e-001
7.212465e+002, 1.357498e-001
7.231750e+002, 1.244987e-001
7.251035e+002, 1.124964e-001
7.270319e+002, 1.001802e-001
7.289604e+002, 8.821292e-002
7.308889e+002, 7.730631e-002
7.328173e+002, 6.781829e-002
7.347458e+002, 6.007563e-002
7.366743e+002, 5.390371e-002
7.386027e+002, 4.909567e-002
7.405312e+002, 4.549043e-002
7.424597e+002, 4.276888e-002
7.443881e+002, 4.065967e-002
7.463166e+002, 3.913194e-002
7.482451e+002, 3.806739e-002
7.501735e+002, 3.755067e-002
7.521020e+002, 3.716072e-002
7.540305e+002, 3.692177e-002
7.559589e+002, 3.709161e-002
7.578874e+002, 3.743724e-002
7.598159e+002, 3.812322e-002
7.617443e+002, 3.908076e-002
7.636728e+002, 3.994438e-002
7.656013e+002, 4.088506e-002
7.675297e+002, 4.226937e-002
7.694582e+002, 4.388401e-002
7.713867e+002, 4.561569e-002
7.733151e+002, 4.736755e-002
7.752436e+002, 4.945054e-002
7.771721e+002, 5.180166e-002
7.791005e+002, 5.392405e-002
7.810290e+002, 5.589069e-002
7.829575e+002, 5.777219e-002
7.848859e+002, 5.946531e-002
7.868144e+002, 6.128094e-002
7.887429e+002, 6.354638e-002
7.906713e+002, 6.598824e-002
7.925998e+002, 6.841952e-002
7.945283e+002, 7.090861e-002
7.964567e+002, 7.378972e-002
7.983852e+002, 7.667242e-002
8.003137e+002, 7.936928e-002
8.022421e+002, 8.237451e-002
8.041706e+002, 8.575767e-002
8.060991e+002, 8.915595e-002
8.080275e+002, 9.269832e-002
8.099560e+002, 9.670918e-002
8.118845e+002, 1.009561e-001
8.138129e+002, 1.051396e-001
8.157414e+002, 1.094627e-001
8.176699e+002, 1.137753e-001
8.195983e+002, 1.179643e-001
8.215268e+002, 1.222086e-001
8.234553e+002, 1.259685e-001
8.253837e+002, 1.289498e-001
8.273122e+002, 1.312870e-001
8.292407e+002, 1.327865e-001
8.311691e+002, 1.334253e-001
8.330976e+002, 1.330219e-001
8.350261e+002, 1.317583e-001
8.369545e+002, 1.293141e-001
8.388830e+002, 1.261530e-001
8.408115e+002, 1.223737e-001
8.427399e+002, 1.181557e-001
8.446684e+002, 1.133461e-001
8.465969e+002, 1.082597e-001
8.485253e+002, 1.033094e-001
8.504538e+002, 9.852718e-002
8.523823e+002, 9.379243e-002
8.543107e+002, 8.938662e-002
8.562392e+002, 8.549594e-002
8.581677e+002, 8.247344e-002
8.600961e+002, 7.976597e-002
8.620246e+002, 7.747440e-002
8.639531e+002, 7.581148e-002
8.658815e+002, 7.492280e-002
8.678100e+002, 7.449135e-002
8.697385e+002, 7.463536e-002
8.716669e+002, 7.528887e-002
8.735954e+002, 7.635337e-002
8.755239e+002, 7.795998e-002
8.774523e+002, 8.006785e-002
8.793808e+002, 8.246905e-002
8.813093e+002, 8.544955e-002
8.832377e+002, 8.880289e-002
8.851662e+002, 9.253313e-002
8.870947e+002, 9.684180e-002
8.890231e+002, 1.015654e-001
8.909516e+002, 1.065830e-001
8.928801e+002, 1.119055e-001
8.948085e+002, 1.174672e-001
8.967370e+002, 1.231426e-001
8.986655e+002, 1.291823e-001
9.005939e+002, 1.356923e-001
9.025224e+002, 1.425041e-001
9.044509e+002, 1.493811e-001
9.063793e+002, 1.563126e-001
9.083078e+002, 1.631278e-001
9.102363e+002, 1.698094e-001
9.121647e+002, 1.759656e-001
9.140932e+002, 1.813157e-001
9.160217e+002, 1.860393e-001
9.179501e+002, 1.897483e-001
9.198786e+002, 1.921764e-001
9.218071e+002, 1.930327e-001
9.237355e+002, 1.924781e-001
9.256640e+002, 1.907221e-001
9.275925e+002, 1.876789e-001
9.295209e+002, 1.833953e-001
9.314494e+002, 1.779552e-001
9.333779e+002, 1.716068e-001
9.353063e+002, 1.645980e-001
9.372348e+002, 1.569945e-001
9.391633e+002, 1.491721e-001
9.410917e+002, 1.414519e-001
9.430202e+002, 1.341951e-001
9.449487e+002, 1.277163e-001
9.468771e+002, 1.223167e-001
9.488056e+002, 1.178721e-001
9.507341e+002, 1.146276e-001
9.526625e+002, 1.124972e-001
9.545910e+002, 1.112262e-001
9.565195e+002, 1.109643e-001
9.584479e+002, 1.117349e-001
9.603764e+002, 1.134053e-001
9.623049e+002, 1.158812e-001
9.642333e+002, 1.191535e-001
9.661618e+002, 1.231753e-001
9.680903e+002, 1.279552e-001
9.700187e+002, 1.335768e-001
9.719472e+002, 1.397228e-001
9.738757e+002, 1.466600e-001
9.758041e+002, 1.543844e-001
9.777326e+002, 1.628706e-001
9.796611e+002, 1.720098e-001
9.815895e+002, 1.819811e-001
9.835180e+002, 1.926345e-001
9.854465e+002, 2.037824e-001
9.873749e+002, 2.151970e-001
9.893034e+002, 2.272137e-001
9.912319e+002, 2.394476e-001
9.931603e+002, 2.513328e-001
9.950888e+002, 2.623094e-001
9.970173e+002, 2.720851e-001
9.989457e+002, 2.800108e-001
1.000874e+003, 2.857561e-001
1.002803e+003, 2.892347e-001
1.004731e+003, 2.909542e-001
1.006660e+003, 2.908817e-001
1.008588e+003, 2.893170e-001
1.010517e+003, 2.866797e-001
1.012445e+003, 2.831673e-001
1.014373e+003, 2.782621e-001
1.016302e+003, 2.718679e-001
1.018230e+003, 2.640787e-001
1.020159e+003, 2.553659e-001
1.022087e+003, 2.457269e-001
1.024016e+003, 2.353957e-001
1.025944e+003, 2.248470e-001
1.027873e+003, 2.142882e-001
1.029801e+003, 2.037706e-001
1.031730e+003, 1.936173e-001
1.033658e+003, 1.840408e-001
1.035587e+003, 1.753125e-001
1.037515e+003, 1.671813e-001
1.039443e+003, 1.596950e-001
1.041372e+003, 1.527988e-001
1.043300e+003, 1.469442e-001
1.045229e+003, 1.422923e-001
1.047157e+003, 1.390282e-001
1.049086e+003, 1.373240e-001
1.051014e+003, 1.375910e-001
1.052943e+003, 1.398904e-001
1.054871e+003, 1.443674e-001
1.056800e+003, 1.505696e-001
1.058728e+003, 1.578475e-001
1.060657e+003, 1.653717e-001
1.062585e+003, 1.723419e-001
1.064514e+003, 1.779503e-001
1.066442e+003, 1.820566e-001
1.068370e+003, 1.846567e-001
1.070299e+003, 1.858410e-001
1.072227e+003, 1.854873e-001
1.074156e+003, 1.840048e-001
1.076084e+003, 1.816929e-001
1.078013e+003, 1.786405e-001
1.079941e+003, 1.747447e-001
1.081870e+003, 1.705069e-001
1.083798e+003, 1.660001e-001
1.085727e+003, 1.614258e-001
1.087655e+003, 1.568709e-001
1.089584e+003, 1.525000e-001
1.091512e+003, 1.482120e-001
1.093441e+003, 1.445955e-001
1.095369e+003, 1.421797e-001
1.097297e+003, 1.412437e-001
1.099226e+003, 1.415522e-001
1.101154e+003, 1.423585e-001
1.103083e+003, 1.426064e-001
1.105011e+003, 1.417852e-001
1.106940e+003, 1.400938e-001
1.108868e+003, 1.378436e-001
1.110797e+003, 1.356553e-001
1.112725e+003, 1.340605e-001
1.114654e+003, 1.329219e-001
1.116582e+003, 1.322940e-001
1.118511e+003, 1.324081e-001
1.120439e+003, 1.335190e-001
1.122368e+003, 1.355110e-001
1.124296e+003, 1.383229e-001
1.126224e+003, 1.419687e-001
1.128153e+003, 1.467119e-001
1.130081e+003, 1.523638e-001
1.132010e+003, 1.587102e-001
1.133938e+003, 1.656928e-001
1.135867e+003, 1.731124e-001
1.137795e+003, 1.800550e-001
1.139724e+003, 1.859010e-001
1.141652e+003, 1.902235e-001
1.143581e+003, 1.930361e-001
1.145509e+003, 1.942116e-001
1.147438e+003, 1.939735e-001
1.149366e+003, 1.924070e-001
1.151295e+003, 1.901104e-001
1.153223e+003, 1.869997e-001
1.155151e+003, 1.832826e-001
1.157080e+003, 1.795104e-001
1.159008e+003, 1.755041e-001
1.160937e+003, 1.710710e-001
1.162865e+003, 1.667116e-001
1.164794e+003, 1.625835e-001
1.166722e+003, 1.584240e-001
1.168651e+003, 1.544098e-001
1.170579e+003, 1.508049e-001
1.172508e+003, 1.473086e-001
1.174436e+003, 1.439136e-001
1.176365e+003, 1.408075e-001
1.178293e+003, 1.380327e-001
1.180222e+003, 1.353229e-001
1.182150e+003, 1.328929e-001
1.184078e+003, 1.306305e-001
1.186007e+003, 1.285590e-001
1.187935e+003, 1.266474e-001
1.189864e+003, 1.247840e-001
1.191792e+003, 1.226564e-001
1.193721e+003, 1.204053e-001
1.195649e+003, 1.179980e-001
1.197578e+003, 1.154704e-001
1.199506e+003, 1.125614e-001
1.201435e+003, 1.094652e-001
1.203363e+003, 1.062168e-001
1.205292e+003, 1.028296e-001
1.207220e+003, 9.926404e-002
1.209149e+003, 9.548327e-002
1.211077e+003, 9.150083e-002
1.213005e+003, 8.745309e-002
1.214934e+003, 8.335990e-002
1.216862e+003, 7.910007e-002
1.218791e+003, 7.464067e-002
1.220719e+003, 7.006234e-002
1.222648e+003, 6.536641e-002
1.224576e+003, 6.067249e-002
1.226505e+003, 5.584528e-002
1.228433e+003, 5.087051e-002
1.230362e+003, 4.596525e-002
1.232290e+003, 4.135571e-002
1.234219e+003, 3.690052e-002
1.236147e+003, 3.253995e-002
1.238076e+003, 2.849310e-002
1.240004e+003, 2.492413e-002
1.241932e+003, 2.181662e-002
1.243861e+003, 1.914700e-002
1.245789e+003, 1.685521e-002
1.247718e+003, 1.486085e-002
1.249646e+003, 1.331054e-002
1.251575e+003, 1.231672e-002
1.253503e+003, 1.146848e-002
1.255432e+003, 1.061701e-002
1.257360e+003, 9.793133e-003
1.259289e+003, 9.130219e-003
1.261217e+003, 8.573448e-003
1.263146e+003, 8.069968e-003
1.265074e+003, 7.623539e-003
1.267003e+003, 7.270774e-003
1.268931e+003, 6.907902e-003
1.270859e+003, 6.597362e-003
1.272788e+003, 6.281436e-003
1.274716e+003, 6.079223e-003
1.276645e+003, 5.911634e-003
1.278573e+003, 5.635497e-003
1.280502e+003, 5.317183e-003
1.282430e+003, 5.230071e-003
1.284359e+003, 5.169747e-003
1.286287e+003, 4.928749e-003
1.288216e+003, 4.793170e-003
1.290144e+003, 4.762428e-003
1.292073e+003, 4.620803e-003
1.294001e+003, 4.476359e-003
1.295930e+003, 4.405450e-003
1.297858e+003, 4.299273e-003
1.299786e+003, 4.069495e-003
1.301715e+003, 3.975261e-003
1.303643e+003, 3.902058e-003
1.305572e+003, 3.814734e-003
1.307500e+003, 3.630493e-003
1.309429e+003, 3.532745e-003
1.311357e+003, 3.474541e-003
1.313286e+003, 3.402632e-003
1.315214e+003, 3.275810e-003
1.317143e+003, 3.231046e-003
1.319071e+003, 3.121009e-003
1.321000e+003, 2.992011e-003
1.322928e+003, 3.005483e-003
1.324857e+003, 3.046909e-003
1.326785e+003, 2.978984e-003
1.328714e+003, 2.883218e-003
1.330642e+003, 2.777603e-003
1.332570e+003, 2.781963e-003
1.334499e+003, 2.757714e-003
1.336427e+003, 2.674047e-003
1.338356e+003, 2.600112e-003
1.340284e+003, 2.644127e-003
1.342213e+003, 2.712787e-003
1.344141e+003, 2.667498e-003
1.346070e+003, 2.557213e-003
1.347998e+003, 2.455056e-003
1.349927e+003, 2.424244e-003
1.351855e+003, 2.430254e-003
1.353784e+003, 2.391781e-003
1.355712e+003, 2.324909e-003
1.357641e+003, 2.236360e-003
1.359569e+003, 2.214207e-003
1.361497e+003, 2.233278e-003
1.363426e+003, 2.053407e-003
1.365354e+003, 1.926076e-003
1.367283e+003, 1.961104e-003
1.369211e+003, 1.934734e-003
1.371140e+003, 1.953080e-003
1.373068e+003, 1.928071e-003
1.374997e+003, 1.866927e-003
1.376925e+003, 1.760954e-003
1.378854e+003, 1.755024e-003
1.380782e+003, 1.780640e-003
1.382711e+003, 1.794885e-003
1.384639e+003, 1.604291e-003
1.386568e+003, 1.621216e-003
1.388496e+003, 1.596023e-003
1.390424e+003, 1.584051e-003
1.392353e+003, 1.699946e-003
1.394281e+003, 1.922850e-003
1.396210e+003, 1.922770e-003
1.398138e+003, 1.886757e-003
1.400067e+003, 1.857997e-003
1.401995e+003, 1.709565e-003
1.403924e+003, 1.567698e-003
1.405852e+003, 1.518438e-003
1.407781e+003, 1.516781e-003
1.409709e+003, 1.623753e-003
1.411638e+003, 1.637835e-003
1.413566e+003, 1.549964e-003
1.415495e+003, 1.566328e-003
1.417423e+003, 1.690602e-003
1.419351e+003, 1.801657e-003
1.421280e+003, 1.697004e-003
1.423208e+003, 1.727493e-003
1.425137e+003, 1.806024e-003
1.427065e+003, 1.714818e-003
1.428994e+003, 1.758257e-003
1.430922e+003, 1.759203e-003
1.432851e+003, 1.820808e-003
1.434779e+003, 1.901555e-003
1.436708e+003, 1.924124e-003
1.438636e+003, 1.749682e-003
1.440565e+003, 1.756582e-003
1.442493e+003, 1.777682e-003
1.444422e+003, 1.860118e-003
1.446350e+003, 1.955668e-003
1.448278e+003, 1.858798e-003
1.450207e+003, 1.741870e-003
1.452135e+003, 1.775267e-003
1.454064e+003, 1.894804e-003
1.455992e+003, 2.300461e-003
1.457921e+003, 2.197397e-003
1.459849e+003, 1.840372e-003
1.461778e+003, 1.752767e-003
1.463706e+003, 1.805808e-003
1.465635e+003, 1.825245e-003
1.467563e+003, 1.757053e-003
1.469492e+003, 1.804293e-003
1.471420e+003, 2.088141e-003
1.473349e+003, 2.324052e-003
1.475277e+003, 2.313869e-003
1.477205e+003, 2.249359e-003
1.479134e+003, 2.182036e-003
1.481062e+003, 2.214687e-003
1.482991e+003, 2.251163e-003
1.484919e+003, 2.216382e-003
1.486848e+003, 2.303417e-003
1.488776e+003, 2.408110e-003
1.490705e+003, 2.383280e-003
1.492633e+003, 2.295849e-003
1.494562e+003, 2.369304e-003
1.496490e+003, 2.573657e-003
1.498419e+003, 2.532228e-003
1.500347e+003, 2.335669e-003
1.502276e+003, 2.318010e-003
1.504204e+003, 2.740073e-003
1.506132e+003, 3.256052e-003
1.508061e+003, 3.027672e-003
1.509989e+003, 2.661390e-003
1.511918e+003, 2.567340e-003
1.513846e+003, 2.644511e-003
1.515775e+003, 2.834296e-003
1.517703e+003, 2.855752e-003
1.519632e+003, 3.071066e-003
1.521560e+003, 3.273901e-003
1.523489e+003, 3.013934e-003
1.525417e+003, 2.962028e-003
1.527346e+003, 2.917254e-003
1.529274e+003, 2.935619e-003
1.531203e+003, 2.984649e-003
1.533131e+003, 3.159084e-003
1.535059e+003, 3.103949e-003
1.536988e+003, 3.161085e-003
1.538916e+003, 3.649333e-003
1.540845e+003, 3.623903e-003
1.542773e+003, 3.254050e-003
1.544702e+003, 3.071854e-003
1.546630e+003, 2.930754e-003
1.548559e+003, 2.972869e-003
1.550487e+003, 2.915147e-003
1.552416e+003, 2.929960e-003
1.554344e+003, 3.078886e-003
1.556273e+003, 3.227220e-003
1.558201e+003, 3.843494e-003
1.560130e+003, 3.803562e-003
1.562058e+003, 3.145229e-003
1.563986e+003, 2.934896e-003
1.565915e+003, 2.911138e-003
1.567843e+003, 2.994789e-003
1.569772e+003, 3.124363e-003
1.571700e+003, 3.016918e-003
1.573629e+003, 3.049759e-003
1.575557e+003, 3.447335e-003
1.577486e+003, 3.413504e-003
1.579414e+003, 3.129567e-003
1.581343e+003, 3.017689e-003
1.583271e+003, 3.031099e-003
1.585200e+003, 3.042158e-003
1.587128e+003, 3.001158e-003
1.589057e+003, 3.012389e-003
1.590985e+003, 3.111653e-003
1.592913e+003, 3.200822e-003
1.594842e+003, 3.204999e-003
1.596770e+003, 3.149757e-003
1.598699e+003, 3.200904e-003
1.600627e+003, 3.407824e-003
1.602556e+003, 3.526846e-003
1.604484e+003, 3.451681e-003
1.606413e+003, 3.396069e-003
1.608341e+003, 3.480353e-003
1.610270e+003, 3.485369e-003
1.612198e+003, 3.412283e-003
1.614127e+003, 3.404581e-003
1.616055e+003, 3.714520e-003
1.617984e+003, 3.810618e-003
1.619912e+003, 3.669944e-003
1.621840e+003, 3.756412e-003
1.623769e+003, 3.843518e-003
1.625697e+003, 3.765483e-003
1.627626e+003, 3.663073e-003
1.629554e+003, 3.761191e-003
1.631483e+003, 3.626523e-003
1.633411e+003, 3.694665e-003
1.635340e+003, 3.976525e-003
1.637268e+003, 3.793513e-003
1.639197e+003, 3.591386e-003
1.641125e+003, 3.566188e-003
1.643054e+003, 3.546228e-003
1.644982e+003, 3.854283e-003
1.646911e+003, 4.117682e-003
1.648839e+003, 3.808653e-003
1.650767e+003, 3.964823e-003
1.652696e+003, 4.614742e-003
1.654624e+003, 4.028361e-003
1.656553e+003, 3.439831e-003
1.658481e+003, 3.499652e-003
1.660410e+003, 3.681746e-003
1.662338e+003, 3.750402e-003
1.664267e+003, 3.508181e-003
1.666195e+003, 3.298970e-003
1.668124e+003, 3.510844e-003
1.670052e+003, 3.562661e-003
1.671981e+003, 3.337720e-003
1.673909e+003, 3.383966e-003
1.675838e+003, 3.453243e-003
1.677766e+003, 3.279059e-003
1.679694e+003, 3.346334e-003
1.681623e+003, 3.401209e-003
1.683551e+003, 3.775862e-003
1.685480e+003, 3.724051e-003
1.687408e+003, 3.239971e-003
1.689337e+003, 3.077668e-003
1.691265e+003, 3.127492e-003
1.693194e+003, 3.238674e-003
1.695122e+003, 3.613525e-003
1.697051e+003, 3.448871e-003
1.698979e+003, 3.510761e-003
1.700908e+003, 3.700160e-003
1.702836e+003, 3.175891e-003
1.704765e+003, 2.970475e-003
1.706693e+003, 2.762601e-003
1.708621e+003, 2.687013e-003
1.710550e+003, 2.621392e-003
1.712478e+003, 2.769504e-003
1.714407e+003, 2.993820e-003
1.716335e+003, 3.253370e-003
1.718264e+003, 3.107398e-003
1.720192e+003, 2.696973e-003
1.722121e+003, 2.595883e-003
1.724049e+003, 2.510349e-003
1.725978e+003, 2.417914e-003
1.727906e+003, 2.344575e-003
1.729835e+003, 2.333453e-003
1.731763e+003, 2.560738e-003
1.733692e+003, 2.768815e-003
1.735620e+003, 2.220814e-003
1.737548e+003, 1.715151e-003
1.739477e+003, 1.744959e-003
1.741405e+003, 1.608633e-003
1.743334e+003, 1.536560e-003
1.745262e+003, 1.522387e-003
1.747191e+003, 1.562358e-003
1.749119e+003, 1.743312e-003
1.751048e+003, 2.077066e-003
1.752976e+003, 2.190724e-003
1.754905e+003, 2.324648e-003
1.756833e+003, 2.551450e-003
1.758762e+003, 2.423882e-003
1.760690e+003, 2.652830e-003
1.762619e+003, 3.085657e-003
1.764547e+003, 3.167880e-003
1.766475e+003, 3.246288e-003
1.768404e+003, 3.305329e-003
1.770332e+003, 3.396899e-003
1.772261e+003, 3.637453e-003
1.774189e+003, 3.637285e-003
1.776118e+003, 3.665772e-003
1.778046e+003, 3.723629e-003
1.779975e+003, 3.758493e-003
1.781903e+003, 3.829678e-003
1.783832e+003, 3.918123e-003
1.785760e+003, 3.911544e-003
1.787689e+003, 3.892489e-003
1.789617e+003, 3.907783e-003
1.791546e+003, 3.940463e-003
1.793474e+003, 3.886245e-003
1.795402e+003, 3.849962e-003
1.797331e+003, 3.648321e-003
1.799259e+003, 3.366300e-003
1.801188e+003, 3.070517e-003
1.803116e+003, 2.821466e-003
1.805045e+003, 2.763934e-003
1.806973e+003, 2.746952e-003
1.808902e+003, 2.633944e-003
1.810830e+003, 2.595889e-003
1.812759e+003, 2.392838e-003
1.814687e+003, 2.107818e-003
1.816616e+003, 1.888127e-003
1.818544e+003, 2.065443e-003
1.820473e+003, 2.388300e-003
1.822401e+003, 2.293521e-003
1.824329e+003, 2.253891e-003
1.826258e+003, 2.161264e-003
1.828186e+003, 1.882738e-003
1.830115e+003, 1.852160e-003
1.832043e+003, 1.756539e-003
1.833972e+003, 1.739939e-003
1.835900e+003, 1.586953e-003
1.837829e+003, 1.533968e-003
1.839757e+003, 1.496018e-003
1.841686e+003, 1.406013e-003
1.843614e+003, 1.727300e-003
1.845543e+003, 1.641067e-003
1.847471e+003, 1.103565e-003
1.849400e+003, 1.069451e-003
1.851328e+003, 1.303350e-003
1.853256e+003, 1.449767e-003
1.855185e+003, 1.372093e-003
1.857113e+003, 1.227777e-003
1.859042e+003, 1.181385e-003
1.860970e+003, 1.476371e-003
1.862899e+003, 1.515518e-003
1.864827e+003, 1.065267e-003
1.866756e+003, 1.146968e-003
1.868684e+003, 1.719109e-003
1.870613e+003, 1.746307e-003
1.872541e+003, 1.605318e-003
1.874470e+003, 1.573201e-003
1.876398e+003, 1.593873e-003
1.878327e+003, 1.579894e-003
1.880255e+003, 1.460613e-003
1.882183e+003, 1.612326e-003
1.884112e+003, 1.588939e-003
1.886040e+003, 1.688361e-003
1.887969e+003, 1.719655e-003
1.889897e+003, 1.840270e-003
1.891826e+003, 2.089768e-003
1.893754e+003, 2.407960e-003
1.895683e+003, 2.435921e-003
1.897611e+003, 2.557075e-003
1.899540e+003, 2.901597e-003
1.901468e+003, 2.922304e-003
1.903397e+003, 2.825943e-003
1.905325e+003, 2.563243e-003
1.907254e+003, 2.687208e-003
1.909182e+003, 3.075107e-003
1.911110e+003, 3.296849e-003
1.913039e+003, 3.407565e-003
1.914967e+003, 3.685778e-003
1.916896e+003, 3.748715e-003
1.918824e+003, 3.725643e-003
1.920753e+003, 3.182081e-003
1.922681e+003, 3.239127e-003
1.924610e+003, 3.110892e-003
1.926538e+003, 2.745656e-003
1.928467e+003, 2.843747e-003
1.930395e+003, 3.134170e-003
1.932324e+003, 3.164786e-003
1.934252e+003, 2.784830e-003
1.936181e+003, 2.709518e-003
1.938109e+003, 2.490363e-003
1.940037e+003, 2.201275e-003
1.941966e+003, 2.409023e-003
1.943894e+003, 2.716448e-003
1.945823e+003, 2.507270e-003
1.947751e+003, 2.606332e-003
1.949680e+003, 2.728587e-003
1.951608e+003, 1.740266e-003
1.953537e+003, 1.478034e-003
1.955465e+003, 1.637328e-003
1.957394e+003, 1.835130e-003
1.959322e+003, 1.952789e-003
1.961251e+003, 1.800758e-003
1.963179e+003, 2.211792e-003
1.965108e+003, 3.088994e-003
1.967036e+003, 2.788000e-003
1.968964e+003, 2.308654e-003
1.970893e+003, 2.760860e-003
1.972821e+003, 3.020521e-003
1.974750e+003, 2.857287e-003
1.976678e+003, 3.506428e-003
1.978607e+003, 4.653108e-003
1.980535e+003, 4.416324e-003
1.982464e+003, 3.601104e-003
1.984392e+003, 4.125038e-003
1.986321e+003, 4.234729e-003
1.988249e+003, 3.290080e-003
1.990178e+003, 3.301951e-003
1.992106e+003, 4.340637e-003
1.994035e+003, 5.007258e-003
1.995963e+003, 4.847264e-003
1.997891e+003, 4.924762e-003
1.999820e+003, 5.097332e-003
2.001748e+003, 3.860953e-003
2.003677e+003, 2.700499e-003
2.005605e+003, 2.613697e-003
2.007534e+003, 3.451446e-003
2.009462e+003, 3.680807e-003
2.011391e+003, 3.362024e-003
2.013319e+003, 3.722674e-003
2.015248e+003, 3.248049e-003
2.017176e+003, 3.808663e-003
2.019105e+003, 4.436513e-003
2.021033e+003, 3.284773e-003
2.022962e+003, 1.561149e-003
2.024890e+003, 2.075940e-003
2.026818e+003, 3.563261e-003
2.028747e+003, 4.909243e-003
2.030675e+003, 4.251292e-003
2.032604e+003, 3.311194e-003
2.034532e+003, 3.289841e-003
2.036461e+003, 2.753165e-003
2.038389e+003, 2.619190e-003
2.040318e+003, 3.114201e-003
2.042246e+003, 3.122117e-003
2.044175e+003, 3.154045e-003
2.046103e+003, 2.803225e-003
2.048031e+003, 3.097526e-003
2.049960e+003, 4.301270e-003
2.051888e+003, 3.972958e-003
2.053817e+003, 3.019409e-003
2.055745e+003, 2.726890e-003
2.057674e+003, 2.520651e-003
2.059602e+003, 2.089504e-003
2.061531e+003, 1.807339e-003
2.063459e+003, 1.905003e-003
2.065388e+003, 2.377598e-003
2.067316e+003, 2.731076e-003
2.069245e+003, 2.382359e-003
2.071173e+003, 2.421078e-003
2.073102e+003, 2.840738e-003
2.075030e+003, 3.105757e-003
2.076958e+003, 2.664407e-003
2.078887e+003, 2.324305e-003
2.080815e+003, 2.674028e-003
2.082744e+003, 3.087978e-003
2.084672e+003, 3.262129e-003
2.086601e+003, 2.420702e-003
2.088529e+003, 2.615540e-003
2.090458e+003, 2.593195e-003
2.092386e+003, 2.144308e-003
2.094315e+003, 2.024523e-003
2.096243e+003, 2.663735e-003
2.098172e+003, 3.437954e-003
2.100100e+003, 3.384615e-003
2.102029e+003, 3.181714e-003
2.103957e+003, 3.591526e-003
2.105885e+003, 3.634169e-003
2.107814e+003, 3.409799e-003
2.109742e+003, 3.156779e-003
2.111671e+003, 2.955643e-003
2.113599e+003, 3.021490e-003
2.115528e+003, 3.535929e-003
2.117456e+003, 3.110665e-003
2.119385e+003, 2.208880e-003
2.121313e+003, 1.962706e-003
2.123242e+003, 2.046700e-003
2.125170e+003, 1.577046e-003
2.127099e+003, 1.056021e-003
2.129027e+003, 6.841210e-004
2.130956e+003, 7.288812e-004
2.132884e+003, 6.830452e-004
2.134813e+003, 3.941893e-004
2.136741e+003, 7.482113e-004
2.138669e+003, 1.026677e-003
2.140598e+003, 3.983323e-004
2.142526e+003, -4.933109e-004
2.144455e+003, -4.850146e-004
2.146383e+003, 7.637450e-005
2.148312e+003, 5.743979e-004
2.150240e+003, 9.686693e-004
2.152169e+003, 3.730878e-005
2.154097e+003, 3.745067e-004
2.156026e+003, -1.239358e-004
2.157954e+003, 1.931186e-004
2.159883e+003, 2.755215e-003
2.161811e+003, 4.233462e-003
2.163740e+003, 4.509457e-003
2.165668e+003, 5.301756e-003
2.167596e+003, 5.263961e-003
2.169525e+003, 4.461725e-003
2.171453e+003, 2.489029e-003
2.173382e+003, 2.459433e-003
2.175310e+003, 2.196025e-003
2.177239e+003, 1.970706e-003
2.179167e+003, 2.439412e-003
2.181096e+003, 3.519858e-003
2.183024e+003, 3.929155e-003
2.184953e+003, 4.395214e-003
2.186881e+003, 4.649913e-003
2.188810e+003, 4.362897e-003
2.190738e+003, 3.682017e-003
2.192667e+003, 3.734345e-003
2.194595e+003, 3.809271e-003
2.196523e+003, 3.890782e-003
2.198452e+003, 4.093103e-003
2.200380e+003, 4.640948e-003
2.202309e+003, 5.083139e-003
2.204237e+003, 4.534680e-003
2.206166e+003, 4.167895e-003
2.208094e+003, 4.298414e-003
2.210023e+003, 4.713347e-003
2.211951e+003, 4.686421e-003
2.213880e+003, 3.756127e-003
2.215808e+003, 3.545668e-003
2.217737e+003, 3.795308e-003
2.219665e+003, 3.895642e-003
2.221594e+003, 4.101515e-003
2.223522e+003, 4.268263e-003
2.225450e+003, 4.355807e-003
2.227379e+003, 4.225548e-003
2.229307e+003, 3.784506e-003
2.231236e+003, 3.821662e-003
2.233164e+003, 3.973697e-003
2.235093e+003, 4.450906e-003
2.237021e+003, 4.734653e-003
2.238950e+003, 4.869382e-003
2.240878e+003, 4.532481e-003
2.242807e+003, 4.079876e-003
2.244735e+003, 4.387265e-003
2.246664e+003, 4.365077e-003
2.248592e+003, 3.997358e-003
2.250521e+003, 3.471234e-003
2.252449e+003, 3.050958e-003
2.254377e+003, 3.335382e-003
2.256306e+003, 3.720295e-003
2.258234e+003, 3.449234e-003
2.260163e+003, 3.303816e-003
2.262091e+003, 3.154459e-003
2.264020e+003, 3.138563e-003
2.265948e+003, 3.105931e-003
2.267877e+003, 2.984538e-003
2.269805e+003, 3.558780e-003
2.271734e+003, 3.798085e-003
2.273662e+003, 3.943426e-003
2.275591e+003, 4.373488e-003
2.277519e+003, 4.226965e-003
2.279448e+003, 3.634129e-003
2.281376e+003, 3.255675e-003
2.283304e+003, 3.721508e-003
2.285233e+003, 4.557065e-003
2.287161e+003, 4.141054e-003
2.289090e+003, 3.514700e-003
2.291018e+003, 3.122574e-003
2.292947e+003, 3.039502e-003
2.294875e+003, 3.067323e-003
2.296804e+003, 2.825072e-003
2.298732e+003, 2.708811e-003
2.300661e+003, 2.959983e-003
2.302589e+003, 2.997495e-003
2.304518e+003, 3.185259e-003
2.306446e+003, 3.317277e-003
2.308375e+003, 3.036775e-003
2.310303e+003, 2.996519e-003
2.312231e+003, 3.266404e-003
2.314160e+003, 3.334987e-003
2.316088e+003, 3.402036e-003
2.318017e+003, 3.398540e-003
2.319945e+003, 3.986972e-003
2.321874e+003, 4.796280e-003
2.323802e+003, 4.953388e-003
2.325731e+003, 4.139228e-003
2.327659e+003, 3.392390e-003
2.329588e+003, 3.323974e-003
2.331516e+003, 3.270157e-003
2.333445e+003, 3.205698e-003
2.335373e+003, 3.466574e-003
2.337302e+003, 3.463391e-003
2.339230e+003, 3.276868e-003
2.341158e+003, 3.349359e-003
2.343087e+003, 3.292143e-003
2.345015e+003, 3.207103e-003
2.346944e+003, 3.088887e-003
2.348872e+003, 2.836896e-003
2.350801e+003, 2.930075e-003
2.352729e+003, 3.011719e-003
2.354658e+003, 3.017929e-003
2.356586e+003, 3.047417e-003
2.358515e+003, 3.257368e-003
2.360443e+003, 3.339570e-003
2.362372e+003, 3.235899e-003
2.364300e+003, 3.124118e-003
2.366229e+003, 2.736668e-003
2.368157e+003, 2.690857e-003
2.370085e+003, 2.641347e-003
2.372014e+003, 2.503510e-003
2.373942e+003, 2.406432e-003
2.375871e+003, 2.229688e-003
2.377799e+003, 2.170502e-003
2.379728e+003, 2.005571e-003
2.381656e+003, 1.935174e-003
2.383585e+003, 1.825927e-003
2.385513e+003, 1.839643e-003
2.387442e+003, 1.864861e-003
2.389370e+003, 2.019455e-003
2.391299e+003, 2.029930e-003
2.393227e+003, 2.105233e-003
2.395156e+003, 1.992961e-003
2.397084e+003, 1.810388e-003
2.399012e+003, 1.747689e-003
2.400941e+003, 2.250031e-003
2.402869e+003, 2.095546e-003
2.404798e+003, 1.576717e-003
2.406726e+003, 1.738424e-003
2.408655e+003, 2.085972e-003
2.410583e+003, 2.334489e-003
2.412512e+003, 2.469245e-003
2.414440e+003, 2.551086e-003
2.416369e+003, 2.386010e-003
2.418297e+003, 2.360990e-003
2.420226e+003, 2.345904e-003
2.422154e+003, 2.297223e-003
2.424083e+003, 2.404467e-003
2.426011e+003, 2.519312e-003
2.427939e+003, 2.907087e-003
2.429868e+003, 2.905811e-003
2.431796e+003, 2.819690e-003
2.433725e+003, 2.603804e-003
2.435653e+003, 2.854099e-003
2.437582e+003, 3.245332e-003
2.439510e+003, 3.267376e-003
2.441439e+003, 3.169193e-003
2.443367e+003, 2.999346e-003
2.445296e+003, 3.037145e-003
2.447224e+003, 3.387725e-003
2.449153e+003, 3.879204e-003
2.451081e+003, 3.996544e-003
2.453010e+003, 3.967239e-003
2.454938e+003, 4.075443e-003
2.456866e+003, 4.035928e-003
2.458795e+003, 4.108695e-003
2.460723e+003, 4.228818e-003
2.462652e+003, 4.286558e-003
2.464580e+003, 4.141784e-003
2.466509e+003, 3.674083e-003
2.468437e+003, 3.764696e-003
2.470366e+003, 4.157223e-003
2.472294e+003, 4.123802e-003
2.474223e+003, 3.928897e-003
2.476151e+003, 4.138841e-003
2.478080e+003, 4.178751e-003
2.480008e+003, 4.268888e-003
2.481937e+003, 4.524547e-003
2.483865e+003, 4.501059e-003
2.485793e+003, 4.396886e-003
2.487722e+003, 4.449893e-003
2.489650e+003, 4.705040e-003
2.491579e+003, 4.856121e-003
2.493507e+003, 5.184599e-003
2.495436e+003, 5.321466e-003
2.497364e+003, 5.202959e-003
2.499293e+003, 5.256995e-003
2.501221e+003, 5.269067e-003
2.503150e+003, 5.152816e-003
2.505078e+003, 5.161549e-003
2.507007e+003, 5.348001e-003
2.508935e+003, 5.148482e-003
2.510864e+003, 5.153548e-003
2.512792e+003, 5.221092e-003
2.514720e+003, 5.191312e-003
2.516649e+003, 5.312771e-003
2.518577e+003, 5.315858e-003
2.520506e+003, 5.197606e-003
2.522434e+003, 5.266339e-003
2.524363e+003, 5.399652e-003
2.526291e+003, 5.460820e-003
2.528220e+003, 5.627921e-003
2.530148e+003, 5.540638e-003
2.532077e+003, 5.516975e-003
2.534005e+003, 5.783402e-003
2.535934e+003, 6.014205e-003
2.537862e+003, 6.129225e-003
2.539791e+003, 5.830927e-003
2.541719e+003, 5.830215e-003
2.543647e+003, 5.802372e-003
2.545576e+003, 5.709380e-003
2.547504e+003, 5.795606e-003
2.549433e+003, 5.754069e-003
2.551361e+003, 6.039320e-003
2.553290e+003, 6.456940e-003
2.555218e+003, 6.362640e-003
2.557147e+003, 6.310705e-003
2.559075e+003, 6.290761e-003
2.561004e+003, 6.057384e-003
2.562932e+003, 6.321716e-003
2.564861e+003, 6.591385e-003
2.566789e+003, 6.346848e-003
2.568718e+003, 6.285565e-003
2.570646e+003, 6.523985e-003
2.572574e+003, 6.632051e-003
2.574503e+003, 6.414558e-003
2.576431e+003, 6.327700e-003
2.578360e+003, 6.433071e-003
2.580288e+003, 6.393616e-003
2.582217e+003, 6.370456e-003
2.584145e+003, 6.220074e-003
2.586074e+003, 6.461707e-003
2.588002e+003, 6.703140e-003
2.589931e+003, 6.745196e-003
2.591859e+003, 6.720441e-003
2.593788e+003, 6.530174e-003
2.595716e+003, 6.329891e-003
2.597645e+003, 6.510063e-003
2.599573e+003, 6.652499e-003
2.601501e+003, 6.471745e-003
2.603430e+003, 6.390166e-003
2.605358e+003, 6.940758e-003
2.607287e+003, 7.338241e-003
2.609215e+003, 6.980826e-003
2.611144e+003, 6.667808e-003
2.613072e+003, 6.694098e-003
2.615001e+003, 6.613908e-003
2.616929e+003, 6.739087e-003
2.618858e+003, 6.970000e-003
2.620786e+003, 7.047579e-003
2.622715e+003, 6.780459e-003
2.624643e+003, 6.783362e-003
2.626572e+003, 6.719830e-003
2.628500e+003, 6.612491e-003
2.630428e+003, 6.918334e-003
2.632357e+003, 7.180915e-003
2.634285e+003, 7.150359e-003
2.636214e+003, 7.054287e-003
2.638142e+003, 7.130718e-003
2.640071e+003, 7.050322e-003
2.641999e+003, 6.687577e-003
2.643928e+003, 6.756449e-003
2.645856e+003, 7.005243e-003
2.647785e+003, 7.221704e-003
2.649713e+003, 7.234416e-003
2.651642e+003, 7.147138e-003
2.653570e+003, 7.027369e-003
2.655499e+003, 6.774394e-003
2.657427e+003, 6.699903e-003
2.659355e+003, 6.658003e-003
2.661284e+003, 6.521495e-003
2.663212e+003, 6.618112e-003
2.665141e+003, 6.582339e-003
2.667069e+003, 6.348183e-003
2.668998e+003, 6.264324e-003
2.670926e+003, 6.051537e-003
2.672855e+003, 5.970479e-003
2.674783e+003, 6.284847e-003
2.676712e+003, 6.366364e-003
2.678640e+003, 6.069920e-003
2.680569e+003, 6.169498e-003
2.682497e+003, 6.209162e-003
2.684426e+003, 5.986559e-003
2.686354e+003, 6.038400e-003
2.688282e+003, 6.123617e-003
2.690211e+003, 6.053407e-003
2.692139e+003, 6.178905e-003
2.694068e+003, 6.496312e-003
2.695996e+003, 6.695466e-003
2.697925e+003, 6.685995e-003
2.699853e+003, 6.552178e-003
2.701782e+003, 6.347784e-003
2.703710e+003, 6.252288e-003
2.705639e+003, 6.307059e-003
2.707567e+003, 6.309695e-003
2.709496e+003, 6.331631e-003
2.711424e+003, 6.578438e-003
2.713353e+003, 6.513813e-003
2.715281e+003, 6.294058e-003
2.717209e+003, 6.226428e-003
2.719138e+003, 6.117120e-003
2.721066e+003, 6.396118e-003
2.722995e+003, 6.401490e-003
2.724923e+003, 6.273535e-003
2.726852e+003, 6.423787e-003
2.728780e+003, 6.732750e-003
2.730709e+003, 6.837365e-003
2.732637e+003, 6.782298e-003
2.734566e+003, 6.679052e-003
2.736494e+003, 6.739042e-003
2.738423e+003, 6.709792e-003
2.740351e+003, 6.802305e-003
2.742280e+003, 6.977746e-003
2.744208e+003, 6.964215e-003
2.746136e+003, 6.921176e-003
2.748065e+003, 6.939444e-003
2.749993e+003, 6.849397e-003
2.751922e+003, 6.909810e-003
2.753850e+003, 7.353702e-003
2.755779e+003, 7.483837e-003
2.757707e+003, 7.357730e-003
2.759636e+003, 7.274494e-003
2.761564e+003, 7.139145e-003
2.763493e+003, 7.131353e-003
2.765421e+003, 7.177857e-003
2.767350e+003, 7.181503e-003
2.769278e+003, 7.355750e-003
2.771207e+003, 7.441100e-003
2.773135e+003, 7.476812e-003
2.775063e+003, 7.623889e-003
2.776992e+003, 7.475609e-003
2.778920e+003, 7.430903e-003
2.780849e+003, 7.456945e-003
2.782777e+003, 7.473473e-003
2.784706e+003, 7.524088e-003
2.786634e+003, 7.710318e-003
2.788563e+003, 7.565440e-003
2.790491e+003, 7.509867e-003
2.792420e+003, 7.698322e-003
2.794348e+003, 7.637886e-003
2.796277e+003, 7.297908e-003
2.798205e+003, 7.393723e-003
2.800134e+003, 7.652310e-003
2.802062e+003, 7.737127e-003
2.803990e+003, 7.757720e-003
2.805919e+003, 7.866110e-003
2.807847e+003, 7.734752e-003
2.809776e+003, 7.707032e-003
2.811704e+003, 7.920867e-003
2.813633e+003, 8.291770e-003
2.815561e+003, 8.345300e-003
2.817490e+003, 8.207729e-003
2.819418e+003, 7.921226e-003
2.821347e+003, 7.848019e-003
2.823275e+003, 7.946066e-003
2.825204e+003, 8.072983e-003
2.827132e+003, 8.038732e-003
2.829061e+003, 8.171543e-003
2.830989e+003, 8.082154e-003
2.832917e+003, 8.058033e-003
2.834846e+003, 8.023650e-003
2.836774e+003, 7.837400e-003
2.838703e+003, 7.794686e-003
2.840631e+003, 7.705677e-003
2.842560e+003, 7.738730e-003
2.844488e+003, 7.440563e-003
2.846417e+003, 6.835437e-003
2.848345e+003, 6.162528e-003
2.850274e+003, 5.583092e-003
2.852202e+003, 5.404851e-003
2.854131e+003, 5.634511e-003
2.856059e+003, 6.008200e-003
2.857988e+003, 6.381917e-003
2.859916e+003, 6.475229e-003
2.861844e+003, 6.755598e-003
2.863773e+003, 6.983931e-003
2.865701e+003, 7.170574e-003
2.867630e+003, 7.342794e-003
2.869558e+003, 7.527685e-003
2.871487e+003, 7.759166e-003
2.873415e+003, 7.829948e-003
2.875344e+003, 8.073968e-003
2.877272e+003, 8.131433e-003
2.879201e+003, 7.807996e-003
2.881129e+003, 7.737097e-003
2.883058e+003, 7.817100e-003
2.884986e+003, 7.819379e-003
2.886915e+003, 7.697893e-003
2.888843e+003, 7.661175e-003
2.890771e+003, 7.533452e-003
2.892700e+003, 7.702916e-003
2.894628e+003, 7.758385e-003
2.896557e+003, 7.743993e-003
2.898485e+003, 7.731789e-003
2.900414e+003, 7.636519e-003
2.902342e+003, 7.742929e-003
2.904271e+003, 7.835840e-003
2.906199e+003, 7.479045e-003
2.908128e+003, 7.226737e-003
2.910056e+003, 6.772107e-003
2.911985e+003, 5.794098e-003
2.913913e+003, 5.261352e-003
2.915842e+003, 5.274666e-003
2.917770e+003, 5.059029e-003
2.919698e+003, 4.350580e-003
2.921627e+003, 4.544674e-003
2.923555e+003, 4.914949e-003
2.925484e+003, 4.822771e-003
2.927412e+003, 4.838069e-003
2.929341e+003, 5.441780e-003
2.931269e+003, 6.009401e-003
2.933198e+003, 6.200002e-003
2.935126e+003, 6.580710e-003
2.937055e+003, 6.862605e-003
2.938983e+003, 7.006394e-003
2.940912e+003, 7.300104e-003
2.942840e+003, 7.743640e-003
2.944769e+003, 7.830238e-003
2.946697e+003, 7.894736e-003
2.948625e+003, 7.951361e-003
2.950554e+003, 7.831280e-003
2.952482e+003, 8.102613e-003
2.954411e+003, 8.385285e-003
2.956339e+003, 8.383003e-003
2.958268e+003, 8.496456e-003
2.960196e+003, 8.465598e-003
2.962125e+003, 8.633488e-003
2.964053e+003, 8.981970e-003
2.965982e+003, 8.989160e-003
2.967910e+003, 9.159642e-003
2.969839e+003, 9.175242e-003
2.971767e+003, 8.974007e-003
2.973696e+003, 9.108356e-003
2.975624e+003, 9.223634e-003
2.977552e+003, 9.440411e-003
2.979481e+003, 9.720269e-003
2.981409e+003, 9.617431e-003
2.983338e+003, 9.523910e-003
2.985266e+003, 9.311820e-003
2.987195e+003, 9.074358e-003
2.989123e+003, 9.369127e-003
2.991052e+003, 9.477440e-003
2.992980e+003, 9.639442e-003
2.994909e+003, 1.005854e-002
2.996837e+003, 1.031944e-002
2.998766e+003, 1.059346e-002
3.000694e+003, 1.026276e-002
3.002623e+003, 9.972638e-003
3.004551e+003, 1.050063e-002
3.006479e+003, 1.083933e-002
3.008408e+003, 1.075637e-002
3.010336e+003, 1.056411e-002
3.012265e+003, 1.107430e-002
3.014193e+003, 1.168910e-002
3.016122e+003, 1.195066e-002
3.018050e+003, 1.172787e-002
3.019979e+003, 1.103807e-002
3.021907e+003, 1.079306e-002
3.023836e+003, 1.050920e-002
3.025764e+003, 1.036246e-002
3.027693e+003, 1.075055e-002
3.029621e+003, 1.132866e-002
3.031550e+003, 1.136763e-002
3.033478e+003, 1.150570e-002
3.035406e+003, 1.152361e-002
3.037335e+003, 1.144012e-002
3.039263e+003, 1.142052e-002
3.041192e+003, 1.142882e-002
3.043120e+003, 1.150661e-002
3.045049e+003, 1.143578e-002
3.046977e+003, 1.150886e-002
3.048906e+003, 1.156695e-002
3.050834e+003, 1.158348e-002
3.052763e+003, 1.150750e-002
3.054691e+003, 1.123724e-002
3.056620e+003, 1.181065e-002
3.058548e+003, 1.218219e-002
3.060477e+003, 1.218163e-002
3.062405e+003, 1.253419e-002
3.064333e+003, 1.266020e-002
3.066262e+003, 1.237173e-002
3.068190e+003, 1.211877e-002
3.070119e+003, 1.197391e-002
3.072047e+003, 1.209270e-002
3.073976e+003, 1.230705e-002
3.075904e+003, 1.245132e-002
3.077833e+003, 1.258640e-002
3.079761e+003, 1.295523e-002
3.081690e+003, 1.290462e-002
3.083618e+003, 1.291966e-002
3.085547e+003, 1.330357e-002
3.087475e+003, 1.312433e-002
3.089404e+003, 1.303003e-002
3.091332e+003, 1.297245e-002
3.093260e+003, 1.299374e-002
3.095189e+003, 1.300903e-002
3.097117e+003, 1.287027e-002
3.099046e+003, 1.340330e-002
3.100974e+003, 1.398008e-002
3.102903e+003, 1.356910e-002
3.104831e+003, 1.308990e-002
3.106760e+003, 1.318478e-002
3.108688e+003, 1.339917e-002
3.110617e+003, 1.367019e-002
3.112545e+003, 1.423430e-002
3.114474e+003, 1.424661e-002
3.116402e+003, 1.393965e-002
3.118331e+003, 1.418627e-002
3.120259e+003, 1.462350e-002
3.122188e+003, 1.465873e-002
3.124116e+003, 1.449091e-002
3.126044e+003, 1.447477e-002
3.127973e+003, 1.438865e-002
3.129901e+003, 1.431498e-002
3.131830e+003, 1.453853e-002
3.133758e+003, 1.456727e-002
3.135687e+003, 1.468959e-002
3.137615e+003, 1.525754e-002
3.139544e+003, 1.521784e-002
3.141472e+003, 1.547862e-002
3.143401e+003, 1.564093e-002
3.145329e+003, 1.536409e-002
3.147258e+003, 1.556656e-002
3.149186e+003, 1.588510e-002
3.151115e+003, 1.562018e-002
3.153043e+003, 1.542047e-002
3.154971e+003, 1.611709e-002
3.156900e+003, 1.693369e-002
3.158828e+003, 1.647857e-002
3.160757e+003, 1.625583e-002
3.162685e+003, 1.679388e-002
3.164614e+003, 1.697858e-002
3.166542e+003, 1.687553e-002
3.168471e+003, 1.678779e-002
3.170399e+003, 1.655670e-002
3.172328e+003, 1.689760e-002
3.174256e+003, 1.716848e-002
3.176185e+003, 1.737089e-002
3.178113e+003, 1.756791e-002
3.180042e+003, 1.721562e-002
3.181970e+003, 1.720701e-002
3.183898e+003, 1.769374e-002
3.185827e+003, 1.806242e-002
3.187755e+003, 1.796650e-002
3.189684e+003, 1.796148e-002
3.191612e+003, 1.810342e-002
3.193541e+003, 1.840893e-002
3.195469e+003, 1.872142e-002
3.197398e+003, 1.899694e-002
3.199326e+003, 1.887392e-002
3.201255e+003, 1.905287e-002
3.203183e+003, 1.983447e-002
3.205112e+003, 2.026665e-002
3.207040e+003, 2.051524e-002
3.208969e+003, 2.020009e-002
3.210897e+003, 1.961269e-002
3.212825e+003, 1.956948e-002
3.214754e+003, 2.004077e-002
3.216682e+003, 2.051999e-002
3.218611e+003, 2.051385e-002
3.220539e+003, 2.002537e-002
3.222468e+003, 1.971481e-002
3.224396e+003, 2.021182e-002
3.226325e+003, 2.092236e-002
3.228253e+003, 2.124090e-002
3.230182e+003, 2.120356e-002
3.232110e+003, 2.143983e-002
3.234039e+003, 2.167824e-002
3.235967e+003, 2.202816e-002
3.237896e+003, 2.244112e-002
3.239824e+003, 2.236675e-002
3.241752e+003, 2.191355e-002
3.243681e+003, 2.218681e-002
3.245609e+003, 2.294302e-002
3.247538e+003, 2.316615e-002
3.249466e+003, 2.310194e-002
3.251395e+003, 2.357066e-002
3.253323e+003, 2.419864e-002
3.255252e+003, 2.403695e-002
3.257180e+003, 2.409758e-002
3.259109e+003, 2.452629e-002
3.261037e+003, 2.479164e-002
3.262966e+003, 2.472209e-002
3.264894e+003, 2.464517e-002
3.266823e+003, 2.485607e-002
3.268751e+003, 2.571798e-002
3.270679e+003, 2.650675e-002
3.272608e+003, 2.687224e-002
3.274536e+003, 2.665740e-002
3.276465e+003, 2.702087e-002
3.278393e+003, 2.780068e-002
3.280322e+003, 2.798103e-002
3.282250e+003, 2.806330e-002
3.284179e+003, 2.858945e-002
3.286107e+003, 2.877426e-002
3.288036e+003, 2.887981e-002
3.289964e+003, 2.906790e-002
3.291893e+003, 2.917994e-002
3.293821e+003, 2.972685e-002
3.295750e+003, 3.031671e-002
3.297678e+003, 3.066054e-002
3.299606e+003, 3.040625e-002
3.301535e+003, 3.025403e-002
3.303463e+003, 3.123303e-002
3.305392e+003, 3.196481e-002
3.307320e+003, 3.206555e-002
3.309249e+003, 3.239447e-002
3.311177e+003, 3.268150e-002
3.313106e+003, 3.316906e-002
3.315034e+003, 3.378821e-002
3.316963e+003, 3.407101e-002
3.318891e+003, 3.437003e-002
3.320820e+003, 3.449814e-002
3.322748e+003, 3.469009e-002
3.324677e+003, 3.549585e-002
3.326605e+003, 3.634318e-002
3.328533e+003, 3.673588e-002
3.330462e+003, 3.711020e-002
3.332390e+003, 3.734077e-002
3.334319e+003, 3.772650e-002
3.336247e+003, 3.800833e-002
3.338176e+003, 3.848621e-002
3.340104e+003, 3.930015e-002
3.342033e+003, 3.984738e-002
3.343961e+003, 3.975008e-002
3.345890e+003, 3.984895e-002
3.347818e+003, 4.035398e-002
3.349747e+003, 4.149270e-002
3.351675e+003, 4.250813e-002
3.353604e+003, 4.332296e-002
3.355532e+003, 4.407257e-002
3.357460e+003, 4.431251e-002
3.359389e+003, 4.463317e-002
3.361317e+003, 4.567018e-002
3.363246e+003, 4.672262e-002
3.365174e+003, 4.729988e-002
3.367103e+003, 4.750347e-002
3.369031e+003, 4.836758e-002
3.370960e+003, 4.917701e-002
3.372888e+003, 4.995153e-002
3.374817e+003, 5.076225e-002
3.376745e+003, 5.179761e-002
3.378674e+003, 5.251640e-002
3.380602e+003, 5.406687e-002
3.382531e+003, 5.533993e-002
3.384459e+003, 5.555053e-002
3.386387e+003, 5.617792e-002
3.388316e+003, 5.752333e-002
3.390244e+003, 5.889020e-002
3.392173e+003, 6.034601e-002
3.394101e+003, 6.186882e-002
3.396030e+003, 6.310827e-002
3.397958e+003, 6.444567e-002
3.399887e+003, 6.589361e-002
3.401815e+003, 6.767530e-002
3.403744e+003, 6.883800e-002
3.405672e+003, 6.991837e-002
3.407601e+003, 7.185683e-002
3.409529e+003, 7.338639e-002
3.411458e+003, 7.509866e-002
3.413386e+003, 7.695205e-002
3.415314e+003, 7.867546e-002
3.417243e+003, 8.027549e-002
3.419171e+003, 8.194070e-002
3.421100e+003, 8.392909e-002
3.423028e+003, 8.600959e-002
3.424957e+003, 8.798788e-002
3.426885e+003, 8.941069e-002
3.428814e+003, 9.108847e-002
3.430742e+003, 9.306289e-002
3.432671e+003, 9.503952e-002
3.434599e+003, 9.765830e-002
3.436528e+003, 1.000237e-001
3.438456e+003, 1.017453e-001
3.440385e+003, 1.037370e-001
3.442313e+003, 1.060436e-001
3.444241e+003, 1.092958e-001
3.446170e+003, 1.133450e-001
3.448098e+003, 1.169184e-001
3.450027e+003, 1.205798e-001
3.451955e+003, 1.247673e-001
3.453884e+003, 1.295069e-001
3.455812e+003, 1.345617e-001
3.457741e+003, 1.397120e-001
3.459669e+003, 1.452510e-001
3.461598e+003, 1.505881e-001
3.463526e+003, 1.543733e-001
3.465455e+003, 1.560076e-001
3.467383e+003, 1.564225e-001
3.469312e+003, 1.547961e-001
3.471240e+003, 1.508968e-001
3.473168e+003, 1.462802e-001
3.475097e+003, 1.407910e-001
3.477025e+003, 1.344867e-001
3.478954e+003, 1.283219e-001
3.480882e+003, 1.225693e-001
3.482811e+003, 1.170037e-001
3.484739e+003, 1.119796e-001
3.486668e+003, 1.078451e-001
3.488596e+003, 1.040653e-001
3.490525e+003, 1.000091e-001
3.492453e+003, 9.722771e-002
3.494382e+003, 9.536238e-002
3.496310e+003, 9.319640e-002
3.498239e+003, 9.087370e-002
3.500167e+003, 8.932452e-002
3.502095e+003, 8.862787e-002
3.504024e+003, 8.867922e-002
3.505952e+003, 8.844467e-002
3.507881e+003, 8.793858e-002
3.509809e+003, 8.842567e-002
3.511738e+003, 8.930154e-002
3.513666e+003, 9.032690e-002
3.515595e+003, 9.165038e-002
3.517523e+003, 9.304298e-002
3.519452e+003, 9.515264e-002
3.521380e+003, 9.760122e-002
3.523309e+003, 9.991262e-002
3.525237e+003, 1.022337e-001
3.527166e+003, 1.052787e-001
3.529094e+003, 1.084610e-001
3.531022e+003, 1.115766e-001
3.532951e+003, 1.143411e-001
3.534879e+003, 1.168533e-001
3.536808e+003, 1.196826e-001
3.538736e+003, 1.225273e-001
3.540665e+003, 1.241341e-001
3.542593e+003, 1.247315e-001
3.544522e+003, 1.245146e-001
3.546450e+003, 1.236828e-001
3.548379e+003, 1.215599e-001
3.550307e+003, 1.184900e-001
3.552236e+003, 1.136719e-001
3.554164e+003, 1.072889e-001
3.556093e+003, 9.958047e-002
3.558021e+003, 9.225275e-002
3.559949e+003, 8.553619e-002
3.561878e+003, 7.840347e-002
3.563806e+003, 7.095345e-002
3.565735e+003, 6.417339e-002
3.567663e+003, 5.713176e-002
3.569592e+003, 5.014692e-002
3.571520e+003, 4.423462e-002
3.573449e+003, 3.954986e-002
3.575377e+003, 3.569957e-002
3.577306e+003, 3.256602e-002
3.579234e+003, 3.027192e-002
3.581163e+003, 2.751807e-002
3.583091e+003, 2.499197e-002
3.585020e+003, 2.389889e-002
3.586948e+003, 2.356790e-002
3.588876e+003, 2.220391e-002
3.590805e+003, 2.057248e-002
3.592733e+003, 2.032586e-002
3.594662e+003, 2.033491e-002
3.596590e+003, 2.043077e-002
3.598519e+003, 2.026812e-002
3.600447e+003, 2.029935e-002
3.602376e+003, 2.007985e-002
3.604304e+003, 2.057787e-002
3.606233e+003, 2.089262e-002
3.608161e+003, 1.979023e-002
3.610090e+003, 1.726892e-002
3.612018e+003, 1.497624e-002
3.613947e+003, 1.272443e-002
3.615875e+003, 1.042739e-002
3.617803e+003, 9.382227e-003
3.619732e+003, 8.359325e-003
3.621660e+003, 7.107183e-003
3.623589e+003, 6.722275e-003
3.625517e+003, 5.955593e-003
3.627446e+003, 6.011310e-003
3.629374e+003, 6.302513e-003
3.631303e+003, 5.134249e-003
3.633231e+003, 4.357893e-003
3.635160e+003, 3.770625e-003
3.637088e+003, 3.506490e-003
3.639017e+003, 3.209135e-003
3.640945e+003, 2.813251e-003
3.642874e+003, 2.302222e-003
3.644802e+003, 1.951611e-003
3.646730e+003, 2.298516e-003
3.648659e+003, 3.155146e-003
3.650587e+003, 2.669028e-003
3.652516e+003, 1.512766e-003
3.654444e+003, 1.371957e-003
3.656373e+003, 1.575752e-003
3.658301e+003, 1.129120e-003
3.660230e+003, 8.060347e-004
3.662158e+003, 1.114148e-004
3.664087e+003, 9.407107e-005
3.666015e+003, 1.630792e-004
3.667944e+003, 6.894844e-004
3.669872e+003, 1.057956e-003
3.671801e+003, 4.084999e-004
3.673729e+003, 7.724077e-004
3.675657e+003, 1.101047e-003
3.677586e+003, -2.109938e-004
3.679514e+003, -5.415780e-004
3.681443e+003, -5.613024e-004
3.683371e+003, -7.774397e-004
3.685300e+003, -9.815829e-004
3.687228e+003, -1.653537e-004
3.689157e+003, 2.880142e-004
3.691085e+003, -2.808081e-004
3.693014e+003, -6.899278e-004
3.694942e+003, -4.117945e-004
3.696871e+003, -7.597940e-004
3.698799e+003, -4.567571e-005
3.700728e+003, 6.240980e-005
3.702656e+003, -8.562686e-004
3.704584e+003, -1.027394e-003
3.706513e+003, -8.755415e-004
3.708441e+003, -6.724110e-004
3.710370e+003, -6.441679e-004
3.712298e+003, -6.336121e-004
3.714227e+003, -4.357891e-004
3.716155e+003, 1.085998e-004
3.718084e+003, -5.229124e-004
3.720012e+003, -7.453681e-004
3.721941e+003, -6.994587e-004
3.723869e+003, -1.173741e-003
3.725798e+003, -8.519085e-004
3.727726e+003, -5.962157e-004
3.729655e+003, -1.136224e-004
3.731583e+003, -2.572373e-006
3.733511e+003, -1.805019e-004
3.735440e+003, 5.205841e-004
3.737368e+003, 2.941270e-004
3.739297e+003, -3.007361e-004
3.741225e+003, -1.515964e-004
3.743154e+003, 8.570370e-004
3.745082e+003, 6.013162e-004
3.747011e+003, -3.838974e-004
3.748939e+003, 1.042239e-004
3.750868e+003, 2.813429e-004
3.752796e+003, -6.695546e-004
3.754725e+003, -1.019106e-003
3.756653e+003, -4.763784e-004
3.758582e+003, -8.854779e-004
3.760510e+003, -7.840018e-004
3.762438e+003, -6.620972e-005
3.764367e+003, -5.425379e-004
3.766295e+003, -9.496358e-004
3.768224e+003, -8.448528e-004
3.770152e+003, -1.082179e-003
3.772081e+003, -6.929222e-004
3.774009e+003, -4.252043e-004
3.775938e+003, -6.189544e-004
3.777866e+003, -4.157241e-004
3.779795e+003, -7.227237e-004
3.781723e+003, -1.246339e-003
3.783652e+003, -7.100340e-004
3.785580e+003, -9.710662e-004
3.787509e+003, -1.898713e-003
3.789437e+003, -2.052096e-003
3.791365e+003, -1.427873e-003
3.793294e+003, -2.297545e-003
3.795222e+003, -2.839142e-003
3.797151e+003, -1.977312e-003
3.799079e+003, -4.902156e-004
3.801008e+003, 5.437289e-004
3.802936e+003, -1.226919e-004
3.804865e+003, -2.318348e-004
3.806793e+003, -1.082823e-004
3.808722e+003, -1.114556e-003
3.810650e+003, -1.528728e-003
3.812579e+003, -1.158953e-003
3.814507e+003, 9.859610e-006
3.816436e+003, 4.470330e-004
3.818364e+003, -4.471165e-004
3.820292e+003, -3.321056e-004
3.822221e+003, -2.032817e-004
3.824149e+003, -3.544462e-004
3.826078e+003, -5.333645e-004
3.828006e+003, -1.169443e-003
3.829935e+003, -9.273347e-004
3.831863e+003, 3.130096e-004
3.833792e+003, 8.998224e-004
3.835720e+003, 3.011645e-004
3.837649e+003, -3.028505e-004
3.839577e+003, -6.647469e-004
3.841506e+003, -5.298731e-004
3.843434e+003, -6.359626e-004
3.845363e+003, -1.083059e-003
3.847291e+003, -1.248220e-003
3.849219e+003, -2.120506e-004
3.851148e+003, 8.758481e-004
3.853076e+003, 1.856010e-003
3.855005e+003, 1.105680e-003
3.856933e+003, -4.696882e-004
3.858862e+003, -5.069069e-004
3.860790e+003, -3.667677e-004
3.862719e+003, -4.043449e-004
3.864647e+003, -8.962912e-005
3.866576e+003, -3.243786e-005
3.868504e+003, 1.123506e-004
3.870433e+003, -1.459008e-004
3.872361e+003, -8.400793e-004
3.874290e+003, -6.299611e-004
3.876218e+003, -7.111838e-004
3.878146e+003, -3.177202e-004
3.880075e+003, -1.154447e-004
3.882003e+003, -2.616439e-004
3.883932e+003, -3.913660e-004
3.885860e+003, -6.286799e-004
3.887789e+003, -4.206536e-004
3.889717e+003, -2.681925e-004
3.891646e+003, -2.017060e-004
3.893574e+003, -4.057861e-005
3.895503e+003, -4.536111e-004
3.897431e+003, -4.596684e-004
3.899360e+003, 1.356333e-004
3.901288e+003, -1.240179e-004
3.903217e+003, -3.288028e-004
3.905145e+003, -2.359803e-004
3.907073e+003, -4.254775e-004
3.909002e+003, -4.851549e-004
3.910930e+003, -1.158674e-003
3.912859e+003, -1.433537e-003
3.914787e+003, -8.023259e-004
3.916716e+003, -9.421306e-005
3.918644e+003, 1.926794e-004
3.920573e+003, 1.871694e-004
3.922501e+003, -1.835708e-004
3.924430e+003, -5.625512e-005
3.926358e+003, -1.105598e-004
3.928287e+003, -6.433919e-004
3.930215e+003, -6.956634e-004
3.932144e+003, -8.439744e-004
3.934072e+003, -8.957368e-004
3.936000e+003, -1.497965e-004
3.937929e+003, 4.426449e-005
3.939857e+003, -3.111852e-004
3.941786e+003, 2.101872e-005
3.943714e+003, 5.185480e-005
3.945643e+003, -5.378129e-004
3.947571e+003, -6.587750e-004
3.949500e+003, -8.062809e-004
3.951428e+003, -7.867827e-004
3.953357e+003, -3.536202e-004
3.955285e+003, -1.050344e-003
3.957214e+003, -1.556356e-003
3.959142e+003, -4.795638e-004
3.961071e+003, 7.583018e-005
3.962999e+003, -3.881679e-004
3.964927e+003, 6.904123e-005
3.966856e+003, 5.429774e-004
3.968784e+003, 2.514912e-004
3.970713e+003, -6.240247e-004
3.972641e+003, -1.601857e-003
3.974570e+003, -1.264993e-003
3.976498e+003, -1.938436e-005
3.978427e+003, 4.233134e-004
3.980355e+003, 3.016175e-005
3.982284e+003, -3.345097e-004
3.984212e+003, -4.231077e-004
3.986141e+003, -7.037616e-004
3.988069e+003, -9.257381e-004
3.989998e+003, -8.066150e-004
3.991926e+003, -6.334097e-004
3.993854e+003, -1.835030e-004
3.995783e+003, -3.010157e-004
3.997711e+003, 1.865346e-004
3.999640e+003, 6.796107e-004
4.001568e+003, 0.000000e+000
##END=



