##NAMES=Aurichalcite
##RRUFFID=R050297
##IDEAL CHEMISTRY=Zn^2+^_5_(CO_3_)_2_(OH)_6_
##LOCALITY=79 mine, 4th level, Hayden, Gila County, Arizona, USA
##OWNER=RRUFF
##SOURCE=George Godas, John Callahan
##DESCRIPTION=Sprays of greenish blue lathlike crystals
##STATUS=The identification of this mineral has been confirmed by X-ray diffraction and chemical analysis
##URL=rruff.info/R050297
##MEASURED CHEMISTRY=(Zn_0.68_Cu_0.32_)_5_(CO_3_)_2_(OH)_6_
3.991926e+002, 1.673156e-001
4.011211e+002, 1.769011e-001
4.030495e+002, 1.773114e-001
4.049780e+002, 1.749782e-001
4.069065e+002, 1.729574e-001
4.088349e+002, 1.648692e-001
4.107634e+002, 1.533675e-001
4.126919e+002, 1.468856e-001
4.146203e+002, 1.408560e-001
4.165488e+002, 1.326303e-001
4.184773e+002, 1.285956e-001
4.204057e+002, 1.292619e-001
4.223342e+002, 1.289116e-001
4.242627e+002, 1.302325e-001
4.261911e+002, 1.322944e-001
4.281196e+002, 1.328880e-001
4.300481e+002, 1.354175e-001
4.319765e+002, 1.387969e-001
4.339050e+002, 1.402176e-001
4.358335e+002, 1.396793e-001
4.377619e+002, 1.392604e-001
4.396904e+002, 1.393424e-001
4.416189e+002, 1.356720e-001
4.435473e+002, 1.311645e-001
4.454758e+002, 1.263772e-001
4.474043e+002, 1.212185e-001
4.493327e+002, 1.179760e-001
4.512612e+002, 1.158075e-001
4.531897e+002, 1.147364e-001
4.551181e+002, 1.175947e-001
4.570466e+002, 1.230997e-001
4.589751e+002, 1.264601e-001
4.609035e+002, 1.270184e-001
4.628320e+002, 1.262799e-001
4.647605e+002, 1.229469e-001
4.666889e+002, 1.199698e-001
4.686174e+002, 1.185621e-001
4.705459e+002, 1.176557e-001
4.724743e+002, 1.168287e-001
4.744028e+002, 1.151858e-001
4.763313e+002, 1.109257e-001
4.782597e+002, 1.056846e-001
4.801882e+002, 1.008710e-001
4.821167e+002, 9.634440e-002
4.840451e+002, 9.342291e-002
4.859736e+002, 9.318040e-002
4.879021e+002, 9.546102e-002
4.898305e+002, 9.977542e-002
4.917590e+002, 1.047006e-001
4.936875e+002, 1.094906e-001
4.956159e+002, 1.133755e-001
4.975444e+002, 1.166414e-001
4.994729e+002, 1.180777e-001
5.014013e+002, 1.177285e-001
5.033298e+002, 1.170135e-001
5.052583e+002, 1.149136e-001
5.071867e+002, 1.115383e-001
5.091152e+002, 1.081038e-001
5.110437e+002, 1.041100e-001
5.129721e+002, 1.001104e-001
5.149006e+002, 9.628407e-002
5.168290e+002, 9.201679e-002
5.187575e+002, 8.689642e-002
5.206860e+002, 8.169449e-002
5.226144e+002, 7.711957e-002
5.245429e+002, 7.383075e-002
5.264714e+002, 7.122967e-002
5.283998e+002, 6.970724e-002
5.303283e+002, 6.874523e-002
5.322568e+002, 6.795935e-002
5.341852e+002, 6.748039e-002
5.361137e+002, 6.530336e-002
5.380422e+002, 6.153942e-002
5.399706e+002, 5.737155e-002
5.418991e+002, 5.286177e-002
5.438276e+002, 4.819334e-002
5.457560e+002, 4.356575e-002
5.476845e+002, 3.960532e-002
5.496130e+002, 3.620154e-002
5.515414e+002, 3.339658e-002
5.534699e+002, 3.097327e-002
5.553984e+002, 2.923053e-002
5.573268e+002, 2.794502e-002
5.592553e+002, 2.653575e-002
5.611838e+002, 2.551060e-002
5.631122e+002, 2.509513e-002
5.650407e+002, 2.476593e-002
5.669692e+002, 2.431773e-002
5.688976e+002, 2.361086e-002
5.708261e+002, 2.292474e-002
5.727546e+002, 2.245386e-002
5.746830e+002, 2.233029e-002
5.766115e+002, 2.221522e-002
5.785400e+002, 2.210188e-002
5.804684e+002, 2.233171e-002
5.823969e+002, 2.243799e-002
5.843254e+002, 2.243341e-002
5.862538e+002, 2.257114e-002
5.881823e+002, 2.261344e-002
5.901108e+002, 2.273748e-002
5.920392e+002, 2.316876e-002
5.939677e+002, 2.348990e-002
5.958962e+002, 2.352121e-002
5.978246e+002, 2.376830e-002
5.997531e+002, 2.402239e-002
6.016816e+002, 2.431462e-002
6.036100e+002, 2.465194e-002
6.055385e+002, 2.480737e-002
6.074670e+002, 2.481903e-002
6.093954e+002, 2.505542e-002
6.113239e+002, 2.510088e-002
6.132524e+002, 2.490617e-002
6.151808e+002, 2.487182e-002
6.171093e+002, 2.491534e-002
6.190378e+002, 2.486859e-002
6.209662e+002, 2.465368e-002
6.228947e+002, 2.458229e-002
6.248232e+002, 2.476242e-002
6.267516e+002, 2.492252e-002
6.286801e+002, 2.496755e-002
6.306086e+002, 2.503674e-002
6.325370e+002, 2.525593e-002
6.344655e+002, 2.560384e-002
6.363940e+002, 2.601396e-002
6.383224e+002, 2.636522e-002
6.402509e+002, 2.676913e-002
6.421794e+002, 2.729448e-002
6.441078e+002, 2.776951e-002
6.460363e+002, 2.816802e-002
6.479648e+002, 2.854734e-002
6.498932e+002, 2.885720e-002
6.518217e+002, 2.926930e-002
6.537502e+002, 2.977349e-002
6.556786e+002, 3.036537e-002
6.576071e+002, 3.091568e-002
6.595356e+002, 3.158984e-002
6.614641e+002, 3.246315e-002
6.633925e+002, 3.316489e-002
6.653210e+002, 3.404271e-002
6.672495e+002, 3.511935e-002
6.691779e+002, 3.585797e-002
6.711064e+002, 3.650920e-002
6.730349e+002, 3.735501e-002
6.749633e+002, 3.826692e-002
6.768918e+002, 3.913052e-002
6.788203e+002, 3.999970e-002
6.807487e+002, 4.095123e-002
6.826772e+002, 4.197925e-002
6.846057e+002, 4.308782e-002
6.865341e+002, 4.414693e-002
6.884626e+002, 4.551648e-002
6.903911e+002, 4.741104e-002
6.923195e+002, 4.951532e-002
6.942480e+002, 5.238076e-002
6.961765e+002, 5.649009e-002
6.981049e+002, 6.211665e-002
7.000334e+002, 6.844701e-002
7.019619e+002, 7.213847e-002
7.038903e+002, 7.179531e-002
7.058188e+002, 7.086775e-002
7.077473e+002, 7.180582e-002
7.096757e+002, 7.442283e-002
7.116042e+002, 7.571616e-002
7.135327e+002, 7.293379e-002
7.154611e+002, 6.912689e-002
7.173896e+002, 6.857619e-002
7.193181e+002, 7.160654e-002
7.212465e+002, 7.699829e-002
7.231750e+002, 8.352056e-002
7.251035e+002, 9.073218e-002
7.270319e+002, 9.867203e-002
7.289604e+002, 1.068359e-001
7.308889e+002, 1.138999e-001
7.328173e+002, 1.188109e-001
7.347458e+002, 1.209370e-001
7.366743e+002, 1.201362e-001
7.386027e+002, 1.166355e-001
7.405312e+002, 1.105274e-001
7.424597e+002, 1.026021e-001
7.443881e+002, 9.443053e-002
7.463166e+002, 8.769277e-002
7.482451e+002, 8.333267e-002
7.501735e+002, 8.142351e-002
7.521020e+002, 8.155308e-002
7.540305e+002, 8.422628e-002
7.559589e+002, 8.900055e-002
7.578874e+002, 8.954590e-002
7.598159e+002, 8.292344e-002
7.617443e+002, 7.646742e-002
7.636728e+002, 7.407068e-002
7.656013e+002, 7.418196e-002
7.675297e+002, 7.519630e-002
7.694582e+002, 7.646311e-002
7.713867e+002, 7.785046e-002
7.733151e+002, 7.909114e-002
7.752436e+002, 8.026985e-002
7.771721e+002, 8.144929e-002
7.791005e+002, 8.260288e-002
7.810290e+002, 8.380175e-002
7.829575e+002, 8.475212e-002
7.848859e+002, 8.567318e-002
7.868144e+002, 8.666196e-002
7.887429e+002, 8.783267e-002
7.906713e+002, 8.908123e-002
7.925998e+002, 9.043832e-002
7.945283e+002, 9.216028e-002
7.964567e+002, 9.415345e-002
7.983852e+002, 9.630170e-002
8.003137e+002, 9.882182e-002
8.022421e+002, 1.015984e-001
8.041706e+002, 1.048924e-001
8.060991e+002, 1.087563e-001
8.080275e+002, 1.129162e-001
8.099560e+002, 1.174592e-001
8.118845e+002, 1.224604e-001
8.138129e+002, 1.278950e-001
8.157414e+002, 1.340948e-001
8.176699e+002, 1.410768e-001
8.195983e+002, 1.488752e-001
8.215268e+002, 1.580629e-001
8.234553e+002, 1.694413e-001
8.253837e+002, 1.838483e-001
8.273122e+002, 2.022920e-001
8.292407e+002, 2.239829e-001
8.311691e+002, 2.433025e-001
8.330976e+002, 2.501306e-001
8.350261e+002, 2.443374e-001
8.369545e+002, 2.392283e-001
8.388830e+002, 2.364421e-001
8.408115e+002, 2.231084e-001
8.427399e+002, 2.001223e-001
8.446684e+002, 1.783683e-001
8.465969e+002, 1.633430e-001
8.485253e+002, 1.549076e-001
8.504538e+002, 1.508010e-001
8.523823e+002, 1.489307e-001
8.543107e+002, 1.482071e-001
8.562392e+002, 1.480480e-001
8.581677e+002, 1.480454e-001
8.600961e+002, 1.476989e-001
8.620246e+002, 1.468374e-001
8.639531e+002, 1.454770e-001
8.658815e+002, 1.438089e-001
8.678100e+002, 1.414643e-001
8.697385e+002, 1.388780e-001
8.716669e+002, 1.360466e-001
8.735954e+002, 1.329526e-001
8.755239e+002, 1.298370e-001
8.774523e+002, 1.265025e-001
8.793808e+002, 1.228501e-001
8.813093e+002, 1.193467e-001
8.832377e+002, 1.159844e-001
8.851662e+002, 1.125832e-001
8.870947e+002, 1.092489e-001
8.890231e+002, 1.061064e-001
8.909516e+002, 1.029902e-001
8.928801e+002, 1.001131e-001
8.948085e+002, 9.739216e-002
8.967370e+002, 9.465486e-002
8.986655e+002, 9.223846e-002
9.005939e+002, 9.023082e-002
9.025224e+002, 8.841209e-002
9.044509e+002, 8.681379e-002
9.063793e+002, 8.554475e-002
9.083078e+002, 8.448750e-002
9.102363e+002, 8.379642e-002
9.121647e+002, 8.356671e-002
9.140932e+002, 8.368077e-002
9.160217e+002, 8.414927e-002
9.179501e+002, 8.481492e-002
9.198786e+002, 8.583233e-002
9.218071e+002, 8.708175e-002
9.237355e+002, 8.858862e-002
9.256640e+002, 9.039176e-002
9.275925e+002, 9.241198e-002
9.295209e+002, 9.429535e-002
9.314494e+002, 9.590672e-002
9.333779e+002, 9.730756e-002
9.353063e+002, 9.826995e-002
9.372348e+002, 9.881010e-002
9.391633e+002, 9.906939e-002
9.410917e+002, 9.909841e-002
9.430202e+002, 9.901917e-002
9.449487e+002, 9.894448e-002
9.468771e+002, 9.902284e-002
9.488056e+002, 9.918588e-002
9.507341e+002, 9.972613e-002
9.526625e+002, 1.009861e-001
9.545910e+002, 1.027347e-001
9.565195e+002, 1.048049e-001
9.584479e+002, 1.072518e-001
9.603764e+002, 1.101273e-001
9.623049e+002, 1.131748e-001
9.642333e+002, 1.160371e-001
9.661618e+002, 1.188198e-001
9.680903e+002, 1.213070e-001
9.700187e+002, 1.231638e-001
9.719472e+002, 1.245529e-001
9.738757e+002, 1.256192e-001
9.758041e+002, 1.262540e-001
9.777326e+002, 1.262064e-001
9.796611e+002, 1.254229e-001
9.815895e+002, 1.237243e-001
9.835180e+002, 1.211722e-001
9.854465e+002, 1.178577e-001
9.873749e+002, 1.140073e-001
9.893034e+002, 1.099278e-001
9.912319e+002, 1.057430e-001
9.931603e+002, 1.015394e-001
9.950888e+002, 9.744821e-002
9.970173e+002, 9.376389e-002
9.989457e+002, 9.036653e-002
1.000874e+003, 8.707929e-002
1.002803e+003, 8.411789e-002
1.004731e+003, 8.159718e-002
1.006660e+003, 7.946046e-002
1.008588e+003, 7.794171e-002
1.010517e+003, 7.685056e-002
1.012445e+003, 7.621589e-002
1.014373e+003, 7.617164e-002
1.016302e+003, 7.638278e-002
1.018230e+003, 7.677881e-002
1.020159e+003, 7.755595e-002
1.022087e+003, 7.860950e-002
1.024016e+003, 7.967561e-002
1.025944e+003, 8.060162e-002
1.027873e+003, 8.129942e-002
1.029801e+003, 8.178449e-002
1.031730e+003, 8.220912e-002
1.033658e+003, 8.246820e-002
1.035587e+003, 8.278047e-002
1.037515e+003, 8.298401e-002
1.039443e+003, 8.325391e-002
1.041372e+003, 8.343982e-002
1.043300e+003, 8.371122e-002
1.045229e+003, 8.406497e-002
1.047157e+003, 8.416872e-002
1.049086e+003, 8.428161e-002
1.051014e+003, 8.488736e-002
1.052943e+003, 8.599513e-002
1.054871e+003, 8.791847e-002
1.056800e+003, 9.059931e-002
1.058728e+003, 9.355704e-002
1.060657e+003, 9.497270e-002
1.062585e+003, 9.388272e-002
1.064514e+003, 9.276205e-002
1.066442e+003, 9.359284e-002
1.068370e+003, 9.281222e-002
1.070299e+003, 8.584397e-002
1.072227e+003, 7.369497e-002
1.074156e+003, 6.195840e-002
1.076084e+003, 5.465311e-002
1.078013e+003, 5.128535e-002
1.079941e+003, 4.994628e-002
1.081870e+003, 4.968187e-002
1.083798e+003, 4.983227e-002
1.085727e+003, 5.006837e-002
1.087655e+003, 5.023558e-002
1.089584e+003, 5.026162e-002
1.091512e+003, 5.009095e-002
1.093441e+003, 5.002505e-002
1.095369e+003, 4.998869e-002
1.097297e+003, 4.989854e-002
1.099226e+003, 4.998352e-002
1.101154e+003, 5.028655e-002
1.103083e+003, 5.055078e-002
1.105011e+003, 5.082346e-002
1.106940e+003, 5.111616e-002
1.108868e+003, 5.132508e-002
1.110797e+003, 5.149399e-002
1.112725e+003, 5.166523e-002
1.114654e+003, 5.168708e-002
1.116582e+003, 5.184258e-002
1.118511e+003, 5.230914e-002
1.120439e+003, 5.291422e-002
1.122368e+003, 5.357120e-002
1.124296e+003, 5.434031e-002
1.126224e+003, 5.515687e-002
1.128153e+003, 5.622203e-002
1.130081e+003, 5.726773e-002
1.132010e+003, 5.833109e-002
1.133938e+003, 5.956427e-002
1.135867e+003, 6.090058e-002
1.137795e+003, 6.224398e-002
1.139724e+003, 6.371783e-002
1.141652e+003, 6.507000e-002
1.143581e+003, 6.633960e-002
1.145509e+003, 6.767236e-002
1.147438e+003, 6.900845e-002
1.149366e+003, 7.029828e-002
1.151295e+003, 7.148696e-002
1.153223e+003, 7.265492e-002
1.155151e+003, 7.374985e-002
1.157080e+003, 7.475902e-002
1.159008e+003, 7.577160e-002
1.160937e+003, 7.645743e-002
1.162865e+003, 7.693301e-002
1.164794e+003, 7.742505e-002
1.166722e+003, 7.784770e-002
1.168651e+003, 7.821930e-002
1.170579e+003, 7.847016e-002
1.172508e+003, 7.867306e-002
1.174436e+003, 7.898351e-002
1.176365e+003, 7.928383e-002
1.178293e+003, 7.957022e-002
1.180222e+003, 7.976089e-002
1.182150e+003, 7.992527e-002
1.184078e+003, 7.999844e-002
1.186007e+003, 8.010941e-002
1.187935e+003, 8.042429e-002
1.189864e+003, 8.073033e-002
1.191792e+003, 8.097129e-002
1.193721e+003, 8.152886e-002
1.195649e+003, 8.217356e-002
1.197578e+003, 8.289147e-002
1.199506e+003, 8.362586e-002
1.201435e+003, 8.437273e-002
1.203363e+003, 8.509301e-002
1.205292e+003, 8.559426e-002
1.207220e+003, 8.567771e-002
1.209149e+003, 8.523079e-002
1.211077e+003, 8.417206e-002
1.213005e+003, 8.216754e-002
1.214934e+003, 7.935528e-002
1.216862e+003, 7.590738e-002
1.218791e+003, 7.196096e-002
1.220719e+003, 6.766454e-002
1.222648e+003, 6.323569e-002
1.224576e+003, 5.904456e-002
1.226505e+003, 5.528401e-002
1.228433e+003, 5.212752e-002
1.230362e+003, 4.949272e-002
1.232290e+003, 4.742475e-002
1.234219e+003, 4.594417e-002
1.236147e+003, 4.483882e-002
1.238076e+003, 4.412984e-002
1.240004e+003, 4.373163e-002
1.241932e+003, 4.358176e-002
1.243861e+003, 4.370797e-002
1.245789e+003, 4.404085e-002
1.247718e+003, 4.446976e-002
1.249646e+003, 4.512942e-002
1.251575e+003, 4.606773e-002
1.253503e+003, 4.712548e-002
1.255432e+003, 4.821742e-002
1.257360e+003, 4.928650e-002
1.259289e+003, 5.053140e-002
1.261217e+003, 5.203196e-002
1.263146e+003, 5.364279e-002
1.265074e+003, 5.534191e-002
1.267003e+003, 5.714482e-002
1.268931e+003, 5.894487e-002
1.270859e+003, 6.086564e-002
1.272788e+003, 6.282368e-002
1.274716e+003, 6.496893e-002
1.276645e+003, 6.728067e-002
1.278573e+003, 6.950676e-002
1.280502e+003, 7.178591e-002
1.282430e+003, 7.440346e-002
1.284359e+003, 7.691985e-002
1.286287e+003, 7.930262e-002
1.288216e+003, 8.167694e-002
1.290144e+003, 8.403289e-002
1.292073e+003, 8.648282e-002
1.294001e+003, 8.914314e-002
1.295930e+003, 9.195535e-002
1.297858e+003, 9.487922e-002
1.299786e+003, 9.782562e-002
1.301715e+003, 1.010847e-001
1.303643e+003, 1.047447e-001
1.305572e+003, 1.088802e-001
1.307500e+003, 1.133774e-001
1.309429e+003, 1.182358e-001
1.311357e+003, 1.235373e-001
1.313286e+003, 1.292659e-001
1.315214e+003, 1.352562e-001
1.317143e+003, 1.416325e-001
1.319071e+003, 1.480976e-001
1.321000e+003, 1.546601e-001
1.322928e+003, 1.613860e-001
1.324857e+003, 1.680219e-001
1.326785e+003, 1.745047e-001
1.328714e+003, 1.815675e-001
1.330642e+003, 1.892284e-001
1.332570e+003, 1.974370e-001
1.334499e+003, 2.061217e-001
1.336427e+003, 2.144631e-001
1.338356e+003, 2.219031e-001
1.340284e+003, 2.284441e-001
1.342213e+003, 2.342116e-001
1.344141e+003, 2.395297e-001
1.346070e+003, 2.447992e-001
1.347998e+003, 2.505182e-001
1.349927e+003, 2.569194e-001
1.351855e+003, 2.631220e-001
1.353784e+003, 2.686001e-001
1.355712e+003, 2.726742e-001
1.357641e+003, 2.744155e-001
1.359569e+003, 2.734015e-001
1.361497e+003, 2.690302e-001
1.363426e+003, 2.609381e-001
1.365354e+003, 2.494308e-001
1.367283e+003, 2.351443e-001
1.369211e+003, 2.186008e-001
1.371140e+003, 2.009285e-001
1.373068e+003, 1.836599e-001
1.374997e+003, 1.683250e-001
1.376925e+003, 1.562438e-001
1.378854e+003, 1.487383e-001
1.380782e+003, 1.457385e-001
1.382711e+003, 1.469666e-001
1.384639e+003, 1.515532e-001
1.386568e+003, 1.586842e-001
1.388496e+003, 1.675179e-001
1.390424e+003, 1.774073e-001
1.392353e+003, 1.880154e-001
1.394281e+003, 1.987763e-001
1.396210e+003, 2.091202e-001
1.398138e+003, 2.187835e-001
1.400067e+003, 2.273941e-001
1.401995e+003, 2.346287e-001
1.403924e+003, 2.401852e-001
1.405852e+003, 2.435699e-001
1.407781e+003, 2.443728e-001
1.409709e+003, 2.424078e-001
1.411638e+003, 2.375467e-001
1.413566e+003, 2.302176e-001
1.415495e+003, 2.207156e-001
1.417423e+003, 2.091458e-001
1.419351e+003, 1.958493e-001
1.421280e+003, 1.810477e-001
1.423208e+003, 1.652256e-001
1.425137e+003, 1.486681e-001
1.427065e+003, 1.316268e-001
1.428994e+003, 1.151335e-001
1.430922e+003, 9.978424e-002
1.432851e+003, 8.650558e-002
1.434779e+003, 7.601441e-002
1.436708e+003, 6.827155e-002
1.438636e+003, 6.281447e-002
1.440565e+003, 5.968955e-002
1.442493e+003, 5.853740e-002
1.444422e+003, 5.890747e-002
1.446350e+003, 6.034226e-002
1.448278e+003, 6.270031e-002
1.450207e+003, 6.585994e-002
1.452135e+003, 6.965290e-002
1.454064e+003, 7.372854e-002
1.455992e+003, 7.805485e-002
1.457921e+003, 8.165735e-002
1.459849e+003, 8.481614e-002
1.461778e+003, 8.844009e-002
1.463706e+003, 9.264630e-002
1.465635e+003, 9.759489e-002
1.467563e+003, 1.034223e-001
1.469492e+003, 1.101924e-001
1.471420e+003, 1.179451e-001
1.473349e+003, 1.262328e-001
1.475277e+003, 1.346130e-001
1.477205e+003, 1.431063e-001
1.479134e+003, 1.515972e-001
1.481062e+003, 1.602306e-001
1.482991e+003, 1.690257e-001
1.484919e+003, 1.780180e-001
1.486848e+003, 1.870854e-001
1.488776e+003, 1.959122e-001
1.490705e+003, 2.038158e-001
1.492633e+003, 2.101954e-001
1.494562e+003, 2.148827e-001
1.496490e+003, 2.172684e-001
1.498419e+003, 2.175705e-001
1.500347e+003, 2.165444e-001
1.502276e+003, 2.147685e-001
1.504204e+003, 2.124413e-001
1.506132e+003, 2.086352e-001
1.508061e+003, 2.019920e-001
1.509989e+003, 1.926600e-001
1.511918e+003, 1.811788e-001
1.513846e+003, 1.677760e-001
1.515775e+003, 1.528970e-001
1.517703e+003, 1.375062e-001
1.519632e+003, 1.231471e-001
1.521560e+003, 1.104454e-001
1.523489e+003, 9.987891e-002
1.525417e+003, 9.233366e-002
1.527346e+003, 8.774240e-002
1.529274e+003, 8.582596e-002
1.531203e+003, 8.641742e-002
1.533131e+003, 8.927103e-002
1.535059e+003, 9.373266e-002
1.536988e+003, 9.977916e-002
1.538916e+003, 1.075091e-001
1.540845e+003, 1.153427e-001
1.542773e+003, 1.227728e-001
1.544702e+003, 1.299438e-001
1.546630e+003, 1.360294e-001
1.548559e+003, 1.406896e-001
1.550487e+003, 1.435589e-001
1.552416e+003, 1.448311e-001
1.554344e+003, 1.446843e-001
1.556273e+003, 1.433554e-001
1.558201e+003, 1.414739e-001
1.560130e+003, 1.381330e-001
1.562058e+003, 1.335827e-001
1.563986e+003, 1.289576e-001
1.565915e+003, 1.239805e-001
1.567843e+003, 1.185127e-001
1.569772e+003, 1.123162e-001
1.571700e+003, 1.052069e-001
1.573629e+003, 9.745540e-002
1.575557e+003, 8.938736e-002
1.577486e+003, 8.040662e-002
1.579414e+003, 7.126564e-002
1.581343e+003, 6.265994e-002
1.583271e+003, 5.462008e-002
1.585200e+003, 4.752249e-002
1.587128e+003, 4.155585e-002
1.589057e+003, 3.678808e-002
1.590985e+003, 3.310799e-002
1.592913e+003, 3.037422e-002
1.594842e+003, 2.836635e-002
1.596770e+003, 2.684187e-002
1.598699e+003, 2.549498e-002
1.600627e+003, 2.407837e-002
1.602556e+003, 2.255723e-002
1.604484e+003, 2.105576e-002
1.606413e+003, 1.968151e-002
1.608341e+003, 1.840821e-002
1.610270e+003, 1.715940e-002
1.612198e+003, 1.611765e-002
1.614127e+003, 1.530949e-002
1.616055e+003, 1.483228e-002
1.617984e+003, 1.415345e-002
1.619912e+003, 1.325577e-002
1.621840e+003, 1.283694e-002
1.623769e+003, 1.251083e-002
1.625697e+003, 1.215755e-002
1.627626e+003, 1.187054e-002
1.629554e+003, 1.166440e-002
1.631483e+003, 1.142507e-002
1.633411e+003, 1.132528e-002
1.635340e+003, 1.135869e-002
1.637268e+003, 1.079281e-002
1.639197e+003, 1.020724e-002
1.641125e+003, 1.002334e-002
1.643054e+003, 9.941702e-003
1.644982e+003, 1.009349e-002
1.646911e+003, 1.022106e-002
1.648839e+003, 9.842766e-003
1.650767e+003, 9.987324e-003
1.652696e+003, 1.079482e-002
1.654624e+003, 1.021494e-002
1.656553e+003, 9.484979e-003
1.658481e+003, 9.561727e-003
1.660410e+003, 9.694171e-003
1.662338e+003, 9.831942e-003
1.664267e+003, 9.899921e-003
1.666195e+003, 9.852178e-003
1.668124e+003, 1.017876e-002
1.670052e+003, 1.032000e-002
1.671981e+003, 1.015718e-002
1.673909e+003, 1.046171e-002
1.675838e+003, 1.078794e-002
1.677766e+003, 1.071025e-002
1.679694e+003, 1.080909e-002
1.681623e+003, 1.082286e-002
1.683551e+003, 1.119153e-002
1.685480e+003, 1.105743e-002
1.687408e+003, 1.053218e-002
1.689337e+003, 1.046932e-002
1.691265e+003, 1.037953e-002
1.693194e+003, 1.018075e-002
1.695122e+003, 1.055030e-002
1.697051e+003, 1.058814e-002
1.698979e+003, 1.076335e-002
1.700908e+003, 1.084031e-002
1.702836e+003, 1.016945e-002
1.704765e+003, 1.002310e-002
1.706693e+003, 9.937912e-003
1.708621e+003, 9.819306e-003
1.710550e+003, 9.829472e-003
1.712478e+003, 9.913348e-003
1.714407e+003, 1.010933e-002
1.716335e+003, 1.056229e-002
1.718264e+003, 1.059165e-002
1.720192e+003, 1.012409e-002
1.722121e+003, 9.816405e-003
1.724049e+003, 9.613679e-003
1.725978e+003, 9.482697e-003
1.727906e+003, 9.550174e-003
1.729835e+003, 9.604604e-003
1.731763e+003, 9.778120e-003
1.733692e+003, 1.012569e-002
1.735620e+003, 9.674472e-003
1.737548e+003, 9.330396e-003
1.739477e+003, 9.424084e-003
1.741405e+003, 9.244735e-003
1.743334e+003, 9.070977e-003
1.745262e+003, 9.070068e-003
1.747191e+003, 9.378714e-003
1.749119e+003, 9.694597e-003
1.751048e+003, 9.925331e-003
1.752976e+003, 1.006267e-002
1.754905e+003, 1.031129e-002
1.756833e+003, 1.076239e-002
1.758762e+003, 1.106954e-002
1.760690e+003, 1.168163e-002
1.762619e+003, 1.225224e-002
1.764547e+003, 1.267848e-002
1.766475e+003, 1.331681e-002
1.768404e+003, 1.400380e-002
1.770332e+003, 1.459761e-002
1.772261e+003, 1.483426e-002
1.774189e+003, 1.440753e-002
1.776118e+003, 1.385905e-002
1.778046e+003, 1.338899e-002
1.779975e+003, 1.301415e-002
1.781903e+003, 1.258423e-002
1.783832e+003, 1.239182e-002
1.785760e+003, 1.231414e-002
1.787689e+003, 1.205926e-002
1.789617e+003, 1.176572e-002
1.791546e+003, 1.181329e-002
1.793474e+003, 1.192774e-002
1.795402e+003, 1.205649e-002
1.797331e+003, 1.213791e-002
1.799259e+003, 1.208615e-002
1.801188e+003, 1.206110e-002
1.803116e+003, 1.209488e-002
1.805045e+003, 1.214080e-002
1.806973e+003, 1.231444e-002
1.808902e+003, 1.251330e-002
1.810830e+003, 1.281481e-002
1.812759e+003, 1.280031e-002
1.814687e+003, 1.292266e-002
1.816616e+003, 1.321423e-002
1.818544e+003, 1.330510e-002
1.820473e+003, 1.336589e-002
1.822401e+003, 1.323200e-002
1.824329e+003, 1.305744e-002
1.826258e+003, 1.272873e-002
1.828186e+003, 1.242289e-002
1.830115e+003, 1.219525e-002
1.832043e+003, 1.194136e-002
1.833972e+003, 1.191581e-002
1.835900e+003, 1.172985e-002
1.837829e+003, 1.171863e-002
1.839757e+003, 1.183318e-002
1.841686e+003, 1.187699e-002
1.843614e+003, 1.193797e-002
1.845543e+003, 1.172344e-002
1.847471e+003, 1.155750e-002
1.849400e+003, 1.175397e-002
1.851328e+003, 1.198941e-002
1.853256e+003, 1.209453e-002
1.855185e+003, 1.200797e-002
1.857113e+003, 1.198866e-002
1.859042e+003, 1.199736e-002
1.860970e+003, 1.220165e-002
1.862899e+003, 1.213396e-002
1.864827e+003, 1.193737e-002
1.866756e+003, 1.214602e-002
1.868684e+003, 1.263123e-002
1.870613e+003, 1.246688e-002
1.872541e+003, 1.233408e-002
1.874470e+003, 1.248085e-002
1.876398e+003, 1.229119e-002
1.878327e+003, 1.233927e-002
1.880255e+003, 1.252627e-002
1.882183e+003, 1.269321e-002
1.884112e+003, 1.282187e-002
1.886040e+003, 1.278580e-002
1.887969e+003, 1.259462e-002
1.889897e+003, 1.276876e-002
1.891826e+003, 1.313560e-002
1.893754e+003, 1.335056e-002
1.895683e+003, 1.360818e-002
1.897611e+003, 1.377386e-002
1.899540e+003, 1.370159e-002
1.901468e+003, 1.396549e-002
1.903397e+003, 1.429434e-002
1.905325e+003, 1.403164e-002
1.907254e+003, 1.422532e-002
1.909182e+003, 1.449826e-002
1.911110e+003, 1.475407e-002
1.913039e+003, 1.491712e-002
1.914967e+003, 1.504024e-002
1.916896e+003, 1.519451e-002
1.918824e+003, 1.538995e-002
1.920753e+003, 1.513687e-002
1.922681e+003, 1.531012e-002
1.924610e+003, 1.547721e-002
1.926538e+003, 1.549506e-002
1.928467e+003, 1.545127e-002
1.930395e+003, 1.535102e-002
1.932324e+003, 1.512616e-002
1.934252e+003, 1.479495e-002
1.936181e+003, 1.470322e-002
1.938109e+003, 1.506344e-002
1.940037e+003, 1.535176e-002
1.941966e+003, 1.571766e-002
1.943894e+003, 1.566831e-002
1.945823e+003, 1.553983e-002
1.947751e+003, 1.543639e-002
1.949680e+003, 1.501060e-002
1.951608e+003, 1.439854e-002
1.953537e+003, 1.405929e-002
1.955465e+003, 1.389592e-002
1.957394e+003, 1.339674e-002
1.959322e+003, 1.330594e-002
1.961251e+003, 1.321673e-002
1.963179e+003, 1.321677e-002
1.965108e+003, 1.382241e-002
1.967036e+003, 1.453198e-002
1.968964e+003, 1.433298e-002
1.970893e+003, 1.388103e-002
1.972821e+003, 1.392836e-002
1.974750e+003, 1.338160e-002
1.976678e+003, 1.332967e-002
1.978607e+003, 1.445770e-002
1.980535e+003, 1.490796e-002
1.982464e+003, 1.518371e-002
1.984392e+003, 1.491110e-002
1.986321e+003, 1.450885e-002
1.988249e+003, 1.443993e-002
1.990178e+003, 1.462347e-002
1.992106e+003, 1.539140e-002
1.994035e+003, 1.585441e-002
1.995963e+003, 1.511191e-002
1.997891e+003, 1.486384e-002
1.999820e+003, 1.522081e-002
2.001748e+003, 1.511447e-002
2.003677e+003, 1.430810e-002
2.005605e+003, 1.338416e-002
2.007534e+003, 1.403742e-002
2.009462e+003, 1.443849e-002
2.011391e+003, 1.407244e-002
2.013319e+003, 1.426486e-002
2.015248e+003, 1.443906e-002
2.017176e+003, 1.451213e-002
2.019105e+003, 1.461001e-002
2.021033e+003, 1.488056e-002
2.022962e+003, 1.493294e-002
2.024890e+003, 1.569264e-002
2.026818e+003, 1.654177e-002
2.028747e+003, 1.691156e-002
2.030675e+003, 1.607063e-002
2.032604e+003, 1.586103e-002
2.034532e+003, 1.725450e-002
2.036461e+003, 1.741888e-002
2.038389e+003, 1.793457e-002
2.040318e+003, 1.834299e-002
2.042246e+003, 1.847584e-002
2.044175e+003, 1.913987e-002
2.046103e+003, 1.905527e-002
2.048031e+003, 1.894733e-002
2.049960e+003, 1.989918e-002
2.051888e+003, 2.057661e-002
2.053817e+003, 2.050779e-002
2.055745e+003, 2.031623e-002
2.057674e+003, 2.031708e-002
2.059602e+003, 2.110592e-002
2.061531e+003, 2.153345e-002
2.063459e+003, 2.155366e-002
2.065388e+003, 2.206576e-002
2.067316e+003, 2.239061e-002
2.069245e+003, 2.232589e-002
2.071173e+003, 2.268016e-002
2.073102e+003, 2.331139e-002
2.075030e+003, 2.346884e-002
2.076958e+003, 2.360897e-002
2.078887e+003, 2.410511e-002
2.080815e+003, 2.461996e-002
2.082744e+003, 2.513287e-002
2.084672e+003, 2.481176e-002
2.086601e+003, 2.458945e-002
2.088529e+003, 2.546968e-002
2.090458e+003, 2.545594e-002
2.092386e+003, 2.457585e-002
2.094315e+003, 2.457369e-002
2.096243e+003, 2.526698e-002
2.098172e+003, 2.580158e-002
2.100100e+003, 2.594019e-002
2.102029e+003, 2.618489e-002
2.103957e+003, 2.609435e-002
2.105885e+003, 2.603771e-002
2.107814e+003, 2.663206e-002
2.109742e+003, 2.690418e-002
2.111671e+003, 2.671141e-002
2.113599e+003, 2.663927e-002
2.115528e+003, 2.671510e-002
2.117456e+003, 2.664462e-002
2.119385e+003, 2.622362e-002
2.121313e+003, 2.579047e-002
2.123242e+003, 2.604699e-002
2.125170e+003, 2.599915e-002
2.127099e+003, 2.544530e-002
2.129027e+003, 2.466708e-002
2.130956e+003, 2.419927e-002
2.132884e+003, 2.392039e-002
2.134813e+003, 2.359810e-002
2.136741e+003, 2.327502e-002
2.138669e+003, 2.308562e-002
2.140598e+003, 2.303293e-002
2.142526e+003, 2.222045e-002
2.144455e+003, 2.121821e-002
2.146383e+003, 2.127709e-002
2.148312e+003, 2.145083e-002
2.150240e+003, 2.148583e-002
2.152169e+003, 2.031915e-002
2.154097e+003, 1.934513e-002
2.156026e+003, 1.929908e-002
2.157954e+003, 1.989475e-002
2.159883e+003, 2.045093e-002
2.161811e+003, 2.031722e-002
2.163740e+003, 2.068677e-002
2.165668e+003, 2.160563e-002
2.167596e+003, 2.149384e-002
2.169525e+003, 2.061842e-002
2.171453e+003, 1.943365e-002
2.173382e+003, 1.973375e-002
2.175310e+003, 1.956706e-002
2.177239e+003, 1.947629e-002
2.179167e+003, 1.950313e-002
2.181096e+003, 1.904186e-002
2.183024e+003, 1.892343e-002
2.184953e+003, 1.954352e-002
2.186881e+003, 2.013442e-002
2.188810e+003, 2.017818e-002
2.190738e+003, 2.069338e-002
2.192667e+003, 2.060067e-002
2.194595e+003, 1.995354e-002
2.196523e+003, 1.991890e-002
2.198452e+003, 2.030621e-002
2.200380e+003, 2.075890e-002
2.202309e+003, 2.022317e-002
2.204237e+003, 1.958712e-002
2.206166e+003, 1.964171e-002
2.208094e+003, 2.004908e-002
2.210023e+003, 2.005425e-002
2.211951e+003, 1.960241e-002
2.213880e+003, 1.917668e-002
2.215808e+003, 1.939863e-002
2.217737e+003, 1.952101e-002
2.219665e+003, 1.965290e-002
2.221594e+003, 1.952560e-002
2.223522e+003, 1.962104e-002
2.225450e+003, 2.040306e-002
2.227379e+003, 2.110035e-002
2.229307e+003, 2.115380e-002
2.231236e+003, 2.081551e-002
2.233164e+003, 2.100551e-002
2.235093e+003, 2.165040e-002
2.237021e+003, 2.122980e-002
2.238950e+003, 2.095539e-002
2.240878e+003, 2.118847e-002
2.242807e+003, 2.112605e-002
2.244735e+003, 2.182282e-002
2.246664e+003, 2.211810e-002
2.248592e+003, 2.118253e-002
2.250521e+003, 2.086271e-002
2.252449e+003, 2.103392e-002
2.254377e+003, 2.099355e-002
2.256306e+003, 2.129622e-002
2.258234e+003, 2.173585e-002
2.260163e+003, 2.196461e-002
2.262091e+003, 2.200006e-002
2.264020e+003, 2.216835e-002
2.265948e+003, 2.238307e-002
2.267877e+003, 2.281309e-002
2.269805e+003, 2.309360e-002
2.271734e+003, 2.322673e-002
2.273662e+003, 2.351058e-002
2.275591e+003, 2.375841e-002
2.277519e+003, 2.404751e-002
2.279448e+003, 2.413373e-002
2.281376e+003, 2.397718e-002
2.283304e+003, 2.420519e-002
2.285233e+003, 2.521229e-002
2.287161e+003, 2.508332e-002
2.289090e+003, 2.475558e-002
2.291018e+003, 2.475394e-002
2.292947e+003, 2.499912e-002
2.294875e+003, 2.491973e-002
2.296804e+003, 2.491726e-002
2.298732e+003, 2.516530e-002
2.300661e+003, 2.489994e-002
2.302589e+003, 2.518163e-002
2.304518e+003, 2.582364e-002
2.306446e+003, 2.592484e-002
2.308375e+003, 2.566713e-002
2.310303e+003, 2.570868e-002
2.312231e+003, 2.622034e-002
2.314160e+003, 2.644143e-002
2.316088e+003, 2.660861e-002
2.318017e+003, 2.684025e-002
2.319945e+003, 2.747009e-002
2.321874e+003, 2.794359e-002
2.323802e+003, 2.830978e-002
2.325731e+003, 2.808342e-002
2.327659e+003, 2.757688e-002
2.329588e+003, 2.753810e-002
2.331516e+003, 2.762806e-002
2.333445e+003, 2.741512e-002
2.335373e+003, 2.731169e-002
2.337302e+003, 2.728571e-002
2.339230e+003, 2.739581e-002
2.341158e+003, 2.748885e-002
2.343087e+003, 2.700225e-002
2.345015e+003, 2.651411e-002
2.346944e+003, 2.630081e-002
2.348872e+003, 2.606681e-002
2.350801e+003, 2.601717e-002
2.352729e+003, 2.625102e-002
2.354658e+003, 2.638869e-002
2.356586e+003, 2.643835e-002
2.358515e+003, 2.696203e-002
2.360443e+003, 2.716797e-002
2.362372e+003, 2.702083e-002
2.364300e+003, 2.696624e-002
2.366229e+003, 2.668524e-002
2.368157e+003, 2.622649e-002
2.370085e+003, 2.570929e-002
2.372014e+003, 2.530918e-002
2.373942e+003, 2.502845e-002
2.375871e+003, 2.467711e-002
2.377799e+003, 2.428851e-002
2.379728e+003, 2.392087e-002
2.381656e+003, 2.386701e-002
2.383585e+003, 2.397460e-002
2.385513e+003, 2.387428e-002
2.387442e+003, 2.374909e-002
2.389370e+003, 2.380035e-002
2.391299e+003, 2.381640e-002
2.393227e+003, 2.392551e-002
2.395156e+003, 2.390135e-002
2.397084e+003, 2.390523e-002
2.399012e+003, 2.402068e-002
2.400941e+003, 2.428571e-002
2.402869e+003, 2.442176e-002
2.404798e+003, 2.425443e-002
2.406726e+003, 2.411171e-002
2.408655e+003, 2.440638e-002
2.410583e+003, 2.456312e-002
2.412512e+003, 2.434115e-002
2.414440e+003, 2.435814e-002
2.416369e+003, 2.480987e-002
2.418297e+003, 2.512351e-002
2.420226e+003, 2.511021e-002
2.422154e+003, 2.503281e-002
2.424083e+003, 2.520978e-002
2.426011e+003, 2.512141e-002
2.427939e+003, 2.535413e-002
2.429868e+003, 2.579198e-002
2.431796e+003, 2.585027e-002
2.433725e+003, 2.563387e-002
2.435653e+003, 2.563666e-002
2.437582e+003, 2.548270e-002
2.439510e+003, 2.548150e-002
2.441439e+003, 2.556852e-002
2.443367e+003, 2.538206e-002
2.445296e+003, 2.551944e-002
2.447224e+003, 2.577822e-002
2.449153e+003, 2.589756e-002
2.451081e+003, 2.584164e-002
2.453010e+003, 2.573582e-002
2.454938e+003, 2.570631e-002
2.456866e+003, 2.568923e-002
2.458795e+003, 2.594793e-002
2.460723e+003, 2.587932e-002
2.462652e+003, 2.575966e-002
2.464580e+003, 2.563596e-002
2.466509e+003, 2.534443e-002
2.468437e+003, 2.570356e-002
2.470366e+003, 2.589871e-002
2.472294e+003, 2.572124e-002
2.474223e+003, 2.568756e-002
2.476151e+003, 2.595701e-002
2.478080e+003, 2.616045e-002
2.480008e+003, 2.653136e-002
2.481937e+003, 2.668012e-002
2.483865e+003, 2.640739e-002
2.485793e+003, 2.621268e-002
2.487722e+003, 2.613623e-002
2.489650e+003, 2.638107e-002
2.491579e+003, 2.668214e-002
2.493507e+003, 2.702946e-002
2.495436e+003, 2.736925e-002
2.497364e+003, 2.775181e-002
2.499293e+003, 2.788573e-002
2.501221e+003, 2.787536e-002
2.503150e+003, 2.807021e-002
2.505078e+003, 2.807590e-002
2.507007e+003, 2.844509e-002
2.508935e+003, 2.823703e-002
2.510864e+003, 2.804624e-002
2.512792e+003, 2.851886e-002
2.514720e+003, 2.884056e-002
2.516649e+003, 2.874231e-002
2.518577e+003, 2.873992e-002
2.520506e+003, 2.880479e-002
2.522434e+003, 2.887291e-002
2.524363e+003, 2.874720e-002
2.526291e+003, 2.895186e-002
2.528220e+003, 2.944798e-002
2.530148e+003, 2.948500e-002
2.532077e+003, 2.966734e-002
2.534005e+003, 3.017775e-002
2.535934e+003, 3.050665e-002
2.537862e+003, 3.052311e-002
2.539791e+003, 3.032510e-002
2.541719e+003, 3.020773e-002
2.543647e+003, 3.045077e-002
2.545576e+003, 3.046865e-002
2.547504e+003, 3.065513e-002
2.549433e+003, 3.098773e-002
2.551361e+003, 3.116957e-002
2.553290e+003, 3.130591e-002
2.555218e+003, 3.081655e-002
2.557147e+003, 3.071445e-002
2.559075e+003, 3.098504e-002
2.561004e+003, 3.054934e-002
2.562932e+003, 3.041987e-002
2.564861e+003, 3.085734e-002
2.566789e+003, 3.076636e-002
2.568718e+003, 3.073164e-002
2.570646e+003, 3.061744e-002
2.572574e+003, 3.026839e-002
2.574503e+003, 3.015672e-002
2.576431e+003, 3.015590e-002
2.578360e+003, 3.035147e-002
2.580288e+003, 3.045604e-002
2.582217e+003, 3.022686e-002
2.584145e+003, 3.016174e-002
2.586074e+003, 3.033099e-002
2.588002e+003, 3.044295e-002
2.589931e+003, 3.056800e-002
2.591859e+003, 3.105547e-002
2.593788e+003, 3.134038e-002
2.595716e+003, 3.118435e-002
2.597645e+003, 3.106082e-002
2.599573e+003, 3.127806e-002
2.601501e+003, 3.125510e-002
2.603430e+003, 3.119438e-002
2.605358e+003, 3.130374e-002
2.607287e+003, 3.161790e-002
2.609215e+003, 3.193177e-002
2.611144e+003, 3.198660e-002
2.613072e+003, 3.197817e-002
2.615001e+003, 3.221782e-002
2.616929e+003, 3.258935e-002
2.618858e+003, 3.301474e-002
2.620786e+003, 3.309323e-002
2.622715e+003, 3.273509e-002
2.624643e+003, 3.299027e-002
2.626572e+003, 3.328249e-002
2.628500e+003, 3.320767e-002
2.630428e+003, 3.357458e-002
2.632357e+003, 3.398613e-002
2.634285e+003, 3.423116e-002
2.636214e+003, 3.446577e-002
2.638142e+003, 3.476162e-002
2.640071e+003, 3.486981e-002
2.641999e+003, 3.465842e-002
2.643928e+003, 3.476507e-002
2.645856e+003, 3.495436e-002
2.647785e+003, 3.526476e-002
2.649713e+003, 3.575206e-002
2.651642e+003, 3.590334e-002
2.653570e+003, 3.584582e-002
2.655499e+003, 3.561503e-002
2.657427e+003, 3.583816e-002
2.659355e+003, 3.577491e-002
2.661284e+003, 3.533799e-002
2.663212e+003, 3.554431e-002
2.665141e+003, 3.592060e-002
2.667069e+003, 3.592216e-002
2.668998e+003, 3.573397e-002
2.670926e+003, 3.553483e-002
2.672855e+003, 3.551182e-002
2.674783e+003, 3.564728e-002
2.676712e+003, 3.580825e-002
2.678640e+003, 3.578087e-002
2.680569e+003, 3.552008e-002
2.682497e+003, 3.525078e-002
2.684426e+003, 3.519875e-002
2.686354e+003, 3.524578e-002
2.688282e+003, 3.512457e-002
2.690211e+003, 3.509961e-002
2.692139e+003, 3.514086e-002
2.694068e+003, 3.491171e-002
2.695996e+003, 3.474776e-002
2.697925e+003, 3.473542e-002
2.699853e+003, 3.464249e-002
2.701782e+003, 3.440863e-002
2.703710e+003, 3.428467e-002
2.705639e+003, 3.411770e-002
2.707567e+003, 3.391632e-002
2.709496e+003, 3.383635e-002
2.711424e+003, 3.377222e-002
2.713353e+003, 3.373666e-002
2.715281e+003, 3.366445e-002
2.717209e+003, 3.380157e-002
2.719138e+003, 3.387683e-002
2.721066e+003, 3.392777e-002
2.722995e+003, 3.413660e-002
2.724923e+003, 3.431189e-002
2.726852e+003, 3.432967e-002
2.728780e+003, 3.452373e-002
2.730709e+003, 3.493385e-002
2.732637e+003, 3.527169e-002
2.734566e+003, 3.557561e-002
2.736494e+003, 3.590671e-002
2.738423e+003, 3.617987e-002
2.740351e+003, 3.646214e-002
2.742280e+003, 3.704003e-002
2.744208e+003, 3.747249e-002
2.746136e+003, 3.762024e-002
2.748065e+003, 3.788527e-002
2.749993e+003, 3.847982e-002
2.751922e+003, 3.880328e-002
2.753850e+003, 3.920049e-002
2.755779e+003, 3.970017e-002
2.757707e+003, 3.998840e-002
2.759636e+003, 4.030504e-002
2.761564e+003, 4.045509e-002
2.763493e+003, 4.054377e-002
2.765421e+003, 4.099655e-002
2.767350e+003, 4.159217e-002
2.769278e+003, 4.187499e-002
2.771207e+003, 4.219797e-002
2.773135e+003, 4.258577e-002
2.775063e+003, 4.273056e-002
2.776992e+003, 4.269676e-002
2.778920e+003, 4.285606e-002
2.780849e+003, 4.309013e-002
2.782777e+003, 4.325962e-002
2.784706e+003, 4.330882e-002
2.786634e+003, 4.383100e-002
2.788563e+003, 4.408362e-002
2.790491e+003, 4.397910e-002
2.792420e+003, 4.397822e-002
2.794348e+003, 4.396021e-002
2.796277e+003, 4.384693e-002
2.798205e+003, 4.390927e-002
2.800134e+003, 4.418581e-002
2.802062e+003, 4.422548e-002
2.803990e+003, 4.421700e-002
2.805919e+003, 4.423738e-002
2.807847e+003, 4.394966e-002
2.809776e+003, 4.400821e-002
2.811704e+003, 4.426581e-002
2.813633e+003, 4.428563e-002
2.815561e+003, 4.414999e-002
2.817490e+003, 4.426009e-002
2.819418e+003, 4.419043e-002
2.821347e+003, 4.412713e-002
2.823275e+003, 4.416253e-002
2.825204e+003, 4.414641e-002
2.827132e+003, 4.417033e-002
2.829061e+003, 4.419365e-002
2.830989e+003, 4.403535e-002
2.832917e+003, 4.412051e-002
2.834846e+003, 4.416544e-002
2.836774e+003, 4.395126e-002
2.838703e+003, 4.375580e-002
2.840631e+003, 4.385955e-002
2.842560e+003, 4.381007e-002
2.844488e+003, 4.319291e-002
2.846417e+003, 4.257081e-002
2.848345e+003, 4.203742e-002
2.850274e+003, 4.189539e-002
2.852202e+003, 4.212387e-002
2.854131e+003, 4.260808e-002
2.856059e+003, 4.331598e-002
2.857988e+003, 4.373245e-002
2.859916e+003, 4.410045e-002
2.861844e+003, 4.471640e-002
2.863773e+003, 4.522802e-002
2.865701e+003, 4.571171e-002
2.867630e+003, 4.616325e-002
2.869558e+003, 4.661164e-002
2.871487e+003, 4.703109e-002
2.873415e+003, 4.723313e-002
2.875344e+003, 4.739783e-002
2.877272e+003, 4.702606e-002
2.879201e+003, 4.660992e-002
2.881129e+003, 4.672823e-002
2.883058e+003, 4.698245e-002
2.884986e+003, 4.702023e-002
2.886915e+003, 4.683815e-002
2.888843e+003, 4.650960e-002
2.890771e+003, 4.589889e-002
2.892700e+003, 4.572860e-002
2.894628e+003, 4.590819e-002
2.896557e+003, 4.605137e-002
2.898485e+003, 4.563313e-002
2.900414e+003, 4.504889e-002
2.902342e+003, 4.511204e-002
2.904271e+003, 4.501436e-002
2.906199e+003, 4.463985e-002
2.908128e+003, 4.439758e-002
2.910056e+003, 4.359117e-002
2.911985e+003, 4.294011e-002
2.913913e+003, 4.212201e-002
2.915842e+003, 4.167233e-002
2.917770e+003, 4.122631e-002
2.919698e+003, 4.045038e-002
2.921627e+003, 4.034238e-002
2.923555e+003, 4.062923e-002
2.925484e+003, 4.058708e-002
2.927412e+003, 4.036129e-002
2.929341e+003, 4.057616e-002
2.931269e+003, 4.093441e-002
2.933198e+003, 4.103220e-002
2.935126e+003, 4.105255e-002
2.937055e+003, 4.092154e-002
2.938983e+003, 4.074239e-002
2.940912e+003, 4.081671e-002
2.942840e+003, 4.096923e-002
2.944769e+003, 4.068359e-002
2.946697e+003, 4.041988e-002
2.948625e+003, 4.063037e-002
2.950554e+003, 4.063202e-002
2.952482e+003, 4.033164e-002
2.954411e+003, 4.036334e-002
2.956339e+003, 4.062756e-002
2.958268e+003, 4.062776e-002
2.960196e+003, 4.036384e-002
2.962125e+003, 4.050995e-002
2.964053e+003, 4.056095e-002
2.965982e+003, 4.035876e-002
2.967910e+003, 4.014627e-002
2.969839e+003, 3.999177e-002
2.971767e+003, 3.962240e-002
2.973696e+003, 3.944106e-002
2.975624e+003, 3.958893e-002
2.977552e+003, 3.971632e-002
2.979481e+003, 3.960462e-002
2.981409e+003, 3.949784e-002
2.983338e+003, 3.962113e-002
2.985266e+003, 3.920196e-002
2.987195e+003, 3.878502e-002
2.989123e+003, 3.910051e-002
2.991052e+003, 3.923585e-002
2.992980e+003, 3.918029e-002
2.994909e+003, 3.905930e-002
2.996837e+003, 3.944827e-002
2.998766e+003, 3.976876e-002
3.000694e+003, 3.961464e-002
3.002623e+003, 3.950012e-002
3.004551e+003, 3.986303e-002
3.006479e+003, 4.014315e-002
3.008408e+003, 4.030038e-002
3.010336e+003, 4.030162e-002
3.012265e+003, 4.064503e-002
3.014193e+003, 4.107868e-002
3.016122e+003, 4.144242e-002
3.018050e+003, 4.145715e-002
3.019979e+003, 4.119511e-002
3.021907e+003, 4.131823e-002
3.023836e+003, 4.165504e-002
3.025764e+003, 4.183022e-002
3.027693e+003, 4.188598e-002
3.029621e+003, 4.242802e-002
3.031550e+003, 4.302883e-002
3.033478e+003, 4.334006e-002
3.035406e+003, 4.331824e-002
3.037335e+003, 4.378066e-002
3.039263e+003, 4.428731e-002
3.041192e+003, 4.440503e-002
3.043120e+003, 4.444518e-002
3.045049e+003, 4.475657e-002
3.046977e+003, 4.498084e-002
3.048906e+003, 4.531401e-002
3.050834e+003, 4.555964e-002
3.052763e+003, 4.603962e-002
3.054691e+003, 4.627265e-002
3.056620e+003, 4.674733e-002
3.058548e+003, 4.706102e-002
3.060477e+003, 4.708207e-002
3.062405e+003, 4.734042e-002
3.064333e+003, 4.759036e-002
3.066262e+003, 4.734477e-002
3.068190e+003, 4.714692e-002
3.070119e+003, 4.724443e-002
3.072047e+003, 4.763958e-002
3.073976e+003, 4.827899e-002
3.075904e+003, 4.841781e-002
3.077833e+003, 4.843971e-002
3.079761e+003, 4.926006e-002
3.081690e+003, 4.950291e-002
3.083618e+003, 4.942660e-002
3.085547e+003, 5.001115e-002
3.087475e+003, 5.038343e-002
3.089404e+003, 5.059379e-002
3.091332e+003, 5.055889e-002
3.093260e+003, 5.039782e-002
3.095189e+003, 5.074019e-002
3.097117e+003, 5.131018e-002
3.099046e+003, 5.172879e-002
3.100974e+003, 5.253103e-002
3.102903e+003, 5.325339e-002
3.104831e+003, 5.326155e-002
3.106760e+003, 5.338747e-002
3.108688e+003, 5.381171e-002
3.110617e+003, 5.450596e-002
3.112545e+003, 5.525948e-002
3.114474e+003, 5.559077e-002
3.116402e+003, 5.594499e-002
3.118331e+003, 5.657792e-002
3.120259e+003, 5.724648e-002
3.122188e+003, 5.778236e-002
3.124116e+003, 5.829753e-002
3.126044e+003, 5.875019e-002
3.127973e+003, 5.923358e-002
3.129901e+003, 5.969265e-002
3.131830e+003, 6.048365e-002
3.133758e+003, 6.117792e-002
3.135687e+003, 6.161056e-002
3.137615e+003, 6.250116e-002
3.139544e+003, 6.292462e-002
3.141472e+003, 6.367473e-002
3.143401e+003, 6.456540e-002
3.145329e+003, 6.511767e-002
3.147258e+003, 6.591521e-002
3.149186e+003, 6.707275e-002
3.151115e+003, 6.778114e-002
3.153043e+003, 6.815726e-002
3.154971e+003, 6.940763e-002
3.156900e+003, 7.091189e-002
3.158828e+003, 7.148437e-002
3.160757e+003, 7.192989e-002
3.162685e+003, 7.309709e-002
3.164614e+003, 7.420162e-002
3.166542e+003, 7.522790e-002
3.168471e+003, 7.643875e-002
3.170399e+003, 7.726572e-002
3.172328e+003, 7.855716e-002
3.174256e+003, 7.980252e-002
3.176185e+003, 8.074417e-002
3.178113e+003, 8.202504e-002
3.180042e+003, 8.306947e-002
3.181970e+003, 8.409139e-002
3.183898e+003, 8.558019e-002
3.185827e+003, 8.696958e-002
3.187755e+003, 8.817974e-002
3.189684e+003, 8.945327e-002
3.191612e+003, 9.084790e-002
3.193541e+003, 9.237020e-002
3.195469e+003, 9.385867e-002
3.197398e+003, 9.555177e-002
3.199326e+003, 9.694833e-002
3.201255e+003, 9.821140e-002
3.203183e+003, 9.988517e-002
3.205112e+003, 1.015556e-001
3.207040e+003, 1.032323e-001
3.208969e+003, 1.044732e-001
3.210897e+003, 1.053947e-001
3.212825e+003, 1.066207e-001
3.214754e+003, 1.086406e-001
3.216682e+003, 1.102230e-001
3.218611e+003, 1.107185e-001
3.220539e+003, 1.112654e-001
3.222468e+003, 1.121625e-001
3.224396e+003, 1.134533e-001
3.226325e+003, 1.148756e-001
3.228253e+003, 1.160729e-001
3.230182e+003, 1.174107e-001
3.232110e+003, 1.189634e-001
3.234039e+003, 1.201413e-001
3.235967e+003, 1.210433e-001
3.237896e+003, 1.219211e-001
3.239824e+003, 1.222946e-001
3.241752e+003, 1.225385e-001
3.243681e+003, 1.235198e-001
3.245609e+003, 1.242518e-001
3.247538e+003, 1.245991e-001
3.249466e+003, 1.251693e-001
3.251395e+003, 1.259879e-001
3.253323e+003, 1.265995e-001
3.255252e+003, 1.269448e-001
3.257180e+003, 1.272625e-001
3.259109e+003, 1.278509e-001
3.261037e+003, 1.284471e-001
3.262966e+003, 1.284327e-001
3.264894e+003, 1.285968e-001
3.266823e+003, 1.296728e-001
3.268751e+003, 1.310533e-001
3.270679e+003, 1.318340e-001
3.272608e+003, 1.327142e-001
3.274536e+003, 1.332194e-001
3.276465e+003, 1.342569e-001
3.278393e+003, 1.357801e-001
3.280322e+003, 1.369564e-001
3.282250e+003, 1.378347e-001
3.284179e+003, 1.387433e-001
3.286107e+003, 1.395993e-001
3.288036e+003, 1.407582e-001
3.289964e+003, 1.424372e-001
3.291893e+003, 1.434664e-001
3.293821e+003, 1.440800e-001
3.295750e+003, 1.445619e-001
3.297678e+003, 1.454501e-001
3.299606e+003, 1.461995e-001
3.301535e+003, 1.464283e-001
3.303463e+003, 1.472348e-001
3.305392e+003, 1.475680e-001
3.307320e+003, 1.474353e-001
3.309249e+003, 1.473528e-001
3.311177e+003, 1.466998e-001
3.313106e+003, 1.460168e-001
3.315034e+003, 1.456666e-001
3.316963e+003, 1.457932e-001
3.318891e+003, 1.457596e-001
3.320820e+003, 1.452391e-001
3.322748e+003, 1.445151e-001
3.324677e+003, 1.445772e-001
3.326605e+003, 1.445380e-001
3.328533e+003, 1.437081e-001
3.330462e+003, 1.433520e-001
3.332390e+003, 1.433281e-001
3.334319e+003, 1.433908e-001
3.336247e+003, 1.433709e-001
3.338176e+003, 1.426541e-001
3.340104e+003, 1.419531e-001
3.342033e+003, 1.414174e-001
3.343961e+003, 1.405514e-001
3.345890e+003, 1.394120e-001
3.347818e+003, 1.385364e-001
3.349747e+003, 1.379450e-001
3.351675e+003, 1.372896e-001
3.353604e+003, 1.362526e-001
3.355532e+003, 1.349351e-001
3.357460e+003, 1.335603e-001
3.359389e+003, 1.322690e-001
3.361317e+003, 1.314457e-001
3.363246e+003, 1.302997e-001
3.365174e+003, 1.284433e-001
3.367103e+003, 1.263824e-001
3.369031e+003, 1.244191e-001
3.370960e+003, 1.228282e-001
3.372888e+003, 1.210836e-001
3.374817e+003, 1.187461e-001
3.376745e+003, 1.167966e-001
3.378674e+003, 1.148703e-001
3.380602e+003, 1.130771e-001
3.382531e+003, 1.112170e-001
3.384459e+003, 1.086606e-001
3.386387e+003, 1.064235e-001
3.388316e+003, 1.043537e-001
3.390244e+003, 1.018125e-001
3.392173e+003, 9.903201e-002
3.394101e+003, 9.692643e-002
3.396030e+003, 9.488791e-002
3.397958e+003, 9.297048e-002
3.399887e+003, 9.078617e-002
3.401815e+003, 8.840966e-002
3.403744e+003, 8.603523e-002
3.405672e+003, 8.327648e-002
3.407601e+003, 8.104682e-002
3.409529e+003, 7.902363e-002
3.411458e+003, 7.731165e-002
3.413386e+003, 7.522170e-002
3.415314e+003, 7.286257e-002
3.417243e+003, 7.044727e-002
3.419171e+003, 6.789165e-002
3.421100e+003, 6.584978e-002
3.423028e+003, 6.429765e-002
3.424957e+003, 6.235353e-002
3.426885e+003, 6.023731e-002
3.428814e+003, 5.843474e-002
3.430742e+003, 5.652221e-002
3.432671e+003, 5.395348e-002
3.434599e+003, 5.210883e-002
3.436528e+003, 5.026879e-002
3.438456e+003, 4.832942e-002
3.440385e+003, 4.601492e-002
3.442313e+003, 4.380468e-002
3.444241e+003, 4.280755e-002
3.446170e+003, 4.172695e-002
3.448098e+003, 4.005450e-002
3.450027e+003, 3.879637e-002
3.451955e+003, 3.752077e-002
3.453884e+003, 3.609960e-002
3.455812e+003, 3.461574e-002
3.457741e+003, 3.315174e-002
3.459669e+003, 3.170464e-002
3.461598e+003, 3.115194e-002
3.463526e+003, 3.041729e-002
3.465455e+003, 2.893800e-002
3.467383e+003, 2.791703e-002
3.469312e+003, 2.712288e-002
3.471240e+003, 2.588616e-002
3.473168e+003, 2.489732e-002
3.475097e+003, 2.347561e-002
3.477025e+003, 2.245845e-002
3.478954e+003, 2.162372e-002
3.480882e+003, 2.037920e-002
3.482811e+003, 1.955968e-002
3.484739e+003, 1.935215e-002
3.486668e+003, 1.850504e-002
3.488596e+003, 1.804624e-002
3.490525e+003, 1.750587e-002
3.492453e+003, 1.677974e-002
3.494382e+003, 1.682893e-002
3.496310e+003, 1.659307e-002
3.498239e+003, 1.565941e-002
3.500167e+003, 1.495555e-002
3.502095e+003, 1.442436e-002
3.504024e+003, 1.423622e-002
3.505952e+003, 1.376865e-002
3.507881e+003, 1.284784e-002
3.509809e+003, 1.234447e-002
3.511738e+003, 1.158967e-002
3.513666e+003, 1.165223e-002
3.515595e+003, 1.200563e-002
3.517523e+003, 1.107005e-002
3.519452e+003, 1.022323e-002
3.521380e+003, 1.000086e-002
3.523309e+003, 9.400941e-003
3.525237e+003, 8.915144e-003
3.527166e+003, 8.782727e-003
3.529094e+003, 8.837041e-003
3.531022e+003, 9.312637e-003
3.532951e+003, 8.761930e-003
3.534879e+003, 8.430679e-003
3.536808e+003, 8.538269e-003
3.538736e+003, 8.294869e-003
3.540665e+003, 8.148538e-003
3.542593e+003, 8.277947e-003
3.544522e+003, 7.808798e-003
3.546450e+003, 7.551582e-003
3.548379e+003, 7.694757e-003
3.550307e+003, 7.387093e-003
3.552236e+003, 7.209934e-003
3.554164e+003, 6.991432e-003
3.556093e+003, 6.336914e-003
3.558021e+003, 6.024318e-003
3.559949e+003, 6.322942e-003
3.561878e+003, 7.155637e-003
3.563806e+003, 7.364044e-003
3.565735e+003, 7.009445e-003
3.567663e+003, 6.361925e-003
3.569592e+003, 6.403249e-003
3.571520e+003, 6.157307e-003
3.573449e+003, 5.880947e-003
3.575377e+003, 5.547862e-003
3.577306e+003, 5.711213e-003
3.579234e+003, 6.063331e-003
3.581163e+003, 5.671758e-003
3.583091e+003, 5.580325e-003
3.585020e+003, 6.011719e-003
3.586948e+003, 6.142500e-003
3.588876e+003, 5.729089e-003
3.590805e+003, 4.767943e-003
3.592733e+003, 4.973269e-003
3.594662e+003, 5.343281e-003
3.596590e+003, 5.235901e-003
3.598519e+003, 4.978407e-003
3.600447e+003, 5.161919e-003
3.602376e+003, 5.281450e-003
3.604304e+003, 4.943521e-003
3.606233e+003, 5.194310e-003
3.608161e+003, 5.974557e-003
3.610090e+003, 5.817100e-003
3.612018e+003, 5.046189e-003
3.613947e+003, 4.435857e-003
3.615875e+003, 4.236989e-003
3.617803e+003, 4.997149e-003
3.619732e+003, 5.112917e-003
3.621660e+003, 4.808552e-003
3.623589e+003, 4.812317e-003
3.625517e+003, 4.886696e-003
3.627446e+003, 5.465101e-003
3.629374e+003, 5.927357e-003
3.631303e+003, 5.355852e-003
3.633231e+003, 4.542226e-003
3.635160e+003, 3.922666e-003
3.637088e+003, 3.907833e-003
3.639017e+003, 4.216592e-003
3.640945e+003, 4.536625e-003
3.642874e+003, 4.182576e-003
3.644802e+003, 4.673813e-003
3.646730e+003, 5.655305e-003
3.648659e+003, 6.677773e-003
3.650587e+003, 6.178377e-003
3.652516e+003, 4.837259e-003
3.654444e+003, 4.303796e-003
3.656373e+003, 4.576381e-003
3.658301e+003, 5.040076e-003
3.660230e+003, 5.290338e-003
3.662158e+003, 4.407300e-003
3.664087e+003, 4.059649e-003
3.666015e+003, 3.992128e-003
3.667944e+003, 4.873417e-003
3.669872e+003, 6.085895e-003
3.671801e+003, 5.939251e-003
3.673729e+003, 6.237340e-003
3.675657e+003, 6.082286e-003
3.677586e+003, 4.904930e-003
3.679514e+003, 5.092173e-003
3.681443e+003, 5.222969e-003
3.683371e+003, 4.699525e-003
3.685300e+003, 4.744851e-003
3.687228e+003, 5.979412e-003
3.689157e+003, 6.240707e-003
3.691085e+003, 5.257754e-003
3.693014e+003, 5.669978e-003
3.694942e+003, 5.783519e-003
3.696871e+003, 4.909639e-003
3.698799e+003, 5.394287e-003
3.700728e+003, 5.383320e-003
3.702656e+003, 5.058724e-003
3.704584e+003, 4.983047e-003
3.706513e+003, 5.277511e-003
3.708441e+003, 5.538301e-003
3.710370e+003, 5.880712e-003
3.712298e+003, 6.046365e-003
3.714227e+003, 6.141538e-003
3.716155e+003, 6.256713e-003
3.718084e+003, 5.635158e-003
3.720012e+003, 5.153907e-003
3.721941e+003, 5.283270e-003
3.723869e+003, 5.539799e-003
3.725798e+003, 5.479245e-003
3.727726e+003, 5.385416e-003
3.729655e+003, 5.437923e-003
3.731583e+003, 5.453512e-003
3.733511e+003, 5.864127e-003
3.735440e+003, 6.813481e-003
3.737368e+003, 6.623265e-003
3.739297e+003, 6.283113e-003
3.741225e+003, 6.524927e-003
3.743154e+003, 7.478443e-003
3.745082e+003, 7.766551e-003
3.747011e+003, 6.869122e-003
3.748939e+003, 6.895486e-003
3.750868e+003, 6.505683e-003
3.752796e+003, 5.945584e-003
3.754725e+003, 5.479968e-003
3.756653e+003, 5.754820e-003
3.758582e+003, 6.002623e-003
3.760510e+003, 6.474870e-003
3.762438e+003, 6.538894e-003
3.764367e+003, 6.260630e-003
3.766295e+003, 5.995778e-003
3.768224e+003, 6.050980e-003
3.770152e+003, 6.535493e-003
3.772081e+003, 7.097838e-003
3.774009e+003, 6.833855e-003
3.775938e+003, 6.511733e-003
3.777866e+003, 6.679825e-003
3.779795e+003, 6.542903e-003
3.781723e+003, 5.898729e-003
3.783652e+003, 6.243622e-003
3.785580e+003, 6.167106e-003
3.787509e+003, 5.419278e-003
3.789437e+003, 5.446602e-003
3.791365e+003, 5.668697e-003
3.793294e+003, 5.457064e-003
3.795222e+003, 5.368621e-003
3.797151e+003, 5.629121e-003
3.799079e+003, 6.375731e-003
3.801008e+003, 7.381105e-003
3.802936e+003, 7.187790e-003
3.804865e+003, 7.102297e-003
3.806793e+003, 6.825329e-003
3.808722e+003, 5.633232e-003
3.810650e+003, 5.812957e-003
3.812579e+003, 6.333204e-003
3.814507e+003, 7.069396e-003
3.816436e+003, 7.566544e-003
3.818364e+003, 6.868943e-003
3.820292e+003, 7.101729e-003
3.822221e+003, 7.175014e-003
3.824149e+003, 6.602636e-003
3.826078e+003, 6.508728e-003
3.828006e+003, 6.327892e-003
3.829935e+003, 6.627659e-003
3.831863e+003, 7.438727e-003
3.833792e+003, 7.853770e-003
3.835720e+003, 7.852742e-003
3.837649e+003, 7.947528e-003
3.839577e+003, 7.692048e-003
3.841506e+003, 6.815354e-003
3.843434e+003, 6.186835e-003
3.845363e+003, 6.586815e-003
3.847291e+003, 7.084706e-003
3.849219e+003, 7.909209e-003
3.851148e+003, 8.463280e-003
3.853076e+003, 8.857515e-003
3.855005e+003, 8.101165e-003
3.856933e+003, 6.983240e-003
3.858862e+003, 6.969784e-003
3.860790e+003, 7.135002e-003
3.862719e+003, 6.978292e-003
3.864647e+003, 7.191127e-003
3.866576e+003, 7.248626e-003
3.868504e+003, 7.574750e-003
3.870433e+003, 7.564484e-003
3.872361e+003, 7.084873e-003
3.874290e+003, 7.065326e-003
3.876218e+003, 7.189955e-003
3.878146e+003, 6.949390e-003
3.880075e+003, 6.309047e-003
3.882003e+003, 6.550406e-003
3.883932e+003, 7.070375e-003
3.885860e+003, 7.753985e-003
3.887789e+003, 8.142618e-003
3.889717e+003, 7.685810e-003
3.891646e+003, 7.174155e-003
3.893574e+003, 7.347440e-003
3.895503e+003, 6.990212e-003
3.897431e+003, 7.043596e-003
3.899360e+003, 7.629197e-003
3.901288e+003, 7.955805e-003
3.903217e+003, 7.704040e-003
3.905145e+003, 8.205493e-003
3.907073e+003, 8.184958e-003
3.909002e+003, 7.846095e-003
3.910930e+003, 7.331518e-003
3.912859e+003, 7.137616e-003
3.914787e+003, 7.896802e-003
3.916716e+003, 7.808515e-003
3.918644e+003, 7.007488e-003
3.920573e+003, 6.873066e-003
3.922501e+003, 6.989198e-003
3.924430e+003, 6.674211e-003
3.926358e+003, 6.966678e-003
3.928287e+003, 7.012445e-003
3.930215e+003, 6.913374e-003
3.932144e+003, 6.725524e-003
3.934072e+003, 6.933901e-003
3.936000e+003, 7.577877e-003
3.937929e+003, 7.092940e-003
3.939857e+003, 7.400953e-003
3.941786e+003, 8.170932e-003
3.943714e+003, 7.900410e-003
3.945643e+003, 7.625594e-003
3.947571e+003, 7.304837e-003
3.949500e+003, 7.098144e-003
3.951428e+003, 7.197323e-003
3.953357e+003, 7.126910e-003
3.955285e+003, 6.921156e-003
3.957214e+003, 6.905837e-003
3.959142e+003, 7.472621e-003
3.961071e+003, 7.665693e-003
3.962999e+003, 6.746792e-003
3.964927e+003, 6.428030e-003
3.966856e+003, 6.536307e-003
3.968784e+003, 6.850377e-003
3.970713e+003, 6.872991e-003
3.972641e+003, 6.962232e-003
3.974570e+003, 7.412594e-003
3.976498e+003, 7.818371e-003
3.978427e+003, 7.748672e-003
3.980355e+003, 6.990317e-003
3.982284e+003, 6.650870e-003
3.984212e+003, 7.034469e-003
3.986141e+003, 7.643898e-003
3.988069e+003, 7.695378e-003
3.989998e+003, 7.744914e-003
3.991926e+003, 7.388774e-003
3.993854e+003, 7.124973e-003
3.995783e+003, 7.389131e-003
3.997711e+003, 7.925546e-003
3.999640e+003, 7.940953e-003
4.001568e+003, 0.000000e+000
##END=



