##NAMES=Babingtonite
##RRUFFID=R060093
##IDEAL CHEMISTRY=Ca_2_Fe^2+^Fe^3+^Si_5_O_14_(OH)
##LOCALITY=Iron Cap mine, Aravaipa District, Graham County, Arizona, USA
##OWNER=RRUFF
##SOURCE=University of Arizona Mineral Museum
##DESCRIPTION=Dark prismatic striated crystals
##STATUS=The identification of this mineral has been confirmed by X-ray diffraction and chemical analysis
##URL=rruff.info/R060093
##MEASURED CHEMISTRY=Ca_2.00_(Fe^2+^_0.54_Mn_0.46_)(Fe^3+^_0.96_Al_0.04_)Si_5.00_O_14_(OH)
3.991926e+002, 1.482935e-001
4.011211e+002, 1.495436e-001
4.030495e+002, 1.511811e-001
4.049780e+002, 1.503066e-001
4.069065e+002, 1.510237e-001
4.088349e+002, 1.577718e-001
4.107634e+002, 1.697410e-001
4.126919e+002, 1.794143e-001
4.146203e+002, 1.902232e-001
4.165488e+002, 2.056702e-001
4.184773e+002, 2.194987e-001
4.204057e+002, 2.280906e-001
4.223342e+002, 2.304289e-001
4.242627e+002, 2.291741e-001
4.261911e+002, 2.276429e-001
4.281196e+002, 2.249618e-001
4.300481e+002, 2.212837e-001
4.319765e+002, 2.202615e-001
4.339050e+002, 2.206266e-001
4.358335e+002, 2.174064e-001
4.377619e+002, 2.120832e-001
4.396904e+002, 2.062746e-001
4.416189e+002, 1.988221e-001
4.435473e+002, 1.943735e-001
4.454758e+002, 1.953079e-001
4.474043e+002, 1.996007e-001
4.493327e+002, 2.055471e-001
4.512612e+002, 2.110971e-001
4.531897e+002, 2.146256e-001
4.551181e+002, 2.160915e-001
4.570466e+002, 2.154559e-001
4.589751e+002, 2.138959e-001
4.609035e+002, 2.102484e-001
4.628320e+002, 2.047564e-001
4.647605e+002, 1.976564e-001
4.666889e+002, 1.903310e-001
4.686174e+002, 1.827703e-001
4.705459e+002, 1.746137e-001
4.724743e+002, 1.680267e-001
4.744028e+002, 1.636447e-001
4.763313e+002, 1.613134e-001
4.782597e+002, 1.626742e-001
4.801882e+002, 1.691979e-001
4.821167e+002, 1.803541e-001
4.840451e+002, 1.934285e-001
4.859736e+002, 2.065300e-001
4.879021e+002, 2.157476e-001
4.898305e+002, 2.192212e-001
4.917590e+002, 2.179696e-001
4.936875e+002, 2.156513e-001
4.956159e+002, 2.133285e-001
4.975444e+002, 2.111243e-001
4.994729e+002, 2.073625e-001
5.014013e+002, 2.020333e-001
5.033298e+002, 1.976596e-001
5.052583e+002, 1.946948e-001
5.071867e+002, 1.899331e-001
5.091152e+002, 1.831279e-001
5.110437e+002, 1.752674e-001
5.129721e+002, 1.669993e-001
5.149006e+002, 1.589004e-001
5.168290e+002, 1.528504e-001
5.187575e+002, 1.489561e-001
5.206860e+002, 1.470312e-001
5.226144e+002, 1.458274e-001
5.245429e+002, 1.449236e-001
5.264714e+002, 1.437719e-001
5.283998e+002, 1.428350e-001
5.303283e+002, 1.426246e-001
5.322568e+002, 1.418599e-001
5.341852e+002, 1.400172e-001
5.361137e+002, 1.380464e-001
5.380422e+002, 1.366451e-001
5.399706e+002, 1.365643e-001
5.418991e+002, 1.376870e-001
5.438276e+002, 1.391433e-001
5.457560e+002, 1.402282e-001
5.476845e+002, 1.401047e-001
5.496130e+002, 1.368129e-001
5.515414e+002, 1.304155e-001
5.534699e+002, 1.228148e-001
5.553984e+002, 1.146578e-001
5.573268e+002, 1.057433e-001
5.592553e+002, 9.647050e-002
5.611838e+002, 8.809317e-002
5.631122e+002, 8.082260e-002
5.650407e+002, 7.452405e-002
5.669692e+002, 6.921580e-002
5.688976e+002, 6.493762e-002
5.708261e+002, 6.122837e-002
5.727546e+002, 5.787313e-002
5.746830e+002, 5.466990e-002
5.766115e+002, 5.101049e-002
5.785400e+002, 4.798701e-002
5.804684e+002, 4.571907e-002
5.823969e+002, 4.391078e-002
5.843254e+002, 4.281359e-002
5.862538e+002, 4.209884e-002
5.881823e+002, 4.197030e-002
5.901108e+002, 4.192043e-002
5.920392e+002, 4.187899e-002
5.939677e+002, 4.187158e-002
5.958962e+002, 4.189771e-002
5.978246e+002, 4.201841e-002
5.997531e+002, 4.239903e-002
6.016816e+002, 4.300362e-002
6.036100e+002, 4.378475e-002
6.055385e+002, 4.483541e-002
6.074670e+002, 4.604746e-002
6.093954e+002, 4.730904e-002
6.113239e+002, 4.871872e-002
6.132524e+002, 5.034689e-002
6.151808e+002, 5.254545e-002
6.171093e+002, 5.515329e-002
6.190378e+002, 5.762635e-002
6.209662e+002, 5.996202e-002
6.228947e+002, 6.218020e-002
6.248232e+002, 6.443705e-002
6.267516e+002, 6.722251e-002
6.286801e+002, 7.107703e-002
6.306086e+002, 7.632684e-002
6.325370e+002, 8.288685e-002
6.344655e+002, 9.058293e-002
6.363940e+002, 9.872961e-002
6.383224e+002, 1.060849e-001
6.402509e+002, 1.106114e-001
6.421794e+002, 1.107940e-001
6.441078e+002, 1.064466e-001
6.460363e+002, 9.914267e-002
6.479648e+002, 9.151443e-002
6.498932e+002, 8.607388e-002
6.518217e+002, 8.402192e-002
6.537502e+002, 8.484069e-002
6.556786e+002, 8.640408e-002
6.576071e+002, 8.632079e-002
6.595356e+002, 8.274741e-002
6.614641e+002, 7.567230e-002
6.633925e+002, 6.737062e-002
6.653210e+002, 6.018396e-002
6.672495e+002, 5.478384e-002
6.691779e+002, 5.087928e-002
6.711064e+002, 4.828431e-002
6.730349e+002, 4.715898e-002
6.749633e+002, 4.725405e-002
6.768918e+002, 4.750566e-002
6.788203e+002, 4.722880e-002
6.807487e+002, 4.686185e-002
6.826772e+002, 4.680940e-002
6.846057e+002, 4.721059e-002
6.865341e+002, 4.816685e-002
6.884626e+002, 4.987100e-002
6.903911e+002, 5.227627e-002
6.923195e+002, 5.549249e-002
6.942480e+002, 5.978727e-002
6.961765e+002, 6.560709e-002
6.981049e+002, 7.294211e-002
7.000334e+002, 8.139694e-002
7.019619e+002, 8.926326e-002
7.038903e+002, 9.481196e-002
7.058188e+002, 9.616683e-002
7.077473e+002, 9.290756e-002
7.096757e+002, 8.656711e-002
7.116042e+002, 7.939319e-002
7.135327e+002, 7.293168e-002
7.154611e+002, 6.811449e-002
7.173896e+002, 6.495422e-002
7.193181e+002, 6.319548e-002
7.212465e+002, 6.221027e-002
7.231750e+002, 6.198456e-002
7.251035e+002, 6.247431e-002
7.270319e+002, 6.319136e-002
7.289604e+002, 6.414073e-002
7.308889e+002, 6.558793e-002
7.328173e+002, 6.736686e-002
7.347458e+002, 6.944250e-002
7.366743e+002, 7.176507e-002
7.386027e+002, 7.416037e-002
7.405312e+002, 7.674366e-002
7.424597e+002, 7.951656e-002
7.443881e+002, 8.257893e-002
7.463166e+002, 8.592826e-002
7.482451e+002, 8.936787e-002
7.501735e+002, 9.315975e-002
7.521020e+002, 9.697246e-002
7.540305e+002, 1.008642e-001
7.559589e+002, 1.048748e-001
7.578874e+002, 1.090357e-001
7.598159e+002, 1.132896e-001
7.617443e+002, 1.163320e-001
7.636728e+002, 1.166730e-001
7.656013e+002, 1.127644e-001
7.675297e+002, 1.045865e-001
7.694582e+002, 9.467927e-002
7.713867e+002, 8.571740e-002
7.733151e+002, 7.898962e-002
7.752436e+002, 7.473380e-002
7.771721e+002, 7.224954e-002
7.791005e+002, 7.095047e-002
7.810290e+002, 7.054941e-002
7.829575e+002, 7.072242e-002
7.848859e+002, 7.104562e-002
7.868144e+002, 7.178186e-002
7.887429e+002, 7.290964e-002
7.906713e+002, 7.435340e-002
7.925998e+002, 7.604837e-002
7.945283e+002, 7.788450e-002
7.964567e+002, 7.991015e-002
7.983852e+002, 8.212100e-002
8.003137e+002, 8.462390e-002
8.022421e+002, 8.721814e-002
8.041706e+002, 9.022872e-002
8.060991e+002, 9.336976e-002
8.080275e+002, 9.669130e-002
8.099560e+002, 1.002425e-001
8.118845e+002, 1.040109e-001
8.138129e+002, 1.078702e-001
8.157414e+002, 1.119491e-001
8.176699e+002, 1.163151e-001
8.195983e+002, 1.209758e-001
8.215268e+002, 1.257300e-001
8.234553e+002, 1.308559e-001
8.253837e+002, 1.363746e-001
8.273122e+002, 1.421030e-001
8.292407e+002, 1.480178e-001
8.311691e+002, 1.542376e-001
8.330976e+002, 1.605409e-001
8.350261e+002, 1.673519e-001
8.369545e+002, 1.744235e-001
8.388830e+002, 1.816271e-001
8.408115e+002, 1.892074e-001
8.427399e+002, 1.972814e-001
8.446684e+002, 2.056237e-001
8.465969e+002, 2.142021e-001
8.485253e+002, 2.229350e-001
8.504538e+002, 2.321916e-001
8.523823e+002, 2.416814e-001
8.543107e+002, 2.510860e-001
8.562392e+002, 2.603919e-001
8.581677e+002, 2.703229e-001
8.600961e+002, 2.800180e-001
8.620246e+002, 2.890718e-001
8.639531e+002, 2.975241e-001
8.658815e+002, 3.053663e-001
8.678100e+002, 3.121909e-001
8.697385e+002, 3.180984e-001
8.716669e+002, 3.231886e-001
8.735954e+002, 3.283153e-001
8.755239e+002, 3.342839e-001
8.774523e+002, 3.418081e-001
8.793808e+002, 3.500744e-001
8.813093e+002, 3.581035e-001
8.832377e+002, 3.648264e-001
8.851662e+002, 3.695208e-001
8.870947e+002, 3.714583e-001
8.890231e+002, 3.704830e-001
8.909516e+002, 3.670192e-001
8.928801e+002, 3.618245e-001
8.948085e+002, 3.559952e-001
8.967370e+002, 3.512954e-001
8.986655e+002, 3.489784e-001
9.005939e+002, 3.486705e-001
9.025224e+002, 3.492669e-001
9.044509e+002, 3.492802e-001
9.063793e+002, 3.472481e-001
9.083078e+002, 3.424917e-001
9.102363e+002, 3.351242e-001
9.121647e+002, 3.264281e-001
9.140932e+002, 3.177291e-001
9.160217e+002, 3.103969e-001
9.179501e+002, 3.055544e-001
9.198786e+002, 3.037415e-001
9.218071e+002, 3.045403e-001
9.237355e+002, 3.072406e-001
9.256640e+002, 3.106581e-001
9.275925e+002, 3.140555e-001
9.295209e+002, 3.163954e-001
9.314494e+002, 3.171286e-001
9.333779e+002, 3.158352e-001
9.353063e+002, 3.130174e-001
9.372348e+002, 3.093324e-001
9.391633e+002, 3.056051e-001
9.410917e+002, 3.018956e-001
9.430202e+002, 2.979472e-001
9.449487e+002, 2.926264e-001
9.468771e+002, 2.856232e-001
9.488056e+002, 2.763767e-001
9.507341e+002, 2.643254e-001
9.526625e+002, 2.498959e-001
9.545910e+002, 2.345484e-001
9.565195e+002, 2.202165e-001
9.584479e+002, 2.079435e-001
9.603764e+002, 1.977319e-001
9.623049e+002, 1.898630e-001
9.642333e+002, 1.843574e-001
9.661618e+002, 1.815028e-001
9.680903e+002, 1.809816e-001
9.700187e+002, 1.822273e-001
9.719472e+002, 1.841418e-001
9.738757e+002, 1.853564e-001
9.758041e+002, 1.848542e-001
9.777326e+002, 1.838036e-001
9.796611e+002, 1.850345e-001
9.815895e+002, 1.912346e-001
9.835180e+002, 2.030979e-001
9.854465e+002, 2.179255e-001
9.873749e+002, 2.313069e-001
9.893034e+002, 2.402634e-001
9.912319e+002, 2.437297e-001
9.931603e+002, 2.431234e-001
9.950888e+002, 2.404629e-001
9.970173e+002, 2.373590e-001
9.989457e+002, 2.347181e-001
1.000874e+003, 2.331794e-001
1.002803e+003, 2.325114e-001
1.004731e+003, 2.325943e-001
1.006660e+003, 2.335269e-001
1.008588e+003, 2.353423e-001
1.010517e+003, 2.372479e-001
1.012445e+003, 2.387309e-001
1.014373e+003, 2.393149e-001
1.016302e+003, 2.386556e-001
1.018230e+003, 2.365548e-001
1.020159e+003, 2.336145e-001
1.022087e+003, 2.312048e-001
1.024016e+003, 2.298090e-001
1.025944e+003, 2.287993e-001
1.027873e+003, 2.270693e-001
1.029801e+003, 2.236841e-001
1.031730e+003, 2.191025e-001
1.033658e+003, 2.147006e-001
1.035587e+003, 2.117422e-001
1.037515e+003, 2.107123e-001
1.039443e+003, 2.108901e-001
1.041372e+003, 2.108024e-001
1.043300e+003, 2.093031e-001
1.045229e+003, 2.054698e-001
1.047157e+003, 1.993545e-001
1.049086e+003, 1.915932e-001
1.051014e+003, 1.834710e-001
1.052943e+003, 1.758550e-001
1.054871e+003, 1.689428e-001
1.056800e+003, 1.630601e-001
1.058728e+003, 1.582218e-001
1.060657e+003, 1.543924e-001
1.062585e+003, 1.513169e-001
1.064514e+003, 1.488474e-001
1.066442e+003, 1.469795e-001
1.068370e+003, 1.456791e-001
1.070299e+003, 1.446880e-001
1.072227e+003, 1.437569e-001
1.074156e+003, 1.430580e-001
1.076084e+003, 1.424185e-001
1.078013e+003, 1.417918e-001
1.079941e+003, 1.410550e-001
1.081870e+003, 1.405886e-001
1.083798e+003, 1.402233e-001
1.085727e+003, 1.399558e-001
1.087655e+003, 1.399397e-001
1.089584e+003, 1.404332e-001
1.091512e+003, 1.408791e-001
1.093441e+003, 1.407733e-001
1.095369e+003, 1.399417e-001
1.097297e+003, 1.378032e-001
1.099226e+003, 1.337327e-001
1.101154e+003, 1.281463e-001
1.103083e+003, 1.217770e-001
1.105011e+003, 1.148910e-001
1.106940e+003, 1.079161e-001
1.108868e+003, 1.009476e-001
1.110797e+003, 9.404901e-002
1.112725e+003, 8.734375e-002
1.114654e+003, 8.082671e-002
1.116582e+003, 7.474667e-002
1.118511e+003, 6.910986e-002
1.120439e+003, 6.385542e-002
1.122368e+003, 5.897624e-002
1.124296e+003, 5.457431e-002
1.126224e+003, 5.057927e-002
1.128153e+003, 4.677514e-002
1.130081e+003, 4.344911e-002
1.132010e+003, 4.063115e-002
1.133938e+003, 3.802940e-002
1.135867e+003, 3.552533e-002
1.137795e+003, 3.316985e-002
1.139724e+003, 3.125707e-002
1.141652e+003, 2.972540e-002
1.143581e+003, 2.833854e-002
1.145509e+003, 2.699223e-002
1.147438e+003, 2.582369e-002
1.149366e+003, 2.497049e-002
1.151295e+003, 2.435753e-002
1.153223e+003, 2.374268e-002
1.155151e+003, 2.318592e-002
1.157080e+003, 2.255715e-002
1.159008e+003, 2.204703e-002
1.160937e+003, 2.174062e-002
1.162865e+003, 2.142075e-002
1.164794e+003, 2.091434e-002
1.166722e+003, 2.045244e-002
1.168651e+003, 2.006901e-002
1.170579e+003, 1.974684e-002
1.172508e+003, 1.940466e-002
1.174436e+003, 1.908609e-002
1.176365e+003, 1.884783e-002
1.178293e+003, 1.858107e-002
1.180222e+003, 1.836713e-002
1.182150e+003, 1.811120e-002
1.184078e+003, 1.769977e-002
1.186007e+003, 1.747996e-002
1.187935e+003, 1.740280e-002
1.189864e+003, 1.710223e-002
1.191792e+003, 1.681714e-002
1.193721e+003, 1.661101e-002
1.195649e+003, 1.646450e-002
1.197578e+003, 1.622480e-002
1.199506e+003, 1.589464e-002
1.201435e+003, 1.557568e-002
1.203363e+003, 1.544894e-002
1.205292e+003, 1.537070e-002
1.207220e+003, 1.530882e-002
1.209149e+003, 1.526132e-002
1.211077e+003, 1.504244e-002
1.213005e+003, 1.482578e-002
1.214934e+003, 1.466963e-002
1.216862e+003, 1.470513e-002
1.218791e+003, 1.476895e-002
1.220719e+003, 1.481850e-002
1.222648e+003, 1.483910e-002
1.224576e+003, 1.484664e-002
1.226505e+003, 1.495831e-002
1.228433e+003, 1.511034e-002
1.230362e+003, 1.544568e-002
1.232290e+003, 1.578088e-002
1.234219e+003, 1.612052e-002
1.236147e+003, 1.658537e-002
1.238076e+003, 1.707708e-002
1.240004e+003, 1.769897e-002
1.241932e+003, 1.856356e-002
1.243861e+003, 1.946804e-002
1.245789e+003, 2.050717e-002
1.247718e+003, 2.188541e-002
1.249646e+003, 2.355489e-002
1.251575e+003, 2.533754e-002
1.253503e+003, 2.734097e-002
1.255432e+003, 2.964227e-002
1.257360e+003, 3.192870e-002
1.259289e+003, 3.428082e-002
1.261217e+003, 3.674686e-002
1.263146e+003, 3.912232e-002
1.265074e+003, 4.125609e-002
1.267003e+003, 4.314124e-002
1.268931e+003, 4.439313e-002
1.270859e+003, 4.455028e-002
1.272788e+003, 4.368666e-002
1.274716e+003, 4.190923e-002
1.276645e+003, 3.939201e-002
1.278573e+003, 3.637483e-002
1.280502e+003, 3.334904e-002
1.282430e+003, 3.052521e-002
1.284359e+003, 2.794434e-002
1.286287e+003, 2.563879e-002
1.288216e+003, 2.365261e-002
1.290144e+003, 2.209745e-002
1.292073e+003, 2.086630e-002
1.294001e+003, 1.969972e-002
1.295930e+003, 1.879700e-002
1.297858e+003, 1.810164e-002
1.299786e+003, 1.750530e-002
1.301715e+003, 1.709711e-002
1.303643e+003, 1.678129e-002
1.305572e+003, 1.641823e-002
1.307500e+003, 1.606365e-002
1.309429e+003, 1.566583e-002
1.311357e+003, 1.530533e-002
1.313286e+003, 1.503550e-002
1.315214e+003, 1.484308e-002
1.317143e+003, 1.461712e-002
1.319071e+003, 1.434071e-002
1.321000e+003, 1.420996e-002
1.322928e+003, 1.418093e-002
1.324857e+003, 1.417663e-002
1.326785e+003, 1.413968e-002
1.328714e+003, 1.407289e-002
1.330642e+003, 1.411423e-002
1.332570e+003, 1.406805e-002
1.334499e+003, 1.395595e-002
1.336427e+003, 1.387339e-002
1.338356e+003, 1.380853e-002
1.340284e+003, 1.385926e-002
1.342213e+003, 1.410975e-002
1.344141e+003, 1.419144e-002
1.346070e+003, 1.415011e-002
1.347998e+003, 1.418855e-002
1.349927e+003, 1.429075e-002
1.351855e+003, 1.443822e-002
1.353784e+003, 1.452442e-002
1.355712e+003, 1.461404e-002
1.357641e+003, 1.465494e-002
1.359569e+003, 1.457533e-002
1.361497e+003, 1.450923e-002
1.363426e+003, 1.467962e-002
1.365354e+003, 1.508871e-002
1.367283e+003, 1.527390e-002
1.369211e+003, 1.551384e-002
1.371140e+003, 1.570686e-002
1.373068e+003, 1.560145e-002
1.374997e+003, 1.574895e-002
1.376925e+003, 1.625993e-002
1.378854e+003, 1.650118e-002
1.380782e+003, 1.663662e-002
1.382711e+003, 1.673627e-002
1.384639e+003, 1.673887e-002
1.386568e+003, 1.642689e-002
1.388496e+003, 1.673376e-002
1.390424e+003, 1.735273e-002
1.392353e+003, 1.733878e-002
1.394281e+003, 1.692331e-002
1.396210e+003, 1.728453e-002
1.398138e+003, 1.763256e-002
1.400067e+003, 1.788196e-002
1.401995e+003, 1.825717e-002
1.403924e+003, 1.827927e-002
1.405852e+003, 1.837423e-002
1.407781e+003, 1.867408e-002
1.409709e+003, 1.884059e-002
1.411638e+003, 1.902012e-002
1.413566e+003, 1.911090e-002
1.415495e+003, 1.896158e-002
1.417423e+003, 1.825277e-002
1.419351e+003, 1.771332e-002
1.421280e+003, 1.861294e-002
1.423208e+003, 1.908383e-002
1.425137e+003, 1.911545e-002
1.427065e+003, 1.921550e-002
1.428994e+003, 1.907472e-002
1.430922e+003, 1.909803e-002
1.432851e+003, 1.920109e-002
1.434779e+003, 1.858531e-002
1.436708e+003, 1.780983e-002
1.438636e+003, 1.864438e-002
1.440565e+003, 1.918619e-002
1.442493e+003, 1.918868e-002
1.444422e+003, 1.915159e-002
1.446350e+003, 1.894939e-002
1.448278e+003, 1.870470e-002
1.450207e+003, 1.902556e-002
1.452135e+003, 1.897555e-002
1.454064e+003, 1.828270e-002
1.455992e+003, 1.638264e-002
1.457921e+003, 1.656896e-002
1.459849e+003, 1.826867e-002
1.461778e+003, 1.875509e-002
1.463706e+003, 1.814239e-002
1.465635e+003, 1.806254e-002
1.467563e+003, 1.866933e-002
1.469492e+003, 1.863793e-002
1.471420e+003, 1.762340e-002
1.473349e+003, 1.727387e-002
1.475277e+003, 1.818488e-002
1.477205e+003, 1.886037e-002
1.479134e+003, 1.936946e-002
1.481062e+003, 1.947541e-002
1.482991e+003, 1.961820e-002
1.484919e+003, 1.945857e-002
1.486848e+003, 1.915580e-002
1.488776e+003, 1.882045e-002
1.490705e+003, 1.884332e-002
1.492633e+003, 1.957696e-002
1.494562e+003, 1.914432e-002
1.496490e+003, 1.822376e-002
1.498419e+003, 1.861162e-002
1.500347e+003, 1.924543e-002
1.502276e+003, 1.953550e-002
1.504204e+003, 1.799495e-002
1.506132e+003, 1.587310e-002
1.508061e+003, 1.687480e-002
1.509989e+003, 1.854098e-002
1.511918e+003, 1.874007e-002
1.513846e+003, 1.872467e-002
1.515775e+003, 1.814203e-002
1.517703e+003, 1.790786e-002
1.519632e+003, 1.706260e-002
1.521560e+003, 1.630850e-002
1.523489e+003, 1.756267e-002
1.525417e+003, 1.794544e-002
1.527346e+003, 1.831984e-002
1.529274e+003, 1.883818e-002
1.531203e+003, 1.866329e-002
1.533131e+003, 1.790749e-002
1.535059e+003, 1.831657e-002
1.536988e+003, 1.786115e-002
1.538916e+003, 1.538743e-002
1.540845e+003, 1.529976e-002
1.542773e+003, 1.703586e-002
1.544702e+003, 1.793755e-002
1.546630e+003, 1.869192e-002
1.548559e+003, 1.900120e-002
1.550487e+003, 1.884276e-002
1.552416e+003, 1.839582e-002
1.554344e+003, 1.767065e-002
1.556273e+003, 1.686028e-002
1.558201e+003, 1.431846e-002
1.560130e+003, 1.478128e-002
1.562058e+003, 1.794172e-002
1.563986e+003, 1.886800e-002
1.565915e+003, 1.880024e-002
1.567843e+003, 1.841079e-002
1.569772e+003, 1.804444e-002
1.571700e+003, 1.880132e-002
1.573629e+003, 1.856624e-002
1.575557e+003, 1.681521e-002
1.577486e+003, 1.759176e-002
1.579414e+003, 1.922118e-002
1.581343e+003, 1.953825e-002
1.583271e+003, 1.972853e-002
1.585200e+003, 1.966390e-002
1.587128e+003, 1.962839e-002
1.589057e+003, 1.960579e-002
1.590985e+003, 1.976977e-002
1.592913e+003, 1.984759e-002
1.594842e+003, 1.993811e-002
1.596770e+003, 1.992578e-002
1.598699e+003, 2.001491e-002
1.600627e+003, 2.007730e-002
1.602556e+003, 2.018192e-002
1.604484e+003, 2.023574e-002
1.606413e+003, 2.018394e-002
1.608341e+003, 2.002430e-002
1.610270e+003, 2.021808e-002
1.612198e+003, 2.045845e-002
1.614127e+003, 1.987737e-002
1.616055e+003, 1.820898e-002
1.617984e+003, 1.902991e-002
1.619912e+003, 2.047934e-002
1.621840e+003, 2.009950e-002
1.623769e+003, 1.991206e-002
1.625697e+003, 2.038874e-002
1.627626e+003, 2.037987e-002
1.629554e+003, 2.061432e-002
1.631483e+003, 2.088729e-002
1.633411e+003, 1.985626e-002
1.635340e+003, 1.840640e-002
1.637268e+003, 1.943476e-002
1.639197e+003, 2.067498e-002
1.641125e+003, 2.089143e-002
1.643054e+003, 2.074701e-002
1.644982e+003, 1.933621e-002
1.646911e+003, 1.888404e-002
1.648839e+003, 2.009923e-002
1.650767e+003, 1.855043e-002
1.652696e+003, 1.508127e-002
1.654624e+003, 1.726631e-002
1.656553e+003, 2.035781e-002
1.658481e+003, 2.092715e-002
1.660410e+003, 2.051668e-002
1.662338e+003, 1.986102e-002
1.664267e+003, 2.032538e-002
1.666195e+003, 2.064027e-002
1.668124e+003, 1.964614e-002
1.670052e+003, 1.924828e-002
1.671981e+003, 1.985947e-002
1.673909e+003, 1.942958e-002
1.675838e+003, 1.910420e-002
1.677766e+003, 2.009242e-002
1.679694e+003, 2.012203e-002
1.681623e+003, 1.934991e-002
1.683551e+003, 1.669972e-002
1.685480e+003, 1.700920e-002
1.687408e+003, 1.951129e-002
1.689337e+003, 1.999268e-002
1.691265e+003, 2.015422e-002
1.693194e+003, 1.956294e-002
1.695122e+003, 1.720722e-002
1.697051e+003, 1.726569e-002
1.698979e+003, 1.675399e-002
1.700908e+003, 1.625351e-002
1.702836e+003, 1.861406e-002
1.704765e+003, 1.882694e-002
1.706693e+003, 1.907013e-002
1.708621e+003, 1.937472e-002
1.710550e+003, 1.956682e-002
1.712478e+003, 1.926318e-002
1.714407e+003, 1.832914e-002
1.716335e+003, 1.657212e-002
1.718264e+003, 1.667927e-002
1.720192e+003, 1.854689e-002
1.722121e+003, 1.928047e-002
1.724049e+003, 1.926061e-002
1.725978e+003, 1.945991e-002
1.727906e+003, 1.941060e-002
1.729835e+003, 1.912535e-002
1.731763e+003, 1.780980e-002
1.733692e+003, 1.598752e-002
1.735620e+003, 1.728076e-002
1.737548e+003, 1.868239e-002
1.739477e+003, 1.801132e-002
1.741405e+003, 1.811791e-002
1.743334e+003, 1.817713e-002
1.745262e+003, 1.814842e-002
1.747191e+003, 1.778737e-002
1.749119e+003, 1.734240e-002
1.751048e+003, 1.710513e-002
1.752976e+003, 1.816227e-002
1.754905e+003, 1.878364e-002
1.756833e+003, 1.870584e-002
1.758762e+003, 1.889587e-002
1.760690e+003, 1.857586e-002
1.762619e+003, 1.848424e-002
1.764547e+003, 1.916568e-002
1.766475e+003, 1.889016e-002
1.768404e+003, 1.856638e-002
1.770332e+003, 1.817798e-002
1.772261e+003, 1.745556e-002
1.774189e+003, 1.822671e-002
1.776118e+003, 1.916087e-002
1.778046e+003, 1.937000e-002
1.779975e+003, 1.924805e-002
1.781903e+003, 1.941001e-002
1.783832e+003, 1.943319e-002
1.785760e+003, 1.946548e-002
1.787689e+003, 1.982742e-002
1.789617e+003, 1.938402e-002
1.791546e+003, 1.860720e-002
1.793474e+003, 1.899309e-002
1.795402e+003, 1.996892e-002
1.797331e+003, 2.003937e-002
1.799259e+003, 1.979453e-002
1.801188e+003, 1.969938e-002
1.803116e+003, 1.997998e-002
1.805045e+003, 1.997521e-002
1.806973e+003, 1.993562e-002
1.808902e+003, 1.981520e-002
1.810830e+003, 1.997392e-002
1.812759e+003, 2.026064e-002
1.814687e+003, 2.021531e-002
1.816616e+003, 1.978962e-002
1.818544e+003, 1.993996e-002
1.820473e+003, 2.013402e-002
1.822401e+003, 2.011385e-002
1.824329e+003, 1.986056e-002
1.826258e+003, 2.017304e-002
1.828186e+003, 1.996590e-002
1.830115e+003, 1.969991e-002
1.832043e+003, 2.027891e-002
1.833972e+003, 2.049986e-002
1.835900e+003, 2.027435e-002
1.837829e+003, 2.030745e-002
1.839757e+003, 2.060644e-002
1.841686e+003, 2.028233e-002
1.843614e+003, 1.920930e-002
1.845543e+003, 1.970587e-002
1.847471e+003, 2.059113e-002
1.849400e+003, 2.061753e-002
1.851328e+003, 2.053116e-002
1.853256e+003, 2.068182e-002
1.855185e+003, 2.075549e-002
1.857113e+003, 2.076280e-002
1.859042e+003, 2.069531e-002
1.860970e+003, 2.064169e-002
1.862899e+003, 2.067872e-002
1.864827e+003, 2.059827e-002
1.866756e+003, 2.031274e-002
1.868684e+003, 2.016092e-002
1.870613e+003, 2.031759e-002
1.872541e+003, 2.037912e-002
1.874470e+003, 2.013873e-002
1.876398e+003, 2.045299e-002
1.878327e+003, 2.081721e-002
1.880255e+003, 2.083834e-002
1.882183e+003, 2.065915e-002
1.884112e+003, 2.056121e-002
1.886040e+003, 2.074913e-002
1.887969e+003, 2.060851e-002
1.889897e+003, 2.024560e-002
1.891826e+003, 2.047851e-002
1.893754e+003, 2.048869e-002
1.895683e+003, 2.032025e-002
1.897611e+003, 2.047870e-002
1.899540e+003, 2.082000e-002
1.901468e+003, 2.083981e-002
1.903397e+003, 2.072284e-002
1.905325e+003, 2.090622e-002
1.907254e+003, 2.102646e-002
1.909182e+003, 2.102695e-002
1.911110e+003, 2.123207e-002
1.913039e+003, 2.130879e-002
1.914967e+003, 2.131024e-002
1.916896e+003, 2.080643e-002
1.918824e+003, 2.093386e-002
1.920753e+003, 2.128492e-002
1.922681e+003, 2.122695e-002
1.924610e+003, 2.110501e-002
1.926538e+003, 2.126385e-002
1.928467e+003, 2.170901e-002
1.930395e+003, 2.201366e-002
1.932324e+003, 2.223301e-002
1.934252e+003, 2.253894e-002
1.936181e+003, 2.218876e-002
1.938109e+003, 2.188420e-002
1.940037e+003, 2.157427e-002
1.941966e+003, 2.107242e-002
1.943894e+003, 2.156068e-002
1.945823e+003, 2.235416e-002
1.947751e+003, 2.150381e-002
1.949680e+003, 2.084106e-002
1.951608e+003, 2.119709e-002
1.953537e+003, 2.103198e-002
1.955465e+003, 2.067972e-002
1.957394e+003, 2.124555e-002
1.959322e+003, 2.187319e-002
1.961251e+003, 2.233222e-002
1.963179e+003, 2.207922e-002
1.965108e+003, 2.189910e-002
1.967036e+003, 2.175521e-002
1.968964e+003, 2.174470e-002
1.970893e+003, 2.154154e-002
1.972821e+003, 2.138039e-002
1.974750e+003, 2.075572e-002
1.976678e+003, 2.118765e-002
1.978607e+003, 2.245604e-002
1.980535e+003, 2.257816e-002
1.982464e+003, 2.241866e-002
1.984392e+003, 2.318528e-002
1.986321e+003, 2.359858e-002
1.988249e+003, 2.256732e-002
1.990178e+003, 2.152612e-002
1.992106e+003, 2.184176e-002
1.994035e+003, 2.265716e-002
1.995963e+003, 2.285596e-002
1.997891e+003, 2.263263e-002
1.999820e+003, 2.276300e-002
2.001748e+003, 2.222621e-002
2.003677e+003, 2.165253e-002
2.005605e+003, 2.184782e-002
2.007534e+003, 2.278792e-002
2.009462e+003, 2.304477e-002
2.011391e+003, 2.270748e-002
2.013319e+003, 2.282640e-002
2.015248e+003, 2.337113e-002
2.017176e+003, 2.347634e-002
2.019105e+003, 2.297271e-002
2.021033e+003, 2.261250e-002
2.022962e+003, 2.317598e-002
2.024890e+003, 2.280642e-002
2.026818e+003, 2.228886e-002
2.028747e+003, 2.246099e-002
2.030675e+003, 2.283739e-002
2.032604e+003, 2.339243e-002
2.034532e+003, 2.389614e-002
2.036461e+003, 2.344005e-002
2.038389e+003, 2.376043e-002
2.040318e+003, 2.455888e-002
2.042246e+003, 2.466316e-002
2.044175e+003, 2.442441e-002
2.046103e+003, 2.459309e-002
2.048031e+003, 2.436223e-002
2.049960e+003, 2.489823e-002
2.051888e+003, 2.484108e-002
2.053817e+003, 2.445417e-002
2.055745e+003, 2.476112e-002
2.057674e+003, 2.512587e-002
2.059602e+003, 2.497589e-002
2.061531e+003, 2.481640e-002
2.063459e+003, 2.418139e-002
2.065388e+003, 2.437970e-002
2.067316e+003, 2.471069e-002
2.069245e+003, 2.492771e-002
2.071173e+003, 2.491678e-002
2.073102e+003, 2.480702e-002
2.075030e+003, 2.507075e-002
2.076958e+003, 2.522449e-002
2.078887e+003, 2.448143e-002
2.080815e+003, 2.449393e-002
2.082744e+003, 2.501644e-002
2.084672e+003, 2.597624e-002
2.086601e+003, 2.605329e-002
2.088529e+003, 2.557532e-002
2.090458e+003, 2.553700e-002
2.092386e+003, 2.588034e-002
2.094315e+003, 2.588692e-002
2.096243e+003, 2.572547e-002
2.098172e+003, 2.591518e-002
2.100100e+003, 2.646288e-002
2.102029e+003, 2.643916e-002
2.103957e+003, 2.668728e-002
2.105885e+003, 2.692690e-002
2.107814e+003, 2.694620e-002
2.109742e+003, 2.711981e-002
2.111671e+003, 2.722949e-002
2.113599e+003, 2.704349e-002
2.115528e+003, 2.697353e-002
2.117456e+003, 2.655084e-002
2.119385e+003, 2.621446e-002
2.121313e+003, 2.627981e-002
2.123242e+003, 2.655838e-002
2.125170e+003, 2.653795e-002
2.127099e+003, 2.693709e-002
2.129027e+003, 2.727601e-002
2.130956e+003, 2.723385e-002
2.132884e+003, 2.681739e-002
2.134813e+003, 2.680570e-002
2.136741e+003, 2.672007e-002
2.138669e+003, 2.746673e-002
2.140598e+003, 2.737621e-002
2.142526e+003, 2.726367e-002
2.144455e+003, 2.783025e-002
2.146383e+003, 2.815389e-002
2.148312e+003, 2.818822e-002
2.150240e+003, 2.860699e-002
2.152169e+003, 2.813963e-002
2.154097e+003, 2.781896e-002
2.156026e+003, 2.767931e-002
2.157954e+003, 2.781291e-002
2.159883e+003, 2.890671e-002
2.161811e+003, 3.097232e-002
2.163740e+003, 3.087705e-002
2.165668e+003, 3.026573e-002
2.167596e+003, 3.042444e-002
2.169525e+003, 3.104806e-002
2.171453e+003, 3.065342e-002
2.173382e+003, 3.000235e-002
2.175310e+003, 3.049207e-002
2.177239e+003, 3.111633e-002
2.179167e+003, 3.077057e-002
2.181096e+003, 3.098661e-002
2.183024e+003, 3.131201e-002
2.184953e+003, 3.164845e-002
2.186881e+003, 3.138774e-002
2.188810e+003, 3.113726e-002
2.190738e+003, 3.139151e-002
2.192667e+003, 3.172630e-002
2.194595e+003, 3.118548e-002
2.196523e+003, 3.124737e-002
2.198452e+003, 3.186679e-002
2.200380e+003, 3.207907e-002
2.202309e+003, 3.230893e-002
2.204237e+003, 3.296265e-002
2.206166e+003, 3.267886e-002
2.208094e+003, 3.271310e-002
2.210023e+003, 3.333103e-002
2.211951e+003, 3.390163e-002
2.213880e+003, 3.373130e-002
2.215808e+003, 3.336561e-002
2.217737e+003, 3.336143e-002
2.219665e+003, 3.437419e-002
2.221594e+003, 3.486799e-002
2.223522e+003, 3.468443e-002
2.225450e+003, 3.471175e-002
2.227379e+003, 3.512781e-002
2.229307e+003, 3.528329e-002
2.231236e+003, 3.528746e-002
2.233164e+003, 3.503133e-002
2.235093e+003, 3.500322e-002
2.237021e+003, 3.578238e-002
2.238950e+003, 3.606431e-002
2.240878e+003, 3.596357e-002
2.242807e+003, 3.656782e-002
2.244735e+003, 3.680002e-002
2.246664e+003, 3.689697e-002
2.248592e+003, 3.690496e-002
2.250521e+003, 3.659313e-002
2.252449e+003, 3.655668e-002
2.254377e+003, 3.736839e-002
2.256306e+003, 3.807416e-002
2.258234e+003, 3.791359e-002
2.260163e+003, 3.799705e-002
2.262091e+003, 3.808478e-002
2.264020e+003, 3.776090e-002
2.265948e+003, 3.829472e-002
2.267877e+003, 3.887457e-002
2.269805e+003, 3.898542e-002
2.271734e+003, 3.902541e-002
2.273662e+003, 3.904961e-002
2.275591e+003, 3.967585e-002
2.277519e+003, 4.014182e-002
2.279448e+003, 3.985683e-002
2.281376e+003, 4.002416e-002
2.283304e+003, 3.975505e-002
2.285233e+003, 3.943093e-002
2.287161e+003, 3.988808e-002
2.289090e+003, 4.018572e-002
2.291018e+003, 4.021657e-002
2.292947e+003, 4.033304e-002
2.294875e+003, 4.004817e-002
2.296804e+003, 4.004820e-002
2.298732e+003, 4.039370e-002
2.300661e+003, 4.074644e-002
2.302589e+003, 4.083962e-002
2.304518e+003, 4.086379e-002
2.306446e+003, 4.087383e-002
2.308375e+003, 4.096270e-002
2.310303e+003, 4.122247e-002
2.312231e+003, 4.166175e-002
2.314160e+003, 4.194192e-002
2.316088e+003, 4.219955e-002
2.318017e+003, 4.255364e-002
2.319945e+003, 4.307592e-002
2.321874e+003, 4.317572e-002
2.323802e+003, 4.313046e-002
2.325731e+003, 4.289935e-002
2.327659e+003, 4.274659e-002
2.329588e+003, 4.286636e-002
2.331516e+003, 4.308482e-002
2.333445e+003, 4.323636e-002
2.335373e+003, 4.340631e-002
2.337302e+003, 4.335148e-002
2.339230e+003, 4.334088e-002
2.341158e+003, 4.335217e-002
2.343087e+003, 4.331100e-002
2.345015e+003, 4.338723e-002
2.346944e+003, 4.330203e-002
2.348872e+003, 4.301555e-002
2.350801e+003, 4.322280e-002
2.352729e+003, 4.355532e-002
2.354658e+003, 4.362661e-002
2.356586e+003, 4.403759e-002
2.358515e+003, 4.455410e-002
2.360443e+003, 4.477187e-002
2.362372e+003, 4.484278e-002
2.364300e+003, 4.456099e-002
2.366229e+003, 4.462010e-002
2.368157e+003, 4.454082e-002
2.370085e+003, 4.426035e-002
2.372014e+003, 4.424396e-002
2.373942e+003, 4.411747e-002
2.375871e+003, 4.388113e-002
2.377799e+003, 4.365844e-002
2.379728e+003, 4.362983e-002
2.381656e+003, 4.400013e-002
2.383585e+003, 4.422275e-002
2.385513e+003, 4.429862e-002
2.387442e+003, 4.472361e-002
2.389370e+003, 4.484617e-002
2.391299e+003, 4.454935e-002
2.393227e+003, 4.461941e-002
2.395156e+003, 4.469961e-002
2.397084e+003, 4.493638e-002
2.399012e+003, 4.530603e-002
2.400941e+003, 4.544423e-002
2.402869e+003, 4.504038e-002
2.404798e+003, 4.506923e-002
2.406726e+003, 4.531051e-002
2.408655e+003, 4.559186e-002
2.410583e+003, 4.610085e-002
2.412512e+003, 4.610601e-002
2.414440e+003, 4.590184e-002
2.416369e+003, 4.612259e-002
2.418297e+003, 4.586157e-002
2.420226e+003, 4.527359e-002
2.422154e+003, 4.506783e-002
2.424083e+003, 4.516227e-002
2.426011e+003, 4.529240e-002
2.427939e+003, 4.505043e-002
2.429868e+003, 4.467743e-002
2.431796e+003, 4.485751e-002
2.433725e+003, 4.449310e-002
2.435653e+003, 4.407426e-002
2.437582e+003, 4.381954e-002
2.439510e+003, 4.369861e-002
2.441439e+003, 4.339569e-002
2.443367e+003, 4.296666e-002
2.445296e+003, 4.257647e-002
2.447224e+003, 4.223367e-002
2.449153e+003, 4.164976e-002
2.451081e+003, 4.101081e-002
2.453010e+003, 4.085163e-002
2.454938e+003, 4.025497e-002
2.456866e+003, 3.968879e-002
2.458795e+003, 3.947949e-002
2.460723e+003, 3.917372e-002
2.462652e+003, 3.912313e-002
2.464580e+003, 3.869191e-002
2.466509e+003, 3.833461e-002
2.468437e+003, 3.826195e-002
2.470366e+003, 3.799096e-002
2.472294e+003, 3.727566e-002
2.474223e+003, 3.706692e-002
2.476151e+003, 3.677848e-002
2.478080e+003, 3.640839e-002
2.480008e+003, 3.638827e-002
2.481937e+003, 3.615376e-002
2.483865e+003, 3.565132e-002
2.485793e+003, 3.566997e-002
2.487722e+003, 3.557976e-002
2.489650e+003, 3.559819e-002
2.491579e+003, 3.565293e-002
2.493507e+003, 3.528973e-002
2.495436e+003, 3.506456e-002
2.497364e+003, 3.507258e-002
2.499293e+003, 3.480984e-002
2.501221e+003, 3.445382e-002
2.503150e+003, 3.418097e-002
2.505078e+003, 3.435357e-002
2.507007e+003, 3.438282e-002
2.508935e+003, 3.466614e-002
2.510864e+003, 3.468234e-002
2.512792e+003, 3.463598e-002
2.514720e+003, 3.484743e-002
2.516649e+003, 3.478980e-002
2.518577e+003, 3.470395e-002
2.520506e+003, 3.456826e-002
2.522434e+003, 3.411140e-002
2.524363e+003, 3.453741e-002
2.526291e+003, 3.504732e-002
2.528220e+003, 3.493913e-002
2.530148e+003, 3.465214e-002
2.532077e+003, 3.440990e-002
2.534005e+003, 3.454133e-002
2.535934e+003, 3.471698e-002
2.537862e+003, 3.468663e-002
2.539791e+003, 3.458369e-002
2.541719e+003, 3.481880e-002
2.543647e+003, 3.523088e-002
2.545576e+003, 3.519693e-002
2.547504e+003, 3.511957e-002
2.549433e+003, 3.520127e-002
2.551361e+003, 3.559791e-002
2.553290e+003, 3.579476e-002
2.555218e+003, 3.546403e-002
2.557147e+003, 3.568991e-002
2.559075e+003, 3.606767e-002
2.561004e+003, 3.615164e-002
2.562932e+003, 3.655566e-002
2.564861e+003, 3.663152e-002
2.566789e+003, 3.655761e-002
2.568718e+003, 3.675587e-002
2.570646e+003, 3.693041e-002
2.572574e+003, 3.672453e-002
2.574503e+003, 3.708194e-002
2.576431e+003, 3.736766e-002
2.578360e+003, 3.726567e-002
2.580288e+003, 3.752839e-002
2.582217e+003, 3.760533e-002
2.584145e+003, 3.769098e-002
2.586074e+003, 3.761324e-002
2.588002e+003, 3.782779e-002
2.589931e+003, 3.844462e-002
2.591859e+003, 3.852859e-002
2.593788e+003, 3.821040e-002
2.595716e+003, 3.799632e-002
2.597645e+003, 3.784797e-002
2.599573e+003, 3.817301e-002
2.601501e+003, 3.873609e-002
2.603430e+003, 3.901722e-002
2.605358e+003, 3.899535e-002
2.607287e+003, 3.889055e-002
2.609215e+003, 3.916529e-002
2.611144e+003, 3.961835e-002
2.613072e+003, 3.972967e-002
2.615001e+003, 3.958175e-002
2.616929e+003, 3.970584e-002
2.618858e+003, 3.984953e-002
2.620786e+003, 3.967955e-002
2.622715e+003, 3.959000e-002
2.624643e+003, 3.983651e-002
2.626572e+003, 4.013956e-002
2.628500e+003, 4.030957e-002
2.630428e+003, 4.036215e-002
2.632357e+003, 4.046277e-002
2.634285e+003, 4.032888e-002
2.636214e+003, 4.038678e-002
2.638142e+003, 4.067847e-002
2.640071e+003, 4.089493e-002
2.641999e+003, 4.079447e-002
2.643928e+003, 4.086700e-002
2.645856e+003, 4.107179e-002
2.647785e+003, 4.131436e-002
2.649713e+003, 4.134576e-002
2.651642e+003, 4.125227e-002
2.653570e+003, 4.133638e-002
2.655499e+003, 4.135703e-002
2.657427e+003, 4.138094e-002
2.659355e+003, 4.158471e-002
2.661284e+003, 4.184239e-002
2.663212e+003, 4.170247e-002
2.665141e+003, 4.149861e-002
2.667069e+003, 4.164269e-002
2.668998e+003, 4.192543e-002
2.670926e+003, 4.198227e-002
2.672855e+003, 4.227858e-002
2.674783e+003, 4.236142e-002
2.676712e+003, 4.230634e-002
2.678640e+003, 4.252851e-002
2.680569e+003, 4.271647e-002
2.682497e+003, 4.303902e-002
2.684426e+003, 4.318326e-002
2.686354e+003, 4.303511e-002
2.688282e+003, 4.305268e-002
2.690211e+003, 4.325720e-002
2.692139e+003, 4.328034e-002
2.694068e+003, 4.340427e-002
2.695996e+003, 4.378118e-002
2.697925e+003, 4.392495e-002
2.699853e+003, 4.386709e-002
2.701782e+003, 4.396438e-002
2.703710e+003, 4.431150e-002
2.705639e+003, 4.453021e-002
2.707567e+003, 4.435733e-002
2.709496e+003, 4.442730e-002
2.711424e+003, 4.464286e-002
2.713353e+003, 4.479031e-002
2.715281e+003, 4.509049e-002
2.717209e+003, 4.517493e-002
2.719138e+003, 4.513775e-002
2.721066e+003, 4.534473e-002
2.722995e+003, 4.532693e-002
2.724923e+003, 4.532574e-002
2.726852e+003, 4.552314e-002
2.728780e+003, 4.595790e-002
2.730709e+003, 4.592520e-002
2.732637e+003, 4.572886e-002
2.734566e+003, 4.570141e-002
2.736494e+003, 4.593779e-002
2.738423e+003, 4.615284e-002
2.740351e+003, 4.627015e-002
2.742280e+003, 4.650156e-002
2.744208e+003, 4.686389e-002
2.746136e+003, 4.718900e-002
2.748065e+003, 4.722918e-002
2.749993e+003, 4.711796e-002
2.751922e+003, 4.717226e-002
2.753850e+003, 4.755751e-002
2.755779e+003, 4.765343e-002
2.757707e+003, 4.751459e-002
2.759636e+003, 4.773476e-002
2.761564e+003, 4.792153e-002
2.763493e+003, 4.803006e-002
2.765421e+003, 4.803326e-002
2.767350e+003, 4.814636e-002
2.769278e+003, 4.832799e-002
2.771207e+003, 4.857955e-002
2.773135e+003, 4.866138e-002
2.775063e+003, 4.860951e-002
2.776992e+003, 4.880910e-002
2.778920e+003, 4.901319e-002
2.780849e+003, 4.915059e-002
2.782777e+003, 4.920619e-002
2.784706e+003, 4.936010e-002
2.786634e+003, 4.956199e-002
2.788563e+003, 4.973738e-002
2.790491e+003, 4.985115e-002
2.792420e+003, 4.988013e-002
2.794348e+003, 4.995570e-002
2.796277e+003, 5.004394e-002
2.798205e+003, 5.012370e-002
2.800134e+003, 5.010171e-002
2.802062e+003, 5.034570e-002
2.803990e+003, 5.072432e-002
2.805919e+003, 5.082699e-002
2.807847e+003, 5.079354e-002
2.809776e+003, 5.087201e-002
2.811704e+003, 5.085926e-002
2.813633e+003, 5.084199e-002
2.815561e+003, 5.117803e-002
2.817490e+003, 5.143562e-002
2.819418e+003, 5.145972e-002
2.821347e+003, 5.153551e-002
2.823275e+003, 5.164842e-002
2.825204e+003, 5.171905e-002
2.827132e+003, 5.161493e-002
2.829061e+003, 5.178180e-002
2.830989e+003, 5.197559e-002
2.832917e+003, 5.190603e-002
2.834846e+003, 5.204162e-002
2.836774e+003, 5.223554e-002
2.838703e+003, 5.222088e-002
2.840631e+003, 5.212800e-002
2.842560e+003, 5.179333e-002
2.844488e+003, 5.083495e-002
2.846417e+003, 4.981937e-002
2.848345e+003, 4.918193e-002
2.850274e+003, 4.902729e-002
2.852202e+003, 4.958496e-002
2.854131e+003, 5.022223e-002
2.856059e+003, 5.094690e-002
2.857988e+003, 5.111120e-002
2.859916e+003, 5.140440e-002
2.861844e+003, 5.193053e-002
2.863773e+003, 5.236152e-002
2.865701e+003, 5.243753e-002
2.867630e+003, 5.232520e-002
2.869558e+003, 5.211697e-002
2.871487e+003, 5.214974e-002
2.873415e+003, 5.236261e-002
2.875344e+003, 5.229830e-002
2.877272e+003, 5.210897e-002
2.879201e+003, 5.202955e-002
2.881129e+003, 5.186804e-002
2.883058e+003, 5.172358e-002
2.884986e+003, 5.175429e-002
2.886915e+003, 5.174877e-002
2.888843e+003, 5.167013e-002
2.890771e+003, 5.149348e-002
2.892700e+003, 5.103241e-002
2.894628e+003, 5.054963e-002
2.896557e+003, 5.033393e-002
2.898485e+003, 5.029000e-002
2.900414e+003, 5.037903e-002
2.902342e+003, 5.034978e-002
2.904271e+003, 5.008259e-002
2.906199e+003, 4.982407e-002
2.908128e+003, 4.930764e-002
2.910056e+003, 4.850318e-002
2.911985e+003, 4.756229e-002
2.913913e+003, 4.666685e-002
2.915842e+003, 4.593616e-002
2.917770e+003, 4.539468e-002
2.919698e+003, 4.523713e-002
2.921627e+003, 4.590105e-002
2.923555e+003, 4.640152e-002
2.925484e+003, 4.643406e-002
2.927412e+003, 4.666938e-002
2.929341e+003, 4.707215e-002
2.931269e+003, 4.735072e-002
2.933198e+003, 4.748503e-002
2.935126e+003, 4.726882e-002
2.937055e+003, 4.725989e-002
2.938983e+003, 4.744112e-002
2.940912e+003, 4.766505e-002
2.942840e+003, 4.771550e-002
2.944769e+003, 4.758555e-002
2.946697e+003, 4.760814e-002
2.948625e+003, 4.750004e-002
2.950554e+003, 4.730773e-002
2.952482e+003, 4.736444e-002
2.954411e+003, 4.778408e-002
2.956339e+003, 4.792785e-002
2.958268e+003, 4.726596e-002
2.960196e+003, 4.693616e-002
2.962125e+003, 4.719939e-002
2.964053e+003, 4.742480e-002
2.965982e+003, 4.747808e-002
2.967910e+003, 4.731232e-002
2.969839e+003, 4.693694e-002
2.971767e+003, 4.675855e-002
2.973696e+003, 4.648864e-002
2.975624e+003, 4.638804e-002
2.977552e+003, 4.667957e-002
2.979481e+003, 4.647371e-002
2.981409e+003, 4.656910e-002
2.983338e+003, 4.662012e-002
2.985266e+003, 4.669273e-002
2.987195e+003, 4.676319e-002
2.989123e+003, 4.617027e-002
2.991052e+003, 4.607331e-002
2.992980e+003, 4.631848e-002
2.994909e+003, 4.596688e-002
2.996837e+003, 4.555267e-002
2.998766e+003, 4.570032e-002
3.000694e+003, 4.592015e-002
3.002623e+003, 4.556512e-002
3.004551e+003, 4.538167e-002
3.006479e+003, 4.547940e-002
3.008408e+003, 4.565569e-002
3.010336e+003, 4.562729e-002
3.012265e+003, 4.546090e-002
3.014193e+003, 4.559659e-002
3.016122e+003, 4.537546e-002
3.018050e+003, 4.507811e-002
3.019979e+003, 4.475849e-002
3.021907e+003, 4.487758e-002
3.023836e+003, 4.477281e-002
3.025764e+003, 4.451985e-002
3.027693e+003, 4.431698e-002
3.029621e+003, 4.437369e-002
3.031550e+003, 4.468337e-002
3.033478e+003, 4.480003e-002
3.035406e+003, 4.454835e-002
3.037335e+003, 4.460427e-002
3.039263e+003, 4.476781e-002
3.041192e+003, 4.495380e-002
3.043120e+003, 4.482679e-002
3.045049e+003, 4.451596e-002
3.046977e+003, 4.463474e-002
3.048906e+003, 4.468134e-002
3.050834e+003, 4.475461e-002
3.052763e+003, 4.462431e-002
3.054691e+003, 4.422893e-002
3.056620e+003, 4.424188e-002
3.058548e+003, 4.432091e-002
3.060477e+003, 4.440722e-002
3.062405e+003, 4.444056e-002
3.064333e+003, 4.443236e-002
3.066262e+003, 4.468532e-002
3.068190e+003, 4.473063e-002
3.070119e+003, 4.424958e-002
3.072047e+003, 4.412002e-002
3.073976e+003, 4.416825e-002
3.075904e+003, 4.438687e-002
3.077833e+003, 4.467663e-002
3.079761e+003, 4.469149e-002
3.081690e+003, 4.449869e-002
3.083618e+003, 4.447392e-002
3.085547e+003, 4.439810e-002
3.087475e+003, 4.438567e-002
3.089404e+003, 4.438134e-002
3.091332e+003, 4.428651e-002
3.093260e+003, 4.440182e-002
3.095189e+003, 4.469092e-002
3.097117e+003, 4.459127e-002
3.099046e+003, 4.481295e-002
3.100974e+003, 4.501832e-002
3.102903e+003, 4.458554e-002
3.104831e+003, 4.408639e-002
3.106760e+003, 4.442225e-002
3.108688e+003, 4.489082e-002
3.110617e+003, 4.479424e-002
3.112545e+003, 4.446414e-002
3.114474e+003, 4.434828e-002
3.116402e+003, 4.453221e-002
3.118331e+003, 4.470647e-002
3.120259e+003, 4.450076e-002
3.122188e+003, 4.417255e-002
3.124116e+003, 4.396806e-002
3.126044e+003, 4.441404e-002
3.127973e+003, 4.441052e-002
3.129901e+003, 4.440302e-002
3.131830e+003, 4.465671e-002
3.133758e+003, 4.464674e-002
3.135687e+003, 4.391940e-002
3.137615e+003, 4.403089e-002
3.139544e+003, 4.459478e-002
3.141472e+003, 4.438132e-002
3.143401e+003, 4.417045e-002
3.145329e+003, 4.462570e-002
3.147258e+003, 4.484783e-002
3.149186e+003, 4.435855e-002
3.151115e+003, 4.449880e-002
3.153043e+003, 4.491269e-002
3.154971e+003, 4.452645e-002
3.156900e+003, 4.461749e-002
3.158828e+003, 4.492616e-002
3.160757e+003, 4.519097e-002
3.162685e+003, 4.514815e-002
3.164614e+003, 4.463383e-002
3.166542e+003, 4.464594e-002
3.168471e+003, 4.471191e-002
3.170399e+003, 4.454057e-002
3.172328e+003, 4.451152e-002
3.174256e+003, 4.455623e-002
3.176185e+003, 4.463980e-002
3.178113e+003, 4.496057e-002
3.180042e+003, 4.492576e-002
3.181970e+003, 4.486396e-002
3.183898e+003, 4.501564e-002
3.185827e+003, 4.516187e-002
3.187755e+003, 4.512180e-002
3.189684e+003, 4.452649e-002
3.191612e+003, 4.436000e-002
3.193541e+003, 4.469445e-002
3.195469e+003, 4.444204e-002
3.197398e+003, 4.437018e-002
3.199326e+003, 4.491505e-002
3.201255e+003, 4.502389e-002
3.203183e+003, 4.477713e-002
3.205112e+003, 4.439121e-002
3.207040e+003, 4.426599e-002
3.208969e+003, 4.470117e-002
3.210897e+003, 4.498929e-002
3.212825e+003, 4.454757e-002
3.214754e+003, 4.419055e-002
3.216682e+003, 4.445861e-002
3.218611e+003, 4.509518e-002
3.220539e+003, 4.502710e-002
3.222468e+003, 4.482925e-002
3.224396e+003, 4.458169e-002
3.226325e+003, 4.446177e-002
3.228253e+003, 4.506525e-002
3.230182e+003, 4.546902e-002
3.232110e+003, 4.552832e-002
3.234039e+003, 4.579760e-002
3.235967e+003, 4.555862e-002
3.237896e+003, 4.518405e-002
3.239824e+003, 4.517972e-002
3.241752e+003, 4.578231e-002
3.243681e+003, 4.578111e-002
3.245609e+003, 4.564153e-002
3.247538e+003, 4.542102e-002
3.249466e+003, 4.543806e-002
3.251395e+003, 4.505470e-002
3.253323e+003, 4.489260e-002
3.255252e+003, 4.505060e-002
3.257180e+003, 4.520320e-002
3.259109e+003, 4.566219e-002
3.261037e+003, 4.586031e-002
3.262966e+003, 4.578007e-002
3.264894e+003, 4.542504e-002
3.266823e+003, 4.563558e-002
3.268751e+003, 4.603567e-002
3.270679e+003, 4.627138e-002
3.272608e+003, 4.596805e-002
3.274536e+003, 4.599020e-002
3.276465e+003, 4.625255e-002
3.278393e+003, 4.643732e-002
3.280322e+003, 4.607952e-002
3.282250e+003, 4.565989e-002
3.284179e+003, 4.599499e-002
3.286107e+003, 4.641726e-002
3.288036e+003, 4.643580e-002
3.289964e+003, 4.630760e-002
3.291893e+003, 4.648107e-002
3.293821e+003, 4.677355e-002
3.295750e+003, 4.662654e-002
3.297678e+003, 4.649973e-002
3.299606e+003, 4.664691e-002
3.301535e+003, 4.632060e-002
3.303463e+003, 4.659676e-002
3.305392e+003, 4.685671e-002
3.307320e+003, 4.662777e-002
3.309249e+003, 4.698415e-002
3.311177e+003, 4.762434e-002
3.313106e+003, 4.766893e-002
3.315034e+003, 4.731376e-002
3.316963e+003, 4.658640e-002
3.318891e+003, 4.703225e-002
3.320820e+003, 4.691217e-002
3.322748e+003, 4.696488e-002
3.324677e+003, 4.759468e-002
3.326605e+003, 4.763509e-002
3.328533e+003, 4.740033e-002
3.330462e+003, 4.697561e-002
3.332390e+003, 4.674601e-002
3.334319e+003, 4.694051e-002
3.336247e+003, 4.731335e-002
3.338176e+003, 4.735100e-002
3.340104e+003, 4.720965e-002
3.342033e+003, 4.713358e-002
3.343961e+003, 4.735118e-002
3.345890e+003, 4.748800e-002
3.347818e+003, 4.752534e-002
3.349747e+003, 4.769839e-002
3.351675e+003, 4.751405e-002
3.353604e+003, 4.753114e-002
3.355532e+003, 4.777781e-002
3.357460e+003, 4.753608e-002
3.359389e+003, 4.755739e-002
3.361317e+003, 4.732179e-002
3.363246e+003, 4.723806e-002
3.365174e+003, 4.732214e-002
3.367103e+003, 4.707258e-002
3.369031e+003, 4.720007e-002
3.370960e+003, 4.726210e-002
3.372888e+003, 4.726347e-002
3.374817e+003, 4.720335e-002
3.376745e+003, 4.706521e-002
3.378674e+003, 4.684127e-002
3.380602e+003, 4.699526e-002
3.382531e+003, 4.733156e-002
3.384459e+003, 4.675230e-002
3.386387e+003, 4.650417e-002
3.388316e+003, 4.657243e-002
3.390244e+003, 4.680459e-002
3.392173e+003, 4.694033e-002
3.394101e+003, 4.702369e-002
3.396030e+003, 4.657438e-002
3.397958e+003, 4.620375e-002
3.399887e+003, 4.648756e-002
3.401815e+003, 4.652026e-002
3.403744e+003, 4.628569e-002
3.405672e+003, 4.610464e-002
3.407601e+003, 4.610375e-002
3.409529e+003, 4.607153e-002
3.411458e+003, 4.595700e-002
3.413386e+003, 4.629195e-002
3.415314e+003, 4.590435e-002
3.417243e+003, 4.581627e-002
3.419171e+003, 4.623045e-002
3.421100e+003, 4.617521e-002
3.423028e+003, 4.588521e-002
3.424957e+003, 4.590339e-002
3.426885e+003, 4.643514e-002
3.428814e+003, 4.636904e-002
3.430742e+003, 4.615699e-002
3.432671e+003, 4.643305e-002
3.434599e+003, 4.620640e-002
3.436528e+003, 4.522173e-002
3.438456e+003, 4.477994e-002
3.440385e+003, 4.513410e-002
3.442313e+003, 4.530014e-002
3.444241e+003, 4.483844e-002
3.446170e+003, 4.534421e-002
3.448098e+003, 4.533000e-002
3.450027e+003, 4.472713e-002
3.451955e+003, 4.479510e-002
3.453884e+003, 4.494465e-002
3.455812e+003, 4.521837e-002
3.457741e+003, 4.555684e-002
3.459669e+003, 4.585145e-002
3.461598e+003, 4.588139e-002
3.463526e+003, 4.559693e-002
3.465455e+003, 4.521915e-002
3.467383e+003, 4.487798e-002
3.469312e+003, 4.509108e-002
3.471240e+003, 4.511181e-002
3.473168e+003, 4.475954e-002
3.475097e+003, 4.510270e-002
3.477025e+003, 4.559334e-002
3.478954e+003, 4.569826e-002
3.480882e+003, 4.611688e-002
3.482811e+003, 4.620055e-002
3.484739e+003, 4.564740e-002
3.486668e+003, 4.550302e-002
3.488596e+003, 4.605319e-002
3.490525e+003, 4.639130e-002
3.492453e+003, 4.603811e-002
3.494382e+003, 4.553097e-002
3.496310e+003, 4.523720e-002
3.498239e+003, 4.498493e-002
3.500167e+003, 4.513350e-002
3.502095e+003, 4.496146e-002
3.504024e+003, 4.436687e-002
3.505952e+003, 4.397600e-002
3.507881e+003, 4.432251e-002
3.509809e+003, 4.485855e-002
3.511738e+003, 4.487658e-002
3.513666e+003, 4.474263e-002
3.515595e+003, 4.472670e-002
3.517523e+003, 4.419555e-002
3.519452e+003, 4.400794e-002
3.521380e+003, 4.431956e-002
3.523309e+003, 4.415371e-002
3.525237e+003, 4.381794e-002
3.527166e+003, 4.400986e-002
3.529094e+003, 4.384577e-002
3.531022e+003, 4.353075e-002
3.532951e+003, 4.354027e-002
3.534879e+003, 4.327641e-002
3.536808e+003, 4.305470e-002
3.538736e+003, 4.373917e-002
3.540665e+003, 4.416469e-002
3.542593e+003, 4.446855e-002
3.544522e+003, 4.447314e-002
3.546450e+003, 4.367974e-002
3.548379e+003, 4.343467e-002
3.550307e+003, 4.341929e-002
3.552236e+003, 4.309184e-002
3.554164e+003, 4.312448e-002
3.556093e+003, 4.346357e-002
3.558021e+003, 4.355288e-002
3.559949e+003, 4.371560e-002
3.561878e+003, 4.365540e-002
3.563806e+003, 4.333207e-002
3.565735e+003, 4.342539e-002
3.567663e+003, 4.337160e-002
3.569592e+003, 4.284666e-002
3.571520e+003, 4.290842e-002
3.573449e+003, 4.313407e-002
3.575377e+003, 4.313458e-002
3.577306e+003, 4.297692e-002
3.579234e+003, 4.256487e-002
3.581163e+003, 4.217878e-002
3.583091e+003, 4.298129e-002
3.585020e+003, 4.365012e-002
3.586948e+003, 4.320956e-002
3.588876e+003, 4.294516e-002
3.590805e+003, 4.254652e-002
3.592733e+003, 4.163329e-002
3.594662e+003, 4.186811e-002
3.596590e+003, 4.227294e-002
3.598519e+003, 4.231333e-002
3.600447e+003, 4.234328e-002
3.602376e+003, 4.177709e-002
3.604304e+003, 4.162458e-002
3.606233e+003, 4.204809e-002
3.608161e+003, 4.146261e-002
3.610090e+003, 4.109514e-002
3.612018e+003, 4.177167e-002
3.613947e+003, 4.107765e-002
3.615875e+003, 4.048679e-002
3.617803e+003, 4.057465e-002
3.619732e+003, 4.073276e-002
3.621660e+003, 4.059188e-002
3.623589e+003, 4.008470e-002
3.625517e+003, 3.990155e-002
3.627446e+003, 4.064671e-002
3.629374e+003, 4.080273e-002
3.631303e+003, 4.040496e-002
3.633231e+003, 4.034070e-002
3.635160e+003, 4.041884e-002
3.637088e+003, 4.048313e-002
3.639017e+003, 3.999865e-002
3.640945e+003, 4.008368e-002
3.642874e+003, 4.020121e-002
3.644802e+003, 4.032646e-002
3.646730e+003, 4.094017e-002
3.648659e+003, 4.044697e-002
3.650587e+003, 3.942307e-002
3.652516e+003, 3.915878e-002
3.654444e+003, 3.927850e-002
3.656373e+003, 3.898134e-002
3.658301e+003, 3.865504e-002
3.660230e+003, 3.899680e-002
3.662158e+003, 3.943115e-002
3.664087e+003, 3.947906e-002
3.666015e+003, 3.925281e-002
3.667944e+003, 3.999627e-002
3.669872e+003, 3.933166e-002
3.671801e+003, 3.845774e-002
3.673729e+003, 4.019605e-002
3.675657e+003, 3.991300e-002
3.677586e+003, 3.948649e-002
3.679514e+003, 3.990658e-002
3.681443e+003, 3.956132e-002
3.683371e+003, 3.901702e-002
3.685300e+003, 3.912541e-002
3.687228e+003, 3.889117e-002
3.689157e+003, 3.894141e-002
3.691085e+003, 3.935543e-002
3.693014e+003, 3.897778e-002
3.694942e+003, 3.904487e-002
3.696871e+003, 3.919427e-002
3.698799e+003, 3.957301e-002
3.700728e+003, 3.992228e-002
3.702656e+003, 3.944096e-002
3.704584e+003, 3.890901e-002
3.706513e+003, 3.936584e-002
3.708441e+003, 4.050766e-002
3.710370e+003, 4.077705e-002
3.712298e+003, 3.988827e-002
3.714227e+003, 4.010193e-002
3.716155e+003, 4.028329e-002
3.718084e+003, 4.049591e-002
3.720012e+003, 4.034797e-002
3.721941e+003, 3.989599e-002
3.723869e+003, 4.062429e-002
3.725798e+003, 4.086567e-002
3.727726e+003, 4.031854e-002
3.729655e+003, 4.074888e-002
3.731583e+003, 4.089916e-002
3.733511e+003, 4.104818e-002
3.735440e+003, 4.131575e-002
3.737368e+003, 4.100121e-002
3.739297e+003, 4.023706e-002
3.741225e+003, 3.991925e-002
3.743154e+003, 3.957946e-002
3.745082e+003, 3.860729e-002
3.747011e+003, 3.925240e-002
3.748939e+003, 3.910691e-002
3.750868e+003, 3.846563e-002
3.752796e+003, 3.864888e-002
3.754725e+003, 4.016932e-002
3.756653e+003, 4.035736e-002
3.758582e+003, 4.050200e-002
3.760510e+003, 4.074794e-002
3.762438e+003, 4.068233e-002
3.764367e+003, 4.063255e-002
3.766295e+003, 3.981418e-002
3.768224e+003, 3.959510e-002
3.770152e+003, 3.967981e-002
3.772081e+003, 3.942965e-002
3.774009e+003, 4.011441e-002
3.775938e+003, 4.005680e-002
3.777866e+003, 4.023644e-002
3.779795e+003, 4.028699e-002
3.781723e+003, 4.008076e-002
3.783652e+003, 4.022428e-002
3.785580e+003, 3.999640e-002
3.787509e+003, 3.975073e-002
3.789437e+003, 4.001350e-002
3.791365e+003, 4.028565e-002
3.793294e+003, 4.060506e-002
3.795222e+003, 4.089187e-002
3.797151e+003, 4.143469e-002
3.799079e+003, 4.101630e-002
3.801008e+003, 3.945998e-002
3.802936e+003, 3.947636e-002
3.804865e+003, 4.062053e-002
3.806793e+003, 4.033422e-002
3.808722e+003, 3.978202e-002
3.810650e+003, 3.964734e-002
3.812579e+003, 3.997741e-002
3.814507e+003, 3.951751e-002
3.816436e+003, 3.939632e-002
3.818364e+003, 4.105829e-002
3.820292e+003, 4.175321e-002
3.822221e+003, 4.103641e-002
3.824149e+003, 4.090833e-002
3.826078e+003, 4.093985e-002
3.828006e+003, 4.074666e-002
3.829935e+003, 4.057226e-002
3.831863e+003, 4.047061e-002
3.833792e+003, 4.085037e-002
3.835720e+003, 4.019652e-002
3.837649e+003, 3.961097e-002
3.839577e+003, 4.098813e-002
3.841506e+003, 4.165789e-002
3.843434e+003, 4.151545e-002
3.845363e+003, 4.088762e-002
3.847291e+003, 4.090894e-002
3.849219e+003, 4.108121e-002
3.851148e+003, 4.028130e-002
3.853076e+003, 3.964245e-002
3.855005e+003, 3.874443e-002
3.856933e+003, 3.995139e-002
3.858862e+003, 4.095300e-002
3.860790e+003, 4.118082e-002
3.862719e+003, 4.147717e-002
3.864647e+003, 4.177747e-002
3.866576e+003, 4.156893e-002
3.868504e+003, 4.167584e-002
3.870433e+003, 4.166305e-002
3.872361e+003, 4.199419e-002
3.874290e+003, 4.175373e-002
3.876218e+003, 4.105294e-002
3.878146e+003, 4.133188e-002
3.880075e+003, 4.204400e-002
3.882003e+003, 4.170687e-002
3.883932e+003, 4.188103e-002
3.885860e+003, 4.193290e-002
3.887789e+003, 4.150067e-002
3.889717e+003, 4.132313e-002
3.891646e+003, 4.175975e-002
3.893574e+003, 4.138190e-002
3.895503e+003, 4.036893e-002
3.897431e+003, 4.078392e-002
3.899360e+003, 4.183341e-002
3.901288e+003, 4.164148e-002
3.903217e+003, 4.184932e-002
3.905145e+003, 4.167067e-002
3.907073e+003, 4.093532e-002
3.909002e+003, 4.025299e-002
3.910930e+003, 4.069451e-002
3.912859e+003, 4.116901e-002
3.914787e+003, 4.133028e-002
3.916716e+003, 4.182700e-002
3.918644e+003, 4.176716e-002
3.920573e+003, 4.141608e-002
3.922501e+003, 4.207705e-002
3.924430e+003, 4.206941e-002
3.926358e+003, 4.115334e-002
3.928287e+003, 4.151579e-002
3.930215e+003, 4.197149e-002
3.932144e+003, 4.157054e-002
3.934072e+003, 4.143559e-002
3.936000e+003, 4.146162e-002
3.937929e+003, 4.114464e-002
3.939857e+003, 4.145699e-002
3.941786e+003, 4.185091e-002
3.943714e+003, 4.158230e-002
3.945643e+003, 4.150928e-002
3.947571e+003, 4.182449e-002
3.949500e+003, 4.189020e-002
3.951428e+003, 4.164089e-002
3.953357e+003, 4.130552e-002
3.955285e+003, 4.210538e-002
3.957214e+003, 4.211656e-002
3.959142e+003, 4.129153e-002
3.961071e+003, 4.089587e-002
3.962999e+003, 4.112555e-002
3.964927e+003, 4.191885e-002
3.966856e+003, 4.195561e-002
3.968784e+003, 4.107164e-002
3.970713e+003, 4.137933e-002
3.972641e+003, 4.187930e-002
3.974570e+003, 4.097926e-002
3.976498e+003, 4.072440e-002
3.978427e+003, 4.108092e-002
3.980355e+003, 4.134918e-002
3.982284e+003, 4.161262e-002
3.984212e+003, 4.228715e-002
3.986141e+003, 4.257146e-002
3.988069e+003, 4.244368e-002
3.989998e+003, 4.264289e-002
3.991926e+003, 4.224942e-002
3.993854e+003, 4.234616e-002
3.995783e+003, 4.250044e-002
3.997711e+003, 4.259798e-002
3.999640e+003, 4.241420e-002
4.001568e+003, 0.000000e+000
##END=



