##NAMES=Bastnasite-(Ce)
##RRUFFID=R050409
##IDEAL CHEMISTRY=CeCO_3_F
##LOCALITY=Machni, near Warsak Dam, Zagi Mountain, North-West Frontier Province, Pakistan
##OWNER=RRUFF
##SOURCE=G.R. Rossman
##DESCRIPTION=Yellowish brown fragment
##STATUS=The identification of this mineral has been confirmed by X-ray diffraction and chemical analysis
##URL=rruff.info/R050409
##MEASURED CHEMISTRY=(Ce_0.54_(La,Pr)_0.25_Nd_0.21_)_Î£=1_CO_3_F_1.00_
399.1926, 5.6596890E-02
401.1211, 4.4075228E-02
403.0496, 4.4287130E-02
404.9780, 3.9487582E-02
406.9065, 3.7526522E-02
408.8350, 3.7787888E-02
410.7634, 3.6470760E-02
412.6919, 3.2932509E-02
414.6204, 3.0140011E-02
416.5488, 2.9438920E-02
418.4773, 2.7413780E-02
420.4058, 2.7972549E-02
422.3342, 2.7089190E-02
424.2627, 2.4708770E-02
426.1912, 2.5378831E-02
428.1196, 2.5551051E-02
430.0481, 2.6008479E-02
431.9766, 2.4936950E-02
433.9050, 2.2992920E-02
435.8335, 2.1350671E-02
437.7620, 2.1158980E-02
439.6904, 2.0175699E-02
441.6189, 1.8151039E-02
443.5474, 1.6236840E-02
445.4758, 1.4717120E-02
447.4043, 1.5070250E-02
449.3328, 1.5784791E-02
451.2612, 1.5257940E-02
453.1897, 1.4967600E-02
455.1182, 1.4584240E-02
457.0466, 1.3696260E-02
458.9751, 1.4398670E-02
460.9036, 1.3959560E-02
462.8320, 1.3799150E-02
464.7605, 1.4132590E-02
466.6890, 1.3885230E-02
468.6174, 1.3244840E-02
470.5459, 1.2707750E-02
472.4744, 1.2768720E-02
474.4028, 1.2474330E-02
476.3313, 1.2687100E-02
478.2598, 1.2405030E-02
480.1882, 1.2162930E-02
482.1167, 1.2501800E-02
484.0452, 1.2192780E-02
485.9736, 1.1426670E-02
487.9021, 1.1620010E-02
489.8306, 1.1925940E-02
491.7590, 1.1887430E-02
493.6875, 1.1527360E-02
495.6160, 1.1404060E-02
497.5444, 1.2064670E-02
499.4729, 1.2407700E-02
501.4014, 1.1992000E-02
503.3298, 1.2130080E-02
505.2583, 1.2201010E-02
507.1868, 1.1090820E-02
509.1152, 1.0757730E-02
511.0437, 1.0937860E-02
512.9722, 1.0644880E-02
514.9006, 1.1002150E-02
516.8291, 1.0977500E-02
518.7576, 1.0925010E-02
520.6860, 1.1163470E-02
522.6145, 1.1394170E-02
524.5430, 1.1554370E-02
526.4714, 1.1323450E-02
528.3999, 1.1370280E-02
530.3284, 1.1822780E-02
532.2568, 1.1892070E-02
534.1853, 1.1427920E-02
536.1138, 1.0458630E-02
538.0422, 1.0028970E-02
539.9707, 1.0640130E-02
541.8992, 1.0990720E-02
543.8276, 1.1372140E-02
545.7561, 1.1997240E-02
547.6846, 1.1817500E-02
549.6130, 1.1282380E-02
551.5415, 1.1662750E-02
553.4700, 1.1975950E-02
555.3984, 1.1559470E-02
557.3269, 1.1484000E-02
559.2554, 1.1887150E-02
561.1838, 1.1613440E-02
563.1123, 1.1289280E-02
565.0408, 1.1559510E-02
566.9692, 1.1997900E-02
568.8977, 1.2072710E-02
570.8262, 1.1667040E-02
572.7546, 1.1366790E-02
574.6831, 1.1880180E-02
576.6116, 1.2430420E-02
578.5400, 1.2539070E-02
580.4685, 1.2737370E-02
582.3970, 1.3208530E-02
584.3254, 1.3233250E-02
586.2539, 1.3367720E-02
588.1824, 1.3800090E-02
590.1108, 1.4351140E-02
592.0393, 1.4466650E-02
593.9678, 1.4428450E-02
595.8962, 1.5040180E-02
597.8247, 1.5182440E-02
599.7532, 1.5136830E-02
601.6816, 1.5364910E-02
603.6101, 1.5201200E-02
605.5386, 1.5532080E-02
607.4670, 1.5589450E-02
609.3955, 1.5531680E-02
611.3240, 1.5435470E-02
613.2524, 1.5595160E-02
615.1809, 1.5761411E-02
617.1094, 1.5955601E-02
619.0378, 1.5648350E-02
620.9663, 1.5355840E-02
622.8948, 1.5351690E-02
624.8232, 1.5201490E-02
626.7517, 1.5280260E-02
628.6802, 1.5127510E-02
630.6086, 1.4826910E-02
632.5371, 1.4778240E-02
634.4656, 1.4620800E-02
636.3940, 1.4544200E-02
638.3225, 1.4558650E-02
640.2510, 1.4774710E-02
642.1794, 1.4991170E-02
644.1079, 1.5075350E-02
646.0364, 1.5413600E-02
647.9648, 1.5607700E-02
649.8933, 1.5792420E-02
651.8218, 1.6389851E-02
653.7502, 1.6966701E-02
655.6787, 1.7436439E-02
657.6072, 1.7938539E-02
659.5356, 1.9118899E-02
661.4641, 2.0692591E-02
663.3926, 2.2041950E-02
665.3210, 2.2413360E-02
667.2495, 2.1991011E-02
669.1780, 2.1922849E-02
671.1064, 2.2596490E-02
673.0349, 2.2580290E-02
674.9634, 2.1846930E-02
676.8918, 2.1037780E-02
678.8203, 2.0490151E-02
680.7488, 2.0284610E-02
682.6772, 2.0565839E-02
684.6057, 2.0607671E-02
686.5342, 2.1122999E-02
688.4626, 2.1524159E-02
690.3911, 2.1403089E-02
692.3196, 2.1121779E-02
694.2480, 2.1162741E-02
696.1765, 2.1405309E-02
698.1050, 2.1864770E-02
700.0334, 2.2243099E-02
701.9619, 2.2718780E-02
703.8904, 2.2973370E-02
705.8188, 2.3232980E-02
707.7473, 2.3988120E-02
709.6758, 2.5489470E-02
711.6042, 2.6936401E-02
713.5327, 2.8743250E-02
715.4612, 3.1578541E-02
717.3896, 3.6092401E-02
719.3181, 4.0572371E-02
721.2466, 4.3373950E-02
723.1750, 4.4776261E-02
725.1035, 5.1095922E-02
727.0320, 6.9696002E-02
728.9604, 9.0340488E-02
730.8889, 8.0503449E-02
732.8174, 5.1686730E-02
734.7458, 3.6230858E-02
736.6743, 3.1409290E-02
738.6028, 2.9425191E-02
740.5313, 2.9362470E-02
742.4597, 3.1207571E-02
744.3882, 3.4085210E-02
746.3167, 3.7132129E-02
748.2451, 3.9785091E-02
750.1736, 4.1738089E-02
752.1021, 4.2850502E-02
754.0305, 4.3271478E-02
755.9590, 4.2982239E-02
757.8875, 4.2201892E-02
759.8159, 4.0781450E-02
761.7444, 3.9160751E-02
763.6729, 3.6837839E-02
765.6013, 3.4141831E-02
767.5298, 3.2193430E-02
769.4583, 3.0745169E-02
771.3867, 2.9500000E-02
773.3152, 2.8732240E-02
775.2437, 2.8204011E-02
777.1721, 2.8052440E-02
779.1006, 2.8109031E-02
781.0291, 2.7978010E-02
782.9575, 2.7915910E-02
784.8860, 2.8363099E-02
786.8145, 2.8579639E-02
788.7429, 2.8301811E-02
790.6714, 2.8423520E-02
792.5999, 2.8339449E-02
794.5283, 2.8290709E-02
796.4568, 2.8408650E-02
798.3853, 2.8575890E-02
800.3137, 2.8780431E-02
802.2422, 2.8729500E-02
804.1707, 2.8744429E-02
806.0991, 2.9410001E-02
808.0276, 2.9903229E-02
809.9561, 3.0412421E-02
811.8845, 3.0855700E-02
813.8130, 3.1314570E-02
815.7415, 3.1815901E-02
817.6699, 3.2625511E-02
819.5984, 3.3153988E-02
821.5269, 3.4260839E-02
823.4553, 3.5953261E-02
825.3838, 3.7625760E-02
827.3123, 3.8841091E-02
829.2407, 4.1181240E-02
831.1692, 4.4230070E-02
833.0977, 4.8058081E-02
835.0261, 5.3283021E-02
836.9546, 6.1119068E-02
838.8831, 7.3233321E-02
840.8115, 8.6500153E-02
842.7400, 8.2479402E-02
844.6685, 7.0650861E-02
846.5969, 7.1495593E-02
848.5254, 8.0792591E-02
850.4539, 9.4059348E-02
852.3823, 0.1118282
854.3108, 0.1374990
856.2393, 0.1748626
858.1677, 0.2293842
860.0962, 0.3036696
862.0247, 0.3931246
863.9531, 0.4752659
865.8816, 0.4783899
867.8101, 0.3822806
869.7385, 0.2722016
871.6670, 0.1808563
873.5955, 0.1027860
875.5239, 5.3316101E-02
877.4524, 4.5170479E-02
879.3809, 5.1922228E-02
881.3093, 4.5957811E-02
883.2378, 3.2198772E-02
885.1663, 2.2864930E-02
887.0947, 1.8591320E-02
889.0232, 1.6975621E-02
890.9517, 1.6285799E-02
892.8801, 1.6199101E-02
894.8085, 1.6414940E-02
896.7370, 1.6394001E-02
898.6655, 1.6428730E-02
900.5939, 1.6630741E-02
902.5224, 1.6906351E-02
904.4509, 1.7386969E-02
906.3793, 1.7609010E-02
908.3078, 1.7474771E-02
910.2363, 1.7611850E-02
912.1647, 1.8010359E-02
914.0932, 1.8241050E-02
916.0217, 1.8463220E-02
917.9501, 1.8894101E-02
919.8786, 1.9576071E-02
921.8071, 1.9773420E-02
923.7355, 1.9804170E-02
925.6640, 1.9931920E-02
927.5925, 2.0194000E-02
929.5209, 2.0666789E-02
931.4494, 2.1089880E-02
933.3779, 2.1425940E-02
935.3063, 2.1509780E-02
937.2348, 2.1818550E-02
939.1633, 2.2344220E-02
941.0917, 2.3010271E-02
943.0202, 2.3653680E-02
944.9487, 2.3975911E-02
946.8771, 2.4115320E-02
948.8056, 2.4246581E-02
950.7341, 2.4581891E-02
952.6625, 2.4927350E-02
954.5910, 2.5076751E-02
956.5195, 2.5187051E-02
958.4479, 2.5439659E-02
960.3764, 2.6038410E-02
962.3049, 2.6306370E-02
964.2333, 2.6633650E-02
966.1618, 2.7001141E-02
968.0903, 2.7460430E-02
970.0187, 2.7855420E-02
971.9472, 2.8189819E-02
973.8757, 2.8792260E-02
975.8041, 2.9235600E-02
977.7326, 2.9404080E-02
979.6611, 2.9686371E-02
981.5895, 2.9949641E-02
983.5180, 3.0169111E-02
985.4465, 3.0428300E-02
987.3749, 3.0552059E-02
989.3034, 3.0667249E-02
991.2319, 3.0986929E-02
993.1603, 3.1409919E-02
995.0888, 3.1830281E-02
997.0173, 3.2209750E-02
998.9457, 3.2509189E-02
1000.874, 3.2870181E-02
1002.803, 3.3178888E-02
1004.731, 3.3374850E-02
1006.660, 3.3674888E-02
1008.588, 3.3924311E-02
1010.517, 3.4225881E-02
1012.445, 3.4646802E-02
1014.373, 3.5030019E-02
1016.302, 3.5440259E-02
1018.230, 3.5820551E-02
1020.159, 3.6024041E-02
1022.087, 3.5849459E-02
1024.016, 3.5776250E-02
1025.944, 3.6301021E-02
1027.873, 3.6688529E-02
1029.801, 3.6730319E-02
1031.730, 3.6797661E-02
1033.658, 3.6577970E-02
1035.587, 3.6082409E-02
1037.515, 3.5368171E-02
1039.444, 3.4554321E-02
1041.372, 3.3284988E-02
1043.301, 3.2038402E-02
1045.229, 3.1246400E-02
1047.157, 3.0931700E-02
1049.086, 3.1345319E-02
1051.014, 3.2163311E-02
1052.943, 3.3530161E-02
1054.871, 3.5541240E-02
1056.800, 3.7508659E-02
1058.728, 3.8909558E-02
1060.657, 4.0275458E-02
1062.585, 4.1463509E-02
1064.514, 4.2316809E-02
1066.442, 4.3169919E-02
1068.371, 4.4129960E-02
1070.299, 4.5446370E-02
1072.228, 4.6600290E-02
1074.156, 4.7510300E-02
1076.084, 4.8756208E-02
1078.013, 5.0632492E-02
1079.941, 5.3662602E-02
1081.870, 5.8702681E-02
1083.798, 6.8268403E-02
1085.727, 8.8146977E-02
1087.655, 0.1121580
1089.584, 0.1101119
1091.512, 8.5882887E-02
1093.441, 7.1598627E-02
1095.369, 6.6519283E-02
1097.298, 5.7650872E-02
1099.226, 4.8996069E-02
1101.155, 4.6440970E-02
1103.083, 4.7188058E-02
1105.011, 4.8312292E-02
1106.940, 4.9166359E-02
1108.868, 4.9961731E-02
1110.797, 5.0878972E-02
1112.725, 5.1768601E-02
1114.654, 5.2832529E-02
1116.582, 5.3677201E-02
1118.511, 5.4368321E-02
1120.439, 5.5290900E-02
1122.368, 5.6024559E-02
1124.296, 5.6587350E-02
1126.225, 5.7077602E-02
1128.153, 5.7899021E-02
1130.082, 5.8537900E-02
1132.010, 5.8932349E-02
1133.938, 5.9407279E-02
1135.867, 5.9997339E-02
1137.795, 6.0656611E-02
1139.724, 6.1262202E-02
1141.652, 6.1416030E-02
1143.581, 6.1705392E-02
1145.509, 6.1901510E-02
1147.438, 6.2363569E-02
1149.366, 6.2880263E-02
1151.295, 6.3492469E-02
1153.223, 6.4256437E-02
1155.152, 6.5091029E-02
1157.080, 6.5405332E-02
1159.009, 6.5935433E-02
1160.937, 6.6968203E-02
1162.865, 6.8120621E-02
1164.794, 6.9098972E-02
1166.722, 7.0095278E-02
1168.651, 7.1356118E-02
1170.579, 7.2463848E-02
1172.508, 7.3625080E-02
1174.436, 7.5017013E-02
1176.365, 7.6065227E-02
1178.293, 7.6680042E-02
1180.222, 7.7066228E-02
1182.150, 7.7326730E-02
1184.079, 7.7946618E-02
1186.007, 7.8688353E-02
1187.936, 7.8877993E-02
1189.864, 7.9660930E-02
1191.792, 8.0953524E-02
1193.721, 8.2008153E-02
1195.649, 8.3008103E-02
1197.578, 8.4144607E-02
1199.506, 8.4941909E-02
1201.435, 8.5893273E-02
1203.363, 8.6900361E-02
1205.292, 8.7954067E-02
1207.220, 8.9169338E-02
1209.149, 9.0464711E-02
1211.077, 9.1690727E-02
1213.006, 9.2914462E-02
1214.934, 9.4103619E-02
1216.863, 9.5512211E-02
1218.791, 9.6986569E-02
1220.719, 9.8516360E-02
1222.648, 9.9826247E-02
1224.576, 0.1013978
1226.505, 0.1031659
1228.433, 0.1046697
1230.362, 0.1062171
1232.290, 0.1080381
1234.219, 0.1099518
1236.147, 0.1116544
1238.076, 0.1133263
1240.004, 0.1154482
1241.933, 0.1174235
1243.861, 0.1195661
1245.790, 0.1220037
1247.718, 0.1244798
1249.646, 0.1266815
1251.575, 0.1290581
1253.503, 0.1314980
1255.432, 0.1338881
1257.360, 0.1364982
1259.289, 0.1393434
1261.217, 0.1422246
1263.146, 0.1449887
1265.074, 0.1475206
1267.003, 0.1500385
1268.931, 0.1529162
1270.860, 0.1561363
1272.788, 0.1595442
1274.717, 0.1631499
1276.645, 0.1663135
1278.573, 0.1692174
1280.502, 0.1719372
1282.430, 0.1748721
1284.359, 0.1780848
1286.287, 0.1811582
1288.216, 0.1842986
1290.144, 0.1879168
1292.073, 0.1919241
1294.001, 0.1961221
1295.930, 0.2003479
1297.858, 0.2047678
1299.787, 0.2095250
1301.715, 0.2145056
1303.644, 0.2198161
1305.572, 0.2254530
1307.500, 0.2312533
1309.429, 0.2370963
1311.357, 0.2434725
1313.286, 0.2500389
1315.214, 0.2562998
1317.143, 0.2625588
1319.071, 0.2687251
1321.000, 0.2751370
1322.928, 0.2820591
1324.857, 0.2883756
1326.785, 0.2946171
1328.714, 0.3014804
1330.642, 0.3089850
1332.571, 0.3167551
1334.499, 0.3246715
1336.427, 0.3330428
1338.356, 0.3417066
1340.284, 0.3502471
1342.213, 0.3588051
1344.141, 0.3677554
1346.070, 0.3769345
1347.998, 0.3864794
1349.927, 0.3965402
1351.855, 0.4071276
1353.784, 0.4171369
1355.712, 0.4278454
1357.641, 0.4391709
1359.569, 0.4505273
1361.498, 0.4621212
1363.426, 0.4739192
1365.354, 0.4863758
1367.283, 0.4993742
1369.211, 0.5126505
1371.140, 0.5261204
1373.068, 0.5398633
1374.997, 0.5541072
1376.925, 0.5683827
1378.854, 0.5824425
1380.782, 0.5964549
1382.711, 0.6099372
1384.639, 0.6225209
1386.568, 0.6341143
1388.496, 0.6457708
1390.424, 0.6587129
1392.353, 0.6724392
1394.281, 0.6869224
1396.210, 0.7011067
1398.138, 0.7117566
1400.067, 0.7199593
1401.995, 0.7294447
1403.924, 0.7394897
1405.852, 0.7489185
1407.781, 0.7574432
1409.709, 0.7646551
1411.638, 0.7696170
1413.566, 0.7730224
1415.495, 0.7739786
1417.423, 0.7731374
1419.351, 0.7705213
1421.280, 0.7663028
1423.208, 0.7609997
1425.137, 0.7543964
1427.065, 0.7460552
1428.994, 0.7378325
1430.922, 0.7298023
1432.851, 0.7206948
1434.779, 0.7099029
1436.708, 0.6974771
1438.636, 0.6805080
1440.565, 0.6578939
1442.493, 0.6308479
1444.422, 0.6013259
1446.350, 0.5710016
1448.278, 0.5416068
1450.207, 0.5129074
1452.135, 0.4842795
1454.064, 0.4571002
1455.992, 0.4331493
1457.921, 0.4134683
1459.849, 0.3979262
1461.778, 0.3834083
1463.706, 0.3681250
1465.635, 0.3519711
1467.563, 0.3354502
1469.492, 0.3192604
1471.420, 0.3034934
1473.349, 0.2885009
1475.277, 0.2742217
1477.205, 0.2601384
1479.134, 0.2469728
1481.062, 0.2345171
1482.991, 0.2223923
1484.919, 0.2108740
1486.848, 0.1997313
1488.776, 0.1886510
1490.705, 0.1782210
1492.633, 0.1687153
1494.562, 0.1598530
1496.490, 0.1518793
1498.419, 0.1445116
1500.347, 0.1378868
1502.276, 0.1324598
1504.204, 0.1280194
1506.132, 0.1239750
1508.061, 0.1198857
1509.989, 0.1157048
1511.918, 0.1117716
1513.846, 0.1077964
1515.775, 0.1042457
1517.703, 0.1011859
1519.632, 9.7971238E-02
1521.560, 9.4436631E-02
1523.489, 9.0639912E-02
1525.417, 8.7065794E-02
1527.346, 8.3099537E-02
1529.274, 7.8856394E-02
1531.203, 7.4763611E-02
1533.131, 7.0670120E-02
1535.059, 6.6490807E-02
1536.988, 6.2599517E-02
1538.916, 5.9205730E-02
1540.845, 5.5996101E-02
1542.773, 5.2783120E-02
1544.702, 4.9924191E-02
1546.630, 4.7064260E-02
1548.559, 4.4533730E-02
1550.487, 4.2561829E-02
1552.416, 4.0803678E-02
1554.344, 3.9464399E-02
1556.273, 3.8162731E-02
1558.201, 3.6686610E-02
1560.130, 3.5107031E-02
1562.058, 3.3966310E-02
1563.986, 3.2814119E-02
1565.915, 3.1579889E-02
1567.843, 3.0558990E-02
1569.772, 2.9544530E-02
1571.700, 2.8507050E-02
1573.629, 2.7372351E-02
1575.557, 2.6494659E-02
1577.486, 2.5682479E-02
1579.414, 2.4708770E-02
1581.343, 2.3474550E-02
1583.271, 2.2578411E-02
1585.200, 2.2155279E-02
1587.128, 2.1559181E-02
1589.057, 2.0864209E-02
1590.985, 2.0431541E-02
1592.913, 1.9919990E-02
1594.842, 1.9387349E-02
1596.770, 1.8814890E-02
1598.699, 1.8520590E-02
1600.627, 1.8193761E-02
1602.556, 1.7443409E-02
1604.484, 1.6701270E-02
1606.413, 1.6237071E-02
1608.341, 1.5479610E-02
1610.270, 1.5356840E-02
1612.198, 1.5225960E-02
1614.127, 1.4757010E-02
1616.055, 1.4365160E-02
1617.984, 1.4067360E-02
1619.912, 1.3825710E-02
1621.840, 1.3742650E-02
1623.769, 1.3476290E-02
1625.697, 1.3137690E-02
1627.626, 1.3176080E-02
1629.554, 1.3142400E-02
1631.483, 1.2980820E-02
1633.411, 1.2919710E-02
1635.340, 1.2779420E-02
1637.268, 1.2737440E-02
1639.197, 1.2282260E-02
1641.125, 1.2130200E-02
1643.054, 1.2461160E-02
1644.982, 1.2467580E-02
1646.911, 1.2450990E-02
1648.839, 1.2196720E-02
1650.767, 1.2188680E-02
1652.696, 1.2507940E-02
1654.624, 1.2500490E-02
1656.553, 1.2474350E-02
1658.481, 1.2160180E-02
1660.410, 1.2061360E-02
1662.338, 1.2338660E-02
1664.267, 1.1951610E-02
1666.195, 1.1670010E-02
1668.124, 1.1949700E-02
1670.052, 1.2311820E-02
1671.981, 1.2593510E-02
1673.909, 1.2581290E-02
1675.838, 1.2231470E-02
1677.766, 1.1877830E-02
1679.694, 1.1716200E-02
1681.623, 1.1955320E-02
1683.551, 1.1886300E-02
1685.480, 1.1671540E-02
1687.408, 1.1282570E-02
1689.337, 1.0775600E-02
1691.265, 1.0232510E-02
1693.194, 1.0123810E-02
1695.122, 1.0623800E-02
1697.051, 1.0285530E-02
1698.979, 9.7726220E-03
1700.908, 1.0011500E-02
1702.836, 9.8901214E-03
1704.765, 9.3841124E-03
1706.693, 9.2839161E-03
1708.621, 8.7770969E-03
1710.550, 8.3665028E-03
1712.478, 8.3950441E-03
1714.407, 8.5695703E-03
1716.335, 8.6033139E-03
1718.264, 8.7225912E-03
1720.192, 8.6851530E-03
1722.121, 8.7937266E-03
1724.049, 9.2072440E-03
1725.978, 9.4082197E-03
1727.906, 9.0728709E-03
1729.835, 8.6067980E-03
1731.763, 8.7247640E-03
1733.692, 8.9073330E-03
1735.620, 8.6524533E-03
1737.548, 8.5290652E-03
1739.477, 8.2481829E-03
1741.405, 8.2804859E-03
1743.334, 8.9768041E-03
1745.262, 9.3176048E-03
1747.191, 9.3574971E-03
1749.119, 1.0024390E-02
1751.048, 1.0837170E-02
1752.976, 1.2133510E-02
1754.905, 1.3507410E-02
1756.833, 1.4906630E-02
1758.762, 1.6425589E-02
1760.690, 1.7338470E-02
1762.619, 1.7602021E-02
1764.547, 1.7393081E-02
1766.475, 1.6509119E-02
1768.404, 1.5350600E-02
1770.332, 1.4379740E-02
1772.261, 1.3107780E-02
1774.189, 1.1812440E-02
1776.118, 1.1480360E-02
1778.046, 1.0960580E-02
1779.975, 1.0159270E-02
1781.903, 9.7634103E-03
1783.832, 9.3655055E-03
1785.760, 8.9933937E-03
1787.689, 9.3473867E-03
1789.617, 9.4967196E-03
1791.546, 9.4077494E-03
1793.474, 9.3364399E-03
1795.402, 9.4016893E-03
1797.331, 9.6309194E-03
1799.259, 1.0337900E-02
1801.188, 1.0805890E-02
1803.116, 1.0167080E-02
1805.045, 1.0279630E-02
1806.973, 1.0537670E-02
1808.902, 1.0732270E-02
1810.830, 1.1578810E-02
1812.759, 1.2592770E-02
1814.687, 1.3392400E-02
1816.616, 1.4984460E-02
1818.544, 1.7773340E-02
1820.473, 1.9936990E-02
1822.401, 2.1266559E-02
1824.329, 2.1749809E-02
1826.258, 2.1025009E-02
1828.186, 1.8992029E-02
1830.115, 1.6871320E-02
1832.043, 1.4691690E-02
1833.972, 1.3124360E-02
1835.900, 1.1849250E-02
1837.829, 1.1332680E-02
1839.757, 1.1065710E-02
1841.686, 1.0764660E-02
1843.614, 1.0286830E-02
1845.543, 9.5739551E-03
1847.471, 9.7988909E-03
1849.400, 9.8281009E-03
1851.328, 9.8257456E-03
1853.256, 1.0103130E-02
1855.185, 1.0209510E-02
1857.113, 1.0461020E-02
1859.042, 1.0488850E-02
1860.970, 9.9736135E-03
1862.899, 1.0101010E-02
1864.827, 1.0494520E-02
1866.756, 1.0505990E-02
1868.684, 1.0478710E-02
1870.613, 1.0695740E-02
1872.541, 1.0467220E-02
1874.470, 1.0763300E-02
1876.398, 1.0806880E-02
1878.327, 1.0582400E-02
1880.255, 1.0277690E-02
1882.183, 1.0410700E-02
1884.112, 1.0517480E-02
1886.040, 1.0534130E-02
1887.969, 1.1045650E-02
1889.897, 1.2008250E-02
1891.826, 1.1501560E-02
1893.754, 1.0198610E-02
1895.683, 1.0770420E-02
1897.611, 1.1181660E-02
1899.540, 1.0695280E-02
1901.468, 1.0040200E-02
1903.397, 1.0565150E-02
1905.325, 1.1146420E-02
1907.254, 1.1982590E-02
1909.182, 1.1797180E-02
1911.110, 1.0431860E-02
1913.039, 1.0397840E-02
1914.967, 1.1382020E-02
1916.896, 1.1272440E-02
1918.824, 1.1031510E-02
1920.753, 1.0750250E-02
1922.681, 1.1136190E-02
1924.610, 1.1322330E-02
1926.538, 1.1538870E-02
1928.467, 1.1791520E-02
1930.395, 1.0025080E-02
1932.324, 8.9840479E-03
1934.252, 1.1005530E-02
1936.181, 1.2452330E-02
1938.109, 1.2075590E-02
1940.037, 1.0536710E-02
1941.966, 1.0323280E-02
1943.894, 1.0998270E-02
1945.823, 1.1000820E-02
1947.751, 1.0110510E-02
1949.680, 9.8030400E-03
1951.608, 1.0564200E-02
1953.537, 1.1350200E-02
1955.465, 1.0296200E-02
1957.394, 1.0879780E-02
1959.322, 1.4128650E-02
1961.251, 1.3894160E-02
1963.179, 9.8766414E-03
1965.108, 7.5201280E-03
1967.036, 7.7209738E-03
1968.964, 9.8125590E-03
1970.893, 1.2563240E-02
1972.821, 1.4388840E-02
1974.750, 1.5125100E-02
1976.678, 1.7064311E-02
1978.607, 1.9141659E-02
1980.535, 1.7370841E-02
1982.464, 1.6368540E-02
1984.392, 1.6302170E-02
1986.321, 1.6133320E-02
1988.249, 1.5160640E-02
1990.178, 1.2133340E-02
1992.106, 1.2419260E-02
1994.035, 1.4610750E-02
1995.963, 1.4460780E-02
1997.891, 1.4884040E-02
1999.820, 1.5089190E-02
2001.748, 1.5106580E-02
2003.677, 1.3425230E-02
2005.605, 1.4422600E-02
2007.534, 1.6291119E-02
2009.462, 1.4126150E-02
2011.391, 1.2970460E-02
2013.319, 1.4496180E-02
2015.248, 1.4768080E-02
2017.176, 1.3262540E-02
2019.105, 1.3487020E-02
2021.033, 1.4823150E-02
2022.962, 1.5682740E-02
2024.890, 1.7196679E-02
2026.818, 1.6922871E-02
2028.747, 1.6017310E-02
2030.675, 1.5926400E-02
2032.604, 1.7520320E-02
2034.532, 1.7583219E-02
2036.461, 1.5557440E-02
2038.389, 1.5524470E-02
2040.318, 1.5697960E-02
2042.246, 1.4767410E-02
2044.175, 1.6252510E-02
2046.103, 1.6415620E-02
2048.032, 1.6436620E-02
2049.960, 1.7468121E-02
2051.889, 1.6092921E-02
2053.817, 1.5715940E-02
2055.746, 1.6127050E-02
2057.674, 1.5914639E-02
2059.603, 1.5362110E-02
2061.531, 1.4754560E-02
2063.459, 1.6515940E-02
2065.388, 1.7927170E-02
2067.316, 1.7939361E-02
2069.245, 1.6778279E-02
2071.173, 1.5506570E-02
2073.102, 1.6486980E-02
2075.030, 1.7257011E-02
2076.959, 1.7490249E-02
2078.887, 1.7511060E-02
2080.816, 1.7350320E-02
2082.744, 1.6890761E-02
2084.673, 1.6466310E-02
2086.601, 1.7532259E-02
2088.530, 1.7457031E-02
2090.458, 1.5462820E-02
2092.386, 1.5449360E-02
2094.315, 1.6891770E-02
2096.243, 1.7062090E-02
2098.172, 1.6500941E-02
2100.100, 1.6758321E-02
2102.029, 1.7407641E-02
2103.957, 1.7028131E-02
2105.886, 1.7340871E-02
2107.814, 1.9140059E-02
2109.743, 2.0762630E-02
2111.671, 2.0035410E-02
2113.600, 1.6557090E-02
2115.528, 1.5820820E-02
2117.457, 1.6410440E-02
2119.385, 1.6231040E-02
2121.313, 1.5976431E-02
2123.242, 1.4997210E-02
2125.170, 1.4626150E-02
2127.099, 1.4655030E-02
2129.027, 1.4172770E-02
2130.956, 1.3856360E-02
2132.884, 1.3807930E-02
2134.813, 1.3965530E-02
2136.741, 1.3490820E-02
2138.670, 1.4748860E-02
2140.598, 1.6123191E-02
2142.527, 1.5256600E-02
2144.455, 1.2596790E-02
2146.384, 1.4086490E-02
2148.312, 1.4990320E-02
2150.240, 1.4315800E-02
2152.169, 1.3679330E-02
2154.097, 1.3217750E-02
2156.026, 1.1609240E-02
2157.954, 1.1237610E-02
2159.883, 1.6035160E-02
2161.811, 1.8378640E-02
2163.740, 1.8096199E-02
2165.668, 2.1167019E-02
2167.597, 1.7857591E-02
2169.525, 1.4074400E-02
2171.454, 1.7866930E-02
2173.382, 1.9732360E-02
2175.311, 1.7661881E-02
2177.239, 1.5312840E-02
2179.167, 1.4618370E-02
2181.096, 1.6610080E-02
2183.024, 1.6759271E-02
2184.953, 1.6790209E-02
2186.881, 1.7241679E-02
2188.810, 1.9116839E-02
2190.738, 1.7107779E-02
2192.667, 1.3946910E-02
2194.595, 1.7199939E-02
2196.524, 2.0379920E-02
2198.452, 1.9007230E-02
2200.381, 1.7075149E-02
2202.309, 1.7393630E-02
2204.238, 1.7723519E-02
2206.166, 1.6880680E-02
2208.094, 1.8380050E-02
2210.023, 2.0665120E-02
2211.951, 2.0602729E-02
2213.880, 1.9696090E-02
2215.808, 1.9870330E-02
2217.737, 2.1100720E-02
2219.665, 1.9246081E-02
2221.594, 1.8672889E-02
2223.522, 1.9146200E-02
2225.451, 2.0848179E-02
2227.379, 2.0350950E-02
2229.308, 1.9743031E-02
2231.236, 2.0930780E-02
2233.165, 2.0928919E-02
2235.093, 2.0227300E-02
2237.021, 2.1490529E-02
2238.950, 2.2606390E-02
2240.878, 2.1651089E-02
2242.807, 2.0507390E-02
2244.735, 2.0833701E-02
2246.664, 2.1145040E-02
2248.592, 2.0440379E-02
2250.521, 2.0527281E-02
2252.449, 2.0148240E-02
2254.378, 1.9101840E-02
2256.306, 2.0520501E-02
2258.235, 2.1326890E-02
2260.163, 2.2325620E-02
2262.092, 2.2094730E-02
2264.020, 2.1476589E-02
2265.948, 2.1680839E-02
2267.877, 2.2943679E-02
2269.805, 2.3094380E-02
2271.734, 2.1954291E-02
2273.662, 2.1851851E-02
2275.591, 2.2501379E-02
2277.519, 2.3159189E-02
2279.448, 2.3704769E-02
2281.376, 2.3815021E-02
2283.305, 2.3560390E-02
2285.233, 2.4375390E-02
2287.162, 2.4169670E-02
2289.090, 2.4493720E-02
2291.019, 2.5041390E-02
2292.947, 2.4502210E-02
2294.875, 2.3652690E-02
2296.804, 2.2825129E-02
2298.732, 2.2193089E-02
2300.661, 2.2254581E-02
2302.589, 2.3180310E-02
2304.518, 2.3468200E-02
2306.446, 2.3941390E-02
2308.375, 2.4135880E-02
2310.303, 2.3797750E-02
2312.232, 2.4113581E-02
2314.160, 2.4765201E-02
2316.089, 2.4373921E-02
2318.017, 2.4129471E-02
2319.946, 2.3950679E-02
2321.874, 2.3980750E-02
2323.802, 2.4843769E-02
2325.731, 2.4225069E-02
2327.659, 2.3504440E-02
2329.588, 2.2490200E-02
2331.516, 2.2137240E-02
2333.445, 2.2830650E-02
2335.373, 2.2915451E-02
2337.302, 2.2477800E-02
2339.230, 2.2179591E-02
2341.159, 2.2404740E-02
2343.087, 2.2604330E-02
2345.016, 2.3041779E-02
2346.944, 2.3497511E-02
2348.873, 2.3168121E-02
2350.801, 2.2844890E-02
2352.729, 2.2307020E-02
2354.658, 2.1679450E-02
2356.586, 2.1616571E-02
2358.515, 2.1861760E-02
2360.443, 2.1863420E-02
2362.372, 2.1384830E-02
2364.300, 2.0868341E-02
2366.229, 2.0675510E-02
2368.157, 2.1342510E-02
2370.086, 2.1503169E-02
2372.014, 2.2074649E-02
2373.942, 2.2384111E-02
2375.871, 2.2578251E-02
2377.799, 2.1988360E-02
2379.728, 2.2247460E-02
2381.656, 2.3205590E-02
2383.585, 2.2738820E-02
2385.513, 2.1711990E-02
2387.442, 2.2063540E-02
2389.370, 2.2924639E-02
2391.299, 2.3230420E-02
2393.227, 2.3470640E-02
2395.156, 2.3306031E-02
2397.084, 2.3102351E-02
2399.012, 2.3212209E-02
2400.941, 2.2786980E-02
2402.869, 2.2640100E-02
2404.798, 2.3221740E-02
2406.726, 2.2381149E-02
2408.655, 2.2758801E-02
2410.583, 2.3870360E-02
2412.512, 2.4651030E-02
2414.440, 2.4523061E-02
2416.369, 2.5664121E-02
2418.297, 2.6014000E-02
2420.226, 2.5134521E-02
2422.154, 2.3980670E-02
2424.083, 2.2991011E-02
2426.011, 2.3806380E-02
2427.939, 2.4579640E-02
2429.868, 2.5184190E-02
2431.796, 2.5464650E-02
2433.725, 2.5510371E-02
2435.653, 2.5794920E-02
2437.582, 2.5201110E-02
2439.510, 2.5608189E-02
2441.439, 2.5801901E-02
2443.367, 2.5341511E-02
2445.296, 2.5006911E-02
2447.224, 2.5220999E-02
2449.153, 2.4724370E-02
2451.081, 2.5316641E-02
2453.010, 2.5216371E-02
2454.938, 2.5190551E-02
2456.866, 2.5238600E-02
2458.795, 2.5111429E-02
2460.723, 2.5794370E-02
2462.652, 2.6011210E-02
2464.580, 2.6365981E-02
2466.509, 2.6406471E-02
2468.437, 2.5993880E-02
2470.366, 2.6355980E-02
2472.294, 2.6508961E-02
2474.223, 2.5556250E-02
2476.151, 2.4926050E-02
2478.080, 2.5965201E-02
2480.008, 2.7596621E-02
2481.937, 2.8007360E-02
2483.865, 2.8788490E-02
2485.793, 3.0276630E-02
2487.722, 3.0060669E-02
2489.650, 3.0599119E-02
2491.579, 3.2331001E-02
2493.507, 3.4160070E-02
2495.436, 3.5732470E-02
2497.364, 3.7678141E-02
2499.293, 3.9074440E-02
2501.221, 4.0213440E-02
2503.150, 4.0961880E-02
2505.078, 4.0470291E-02
2507.007, 3.9514732E-02
2508.935, 3.8378991E-02
2510.864, 3.7484191E-02
2512.792, 3.7379079E-02
2514.720, 3.7460972E-02
2516.649, 3.6774099E-02
2518.577, 3.4841441E-02
2520.506, 3.3617120E-02
2522.434, 3.3420339E-02
2524.363, 3.2053500E-02
2526.291, 3.1654790E-02
2528.220, 3.0684490E-02
2530.148, 2.9272830E-02
2532.077, 2.8302990E-02
2534.005, 2.7665859E-02
2535.934, 2.7509181E-02
2537.862, 2.8171560E-02
2539.791, 2.9147441E-02
2541.719, 2.8928939E-02
2543.647, 2.8024830E-02
2545.576, 2.8482269E-02
2547.504, 2.8430751E-02
2549.433, 2.7165679E-02
2551.361, 2.6467729E-02
2553.290, 2.7011370E-02
2555.218, 2.6792880E-02
2557.147, 2.5868520E-02
2559.075, 2.5723230E-02
2561.004, 2.5612960E-02
2562.932, 2.5717679E-02
2564.861, 2.6166480E-02
2566.789, 2.6117900E-02
2568.718, 2.4988350E-02
2570.646, 2.4614589E-02
2572.574, 2.5493290E-02
2574.503, 2.4736291E-02
2576.431, 2.3841489E-02
2578.360, 2.5310900E-02
2580.288, 2.5959030E-02
2582.217, 2.5136899E-02
2584.145, 2.4530910E-02
2586.074, 2.5514860E-02
2588.002, 2.6862061E-02
2589.931, 2.6218791E-02
2591.859, 2.5150500E-02
2593.788, 2.6273670E-02
2595.716, 2.6784290E-02
2597.645, 2.5580149E-02
2599.573, 2.5217161E-02
2601.501, 2.5151160E-02
2603.430, 2.4640800E-02
2605.358, 2.5276020E-02
2607.287, 2.4976660E-02
2609.215, 2.4825631E-02
2611.144, 2.5136370E-02
2613.072, 2.5145110E-02
2615.001, 2.5824100E-02
2616.929, 2.5686240E-02
2618.858, 2.4718620E-02
2620.786, 2.5471419E-02
2622.715, 2.5601169E-02
2624.643, 2.4921039E-02
2626.572, 2.5002150E-02
2628.500, 2.5371309E-02
2630.428, 2.5113789E-02
2632.357, 2.3857931E-02
2634.285, 2.4159670E-02
2636.214, 2.4975371E-02
2638.142, 2.4729310E-02
2640.071, 2.4952730E-02
2641.999, 2.4169169E-02
2643.928, 2.3922371E-02
2645.856, 2.3797680E-02
2647.785, 2.4048461E-02
2649.713, 2.4760541E-02
2651.642, 2.4697050E-02
2653.570, 2.4890820E-02
2655.499, 2.4708340E-02
2657.427, 2.4183789E-02
2659.355, 2.4057111E-02
2661.284, 2.3535009E-02
2663.212, 2.3326579E-02
2665.141, 2.3265351E-02
2667.069, 2.3138290E-02
2668.998, 2.3183711E-02
2670.926, 2.2597499E-02
2672.855, 2.2805460E-02
2674.783, 2.3245720E-02
2676.712, 2.2818111E-02
2678.640, 2.2899181E-02
2680.569, 2.3591250E-02
2682.497, 2.3232050E-02
2684.426, 2.3036091E-02
2686.354, 2.3104200E-02
2688.282, 2.3276070E-02
2690.211, 2.3209199E-02
2692.139, 2.2716951E-02
2694.068, 2.2553019E-02
2695.996, 2.2185380E-02
2697.925, 2.1388710E-02
2699.853, 2.1494471E-02
2701.782, 2.1377159E-02
2703.710, 2.2173081E-02
2705.639, 2.3279199E-02
2707.567, 2.2668410E-02
2709.496, 2.3080191E-02
2711.424, 2.3094321E-02
2713.353, 2.2876609E-02
2715.281, 2.3316281E-02
2717.209, 2.2725269E-02
2719.138, 2.1935889E-02
2721.066, 2.2797050E-02
2722.995, 2.2828929E-02
2724.923, 2.1785190E-02
2726.852, 2.2077739E-02
2728.780, 2.2538180E-02
2730.709, 2.2847669E-02
2732.637, 2.2973649E-02
2734.566, 2.2361120E-02
2736.494, 2.2027791E-02
2738.423, 2.2523779E-02
2740.351, 2.2547970E-02
2742.280, 2.2463370E-02
2744.208, 2.2194460E-02
2746.136, 2.1832820E-02
2748.065, 2.1506840E-02
2749.993, 2.1189190E-02
2751.922, 2.1734981E-02
2753.850, 2.2216851E-02
2755.779, 2.2747310E-02
2757.707, 2.2860181E-02
2759.636, 2.2676731E-02
2761.564, 2.3081400E-02
2763.493, 2.2422450E-02
2765.421, 2.1846641E-02
2767.350, 2.2137830E-02
2769.278, 2.1575980E-02
2771.207, 2.2265211E-02
2773.135, 2.3186540E-02
2775.063, 2.2734910E-02
2776.992, 2.1916030E-02
2778.920, 2.1625889E-02
2780.849, 2.2030540E-02
2782.777, 2.2745119E-02
2784.706, 2.2710299E-02
2786.634, 2.1671910E-02
2788.563, 2.1168910E-02
2790.491, 2.1567211E-02
2792.420, 2.2061709E-02
2794.348, 2.2300620E-02
2796.277, 2.1587970E-02
2798.205, 2.1261729E-02
2800.134, 2.1516791E-02
2802.062, 2.1755129E-02
2803.990, 2.1172950E-02
2805.919, 2.1946181E-02
2807.847, 2.2376230E-02
2809.776, 2.1549949E-02
2811.704, 2.1255661E-02
2813.633, 2.1968629E-02
2815.561, 2.2525880E-02
2817.490, 2.2067660E-02
2819.418, 2.1945139E-02
2821.347, 2.2209721E-02
2823.275, 2.1944970E-02
2825.204, 2.1454969E-02
2827.132, 2.2083949E-02
2829.061, 2.2430619E-02
2830.989, 2.2357740E-02
2832.917, 2.3166129E-02
2834.846, 2.4082340E-02
2836.774, 2.3891890E-02
2838.703, 2.3064600E-02
2840.631, 2.4461029E-02
2842.560, 2.5046701E-02
2844.488, 2.3869030E-02
2846.417, 2.4566259E-02
2848.345, 2.6030719E-02
2850.274, 2.6423780E-02
2852.202, 2.6608489E-02
2854.131, 2.6926920E-02
2856.059, 2.7107410E-02
2857.988, 2.6313139E-02
2859.916, 2.6566889E-02
2861.844, 2.7367121E-02
2863.773, 2.6997039E-02
2865.701, 2.6161890E-02
2867.630, 2.5849810E-02
2869.558, 2.5030309E-02
2871.487, 2.3839051E-02
2873.415, 2.3661271E-02
2875.344, 2.2843480E-02
2877.272, 2.2941619E-02
2879.201, 2.3575140E-02
2881.129, 2.2816520E-02
2883.058, 2.2735100E-02
2884.986, 2.3172840E-02
2886.915, 2.2845680E-02
2888.843, 2.3098620E-02
2890.771, 2.2682689E-02
2892.700, 2.1111650E-02
2894.628, 2.1641601E-02
2896.557, 2.2669449E-02
2898.485, 2.2539340E-02
2900.414, 2.3577761E-02
2902.342, 2.4189020E-02
2904.271, 2.4772501E-02
2906.199, 2.5525110E-02
2908.128, 2.6431231E-02
2910.056, 2.6957801E-02
2911.985, 2.5672710E-02
2913.913, 2.5450701E-02
2915.842, 2.7055521E-02
2917.770, 2.7128620E-02
2919.698, 2.5795011E-02
2921.627, 2.5418021E-02
2923.555, 2.4945591E-02
2925.484, 2.6401220E-02
2927.412, 2.8783070E-02
2929.341, 2.8713770E-02
2931.269, 2.5125921E-02
2933.198, 2.4614610E-02
2935.126, 2.6359361E-02
2937.055, 2.6211970E-02
2938.983, 2.6165159E-02
2940.912, 2.5267409E-02
2942.840, 2.4468690E-02
2944.769, 2.5662361E-02
2946.697, 2.6413530E-02
2948.625, 2.6522581E-02
2950.554, 2.6545521E-02
2952.482, 2.5909349E-02
2954.411, 2.6690859E-02
2956.339, 2.7071681E-02
2958.268, 2.5046861E-02
2960.196, 2.5447400E-02
2962.125, 2.6066070E-02
2964.053, 2.3971809E-02
2965.982, 2.1890150E-02
2967.910, 2.0857161E-02
2969.839, 1.8894671E-02
2971.767, 1.8108031E-02
2973.696, 1.7385149E-02
2975.624, 1.6928241E-02
2977.552, 1.7633110E-02
2979.481, 2.0157820E-02
2981.409, 2.2131531E-02
2983.338, 2.4051741E-02
2985.266, 2.5493030E-02
2987.195, 2.6199421E-02
2989.123, 2.6969271E-02
2991.052, 2.7540579E-02
2992.980, 2.7682530E-02
2994.909, 2.8196760E-02
2996.837, 2.8958119E-02
2998.766, 2.9365320E-02
3000.694, 2.8275309E-02
3002.623, 2.8215099E-02
3004.551, 2.8881710E-02
3006.479, 2.9988211E-02
3008.408, 3.0555490E-02
3010.336, 3.0275021E-02
3012.265, 2.9482299E-02
3014.193, 2.9301081E-02
3016.122, 3.0299360E-02
3018.050, 3.0426910E-02
3019.979, 2.9245989E-02
3021.907, 2.8949050E-02
3023.836, 3.0191060E-02
3025.764, 3.1955771E-02
3027.693, 3.1210581E-02
3029.621, 2.9707819E-02
3031.550, 2.9406730E-02
3033.478, 2.9961349E-02
3035.406, 3.2153450E-02
3037.335, 3.2969300E-02
3039.263, 3.2130320E-02
3041.192, 2.9907450E-02
3043.120, 3.0074220E-02
3045.049, 3.1438161E-02
3046.977, 3.0707691E-02
3048.906, 2.9825309E-02
3050.834, 3.0171450E-02
3052.763, 3.0499861E-02
3054.691, 2.9845780E-02
3056.620, 2.9918279E-02
3058.548, 3.0353591E-02
3060.477, 3.2168821E-02
3062.405, 3.3139888E-02
3064.333, 3.0838549E-02
3066.262, 3.1451389E-02
3068.190, 3.2625630E-02
3070.119, 3.1822100E-02
3072.047, 3.1583380E-02
3073.976, 3.2488111E-02
3075.904, 3.2275219E-02
3077.833, 3.2130402E-02
3079.761, 3.2081120E-02
3081.690, 3.1768039E-02
3083.618, 3.2732092E-02
3085.547, 3.2997210E-02
3087.475, 3.2675851E-02
3089.404, 3.3989131E-02
3091.332, 3.4779578E-02
3093.260, 3.2637950E-02
3095.189, 3.0270310E-02
3097.117, 2.9837510E-02
3099.046, 3.2404650E-02
3100.974, 3.4435570E-02
3102.903, 3.3933721E-02
3104.831, 3.3356871E-02
3106.760, 3.4270141E-02
3108.688, 3.5326470E-02
3110.617, 3.3796031E-02
3112.545, 3.2350801E-02
3114.474, 3.2076620E-02
3116.402, 3.2836739E-02
3118.331, 3.4186259E-02
3120.259, 3.4305051E-02
3122.188, 3.4869079E-02
3124.116, 3.4364451E-02
3126.044, 3.4018882E-02
3127.973, 3.4836289E-02
3129.901, 3.4885108E-02
3131.830, 3.2411270E-02
3133.758, 3.1710658E-02
3135.687, 3.3175241E-02
3137.615, 3.3641521E-02
3139.544, 3.2152470E-02
3141.472, 3.3089802E-02
3143.401, 3.4698781E-02
3145.329, 3.3583771E-02
3147.258, 3.2850869E-02
3149.186, 3.2363292E-02
3151.115, 3.4223609E-02
3153.043, 3.6805801E-02
3154.971, 3.6011141E-02
3156.900, 3.3728112E-02
3158.828, 3.2668490E-02
3160.757, 3.2972030E-02
3162.685, 3.2935590E-02
3164.614, 3.2394830E-02
3166.542, 3.2165051E-02
3168.471, 3.2134559E-02
3170.399, 3.4524079E-02
3172.328, 3.5507251E-02
3174.256, 3.4748890E-02
3176.185, 3.4831520E-02
3178.113, 3.4619629E-02
3180.042, 3.4168892E-02
3181.970, 3.3880021E-02
3183.898, 3.4578919E-02
3185.827, 3.4030780E-02
3187.755, 3.3030599E-02
3189.684, 3.3833161E-02
3191.612, 3.3761941E-02
3193.541, 3.4044322E-02
3195.469, 3.4600690E-02
3197.398, 3.4035161E-02
3199.326, 3.3398271E-02
3201.255, 3.2859061E-02
3203.183, 3.2777470E-02
3205.112, 3.2980110E-02
3207.040, 3.3605829E-02
3208.969, 3.3735830E-02
3210.897, 3.3428721E-02
3212.825, 3.3281758E-02
3214.754, 3.2096282E-02
3216.682, 3.2095142E-02
3218.611, 3.1542029E-02
3220.539, 3.0125430E-02
3222.468, 3.0744839E-02
3224.396, 3.1660251E-02
3226.325, 3.1731240E-02
3228.253, 3.2727621E-02
3230.182, 3.2559838E-02
3232.110, 3.0993721E-02
3234.039, 3.1612009E-02
3235.967, 3.1312879E-02
3237.896, 3.0529080E-02
3239.824, 3.0406849E-02
3241.752, 3.0593110E-02
3243.681, 3.0754430E-02
3245.609, 2.9858749E-02
3247.538, 2.9685371E-02
3249.466, 2.9150899E-02
3251.395, 2.9957309E-02
3253.323, 3.0563170E-02
3255.252, 3.0182580E-02
3257.180, 3.0589480E-02
3259.109, 3.1032940E-02
3261.037, 3.1341922E-02
3262.966, 3.0746119E-02
3264.894, 2.9541560E-02
3266.823, 2.9342631E-02
3268.751, 2.9486449E-02
3270.679, 2.9552201E-02
3272.608, 2.9691190E-02
3274.536, 2.9271141E-02
3276.465, 2.9274520E-02
3278.393, 3.0390820E-02
3280.322, 3.1499930E-02
3282.250, 2.9725701E-02
3284.179, 2.8486939E-02
3286.107, 2.8384710E-02
3288.036, 3.0293791E-02
3289.964, 3.1619381E-02
3291.893, 3.0662719E-02
3293.821, 2.9874180E-02
3295.750, 3.0986190E-02
3297.678, 3.1120220E-02
3299.606, 3.1127250E-02
3301.535, 3.2040641E-02
3303.463, 3.2635350E-02
3305.392, 3.1527601E-02
3307.320, 3.0351041E-02
3309.249, 3.0126410E-02
3311.177, 2.9398100E-02
3313.106, 3.0400990E-02
3315.034, 3.2414172E-02
3316.963, 3.0698400E-02
3318.891, 2.9144051E-02
3320.820, 2.7972881E-02
3322.748, 2.7394310E-02
3324.677, 2.9697411E-02
3326.605, 2.9644210E-02
3328.533, 2.9007031E-02
3330.462, 2.9790090E-02
3332.390, 2.8412290E-02
3334.319, 2.7072931E-02
3336.247, 2.8710579E-02
3338.176, 3.0337790E-02
3340.104, 2.9650411E-02
3342.033, 2.5690891E-02
3343.961, 2.6487811E-02
3345.890, 3.0380730E-02
3347.818, 3.3917159E-02
3349.747, 3.3778109E-02
3351.675, 3.1277541E-02
3353.604, 3.2218851E-02
3355.532, 3.1292409E-02
3357.460, 2.9378420E-02
3359.389, 2.9038480E-02
3361.317, 2.8532511E-02
3363.246, 2.9831050E-02
3365.174, 3.1460602E-02
3367.103, 3.1102041E-02
3369.031, 3.1781491E-02
3370.960, 3.3162989E-02
3372.888, 3.2766249E-02
3374.817, 3.2272320E-02
3376.745, 3.3345010E-02
3378.674, 3.2654971E-02
3380.602, 3.0407481E-02
3382.531, 3.0873550E-02
3384.459, 3.3521451E-02
3386.387, 3.3229839E-02
3388.316, 3.2795120E-02
3390.244, 3.3761259E-02
3392.173, 3.4065701E-02
3394.101, 3.3005331E-02
3396.030, 3.0588990E-02
3397.958, 2.9446300E-02
3399.887, 3.1773381E-02
3401.815, 3.2969922E-02
3403.744, 3.3717409E-02
3405.672, 3.3404529E-02
3407.601, 3.1828050E-02
3409.529, 3.1331688E-02
3411.458, 3.2738261E-02
3413.386, 3.5561278E-02
3415.314, 3.5821900E-02
3417.243, 3.2345291E-02
3419.171, 3.2520570E-02
3421.100, 3.3338360E-02
3423.028, 3.5023618E-02
3424.957, 3.5637770E-02
3426.885, 3.6739010E-02
3428.814, 3.7346579E-02
3430.742, 3.5224061E-02
3432.671, 3.5020038E-02
3434.599, 3.5145968E-02
3436.528, 3.5302229E-02
3438.456, 3.7266809E-02
3440.385, 3.6160529E-02
3442.313, 3.6666978E-02
3444.241, 3.6750909E-02
3446.170, 3.6412850E-02
3448.098, 3.4427170E-02
3450.027, 3.3591490E-02
3451.955, 3.7325051E-02
3453.884, 4.0595360E-02
3455.812, 3.8962599E-02
3457.741, 3.6301170E-02
3459.669, 3.7384249E-02
3461.598, 3.7530322E-02
3463.526, 3.8853720E-02
3465.455, 3.9572708E-02
3467.383, 3.9739110E-02
3469.312, 4.1555800E-02
3471.240, 4.1542839E-02
3473.168, 3.9535090E-02
3475.097, 3.9120939E-02
3477.025, 4.0966202E-02
3478.954, 4.1465249E-02
3480.882, 4.2672969E-02
3482.811, 4.1760799E-02
3484.739, 4.2451382E-02
3486.668, 4.4320941E-02
3488.596, 4.3490380E-02
3490.525, 4.0367618E-02
3492.453, 3.9886951E-02
3494.382, 4.1721489E-02
3496.310, 4.1348521E-02
3498.239, 4.0340889E-02
3500.167, 4.1723810E-02
3502.095, 4.0654339E-02
3504.024, 4.0697359E-02
3505.952, 4.2361218E-02
3507.881, 4.3645270E-02
3509.809, 4.3556780E-02
3511.738, 4.0070519E-02
3513.666, 3.9456569E-02
3515.595, 4.0106520E-02
3517.523, 3.9006241E-02
3519.452, 3.9666459E-02
3521.380, 4.2360131E-02
3523.309, 4.2197429E-02
3525.237, 4.1145660E-02
3527.166, 3.9954439E-02
3529.094, 3.9193571E-02
3531.022, 4.1621029E-02
3532.951, 4.3237470E-02
3534.879, 4.2110279E-02
3536.808, 4.3088570E-02
3538.736, 4.4093251E-02
3540.665, 4.0767498E-02
3542.593, 3.8913772E-02
3544.522, 3.8190380E-02
3546.450, 3.6346961E-02
3548.379, 3.6618941E-02
3550.307, 4.0639728E-02
3552.236, 4.4681810E-02
3554.164, 4.7166221E-02
3556.093, 4.4630140E-02
3558.021, 4.2031690E-02
3559.949, 4.0609740E-02
3561.878, 3.9230190E-02
3563.806, 4.0672172E-02
3565.735, 4.3699089E-02
3567.663, 4.6477951E-02
3569.592, 4.5745671E-02
3571.520, 4.4266470E-02
3573.449, 4.6167951E-02
3575.377, 4.6886101E-02
3577.306, 4.8136201E-02
3579.234, 5.0551191E-02
3581.163, 5.0318699E-02
3583.091, 4.9736220E-02
3585.020, 5.0690580E-02
3586.948, 4.8763379E-02
3588.876, 4.4966079E-02
3590.805, 4.4343051E-02
3592.733, 4.5757089E-02
3594.662, 4.3636009E-02
3596.590, 4.3055739E-02
3598.519, 4.3322019E-02
3600.447, 4.4466659E-02
3602.376, 4.4731438E-02
3604.304, 4.1412439E-02
3606.233, 3.9314929E-02
3608.161, 3.9361820E-02
3610.090, 4.0063400E-02
3612.018, 4.0903330E-02
3613.947, 4.2597000E-02
3615.875, 4.5394119E-02
3617.803, 4.3793540E-02
3619.732, 4.1010879E-02
3621.660, 4.2355780E-02
3623.589, 4.0439621E-02
3625.517, 3.9494991E-02
3627.446, 4.0703420E-02
3629.374, 4.1517261E-02
3631.303, 4.3113772E-02
3633.231, 4.2206559E-02
3635.160, 4.2573672E-02
3637.088, 4.0638499E-02
3639.017, 3.7839320E-02
3640.945, 3.8900860E-02
3642.874, 4.1141000E-02
3644.802, 4.4749212E-02
3646.730, 4.5235328E-02
3648.659, 4.1375961E-02
3650.587, 4.1618481E-02
3652.516, 4.2335499E-02
3654.444, 3.8536839E-02
3656.373, 3.7569419E-02
3658.301, 4.1883759E-02
3660.230, 4.4019058E-02
3662.158, 4.3600950E-02
3664.087, 4.3747820E-02
3666.015, 4.6959858E-02
3667.944, 4.8123032E-02
3669.872, 4.9264379E-02
3671.801, 4.8992280E-02
3673.729, 4.5584630E-02
3675.657, 4.3588690E-02
3677.586, 4.3512009E-02
3679.514, 4.6214141E-02
3681.443, 4.7398459E-02
3683.371, 4.3292399E-02
3685.300, 4.0257301E-02
3687.228, 3.9644308E-02
3689.157, 4.1976001E-02
3691.085, 4.4411771E-02
3693.014, 4.5503762E-02
3694.942, 4.4159390E-02
3696.871, 4.3333150E-02
3698.799, 4.5217510E-02
3700.728, 4.5818578E-02
3702.656, 4.4869751E-02
3704.584, 4.7811091E-02
3706.513, 4.9410108E-02
3708.441, 4.4338658E-02
3710.370, 4.1058231E-02
3712.298, 4.2813551E-02
3714.227, 4.2290810E-02
3716.155, 4.3536421E-02
3718.084, 4.5668822E-02
3720.012, 4.2027101E-02
3721.941, 3.9768510E-02
3723.869, 3.9553922E-02
3725.798, 3.7935700E-02
3727.726, 4.0272821E-02
3729.655, 4.3440171E-02
3731.583, 4.3307569E-02
3733.511, 4.3216620E-02
3735.440, 4.7876950E-02
3737.368, 4.9149390E-02
3739.297, 4.6216302E-02
3741.225, 4.3346521E-02
3743.154, 4.4086929E-02
3745.082, 4.4630449E-02
3747.011, 4.2855032E-02
3748.939, 4.2347912E-02
3750.868, 4.2356811E-02
3752.796, 3.8216449E-02
3754.725, 3.6825411E-02
3756.653, 4.0955570E-02
3758.582, 4.5174349E-02
3760.510, 4.5559820E-02
3762.438, 4.4676870E-02
3764.367, 4.2471360E-02
3766.295, 4.2834859E-02
3768.224, 4.4914190E-02
3770.152, 4.6293981E-02
3772.081, 4.6755750E-02
3774.009, 4.5430221E-02
3775.938, 4.7577310E-02
3777.866, 4.9836550E-02
3779.795, 4.7059890E-02
3781.723, 4.3696061E-02
3783.652, 4.4623300E-02
3785.580, 4.6043750E-02
3787.509, 5.0486989E-02
3789.437, 4.8517421E-02
3791.365, 4.5562182E-02
3793.294, 4.8023351E-02
3795.222, 4.9829990E-02
3797.151, 4.9738340E-02
3799.079, 4.6611499E-02
3801.008, 4.7152281E-02
3802.936, 4.6123840E-02
3804.865, 4.5013789E-02
3806.793, 4.8363730E-02
3808.722, 5.0913028E-02
3810.650, 4.8280910E-02
3812.579, 4.4410940E-02
3814.507, 4.3126181E-02
3816.436, 4.6748482E-02
3818.364, 4.6739958E-02
3820.292, 4.5539089E-02
3822.221, 4.7536109E-02
3824.149, 4.6749260E-02
3826.078, 4.4939749E-02
3828.006, 4.3416020E-02
3829.935, 4.2941678E-02
3831.863, 4.5823969E-02
3833.792, 4.7505509E-02
3835.720, 4.7259260E-02
3837.649, 4.6361540E-02
3839.577, 4.7716089E-02
3841.506, 4.6537839E-02
3843.434, 4.7532611E-02
3845.363, 5.2075971E-02
3847.291, 5.0886162E-02
3849.219, 4.4221081E-02
3851.148, 4.3852180E-02
3853.076, 4.7467191E-02
3855.005, 5.0229080E-02
3856.933, 5.0892491E-02
3858.862, 5.0368790E-02
3860.790, 4.6443161E-02
3862.719, 4.2035401E-02
3864.647, 4.4329301E-02
3866.576, 4.6399489E-02
3868.504, 4.6056882E-02
3870.433, 4.3938011E-02
3872.361, 4.4863649E-02
3874.290, 4.5428481E-02
3876.218, 4.7537711E-02
3878.146, 4.5709360E-02
3880.075, 4.4965431E-02
3882.003, 4.9576338E-02
3883.932, 5.2253000E-02
3885.860, 5.1572438E-02
3887.789, 4.9242731E-02
3889.717, 5.0103750E-02
3891.646, 5.3196371E-02
3893.574, 5.2126858E-02
3895.503, 4.8970640E-02
3897.431, 4.5994781E-02
3899.360, 4.6025898E-02
3901.288, 4.9188010E-02
3903.217, 4.9487811E-02
3905.145, 4.6326350E-02
3907.073, 4.6364520E-02
3909.002, 4.8602991E-02
3910.930, 4.8697781E-02
3912.859, 4.8047751E-02
3914.787, 4.8407581E-02
3916.716, 4.5620520E-02
3918.644, 4.6984810E-02
3920.573, 4.9042039E-02
3922.501, 4.8359491E-02
3924.430, 4.9883831E-02
3926.358, 5.1607531E-02
3928.287, 5.2869610E-02
3930.215, 5.0552700E-02
3932.144, 4.8092380E-02
3934.072, 5.0697111E-02
3936.000, 5.0961379E-02
3937.929, 4.9956001E-02
3939.857, 5.2054901E-02
3941.786, 4.5842629E-02
3943.714, 4.6190970E-02
3945.643, 5.0896179E-02
3947.571, 4.8572760E-02
3949.500, 4.6814870E-02
3951.428, 4.8351541E-02
3953.357, 4.6973530E-02
3955.285, 4.6542872E-02
3957.214, 4.7526650E-02
3959.142, 5.1023688E-02
3961.071, 5.1703438E-02
3962.999, 5.0130721E-02
3964.927, 5.1375169E-02
3966.856, 4.9833119E-02
3968.784, 4.8631009E-02
3970.713, 4.9275920E-02
3972.641, 4.9326532E-02
3974.570, 4.8339300E-02
3976.498, 5.1425591E-02
3978.427, 4.8786450E-02
3980.355, 4.5634720E-02
3982.284, 4.8894010E-02
3984.212, 5.4053050E-02
3986.141, 6.0648192E-02
3988.069, 5.7872150E-02
3989.998, 5.1095210E-02
3991.926, 5.0132949E-02
3993.854, 5.0270371E-02
3995.783, 4.7859222E-02
3997.711, 4.7706671E-02
3999.640, 4.7729690E-02
##END=



