##NAMES=Bilinite
##RRUFFID=R070187
##IDEAL CHEMISTRY=Fe^2+^Fe^3+^_2_(S^6+^O_4_)_4_&#183;22H_2_O
##LOCALITY=Runge mine, near Edgemont, Fall River County, South Dakota, USA
##OWNER=RRUFF
##SOURCE=James Shigley
##DESCRIPTION=Colorless needles within pale green powdery efflorescence of pickeringite
##STATUS=The identification of this mineral has been confirmed by X-ray diffraction.
##URL=rruff.info/R070187
3.741225e+002, 1.474769e-001
3.760510e+002, 1.489076e-001
3.779795e+002, 1.549706e-001
3.799079e+002, 1.587858e-001
3.818364e+002, 1.589531e-001
3.837649e+002, 1.586286e-001
3.856933e+002, 1.541918e-001
3.876218e+002, 1.510761e-001
3.895503e+002, 1.525431e-001
3.914787e+002, 1.569010e-001
3.934072e+002, 1.605117e-001
3.953357e+002, 1.639759e-001
3.972641e+002, 1.674678e-001
3.991926e+002, 1.676476e-001
4.011211e+002, 1.698739e-001
4.030495e+002, 1.726294e-001
4.049780e+002, 1.722803e-001
4.069065e+002, 1.723108e-001
4.088349e+002, 1.742879e-001
4.107634e+002, 1.761511e-001
4.126919e+002, 1.773545e-001
4.146203e+002, 1.791364e-001
4.165488e+002, 1.782376e-001
4.184773e+002, 1.777239e-001
4.204057e+002, 1.801981e-001
4.223342e+002, 1.799900e-001
4.242627e+002, 1.796632e-001
4.261911e+002, 1.785167e-001
4.281196e+002, 1.774044e-001
4.300481e+002, 1.769814e-001
4.319765e+002, 1.754193e-001
4.339050e+002, 1.757362e-001
4.358335e+002, 1.776403e-001
4.377619e+002, 1.772837e-001
4.396904e+002, 1.784343e-001
4.416189e+002, 1.828330e-001
4.435473e+002, 1.872188e-001
4.454758e+002, 1.898802e-001
4.474043e+002, 1.893163e-001
4.493327e+002, 1.884191e-001
4.512612e+002, 1.876984e-001
4.531897e+002, 1.861027e-001
4.551181e+002, 1.855117e-001
4.570466e+002, 1.868536e-001
4.589751e+002, 1.893534e-001
4.609035e+002, 1.910388e-001
4.628320e+002, 1.921577e-001
4.647605e+002, 1.920487e-001
4.666889e+002, 1.907220e-001
4.686174e+002, 1.895633e-001
4.705459e+002, 1.886856e-001
4.724743e+002, 1.864623e-001
4.744028e+002, 1.845410e-001
4.763313e+002, 1.851799e-001
4.782597e+002, 1.863090e-001
4.801882e+002, 1.866845e-001
4.821167e+002, 1.867501e-001
4.840451e+002, 1.872651e-001
4.859736e+002, 1.882912e-001
4.879021e+002, 1.894261e-001
4.898305e+002, 1.909944e-001
4.917590e+002, 1.923741e-001
4.936875e+002, 1.933791e-001
4.956159e+002, 1.939874e-001
4.975444e+002, 1.954222e-001
4.994729e+002, 1.971364e-001
5.014013e+002, 1.989700e-001
5.033298e+002, 2.012621e-001
5.052583e+002, 2.035100e-001
5.071867e+002, 2.059891e-001
5.091152e+002, 2.085678e-001
5.110437e+002, 2.116484e-001
5.129721e+002, 2.148759e-001
5.149006e+002, 2.179495e-001
5.168290e+002, 2.206745e-001
5.187575e+002, 2.230806e-001
5.206860e+002, 2.253702e-001
5.226144e+002, 2.279145e-001
5.245429e+002, 2.304046e-001
5.264714e+002, 2.321837e-001
5.283998e+002, 2.338387e-001
5.303283e+002, 2.362989e-001
5.322568e+002, 2.386027e-001
5.341852e+002, 2.403123e-001
5.361137e+002, 2.429691e-001
5.380422e+002, 2.455610e-001
5.399706e+002, 2.484338e-001
5.418991e+002, 2.515456e-001
5.438276e+002, 2.533305e-001
5.457560e+002, 2.552611e-001
5.476845e+002, 2.575766e-001
5.496130e+002, 2.586813e-001
5.515414e+002, 2.588419e-001
5.534699e+002, 2.576055e-001
5.553984e+002, 2.559302e-001
5.573268e+002, 2.541237e-001
5.592553e+002, 2.518648e-001
5.611838e+002, 2.490648e-001
5.631122e+002, 2.459424e-001
5.650407e+002, 2.428587e-001
5.669692e+002, 2.399490e-001
5.688976e+002, 2.377025e-001
5.708261e+002, 2.366520e-001
5.727546e+002, 2.361910e-001
5.746830e+002, 2.364893e-001
5.766115e+002, 2.376942e-001
5.785400e+002, 2.390810e-001
5.804684e+002, 2.408652e-001
5.823969e+002, 2.432153e-001
5.843254e+002, 2.453289e-001
5.862538e+002, 2.481448e-001
5.881823e+002, 2.504524e-001
5.901108e+002, 2.508146e-001
5.920392e+002, 2.506031e-001
5.939677e+002, 2.494018e-001
5.958962e+002, 2.464321e-001
5.978246e+002, 2.422782e-001
5.997531e+002, 2.383495e-001
6.016816e+002, 2.355065e-001
6.036100e+002, 2.327873e-001
6.055385e+002, 2.295511e-001
6.074670e+002, 2.267521e-001
6.093954e+002, 2.237659e-001
6.113239e+002, 2.208676e-001
6.132524e+002, 2.179360e-001
6.151808e+002, 2.149626e-001
6.171093e+002, 2.126338e-001
6.190378e+002, 2.106088e-001
6.209662e+002, 2.091247e-001
6.228947e+002, 2.085896e-001
6.248232e+002, 2.077351e-001
6.267516e+002, 2.063208e-001
6.286801e+002, 2.041791e-001
6.306086e+002, 2.020796e-001
6.325370e+002, 1.998326e-001
6.344655e+002, 1.975189e-001
6.363940e+002, 1.945385e-001
6.383224e+002, 1.900648e-001
6.402509e+002, 1.849416e-001
6.421794e+002, 1.799222e-001
6.441078e+002, 1.753906e-001
6.460363e+002, 1.716678e-001
6.479648e+002, 1.693505e-001
6.498932e+002, 1.682920e-001
6.518217e+002, 1.680483e-001
6.537502e+002, 1.683467e-001
6.556786e+002, 1.695452e-001
6.576071e+002, 1.714346e-001
6.595356e+002, 1.738066e-001
6.614641e+002, 1.763045e-001
6.633925e+002, 1.786380e-001
6.653210e+002, 1.807066e-001
6.672495e+002, 1.813567e-001
6.691779e+002, 1.800121e-001
6.711064e+002, 1.772649e-001
6.730349e+002, 1.745656e-001
6.749633e+002, 1.726521e-001
6.768918e+002, 1.715982e-001
6.788203e+002, 1.707474e-001
6.807487e+002, 1.702939e-001
6.826772e+002, 1.706035e-001
6.846057e+002, 1.711438e-001
6.865341e+002, 1.715434e-001
6.884626e+002, 1.720038e-001
6.903911e+002, 1.724366e-001
6.923195e+002, 1.732776e-001
6.942480e+002, 1.740399e-001
6.961765e+002, 1.746636e-001
6.981049e+002, 1.754785e-001
7.000334e+002, 1.760580e-001
7.019619e+002, 1.762201e-001
7.038903e+002, 1.766836e-001
7.058188e+002, 1.772437e-001
7.077473e+002, 1.774536e-001
7.096757e+002, 1.777398e-001
7.116042e+002, 1.780956e-001
7.135327e+002, 1.782680e-001
7.154611e+002, 1.781985e-001
7.173896e+002, 1.778737e-001
7.193181e+002, 1.774758e-001
7.212465e+002, 1.771972e-001
7.231750e+002, 1.769918e-001
7.251035e+002, 1.766522e-001
7.270319e+002, 1.760286e-001
7.289604e+002, 1.754042e-001
7.308889e+002, 1.748149e-001
7.328173e+002, 1.741546e-001
7.347458e+002, 1.733499e-001
7.366743e+002, 1.727007e-001
7.386027e+002, 1.721474e-001
7.405312e+002, 1.714249e-001
7.424597e+002, 1.706238e-001
7.443881e+002, 1.699366e-001
7.463166e+002, 1.693749e-001
7.482451e+002, 1.688459e-001
7.501735e+002, 1.682858e-001
7.521020e+002, 1.677332e-001
7.540305e+002, 1.672013e-001
7.559589e+002, 1.666963e-001
7.578874e+002, 1.660831e-001
7.598159e+002, 1.655048e-001
7.617443e+002, 1.650909e-001
7.636728e+002, 1.648022e-001
7.656013e+002, 1.643771e-001
7.675297e+002, 1.637418e-001
7.694582e+002, 1.632350e-001
7.713867e+002, 1.629329e-001
7.733151e+002, 1.624165e-001
7.752436e+002, 1.620140e-001
7.771721e+002, 1.615418e-001
7.791005e+002, 1.608135e-001
7.810290e+002, 1.600761e-001
7.829575e+002, 1.593564e-001
7.848859e+002, 1.583302e-001
7.868144e+002, 1.573305e-001
7.887429e+002, 1.564965e-001
7.906713e+002, 1.556936e-001
7.925998e+002, 1.550423e-001
7.945283e+002, 1.544438e-001
7.964567e+002, 1.539095e-001
7.983852e+002, 1.534725e-001
8.003137e+002, 1.529724e-001
8.022421e+002, 1.525010e-001
8.041706e+002, 1.524566e-001
8.060991e+002, 1.524374e-001
8.080275e+002, 1.521332e-001
8.099560e+002, 1.519534e-001
8.118845e+002, 1.519600e-001
8.138129e+002, 1.516145e-001
8.157414e+002, 1.512069e-001
8.176699e+002, 1.506248e-001
8.195983e+002, 1.499399e-001
8.215268e+002, 1.491635e-001
8.234553e+002, 1.483040e-001
8.253837e+002, 1.473359e-001
8.273122e+002, 1.464186e-001
8.292407e+002, 1.457069e-001
8.311691e+002, 1.449723e-001
8.330976e+002, 1.444134e-001
8.350261e+002, 1.442676e-001
8.369545e+002, 1.440277e-001
8.388830e+002, 1.437850e-001
8.408115e+002, 1.439491e-001
8.427399e+002, 1.442514e-001
8.446684e+002, 1.447349e-001
8.465969e+002, 1.453172e-001
8.485253e+002, 1.456796e-001
8.504538e+002, 1.462291e-001
8.523823e+002, 1.468438e-001
8.543107e+002, 1.473125e-001
8.562392e+002, 1.477647e-001
8.581677e+002, 1.482943e-001
8.600961e+002, 1.482135e-001
8.620246e+002, 1.478725e-001
8.639531e+002, 1.476823e-001
8.658815e+002, 1.474321e-001
8.678100e+002, 1.472417e-001
8.697385e+002, 1.469732e-001
8.716669e+002, 1.465877e-001
8.735954e+002, 1.462184e-001
8.755239e+002, 1.459867e-001
8.774523e+002, 1.457550e-001
8.793808e+002, 1.454877e-001
8.813093e+002, 1.456854e-001
8.832377e+002, 1.460437e-001
8.851662e+002, 1.463416e-001
8.870947e+002, 1.469431e-001
8.890231e+002, 1.477717e-001
8.909516e+002, 1.486189e-001
8.928801e+002, 1.497091e-001
8.948085e+002, 1.513345e-001
8.967370e+002, 1.527970e-001
8.986655e+002, 1.542721e-001
9.005939e+002, 1.559576e-001
9.025224e+002, 1.578675e-001
9.044509e+002, 1.599291e-001
9.063793e+002, 1.622070e-001
9.083078e+002, 1.647109e-001
9.102363e+002, 1.672841e-001
9.121647e+002, 1.699826e-001
9.140932e+002, 1.726414e-001
9.160217e+002, 1.755334e-001
9.179501e+002, 1.788570e-001
9.198786e+002, 1.824896e-001
9.218071e+002, 1.866096e-001
9.237355e+002, 1.911333e-001
9.256640e+002, 1.957230e-001
9.275925e+002, 2.006015e-001
9.295209e+002, 2.057726e-001
9.314494e+002, 2.112594e-001
9.333779e+002, 2.169469e-001
9.353063e+002, 2.229504e-001
9.372348e+002, 2.293326e-001
9.391633e+002, 2.358748e-001
9.410917e+002, 2.425381e-001
9.430202e+002, 2.494352e-001
9.449487e+002, 2.564215e-001
9.468771e+002, 2.633957e-001
9.488056e+002, 2.705623e-001
9.507341e+002, 2.780014e-001
9.526625e+002, 2.858678e-001
9.545910e+002, 2.946861e-001
9.565195e+002, 3.045007e-001
9.584479e+002, 3.137887e-001
9.603764e+002, 3.201017e-001
9.623049e+002, 3.238247e-001
9.642333e+002, 3.278905e-001
9.661618e+002, 3.325038e-001
9.680903e+002, 3.369290e-001
9.700187e+002, 3.425887e-001
9.719472e+002, 3.501921e-001
9.738757e+002, 3.589707e-001
9.758041e+002, 3.678696e-001
9.777326e+002, 3.763997e-001
9.796611e+002, 3.844497e-001
9.815895e+002, 3.924287e-001
9.835180e+002, 4.000722e-001
9.854465e+002, 4.072589e-001
9.873749e+002, 4.136034e-001
9.893034e+002, 4.180641e-001
9.912319e+002, 4.185939e-001
9.931603e+002, 4.151360e-001
9.950888e+002, 4.074779e-001
9.970173e+002, 3.959503e-001
9.989457e+002, 3.826523e-001
1.000874e+003, 3.694881e-001
1.002803e+003, 3.575455e-001
1.004731e+003, 3.474330e-001
1.006660e+003, 3.392473e-001
1.008588e+003, 3.335790e-001
1.010517e+003, 3.312106e-001
1.012445e+003, 3.325433e-001
1.014373e+003, 3.367772e-001
1.016302e+003, 3.405494e-001
1.018230e+003, 3.390042e-001
1.020159e+003, 3.315845e-001
1.022087e+003, 3.231080e-001
1.024016e+003, 3.166950e-001
1.025944e+003, 3.126292e-001
1.027873e+003, 3.104056e-001
1.029801e+003, 3.096373e-001
1.031730e+003, 3.099691e-001
1.033658e+003, 3.112918e-001
1.035587e+003, 3.137943e-001
1.037515e+003, 3.173088e-001
1.039443e+003, 3.215894e-001
1.041372e+003, 3.262865e-001
1.043300e+003, 3.311172e-001
1.045229e+003, 3.360140e-001
1.047157e+003, 3.407180e-001
1.049086e+003, 3.452344e-001
1.051014e+003, 3.491490e-001
1.052943e+003, 3.523848e-001
1.054871e+003, 3.555196e-001
1.056800e+003, 3.593241e-001
1.058728e+003, 3.643667e-001
1.060657e+003, 3.699594e-001
1.062585e+003, 3.747818e-001
1.064514e+003, 3.785800e-001
1.066442e+003, 3.826448e-001
1.068370e+003, 3.879427e-001
1.070299e+003, 3.940804e-001
1.072227e+003, 4.000165e-001
1.074156e+003, 4.052489e-001
1.076084e+003, 4.093381e-001
1.078013e+003, 4.123163e-001
1.079941e+003, 4.141282e-001
1.081870e+003, 4.156002e-001
1.083798e+003, 4.172618e-001
1.085727e+003, 4.193621e-001
1.087655e+003, 4.216519e-001
1.089584e+003, 4.240072e-001
1.091512e+003, 4.260139e-001
1.093441e+003, 4.274775e-001
1.095369e+003, 4.274898e-001
1.097297e+003, 4.261577e-001
1.099226e+003, 4.239330e-001
1.101154e+003, 4.209920e-001
1.103083e+003, 4.170780e-001
1.105011e+003, 4.121336e-001
1.106940e+003, 4.053353e-001
1.108868e+003, 3.966178e-001
1.110797e+003, 3.866042e-001
1.112725e+003, 3.754236e-001
1.114654e+003, 3.634373e-001
1.116582e+003, 3.513595e-001
1.118511e+003, 3.393029e-001
1.120439e+003, 3.278805e-001
1.122368e+003, 3.171818e-001
1.124296e+003, 3.072373e-001
1.126224e+003, 2.984748e-001
1.128153e+003, 2.907635e-001
1.130081e+003, 2.838958e-001
1.132010e+003, 2.778359e-001
1.133938e+003, 2.723390e-001
1.135867e+003, 2.671321e-001
1.137795e+003, 2.621437e-001
1.139724e+003, 2.572911e-001
1.141652e+003, 2.519868e-001
1.143581e+003, 2.462490e-001
1.145509e+003, 2.399963e-001
1.147438e+003, 2.331886e-001
1.149366e+003, 2.256680e-001
1.151295e+003, 2.177987e-001
1.153223e+003, 2.099771e-001
1.155151e+003, 2.021009e-001
1.157080e+003, 1.943296e-001
1.159008e+003, 1.868474e-001
1.160937e+003, 1.797272e-001
1.162865e+003, 1.730113e-001
1.164794e+003, 1.669697e-001
1.166722e+003, 1.617248e-001
1.168651e+003, 1.573134e-001
1.170579e+003, 1.536473e-001
1.172508e+003, 1.507263e-001
1.174436e+003, 1.484644e-001
1.176365e+003, 1.467651e-001
1.178293e+003, 1.457304e-001
1.180222e+003, 1.449409e-001
1.182150e+003, 1.439339e-001
1.184078e+003, 1.427857e-001
1.186007e+003, 1.414187e-001
1.187935e+003, 1.395855e-001
1.189864e+003, 1.372862e-001
1.191792e+003, 1.344353e-001
1.193721e+003, 1.311608e-001
1.195649e+003, 1.276232e-001
1.197578e+003, 1.240281e-001
1.199506e+003, 1.206325e-001
1.201435e+003, 1.175865e-001
1.203363e+003, 1.149469e-001
1.205292e+003, 1.130876e-001
1.207220e+003, 1.116986e-001
1.209149e+003, 1.104600e-001
1.211077e+003, 1.093250e-001
1.213005e+003, 1.079899e-001
1.214934e+003, 1.062209e-001
1.216862e+003, 1.040010e-001
1.218791e+003, 1.013054e-001
1.220719e+003, 9.812281e-002
1.222648e+003, 9.437113e-002
1.224576e+003, 9.024542e-002
1.226505e+003, 8.578076e-002
1.228433e+003, 8.126543e-002
1.230362e+003, 7.697758e-002
1.232290e+003, 7.280816e-002
1.234219e+003, 6.874473e-002
1.236147e+003, 6.508456e-002
1.238076e+003, 6.179989e-002
1.240004e+003, 5.860005e-002
1.241932e+003, 5.554242e-002
1.243861e+003, 5.254016e-002
1.245789e+003, 4.949578e-002
1.247718e+003, 4.659877e-002
1.249646e+003, 4.392955e-002
1.251575e+003, 4.152545e-002
1.253503e+003, 3.927271e-002
1.255432e+003, 3.729670e-002
1.257360e+003, 3.544444e-002
1.259289e+003, 3.376795e-002
1.261217e+003, 3.238015e-002
1.263146e+003, 3.130043e-002
1.265074e+003, 3.066819e-002
1.267003e+003, 3.012420e-002
1.268931e+003, 2.950762e-002
1.270859e+003, 2.888388e-002
1.272788e+003, 2.846340e-002
1.274716e+003, 2.792456e-002
1.276645e+003, 2.730913e-002
1.278573e+003, 2.694163e-002
1.280502e+003, 2.671121e-002
1.282430e+003, 2.664506e-002
1.284359e+003, 2.646208e-002
1.286287e+003, 2.620268e-002
1.288216e+003, 2.611536e-002
1.290144e+003, 2.600325e-002
1.292073e+003, 2.596501e-002
1.294001e+003, 2.605237e-002
1.295930e+003, 2.600730e-002
1.297858e+003, 2.592417e-002
1.299786e+003, 2.589359e-002
1.301715e+003, 2.583198e-002
1.303643e+003, 2.589650e-002
1.305572e+003, 2.595412e-002
1.307500e+003, 2.596055e-002
1.309429e+003, 2.599432e-002
1.311357e+003, 2.606115e-002
1.313286e+003, 2.605905e-002
1.315214e+003, 2.604444e-002
1.317143e+003, 2.613523e-002
1.319071e+003, 2.625248e-002
1.321000e+003, 2.628644e-002
1.322928e+003, 2.633439e-002
1.324857e+003, 2.636251e-002
1.326785e+003, 2.658856e-002
1.328714e+003, 2.687173e-002
1.330642e+003, 2.698744e-002
1.332570e+003, 2.707311e-002
1.334499e+003, 2.715805e-002
1.336427e+003, 2.743129e-002
1.338356e+003, 2.763234e-002
1.340284e+003, 2.774209e-002
1.342213e+003, 2.785256e-002
1.344141e+003, 2.797759e-002
1.346070e+003, 2.806155e-002
1.347998e+003, 2.823807e-002
1.349927e+003, 2.841539e-002
1.351855e+003, 2.856735e-002
1.353784e+003, 2.875536e-002
1.355712e+003, 2.880541e-002
1.357641e+003, 2.898928e-002
1.359569e+003, 2.932488e-002
1.361497e+003, 2.955313e-002
1.363426e+003, 2.956706e-002
1.365354e+003, 2.968628e-002
1.367283e+003, 2.987048e-002
1.369211e+003, 3.008160e-002
1.371140e+003, 3.037436e-002
1.373068e+003, 3.048936e-002
1.374997e+003, 3.069105e-002
1.376925e+003, 3.095812e-002
1.378854e+003, 3.123332e-002
1.380782e+003, 3.148085e-002
1.382711e+003, 3.167827e-002
1.384639e+003, 3.197756e-002
1.386568e+003, 3.226221e-002
1.388496e+003, 3.257525e-002
1.390424e+003, 3.297117e-002
1.392353e+003, 3.338778e-002
1.394281e+003, 3.378399e-002
1.396210e+003, 3.406462e-002
1.398138e+003, 3.436706e-002
1.400067e+003, 3.455998e-002
1.401995e+003, 3.485888e-002
1.403924e+003, 3.534655e-002
1.405852e+003, 3.586765e-002
1.407781e+003, 3.633967e-002
1.409709e+003, 3.680785e-002
1.411638e+003, 3.712806e-002
1.413566e+003, 3.727900e-002
1.415495e+003, 3.744947e-002
1.417423e+003, 3.772274e-002
1.419351e+003, 3.795728e-002
1.421280e+003, 3.790789e-002
1.423208e+003, 3.772426e-002
1.425137e+003, 3.763977e-002
1.427065e+003, 3.758976e-002
1.428994e+003, 3.766591e-002
1.430922e+003, 3.773507e-002
1.432851e+003, 3.771828e-002
1.434779e+003, 3.776824e-002
1.436708e+003, 3.793322e-002
1.438636e+003, 3.800682e-002
1.440565e+003, 3.816531e-002
1.442493e+003, 3.831644e-002
1.444422e+003, 3.848560e-002
1.446350e+003, 3.867050e-002
1.448278e+003, 3.879168e-002
1.450207e+003, 3.893594e-002
1.452135e+003, 3.916422e-002
1.454064e+003, 3.942367e-002
1.455992e+003, 4.001186e-002
1.457921e+003, 4.032638e-002
1.459849e+003, 4.033045e-002
1.461778e+003, 4.047205e-002
1.463706e+003, 4.070313e-002
1.465635e+003, 4.095056e-002
1.467563e+003, 4.115957e-002
1.469492e+003, 4.167331e-002
1.471420e+003, 4.247925e-002
1.473349e+003, 4.314798e-002
1.475277e+003, 4.358980e-002
1.477205e+003, 4.405634e-002
1.479134e+003, 4.447506e-002
1.481062e+003, 4.495712e-002
1.482991e+003, 4.526384e-002
1.484919e+003, 4.556032e-002
1.486848e+003, 4.598668e-002
1.488776e+003, 4.639062e-002
1.490705e+003, 4.671232e-002
1.492633e+003, 4.699153e-002
1.494562e+003, 4.740578e-002
1.496490e+003, 4.788976e-002
1.498419e+003, 4.816059e-002
1.500347e+003, 4.819362e-002
1.502276e+003, 4.832531e-002
1.504204e+003, 4.875462e-002
1.506132e+003, 4.932368e-002
1.508061e+003, 4.947396e-002
1.509989e+003, 4.942276e-002
1.511918e+003, 4.948286e-002
1.513846e+003, 4.964627e-002
1.515775e+003, 4.997979e-002
1.517703e+003, 5.030869e-002
1.519632e+003, 5.096578e-002
1.521560e+003, 5.148881e-002
1.523489e+003, 5.153056e-002
1.525417e+003, 5.178918e-002
1.527346e+003, 5.210599e-002
1.529274e+003, 5.247799e-002
1.531203e+003, 5.302845e-002
1.533131e+003, 5.346675e-002
1.535059e+003, 5.386275e-002
1.536988e+003, 5.438071e-002
1.538916e+003, 5.521438e-002
1.540845e+003, 5.576118e-002
1.542773e+003, 5.600706e-002
1.544702e+003, 5.643514e-002
1.546630e+003, 5.704312e-002
1.548559e+003, 5.779012e-002
1.550487e+003, 5.854908e-002
1.552416e+003, 5.922997e-002
1.554344e+003, 5.992406e-002
1.556273e+003, 6.075266e-002
1.558201e+003, 6.187536e-002
1.560130e+003, 6.275854e-002
1.562058e+003, 6.334326e-002
1.563986e+003, 6.401984e-002
1.565915e+003, 6.491604e-002
1.567843e+003, 6.600209e-002
1.569772e+003, 6.710869e-002
1.571700e+003, 6.820170e-002
1.573629e+003, 6.940976e-002
1.575557e+003, 7.089262e-002
1.577486e+003, 7.209375e-002
1.579414e+003, 7.317021e-002
1.581343e+003, 7.451630e-002
1.583271e+003, 7.595412e-002
1.585200e+003, 7.746739e-002
1.587128e+003, 7.928830e-002
1.589057e+003, 8.131383e-002
1.590985e+003, 8.335381e-002
1.592913e+003, 8.562835e-002
1.594842e+003, 8.797844e-002
1.596770e+003, 9.032512e-002
1.598699e+003, 9.279255e-002
1.600627e+003, 9.545025e-002
1.602556e+003, 9.842676e-002
1.604484e+003, 1.015511e-001
1.606413e+003, 1.046377e-001
1.608341e+003, 1.080648e-001
1.610270e+003, 1.115934e-001
1.612198e+003, 1.150010e-001
1.614127e+003, 1.185959e-001
1.616055e+003, 1.223126e-001
1.617984e+003, 1.256976e-001
1.619912e+003, 1.286667e-001
1.621840e+003, 1.314973e-001
1.623769e+003, 1.341502e-001
1.625697e+003, 1.362925e-001
1.627626e+003, 1.381547e-001
1.629554e+003, 1.397893e-001
1.631483e+003, 1.412587e-001
1.633411e+003, 1.427041e-001
1.635340e+003, 1.432560e-001
1.637268e+003, 1.425686e-001
1.639197e+003, 1.412845e-001
1.641125e+003, 1.394257e-001
1.643054e+003, 1.369173e-001
1.644982e+003, 1.342528e-001
1.646911e+003, 1.312125e-001
1.648839e+003, 1.278202e-001
1.650767e+003, 1.247247e-001
1.652696e+003, 1.215878e-001
1.654624e+003, 1.175908e-001
1.656553e+003, 1.136353e-001
1.658481e+003, 1.100807e-001
1.660410e+003, 1.068333e-001
1.662338e+003, 1.038940e-001
1.664267e+003, 1.010398e-001
1.666195e+003, 9.828418e-002
1.668124e+003, 9.586078e-002
1.670052e+003, 9.323905e-002
1.671981e+003, 9.042443e-002
1.673909e+003, 8.801120e-002
1.675838e+003, 8.559049e-002
1.677766e+003, 8.293955e-002
1.679694e+003, 8.065142e-002
1.681623e+003, 7.852587e-002
1.683551e+003, 7.662068e-002
1.685480e+003, 7.455480e-002
1.687408e+003, 7.228754e-002
1.689337e+003, 7.017621e-002
1.691265e+003, 6.813466e-002
1.693194e+003, 6.637568e-002
1.695122e+003, 6.471625e-002
1.697051e+003, 6.285093e-002
1.698979e+003, 6.128310e-002
1.700908e+003, 5.948577e-002
1.702836e+003, 5.709718e-002
1.704765e+003, 5.509957e-002
1.706693e+003, 5.333787e-002
1.708621e+003, 5.185258e-002
1.710550e+003, 5.030243e-002
1.712478e+003, 4.889640e-002
1.714407e+003, 4.769601e-002
1.716335e+003, 4.666630e-002
1.718264e+003, 4.557271e-002
1.720192e+003, 4.435323e-002
1.722121e+003, 4.299519e-002
1.724049e+003, 4.184877e-002
1.725978e+003, 4.085604e-002
1.727906e+003, 3.987819e-002
1.729835e+003, 3.908165e-002
1.731763e+003, 3.834364e-002
1.733692e+003, 3.764668e-002
1.735620e+003, 3.658649e-002
1.737548e+003, 3.547194e-002
1.739477e+003, 3.484226e-002
1.741405e+003, 3.419489e-002
1.743334e+003, 3.346856e-002
1.745262e+003, 3.291402e-002
1.747191e+003, 3.279440e-002
1.749119e+003, 3.274409e-002
1.751048e+003, 3.253477e-002
1.752976e+003, 3.218567e-002
1.754905e+003, 3.197034e-002
1.756833e+003, 3.178828e-002
1.758762e+003, 3.171162e-002
1.760690e+003, 3.162427e-002
1.762619e+003, 3.151245e-002
1.764547e+003, 3.116342e-002
1.766475e+003, 3.093508e-002
1.768404e+003, 3.077888e-002
1.770332e+003, 3.050910e-002
1.772261e+003, 3.042568e-002
1.774189e+003, 3.020716e-002
1.776118e+003, 2.995120e-002
1.778046e+003, 2.977047e-002
1.779975e+003, 2.974500e-002
1.781903e+003, 2.950219e-002
1.783832e+003, 2.941192e-002
1.785760e+003, 2.933732e-002
1.787689e+003, 2.901257e-002
1.789617e+003, 2.878567e-002
1.791546e+003, 2.878008e-002
1.793474e+003, 2.874031e-002
1.795402e+003, 2.865517e-002
1.797331e+003, 2.853057e-002
1.799259e+003, 2.847342e-002
1.801188e+003, 2.825649e-002
1.803116e+003, 2.811746e-002
1.805045e+003, 2.818353e-002
1.806973e+003, 2.823864e-002
1.808902e+003, 2.802263e-002
1.810830e+003, 2.781674e-002
1.812759e+003, 2.780366e-002
1.814687e+003, 2.753142e-002
1.816616e+003, 2.716670e-002
1.818544e+003, 2.716721e-002
1.820473e+003, 2.732886e-002
1.822401e+003, 2.749882e-002
1.824329e+003, 2.750725e-002
1.826258e+003, 2.749471e-002
1.828186e+003, 2.733805e-002
1.830115e+003, 2.722153e-002
1.832043e+003, 2.727752e-002
1.833972e+003, 2.721290e-002
1.835900e+003, 2.697252e-002
1.837829e+003, 2.688702e-002
1.839757e+003, 2.673612e-002
1.841686e+003, 2.683618e-002
1.843614e+003, 2.730804e-002
1.845543e+003, 2.706810e-002
1.847471e+003, 2.679435e-002
1.849400e+003, 2.673107e-002
1.851328e+003, 2.660421e-002
1.853256e+003, 2.652598e-002
1.855185e+003, 2.645128e-002
1.857113e+003, 2.662967e-002
1.859042e+003, 2.676211e-002
1.860970e+003, 2.671949e-002
1.862899e+003, 2.638563e-002
1.864827e+003, 2.618640e-002
1.866756e+003, 2.628764e-002
1.868684e+003, 2.612376e-002
1.870613e+003, 2.598200e-002
1.872541e+003, 2.609718e-002
1.874470e+003, 2.606395e-002
1.876398e+003, 2.595399e-002
1.878327e+003, 2.591112e-002
1.880255e+003, 2.552752e-002
1.882183e+003, 2.536782e-002
1.884112e+003, 2.553083e-002
1.886040e+003, 2.574379e-002
1.887969e+003, 2.568221e-002
1.889897e+003, 2.535078e-002
1.891826e+003, 2.509235e-002
1.893754e+003, 2.539714e-002
1.895683e+003, 2.554087e-002
1.897611e+003, 2.546810e-002
1.899540e+003, 2.555246e-002
1.901468e+003, 2.589688e-002
1.903397e+003, 2.603712e-002
1.905325e+003, 2.592571e-002
1.907254e+003, 2.565735e-002
1.909182e+003, 2.502200e-002
1.911110e+003, 2.519688e-002
1.913039e+003, 2.553167e-002
1.914967e+003, 2.529574e-002
1.916896e+003, 2.532783e-002
1.918824e+003, 2.520797e-002
1.920753e+003, 2.500430e-002
1.922681e+003, 2.503256e-002
1.924610e+003, 2.511604e-002
1.926538e+003, 2.527350e-002
1.928467e+003, 2.497355e-002
1.930395e+003, 2.482611e-002
1.932324e+003, 2.541235e-002
1.934252e+003, 2.529684e-002
1.936181e+003, 2.514068e-002
1.938109e+003, 2.559870e-002
1.940037e+003, 2.526288e-002
1.941966e+003, 2.482916e-002
1.943894e+003, 2.523609e-002
1.945823e+003, 2.535382e-002
1.947751e+003, 2.472371e-002
1.949680e+003, 2.455005e-002
1.951608e+003, 2.465780e-002
1.953537e+003, 2.495380e-002
1.955465e+003, 2.466512e-002
1.957394e+003, 2.453252e-002
1.959322e+003, 2.496439e-002
1.961251e+003, 2.502931e-002
1.963179e+003, 2.435368e-002
1.965108e+003, 2.472830e-002
1.967036e+003, 2.521085e-002
1.968964e+003, 2.492071e-002
1.970893e+003, 2.432570e-002
1.972821e+003, 2.518025e-002
1.974750e+003, 2.555908e-002
1.976678e+003, 2.530059e-002
1.978607e+003, 2.582317e-002
1.980535e+003, 2.610347e-002
1.982464e+003, 2.600779e-002
1.984392e+003, 2.569545e-002
1.986321e+003, 2.522454e-002
1.988249e+003, 2.508611e-002
1.990178e+003, 2.572619e-002
1.992106e+003, 2.615529e-002
1.994035e+003, 2.649004e-002
1.995963e+003, 2.691166e-002
1.997891e+003, 2.691865e-002
1.999820e+003, 2.693576e-002
2.001748e+003, 2.658514e-002
2.003677e+003, 2.595400e-002
2.005605e+003, 2.554891e-002
2.007534e+003, 2.573664e-002
2.009462e+003, 2.632443e-002
2.011391e+003, 2.719001e-002
2.013319e+003, 2.734391e-002
2.015248e+003, 2.766974e-002
2.017176e+003, 2.800500e-002
2.019105e+003, 2.832986e-002
2.021033e+003, 2.817475e-002
2.022962e+003, 2.711422e-002
2.024890e+003, 2.619176e-002
2.026818e+003, 2.686954e-002
2.028747e+003, 2.813729e-002
2.030675e+003, 2.861021e-002
2.032604e+003, 2.910956e-002
2.034532e+003, 2.907984e-002
2.036461e+003, 2.895028e-002
2.038389e+003, 2.935801e-002
2.040318e+003, 2.979810e-002
2.042246e+003, 3.020569e-002
2.044175e+003, 3.008936e-002
2.046103e+003, 2.990804e-002
2.048031e+003, 2.986530e-002
2.049960e+003, 3.049026e-002
2.051888e+003, 3.055262e-002
2.053817e+003, 3.086394e-002
2.055745e+003, 3.075036e-002
2.057674e+003, 3.049615e-002
2.059602e+003, 3.071871e-002
2.061531e+003, 3.045813e-002
2.063459e+003, 2.993621e-002
2.065388e+003, 3.010001e-002
2.067316e+003, 3.074687e-002
2.069245e+003, 3.068240e-002
2.071173e+003, 3.068820e-002
2.073102e+003, 3.131859e-002
2.075030e+003, 3.225582e-002
2.076958e+003, 3.197294e-002
2.078887e+003, 3.148881e-002
2.080815e+003, 3.172793e-002
2.082744e+003, 3.145459e-002
2.084672e+003, 3.134836e-002
2.086601e+003, 3.145082e-002
2.088529e+003, 3.115705e-002
2.090458e+003, 3.177808e-002
2.092386e+003, 3.228243e-002
2.094315e+003, 3.200059e-002
2.096243e+003, 3.277477e-002
2.098172e+003, 3.318280e-002
2.100100e+003, 3.272333e-002
2.102029e+003, 3.288644e-002
2.103957e+003, 3.317223e-002
2.105885e+003, 3.312417e-002
2.107814e+003, 3.321703e-002
2.109742e+003, 3.322040e-002
2.111671e+003, 3.291731e-002
2.113599e+003, 3.340402e-002
2.115528e+003, 3.361892e-002
2.117456e+003, 3.304994e-002
2.119385e+003, 3.279437e-002
2.121313e+003, 3.332078e-002
2.123242e+003, 3.391817e-002
2.125170e+003, 3.409842e-002
2.127099e+003, 3.395005e-002
2.129027e+003, 3.366389e-002
2.130956e+003, 3.367738e-002
2.132884e+003, 3.344870e-002
2.134813e+003, 3.285743e-002
2.136741e+003, 3.210896e-002
2.138669e+003, 3.172323e-002
2.140598e+003, 3.285250e-002
2.142526e+003, 3.362351e-002
2.144455e+003, 3.336330e-002
2.146383e+003, 3.388992e-002
2.148312e+003, 3.412566e-002
2.150240e+003, 3.319578e-002
2.152169e+003, 3.262455e-002
2.154097e+003, 3.291189e-002
2.156026e+003, 3.263410e-002
2.157954e+003, 3.379866e-002
2.159883e+003, 3.594365e-002
2.161811e+003, 3.701050e-002
2.163740e+003, 3.688769e-002
2.165668e+003, 3.722591e-002
2.167596e+003, 3.711057e-002
2.169525e+003, 3.778873e-002
2.171453e+003, 3.760947e-002
2.173382e+003, 3.756781e-002
2.175310e+003, 3.724952e-002
2.177239e+003, 3.781069e-002
2.179167e+003, 3.859385e-002
2.181096e+003, 3.894058e-002
2.183024e+003, 3.866047e-002
2.184953e+003, 3.909107e-002
2.186881e+003, 3.943387e-002
2.188810e+003, 3.938895e-002
2.190738e+003, 3.949952e-002
2.192667e+003, 4.082941e-002
2.194595e+003, 4.209088e-002
2.196523e+003, 4.156370e-002
2.198452e+003, 4.075054e-002
2.200380e+003, 4.085386e-002
2.202309e+003, 4.126555e-002
2.204237e+003, 4.188046e-002
2.206166e+003, 4.211097e-002
2.208094e+003, 4.265147e-002
2.210023e+003, 4.303466e-002
2.211951e+003, 4.209327e-002
2.213880e+003, 4.266641e-002
2.215808e+003, 4.458126e-002
2.217737e+003, 4.446540e-002
2.219665e+003, 4.441552e-002
2.221594e+003, 4.446771e-002
2.223522e+003, 4.450173e-002
2.225450e+003, 4.429611e-002
2.227379e+003, 4.439860e-002
2.229307e+003, 4.492083e-002
2.231236e+003, 4.548873e-002
2.233164e+003, 4.566420e-002
2.235093e+003, 4.557267e-002
2.237021e+003, 4.646720e-002
2.238950e+003, 4.699415e-002
2.240878e+003, 4.676562e-002
2.242807e+003, 4.682966e-002
2.244735e+003, 4.742473e-002
2.246664e+003, 4.819279e-002
2.248592e+003, 4.877349e-002
2.250521e+003, 4.906321e-002
2.252449e+003, 4.898929e-002
2.254377e+003, 4.899221e-002
2.256306e+003, 4.922517e-002
2.258234e+003, 4.967700e-002
2.260163e+003, 5.016750e-002
2.262091e+003, 5.038647e-002
2.264020e+003, 5.090267e-002
2.265948e+003, 5.171455e-002
2.267877e+003, 5.206915e-002
2.269805e+003, 5.232519e-002
2.271734e+003, 5.331046e-002
2.273662e+003, 5.448751e-002
2.275591e+003, 5.495818e-002
2.277519e+003, 5.511386e-002
2.279448e+003, 5.538522e-002
2.281376e+003, 5.553874e-002
2.283304e+003, 5.598142e-002
2.285233e+003, 5.708488e-002
2.287161e+003, 5.772783e-002
2.289090e+003, 5.771751e-002
2.291018e+003, 5.777983e-002
2.292947e+003, 5.791807e-002
2.294875e+003, 5.810331e-002
2.296804e+003, 5.864532e-002
2.298732e+003, 5.958168e-002
2.300661e+003, 6.029120e-002
2.302589e+003, 6.079582e-002
2.304518e+003, 6.124010e-002
2.306446e+003, 6.170681e-002
2.308375e+003, 6.221314e-002
2.310303e+003, 6.291418e-002
2.312231e+003, 6.365696e-002
2.314160e+003, 6.395550e-002
2.316088e+003, 6.429342e-002
2.318017e+003, 6.514484e-002
2.319945e+003, 6.596461e-002
2.321874e+003, 6.668734e-002
2.323802e+003, 6.757120e-002
2.325731e+003, 6.775098e-002
2.327659e+003, 6.786405e-002
2.329588e+003, 6.827957e-002
2.331516e+003, 6.858833e-002
2.333445e+003, 6.924663e-002
2.335373e+003, 6.988064e-002
2.337302e+003, 7.033578e-002
2.339230e+003, 7.060541e-002
2.341158e+003, 7.096758e-002
2.343087e+003, 7.133538e-002
2.345015e+003, 7.179893e-002
2.346944e+003, 7.236672e-002
2.348872e+003, 7.281146e-002
2.350801e+003, 7.313968e-002
2.352729e+003, 7.362515e-002
2.354658e+003, 7.426052e-002
2.356586e+003, 7.491428e-002
2.358515e+003, 7.578927e-002
2.360443e+003, 7.649194e-002
2.362372e+003, 7.686329e-002
2.364300e+003, 7.723832e-002
2.366229e+003, 7.755108e-002
2.368157e+003, 7.798176e-002
2.370085e+003, 7.835332e-002
2.372014e+003, 7.881994e-002
2.373942e+003, 7.945853e-002
2.375871e+003, 7.967641e-002
2.377799e+003, 7.966116e-002
2.379728e+003, 7.996381e-002
2.381656e+003, 8.037253e-002
2.383585e+003, 8.061350e-002
2.385513e+003, 8.130514e-002
2.387442e+003, 8.214878e-002
2.389370e+003, 8.289107e-002
2.391299e+003, 8.332724e-002
2.393227e+003, 8.377927e-002
2.395156e+003, 8.422121e-002
2.397084e+003, 8.424588e-002
2.399012e+003, 8.473177e-002
2.400941e+003, 8.583624e-002
2.402869e+003, 8.651791e-002
2.404798e+003, 8.685794e-002
2.406726e+003, 8.759772e-002
2.408655e+003, 8.818073e-002
2.410583e+003, 8.883074e-002
2.412512e+003, 8.933551e-002
2.414440e+003, 8.941988e-002
2.416369e+003, 8.976044e-002
2.418297e+003, 9.051343e-002
2.420226e+003, 9.073129e-002
2.422154e+003, 9.103110e-002
2.424083e+003, 9.176007e-002
2.426011e+003, 9.232657e-002
2.427939e+003, 9.296929e-002
2.429868e+003, 9.350352e-002
2.431796e+003, 9.411076e-002
2.433725e+003, 9.422827e-002
2.435653e+003, 9.470588e-002
2.437582e+003, 9.540522e-002
2.439510e+003, 9.573507e-002
2.441439e+003, 9.587145e-002
2.443367e+003, 9.661914e-002
2.445296e+003, 9.742559e-002
2.447224e+003, 9.762459e-002
2.449153e+003, 9.785378e-002
2.451081e+003, 9.819712e-002
2.453010e+003, 9.872301e-002
2.454938e+003, 9.891408e-002
2.456866e+003, 9.912125e-002
2.458795e+003, 9.971110e-002
2.460723e+003, 1.002505e-001
2.462652e+003, 1.004614e-001
2.464580e+003, 1.008127e-001
2.466509e+003, 1.013367e-001
2.468437e+003, 1.017524e-001
2.470366e+003, 1.020364e-001
2.472294e+003, 1.022092e-001
2.474223e+003, 1.024270e-001
2.476151e+003, 1.024940e-001
2.478080e+003, 1.029321e-001
2.480008e+003, 1.034309e-001
2.481937e+003, 1.036966e-001
2.483865e+003, 1.039670e-001
2.485793e+003, 1.045341e-001
2.487722e+003, 1.052464e-001
2.489650e+003, 1.051175e-001
2.491579e+003, 1.052914e-001
2.493507e+003, 1.057274e-001
2.495436e+003, 1.060810e-001
2.497364e+003, 1.062186e-001
2.499293e+003, 1.064158e-001
2.501221e+003, 1.067909e-001
2.503150e+003, 1.071874e-001
2.505078e+003, 1.074592e-001
2.507007e+003, 1.074541e-001
2.508935e+003, 1.076091e-001
2.510864e+003, 1.075936e-001
2.512792e+003, 1.076149e-001
2.514720e+003, 1.076846e-001
2.516649e+003, 1.081856e-001
2.518577e+003, 1.089636e-001
2.520506e+003, 1.089082e-001
2.522434e+003, 1.087857e-001
2.524363e+003, 1.090692e-001
2.526291e+003, 1.093313e-001
2.528220e+003, 1.093738e-001
2.530148e+003, 1.091181e-001
2.532077e+003, 1.091410e-001
2.534005e+003, 1.096696e-001
2.535934e+003, 1.101413e-001
2.537862e+003, 1.103954e-001
2.539791e+003, 1.099770e-001
2.541719e+003, 1.095783e-001
2.543647e+003, 1.097025e-001
2.545576e+003, 1.099177e-001
2.547504e+003, 1.103479e-001
2.549433e+003, 1.107441e-001
2.551361e+003, 1.108048e-001
2.553290e+003, 1.109037e-001
2.555218e+003, 1.112941e-001
2.557147e+003, 1.112841e-001
2.559075e+003, 1.111088e-001
2.561004e+003, 1.115646e-001
2.562932e+003, 1.119135e-001
2.564861e+003, 1.115081e-001
2.566789e+003, 1.111936e-001
2.568718e+003, 1.114479e-001
2.570646e+003, 1.116791e-001
2.572574e+003, 1.119498e-001
2.574503e+003, 1.121602e-001
2.576431e+003, 1.122341e-001
2.578360e+003, 1.125666e-001
2.580288e+003, 1.131952e-001
2.582217e+003, 1.137010e-001
2.584145e+003, 1.133358e-001
2.586074e+003, 1.131528e-001
2.588002e+003, 1.137227e-001
2.589931e+003, 1.144429e-001
2.591859e+003, 1.149422e-001
2.593788e+003, 1.152414e-001
2.595716e+003, 1.153044e-001
2.597645e+003, 1.153902e-001
2.599573e+003, 1.155383e-001
2.601501e+003, 1.159007e-001
2.603430e+003, 1.162510e-001
2.605358e+003, 1.168132e-001
2.607287e+003, 1.174114e-001
2.609215e+003, 1.180313e-001
2.611144e+003, 1.182021e-001
2.613072e+003, 1.185077e-001
2.615001e+003, 1.192829e-001
2.616929e+003, 1.197432e-001
2.618858e+003, 1.202351e-001
2.620786e+003, 1.206993e-001
2.622715e+003, 1.209233e-001
2.624643e+003, 1.213456e-001
2.626572e+003, 1.221791e-001
2.628500e+003, 1.227304e-001
2.630428e+003, 1.232364e-001
2.632357e+003, 1.238702e-001
2.634285e+003, 1.245853e-001
2.636214e+003, 1.251957e-001
2.638142e+003, 1.259402e-001
2.640071e+003, 1.265280e-001
2.641999e+003, 1.269369e-001
2.643928e+003, 1.279625e-001
2.645856e+003, 1.287116e-001
2.647785e+003, 1.293189e-001
2.649713e+003, 1.302987e-001
2.651642e+003, 1.308756e-001
2.653570e+003, 1.313818e-001
2.655499e+003, 1.323460e-001
2.657427e+003, 1.329544e-001
2.659355e+003, 1.336342e-001
2.661284e+003, 1.347034e-001
2.663212e+003, 1.355611e-001
2.665141e+003, 1.363390e-001
2.667069e+003, 1.370650e-001
2.668998e+003, 1.378841e-001
2.670926e+003, 1.388908e-001
2.672855e+003, 1.399826e-001
2.674783e+003, 1.411525e-001
2.676712e+003, 1.420653e-001
2.678640e+003, 1.427292e-001
2.680569e+003, 1.438169e-001
2.682497e+003, 1.450089e-001
2.684426e+003, 1.461585e-001
2.686354e+003, 1.473601e-001
2.688282e+003, 1.483825e-001
2.690211e+003, 1.490027e-001
2.692139e+003, 1.501213e-001
2.694068e+003, 1.511673e-001
2.695996e+003, 1.521987e-001
2.697925e+003, 1.536424e-001
2.699853e+003, 1.550720e-001
2.701782e+003, 1.562300e-001
2.703710e+003, 1.578281e-001
2.705639e+003, 1.594275e-001
2.707567e+003, 1.605224e-001
2.709496e+003, 1.613939e-001
2.711424e+003, 1.627368e-001
2.713353e+003, 1.642776e-001
2.715281e+003, 1.654244e-001
2.717209e+003, 1.665752e-001
2.719138e+003, 1.679150e-001
2.721066e+003, 1.692960e-001
2.722995e+003, 1.707444e-001
2.724923e+003, 1.719670e-001
2.726852e+003, 1.732205e-001
2.728780e+003, 1.748338e-001
2.730709e+003, 1.765946e-001
2.732637e+003, 1.782365e-001
2.734566e+003, 1.794924e-001
2.736494e+003, 1.809578e-001
2.738423e+003, 1.827917e-001
2.740351e+003, 1.843285e-001
2.742280e+003, 1.857112e-001
2.744208e+003, 1.872907e-001
2.746136e+003, 1.887577e-001
2.748065e+003, 1.901434e-001
2.749993e+003, 1.916774e-001
2.751922e+003, 1.933513e-001
2.753850e+003, 1.951006e-001
2.755779e+003, 1.970504e-001
2.757707e+003, 1.987792e-001
2.759636e+003, 2.003054e-001
2.761564e+003, 2.019249e-001
2.763493e+003, 2.033163e-001
2.765421e+003, 2.050528e-001
2.767350e+003, 2.067938e-001
2.769278e+003, 2.083676e-001
2.771207e+003, 2.100767e-001
2.773135e+003, 2.116650e-001
2.775063e+003, 2.135300e-001
2.776992e+003, 2.155562e-001
2.778920e+003, 2.170639e-001
2.780849e+003, 2.188230e-001
2.782777e+003, 2.205832e-001
2.784706e+003, 2.223378e-001
2.786634e+003, 2.241892e-001
2.788563e+003, 2.258701e-001
2.790491e+003, 2.276033e-001
2.792420e+003, 2.295455e-001
2.794348e+003, 2.312134e-001
2.796277e+003, 2.330832e-001
2.798205e+003, 2.346638e-001
2.800134e+003, 2.364129e-001
2.802062e+003, 2.386372e-001
2.803990e+003, 2.406466e-001
2.805919e+003, 2.424241e-001
2.807847e+003, 2.443849e-001
2.809776e+003, 2.462313e-001
2.811704e+003, 2.480538e-001
2.813633e+003, 2.500170e-001
2.815561e+003, 2.520196e-001
2.817490e+003, 2.535701e-001
2.819418e+003, 2.551065e-001
2.821347e+003, 2.572059e-001
2.823275e+003, 2.591117e-001
2.825204e+003, 2.607349e-001
2.827132e+003, 2.624991e-001
2.829061e+003, 2.641912e-001
2.830989e+003, 2.656551e-001
2.832917e+003, 2.678370e-001
2.834846e+003, 2.698796e-001
2.836774e+003, 2.713823e-001
2.838703e+003, 2.729656e-001
2.840631e+003, 2.745983e-001
2.842560e+003, 2.756767e-001
2.844488e+003, 2.765765e-001
2.846417e+003, 2.773290e-001
2.848345e+003, 2.771700e-001
2.850274e+003, 2.776256e-001
2.852202e+003, 2.796258e-001
2.854131e+003, 2.819710e-001
2.856059e+003, 2.843039e-001
2.857988e+003, 2.870755e-001
2.859916e+003, 2.900560e-001
2.861844e+003, 2.925096e-001
2.863773e+003, 2.951146e-001
2.865701e+003, 2.976281e-001
2.867630e+003, 2.996453e-001
2.869558e+003, 3.012737e-001
2.871487e+003, 3.029837e-001
2.873415e+003, 3.053049e-001
2.875344e+003, 3.072922e-001
2.877272e+003, 3.096853e-001
2.879201e+003, 3.118103e-001
2.881129e+003, 3.131673e-001
2.883058e+003, 3.148857e-001
2.884986e+003, 3.171159e-001
2.886915e+003, 3.186681e-001
2.888843e+003, 3.198784e-001
2.890771e+003, 3.215287e-001
2.892700e+003, 3.235279e-001
2.894628e+003, 3.251880e-001
2.896557e+003, 3.267971e-001
2.898485e+003, 3.283867e-001
2.900414e+003, 3.300261e-001
2.902342e+003, 3.314016e-001
2.904271e+003, 3.326659e-001
2.906199e+003, 3.340192e-001
2.908128e+003, 3.351121e-001
2.910056e+003, 3.357824e-001
2.911985e+003, 3.362970e-001
2.913913e+003, 3.369279e-001
2.915842e+003, 3.375981e-001
2.917770e+003, 3.381643e-001
2.919698e+003, 3.393505e-001
2.921627e+003, 3.408236e-001
2.923555e+003, 3.427551e-001
2.925484e+003, 3.449493e-001
2.927412e+003, 3.472982e-001
2.929341e+003, 3.500698e-001
2.931269e+003, 3.531275e-001
2.933198e+003, 3.557114e-001
2.935126e+003, 3.583848e-001
2.937055e+003, 3.614929e-001
2.938983e+003, 3.635854e-001
2.940912e+003, 3.657363e-001
2.942840e+003, 3.683421e-001
2.944769e+003, 3.707042e-001
2.946697e+003, 3.727774e-001
2.948625e+003, 3.746867e-001
2.950554e+003, 3.763979e-001
2.952482e+003, 3.781909e-001
2.954411e+003, 3.798793e-001
2.956339e+003, 3.820447e-001
2.958268e+003, 3.840238e-001
2.960196e+003, 3.860126e-001
2.962125e+003, 3.878086e-001
2.964053e+003, 3.895980e-001
2.965982e+003, 3.918241e-001
2.967910e+003, 3.939418e-001
2.969839e+003, 3.961075e-001
2.971767e+003, 3.980392e-001
2.973696e+003, 3.997893e-001
2.975624e+003, 4.015357e-001
2.977552e+003, 4.033695e-001
2.979481e+003, 4.051880e-001
2.981409e+003, 4.069694e-001
2.983338e+003, 4.086735e-001
2.985266e+003, 4.108036e-001
2.987195e+003, 4.125056e-001
2.989123e+003, 4.142998e-001
2.991052e+003, 4.163506e-001
2.992980e+003, 4.179802e-001
2.994909e+003, 4.196054e-001
2.996837e+003, 4.205119e-001
2.998766e+003, 4.219990e-001
3.000694e+003, 4.237217e-001
3.002623e+003, 4.251006e-001
3.004551e+003, 4.263963e-001
3.006479e+003, 4.282604e-001
3.008408e+003, 4.299756e-001
3.010336e+003, 4.314051e-001
3.012265e+003, 4.333553e-001
3.014193e+003, 4.347097e-001
3.016122e+003, 4.361403e-001
3.018050e+003, 4.373967e-001
3.019979e+003, 4.386705e-001
3.021907e+003, 4.402171e-001
3.023836e+003, 4.419011e-001
3.025764e+003, 4.430452e-001
3.027693e+003, 4.442443e-001
3.029621e+003, 4.458417e-001
3.031550e+003, 4.468662e-001
3.033478e+003, 4.474714e-001
3.035406e+003, 4.489344e-001
3.037335e+003, 4.508255e-001
3.039263e+003, 4.520708e-001
3.041192e+003, 4.531300e-001
3.043120e+003, 4.537938e-001
3.045049e+003, 4.550787e-001
3.046977e+003, 4.565940e-001
3.048906e+003, 4.573042e-001
3.050834e+003, 4.585549e-001
3.052763e+003, 4.595743e-001
3.054691e+003, 4.601172e-001
3.056620e+003, 4.609280e-001
3.058548e+003, 4.619229e-001
3.060477e+003, 4.631005e-001
3.062405e+003, 4.636179e-001
3.064333e+003, 4.642009e-001
3.066262e+003, 4.649961e-001
3.068190e+003, 4.654928e-001
3.070119e+003, 4.666388e-001
3.072047e+003, 4.673256e-001
3.073976e+003, 4.678963e-001
3.075904e+003, 4.682589e-001
3.077833e+003, 4.677089e-001
3.079761e+003, 4.679567e-001
3.081690e+003, 4.687167e-001
3.083618e+003, 4.694202e-001
3.085547e+003, 4.705829e-001
3.087475e+003, 4.712941e-001
3.089404e+003, 4.714135e-001
3.091332e+003, 4.714124e-001
3.093260e+003, 4.716768e-001
3.095189e+003, 4.720988e-001
3.097117e+003, 4.726783e-001
3.099046e+003, 4.729773e-001
3.100974e+003, 4.728180e-001
3.102903e+003, 4.725797e-001
3.104831e+003, 4.727403e-001
3.106760e+003, 4.730668e-001
3.108688e+003, 4.730929e-001
3.110617e+003, 4.726567e-001
3.112545e+003, 4.721349e-001
3.114474e+003, 4.723349e-001
3.116402e+003, 4.719723e-001
3.118331e+003, 4.713234e-001
3.120259e+003, 4.713636e-001
3.122188e+003, 4.714931e-001
3.124116e+003, 4.712636e-001
3.126044e+003, 4.702145e-001
3.127973e+003, 4.692460e-001
3.129901e+003, 4.687661e-001
3.131830e+003, 4.684135e-001
3.133758e+003, 4.682354e-001
3.135687e+003, 4.677835e-001
3.137615e+003, 4.671357e-001
3.139544e+003, 4.665230e-001
3.141472e+003, 4.656978e-001
3.143401e+003, 4.655168e-001
3.145329e+003, 4.651926e-001
3.147258e+003, 4.642332e-001
3.149186e+003, 4.633660e-001
3.151115e+003, 4.624642e-001
3.153043e+003, 4.612685e-001
3.154971e+003, 4.606351e-001
3.156900e+003, 4.598899e-001
3.158828e+003, 4.586596e-001
3.160757e+003, 4.581608e-001
3.162685e+003, 4.577797e-001
3.164614e+003, 4.568087e-001
3.166542e+003, 4.558233e-001
3.168471e+003, 4.547842e-001
3.170399e+003, 4.541936e-001
3.172328e+003, 4.534799e-001
3.174256e+003, 4.518136e-001
3.176185e+003, 4.507146e-001
3.178113e+003, 4.508095e-001
3.180042e+003, 4.500812e-001
3.181970e+003, 4.486378e-001
3.183898e+003, 4.474972e-001
3.185827e+003, 4.468717e-001
3.187755e+003, 4.456938e-001
3.189684e+003, 4.445336e-001
3.191612e+003, 4.439649e-001
3.193541e+003, 4.429463e-001
3.195469e+003, 4.412450e-001
3.197398e+003, 4.402949e-001
3.199326e+003, 4.392346e-001
3.201255e+003, 4.386955e-001
3.203183e+003, 4.375973e-001
3.205112e+003, 4.360641e-001
3.207040e+003, 4.354807e-001
3.208969e+003, 4.350421e-001
3.210897e+003, 4.335307e-001
3.212825e+003, 4.318968e-001
3.214754e+003, 4.304378e-001
3.216682e+003, 4.294950e-001
3.218611e+003, 4.285769e-001
3.220539e+003, 4.271989e-001
3.222468e+003, 4.264102e-001
3.224396e+003, 4.249782e-001
3.226325e+003, 4.230212e-001
3.228253e+003, 4.219124e-001
3.230182e+003, 4.211631e-001
3.232110e+003, 4.203798e-001
3.234039e+003, 4.188936e-001
3.235967e+003, 4.170571e-001
3.237896e+003, 4.158440e-001
3.239824e+003, 4.142317e-001
3.241752e+003, 4.126716e-001
3.243681e+003, 4.111947e-001
3.245609e+003, 4.095086e-001
3.247538e+003, 4.082112e-001
3.249466e+003, 4.076739e-001
3.251395e+003, 4.063208e-001
3.253323e+003, 4.042230e-001
3.255252e+003, 4.025474e-001
3.257180e+003, 4.010071e-001
3.259109e+003, 3.999486e-001
3.261037e+003, 3.988742e-001
3.262966e+003, 3.969391e-001
3.264894e+003, 3.952124e-001
3.266823e+003, 3.936818e-001
3.268751e+003, 3.925361e-001
3.270679e+003, 3.911070e-001
3.272608e+003, 3.894076e-001
3.274536e+003, 3.875210e-001
3.276465e+003, 3.861796e-001
3.278393e+003, 3.849761e-001
3.280322e+003, 3.837735e-001
3.282250e+003, 3.822777e-001
3.284179e+003, 3.809635e-001
3.286107e+003, 3.800061e-001
3.288036e+003, 3.784785e-001
3.289964e+003, 3.767391e-001
3.291893e+003, 3.752182e-001
3.293821e+003, 3.738391e-001
3.295750e+003, 3.723685e-001
3.297678e+003, 3.709517e-001
3.299606e+003, 3.696332e-001
3.301535e+003, 3.686468e-001
3.303463e+003, 3.681248e-001
3.305392e+003, 3.667364e-001
3.307320e+003, 3.648927e-001
3.309249e+003, 3.634001e-001
3.311177e+003, 3.618398e-001
3.313106e+003, 3.607868e-001
3.315034e+003, 3.597407e-001
3.316963e+003, 3.586727e-001
3.318891e+003, 3.575921e-001
3.320820e+003, 3.563176e-001
3.322748e+003, 3.551807e-001
3.324677e+003, 3.540869e-001
3.326605e+003, 3.528892e-001
3.328533e+003, 3.517831e-001
3.330462e+003, 3.509714e-001
3.332390e+003, 3.496236e-001
3.334319e+003, 3.482189e-001
3.336247e+003, 3.468385e-001
3.338176e+003, 3.461120e-001
3.340104e+003, 3.450371e-001
3.342033e+003, 3.432446e-001
3.343961e+003, 3.415299e-001
3.345890e+003, 3.404304e-001
3.347818e+003, 3.394520e-001
3.349747e+003, 3.381187e-001
3.351675e+003, 3.366925e-001
3.353604e+003, 3.354173e-001
3.355532e+003, 3.337616e-001
3.357460e+003, 3.325689e-001
3.359389e+003, 3.314223e-001
3.361317e+003, 3.303323e-001
3.363246e+003, 3.288819e-001
3.365174e+003, 3.273970e-001
3.367103e+003, 3.258501e-001
3.369031e+003, 3.242631e-001
3.370960e+003, 3.227932e-001
3.372888e+003, 3.210816e-001
3.374817e+003, 3.191803e-001
3.376745e+003, 3.168282e-001
3.378674e+003, 3.147441e-001
3.380602e+003, 3.130448e-001
3.382531e+003, 3.113242e-001
3.384459e+003, 3.091906e-001
3.386387e+003, 3.065419e-001
3.388316e+003, 3.047622e-001
3.390244e+003, 3.032412e-001
3.392173e+003, 3.009863e-001
3.394101e+003, 2.987171e-001
3.396030e+003, 2.965433e-001
3.397958e+003, 2.936420e-001
3.399887e+003, 2.914346e-001
3.401815e+003, 2.895482e-001
3.403744e+003, 2.872933e-001
3.405672e+003, 2.848064e-001
3.407601e+003, 2.830304e-001
3.409529e+003, 2.810894e-001
3.411458e+003, 2.788510e-001
3.413386e+003, 2.765008e-001
3.415314e+003, 2.742934e-001
3.417243e+003, 2.719018e-001
3.419171e+003, 2.696637e-001
3.421100e+003, 2.677926e-001
3.423028e+003, 2.663106e-001
3.424957e+003, 2.641665e-001
3.426885e+003, 2.617171e-001
3.428814e+003, 2.598629e-001
3.430742e+003, 2.579406e-001
3.432671e+003, 2.562269e-001
3.434599e+003, 2.543975e-001
3.436528e+003, 2.522061e-001
3.438456e+003, 2.506507e-001
3.440385e+003, 2.495064e-001
3.442313e+003, 2.478731e-001
3.444241e+003, 2.452764e-001
3.446170e+003, 2.434960e-001
3.448098e+003, 2.427992e-001
3.450027e+003, 2.407923e-001
3.451955e+003, 2.388927e-001
3.453884e+003, 2.370770e-001
3.455812e+003, 2.357544e-001
3.457741e+003, 2.346077e-001
3.459669e+003, 2.329181e-001
3.461598e+003, 2.309882e-001
3.463526e+003, 2.288340e-001
3.465455e+003, 2.268392e-001
3.467383e+003, 2.260526e-001
3.469312e+003, 2.258599e-001
3.471240e+003, 2.247372e-001
3.473168e+003, 2.227665e-001
3.475097e+003, 2.213489e-001
3.477025e+003, 2.200589e-001
3.478954e+003, 2.178529e-001
3.480882e+003, 2.162821e-001
3.482811e+003, 2.155655e-001
3.484739e+003, 2.143953e-001
3.486668e+003, 2.132508e-001
3.488596e+003, 2.122620e-001
3.490525e+003, 2.100994e-001
3.492453e+003, 2.080105e-001
3.494382e+003, 2.072990e-001
3.496310e+003, 2.066976e-001
3.498239e+003, 2.053431e-001
3.500167e+003, 2.033084e-001
3.502095e+003, 2.021293e-001
3.504024e+003, 2.019791e-001
3.505952e+003, 2.014546e-001
3.507881e+003, 2.018117e-001
3.509809e+003, 2.020334e-001
3.511738e+003, 2.014672e-001
3.513666e+003, 2.016428e-001
3.515595e+003, 2.022828e-001
3.517523e+003, 2.026545e-001
3.519452e+003, 2.027845e-001
3.521380e+003, 2.028982e-001
3.523309e+003, 2.026000e-001
3.525237e+003, 2.016348e-001
3.527166e+003, 1.999309e-001
3.529094e+003, 1.968562e-001
3.531022e+003, 1.931597e-001
3.532951e+003, 1.891325e-001
3.534879e+003, 1.842773e-001
3.536808e+003, 1.785032e-001
3.538736e+003, 1.723278e-001
3.540665e+003, 1.670027e-001
3.542593e+003, 1.621197e-001
3.544522e+003, 1.569398e-001
3.546450e+003, 1.533179e-001
3.548379e+003, 1.500411e-001
3.550307e+003, 1.464044e-001
3.552236e+003, 1.435369e-001
3.554164e+003, 1.406923e-001
3.556093e+003, 1.373269e-001
3.558021e+003, 1.349947e-001
3.559949e+003, 1.340549e-001
3.561878e+003, 1.325331e-001
3.563806e+003, 1.301529e-001
3.565735e+003, 1.277971e-001
3.567663e+003, 1.256949e-001
3.569592e+003, 1.237306e-001
3.571520e+003, 1.215893e-001
3.573449e+003, 1.191275e-001
3.575377e+003, 1.163725e-001
3.577306e+003, 1.132974e-001
3.579234e+003, 1.100939e-001
3.581163e+003, 1.072563e-001
3.583091e+003, 1.043813e-001
3.585020e+003, 1.014872e-001
3.586948e+003, 9.898659e-002
3.588876e+003, 9.552947e-002
3.590805e+003, 9.217590e-002
3.592733e+003, 8.922739e-002
3.594662e+003, 8.674734e-002
3.596590e+003, 8.433495e-002
3.598519e+003, 8.099353e-002
3.600447e+003, 7.782403e-002
3.602376e+003, 7.552114e-002
3.604304e+003, 7.252187e-002
3.606233e+003, 6.945578e-002
3.608161e+003, 6.757436e-002
3.610090e+003, 6.506060e-002
3.612018e+003, 6.212360e-002
3.613947e+003, 5.890744e-002
3.615875e+003, 5.654493e-002
3.617803e+003, 5.488334e-002
3.619732e+003, 5.280758e-002
3.621660e+003, 5.032135e-002
3.623589e+003, 4.825165e-002
3.625517e+003, 4.669731e-002
3.627446e+003, 4.466675e-002
3.629374e+003, 4.249189e-002
3.631303e+003, 4.033603e-002
3.633231e+003, 3.877395e-002
3.635160e+003, 3.731808e-002
3.637088e+003, 3.512130e-002
3.639017e+003, 3.334687e-002
3.640945e+003, 3.240905e-002
3.642874e+003, 3.195810e-002
3.644802e+003, 3.076483e-002
3.646730e+003, 2.876016e-002
3.648659e+003, 2.785524e-002
3.650587e+003, 2.704377e-002
3.652516e+003, 2.525067e-002
3.654444e+003, 2.391824e-002
3.656373e+003, 2.317783e-002
3.658301e+003, 2.192073e-002
3.660230e+003, 2.068972e-002
3.662158e+003, 1.944412e-002
3.664087e+003, 1.879279e-002
3.666015e+003, 1.859802e-002
3.667944e+003, 1.845837e-002
3.669872e+003, 1.836287e-002
3.671801e+003, 1.736080e-002
3.673729e+003, 1.641650e-002
3.675657e+003, 1.622464e-002
3.677586e+003, 1.549583e-002
3.679514e+003, 1.530438e-002
3.681443e+003, 1.450124e-002
3.683371e+003, 1.378432e-002
3.685300e+003, 1.347845e-002
3.687228e+003, 1.348424e-002
3.689157e+003, 1.359739e-002
3.691085e+003, 1.321414e-002
3.693014e+003, 1.215565e-002
3.694942e+003, 1.206019e-002
3.696871e+003, 1.203832e-002
3.698799e+003, 1.200209e-002
3.700728e+003, 1.192617e-002
3.702656e+003, 1.169988e-002
3.704584e+003, 1.122023e-002
3.706513e+003, 1.110323e-002
3.708441e+003, 1.174554e-002
3.710370e+003, 1.113007e-002
3.712298e+003, 1.046727e-002
3.714227e+003, 1.035365e-002
3.716155e+003, 1.014635e-002
3.718084e+003, 9.968736e-003
3.720012e+003, 1.029797e-002
3.721941e+003, 1.045321e-002
3.723869e+003, 1.050393e-002
3.725798e+003, 1.036756e-002
3.727726e+003, 1.021653e-002
3.729655e+003, 1.019541e-002
3.731583e+003, 1.029746e-002
3.733511e+003, 1.068461e-002
3.735440e+003, 1.056016e-002
3.737368e+003, 9.899471e-003
3.739297e+003, 8.888885e-003
3.741225e+003, 8.577468e-003
3.743154e+003, 9.249364e-003
3.745082e+003, 9.487947e-003
3.747011e+003, 9.066227e-003
3.748939e+003, 9.255328e-003
3.750868e+003, 9.895962e-003
3.752796e+003, 9.580379e-003
3.754725e+003, 8.518381e-003
3.756653e+003, 8.577860e-003
3.758582e+003, 9.554855e-003
3.760510e+003, 9.651678e-003
3.762438e+003, 8.839896e-003
3.764367e+003, 7.966895e-003
3.766295e+003, 8.221221e-003
3.768224e+003, 8.906889e-003
3.770152e+003, 8.928202e-003
3.772081e+003, 8.891111e-003
3.774009e+003, 8.964107e-003
3.775938e+003, 8.567254e-003
3.777866e+003, 8.459331e-003
3.779795e+003, 8.758806e-003
3.781723e+003, 9.109801e-003
3.783652e+003, 8.903610e-003
3.785580e+003, 8.813387e-003
3.787509e+003, 8.516668e-003
3.789437e+003, 8.101600e-003
3.791365e+003, 8.188101e-003
3.793294e+003, 8.725574e-003
3.795222e+003, 8.893036e-003
3.797151e+003, 8.841703e-003
3.799079e+003, 9.039774e-003
3.801008e+003, 8.983258e-003
3.802936e+003, 7.990094e-003
3.804865e+003, 7.985472e-003
3.806793e+003, 8.762520e-003
3.808722e+003, 8.487435e-003
3.810650e+003, 8.164393e-003
3.812579e+003, 8.815786e-003
3.814507e+003, 9.360415e-003
3.816436e+003, 9.177270e-003
3.818364e+003, 8.871473e-003
3.820292e+003, 8.815440e-003
3.822221e+003, 9.160959e-003
3.824149e+003, 9.488913e-003
3.826078e+003, 9.297944e-003
3.828006e+003, 8.470393e-003
3.829935e+003, 8.182415e-003
3.831863e+003, 8.912375e-003
3.833792e+003, 9.484311e-003
3.835720e+003, 9.326962e-003
3.837649e+003, 9.462532e-003
3.839577e+003, 9.305391e-003
3.841506e+003, 8.927721e-003
3.843434e+003, 9.322434e-003
3.845363e+003, 9.865392e-003
3.847291e+003, 9.281553e-003
3.849219e+003, 9.349382e-003
3.851148e+003, 9.861723e-003
3.853076e+003, 1.046465e-002
3.855005e+003, 1.038731e-002
3.856933e+003, 9.746799e-003
3.858862e+003, 9.339354e-003
3.860790e+003, 9.498086e-003
3.862719e+003, 9.747999e-003
3.864647e+003, 9.569279e-003
3.866576e+003, 8.880303e-003
3.868504e+003, 9.319887e-003
3.870433e+003, 9.882183e-003
3.872361e+003, 9.685593e-003
3.874290e+003, 9.677068e-003
3.876218e+003, 9.293193e-003
3.878146e+003, 9.672768e-003
3.880075e+003, 1.043089e-002
3.882003e+003, 1.051859e-002
3.883932e+003, 9.919263e-003
3.885860e+003, 9.752026e-003
3.887789e+003, 1.010875e-002
3.889717e+003, 1.051959e-002
3.891646e+003, 9.762895e-003
3.893574e+003, 9.914708e-003
3.895503e+003, 1.013939e-002
3.897431e+003, 9.894035e-003
3.899360e+003, 1.002273e-002
3.901288e+003, 9.739775e-003
3.903217e+003, 9.253971e-003
3.905145e+003, 1.010489e-002
3.907073e+003, 1.004511e-002
3.909002e+003, 9.785543e-003
3.910930e+003, 1.041136e-002
3.912859e+003, 1.028547e-002
3.914787e+003, 1.005849e-002
3.916716e+003, 9.912884e-003
3.918644e+003, 9.182082e-003
3.920573e+003, 9.321743e-003
3.922501e+003, 9.294130e-003
3.924430e+003, 9.218513e-003
3.926358e+003, 9.974356e-003
3.928287e+003, 9.695917e-003
3.930215e+003, 9.141108e-003
3.932144e+003, 9.864558e-003
3.934072e+003, 1.039151e-002
3.936000e+003, 1.018256e-002
3.937929e+003, 9.644572e-003
3.939857e+003, 1.005890e-002
3.941786e+003, 1.088391e-002
3.943714e+003, 1.055126e-002
3.945643e+003, 1.033434e-002
3.947571e+003, 1.031988e-002
3.949500e+003, 9.830715e-003
3.951428e+003, 9.602298e-003
3.953357e+003, 9.654360e-003
3.955285e+003, 9.597617e-003
3.957214e+003, 9.811648e-003
3.959142e+003, 1.006022e-002
3.961071e+003, 1.013031e-002
3.962999e+003, 1.034153e-002
3.964927e+003, 1.016269e-002
3.966856e+003, 1.001171e-002
3.968784e+003, 9.359157e-003
3.970713e+003, 9.070016e-003
3.972641e+003, 9.617668e-003
3.974570e+003, 9.642298e-003
3.976498e+003, 8.239994e-003
3.978427e+003, 8.334423e-003
3.980355e+003, 9.582873e-003
3.982284e+003, 9.628617e-003
3.984212e+003, 9.534349e-003
3.986141e+003, 9.811874e-003
3.988069e+003, 9.535011e-003
3.989998e+003, 9.314667e-003
3.991926e+003, 9.461302e-003
3.993854e+003, 9.933994e-003
3.995783e+003, 1.048493e-002
3.997711e+003, 9.781925e-003
3.999640e+003, 8.838889e-003
##END=



