##NAMES=Bournonite
##RRUFFID=R050364
##IDEAL CHEMISTRY=Cu^1+^Pb^2+^Sb^3+^S^2-^_3_
##LOCALITY=Neudorf, Harz Mountains, Austria
##OWNER=RRUFF
##SOURCE=University of Arizona Mineral Museum
##DESCRIPTION=Black fragment
##STATUS=The identification of this mineral has been confirmed by X-ray diffraction and chemical analysis
##URL=rruff.info/R050364
##MEASURED CHEMISTRY=Pb_1.00_Cu_1.00_Sb_1.00_S_3.00_
399.1926, 0.1770268
401.1211, 0.1888395
403.0496, 0.1897473
404.9780, 0.1871724
406.9065, 0.1894794
408.8350, 0.1934059
410.7634, 0.1958354
412.6919, 0.2004917
414.6204, 0.2028520
416.5488, 0.2039584
418.4773, 0.2052051
420.4058, 0.2062581
422.3342, 0.2019012
424.2627, 0.2002268
426.1912, 0.2035344
428.1196, 0.2088445
430.0481, 0.2141550
431.9766, 0.2157395
433.9050, 0.2156991
435.8335, 0.2165636
437.7620, 0.2168306
439.6904, 0.2178736
441.6189, 0.2189337
443.5474, 0.2196078
445.4758, 0.2224990
447.4043, 0.2253842
449.3328, 0.2262448
451.2612, 0.2283424
453.1897, 0.2291883
455.1182, 0.2292810
457.0466, 0.2300944
458.9751, 0.2317818
460.9036, 0.2337544
462.8320, 0.2356861
464.7605, 0.2349788
466.6890, 0.2354616
468.6174, 0.2365819
470.5459, 0.2382703
472.4744, 0.2416546
474.4028, 0.2420401
476.3313, 0.2411548
478.2598, 0.2428408
480.1882, 0.2451219
482.1167, 0.2461111
484.0452, 0.2460045
485.9736, 0.2470500
487.9021, 0.2491864
489.8306, 0.2519419
491.7590, 0.2527336
493.6875, 0.2530302
495.6160, 0.2549920
497.5444, 0.2569002
499.4729, 0.2577788
501.4014, 0.2585935
503.3298, 0.2599178
505.2583, 0.2600891
507.1868, 0.2614068
509.1152, 0.2641150
511.0437, 0.2659253
512.9722, 0.2676204
514.9006, 0.2687834
516.8291, 0.2692812
518.7576, 0.2700895
520.6860, 0.2715904
522.6145, 0.2717418
524.5430, 0.2730147
526.4714, 0.2738911
528.3999, 0.2750303
530.3284, 0.2761957
532.2568, 0.2772749
534.1853, 0.2786775
536.1138, 0.2794073
538.0422, 0.2801388
539.9707, 0.2808343
541.8992, 0.2815359
543.8276, 0.2834807
545.7561, 0.2853456
547.6846, 0.2855216
549.6130, 0.2867949
551.5415, 0.2886810
553.4700, 0.2895313
555.3984, 0.2914372
557.3269, 0.2941205
559.2554, 0.2941339
561.1838, 0.2941146
563.1123, 0.2955075
565.0408, 0.2966483
566.9692, 0.2971023
568.8977, 0.2963537
570.8262, 0.2971015
572.7546, 0.2977102
574.6831, 0.2991517
576.6116, 0.3016921
578.5400, 0.3017860
580.4685, 0.3018513
582.3970, 0.3021565
584.3254, 0.3030097
586.2539, 0.3033006
588.1824, 0.3041145
590.1108, 0.3056731
592.0393, 0.3070401
593.9678, 0.3076723
595.8962, 0.3082645
597.8247, 0.3096440
599.7532, 0.3111540
601.6816, 0.3123568
603.6101, 0.3133029
605.5386, 0.3134731
607.4670, 0.3143044
609.3955, 0.3155329
611.3240, 0.3161168
613.2524, 0.3169066
615.1809, 0.3189342
617.1094, 0.3191910
619.0378, 0.3192829
620.9663, 0.3206448
622.8948, 0.3215880
624.8232, 0.3219494
626.7517, 0.3232392
628.6802, 0.3246890
630.6086, 0.3248107
632.5371, 0.3254412
634.4656, 0.3266053
636.3940, 0.3268229
638.3225, 0.3269107
640.2510, 0.3267469
642.1794, 0.3268906
644.1079, 0.3276961
646.0364, 0.3286216
647.9648, 0.3291249
649.8933, 0.3300231
651.8218, 0.3305197
653.7502, 0.3306957
655.6787, 0.3312108
657.6072, 0.3313564
659.5356, 0.3313349
661.4641, 0.3318122
663.3926, 0.3321566
665.3210, 0.3327724
667.2495, 0.3337273
669.1780, 0.3341088
671.1064, 0.3352197
673.0349, 0.3366404
674.9634, 0.3365123
676.8918, 0.3377936
678.8203, 0.3387800
680.7488, 0.3383369
682.6772, 0.3381708
684.6057, 0.3386294
686.5342, 0.3393365
688.4626, 0.3399670
690.3911, 0.3410872
692.3196, 0.3421731
694.2480, 0.3423076
696.1765, 0.3428298
698.1050, 0.3438852
700.0334, 0.3449260
701.9619, 0.3456938
703.8904, 0.3466454
705.8188, 0.3471287
707.7473, 0.3476487
709.6758, 0.3487096
711.6042, 0.3498201
713.5327, 0.3499946
715.4612, 0.3500735
717.3896, 0.3510374
719.3181, 0.3522063
721.2466, 0.3531445
723.1750, 0.3538629
725.1035, 0.3539832
727.0320, 0.3540318
728.9604, 0.3540232
730.8889, 0.3548613
732.8174, 0.3560036
734.7458, 0.3563210
736.6743, 0.3567398
738.6028, 0.3576612
740.5313, 0.3579979
742.4597, 0.3583666
744.3882, 0.3593908
746.3167, 0.3599042
748.2451, 0.3603181
750.1736, 0.3615718
752.1021, 0.3627869
754.0305, 0.3631259
755.9590, 0.3631600
757.8875, 0.3637494
759.8159, 0.3644204
761.7444, 0.3651501
763.6729, 0.3660945
765.6013, 0.3662713
767.5298, 0.3664401
769.4583, 0.3672284
771.3867, 0.3679642
773.3152, 0.3684953
775.2437, 0.3686456
777.1721, 0.3683043
779.1006, 0.3684031
781.0291, 0.3698745
782.9575, 0.3708341
784.8860, 0.3709610
786.8145, 0.3717932
788.7429, 0.3732070
790.6714, 0.3732756
792.5999, 0.3734264
794.5283, 0.3747008
796.4568, 0.3755990
798.3853, 0.3762892
800.3137, 0.3766921
802.2422, 0.3773121
804.1707, 0.3780214
806.0991, 0.3783614
808.0276, 0.3792822
809.9561, 0.3808110
811.8845, 0.3818728
813.8130, 0.3824035
815.7415, 0.3831189
817.6699, 0.3834693
819.5984, 0.3839753
821.5269, 0.3843258
823.4553, 0.3855140
825.3838, 0.3868304
827.3123, 0.3870849
829.2407, 0.3876610
831.1692, 0.3879023
833.0977, 0.3882774
835.0261, 0.3887443
836.9546, 0.3887946
838.8831, 0.3895084
840.8115, 0.3896211
842.7400, 0.3904684
844.6685, 0.3912011
846.5969, 0.3917533
848.5254, 0.3923403
850.4539, 0.3923084
852.3823, 0.3926817
854.3108, 0.3941662
856.2393, 0.3951167
858.1677, 0.3958453
860.0962, 0.3959881
862.0247, 0.3961453
863.9531, 0.3968952
865.8816, 0.3979986
867.8101, 0.3985159
869.7385, 0.3989787
871.6670, 0.4000670
873.5955, 0.4009827
875.5239, 0.4016186
877.4524, 0.4023557
879.3809, 0.4028243
881.3093, 0.4032070
883.2378, 0.4041826
885.1663, 0.4051804
887.0947, 0.4055388
889.0232, 0.4059389
890.9517, 0.4068312
892.8801, 0.4072920
894.8085, 0.4073172
896.7370, 0.4072390
898.6655, 0.4076405
900.5939, 0.4080705
902.5224, 0.4092127
904.4509, 0.4102314
906.3793, 0.4107252
908.3078, 0.4116220
910.2363, 0.4125270
912.1647, 0.4128136
914.0932, 0.4132169
916.0217, 0.4139076
917.9501, 0.4147616
919.8786, 0.4155967
921.8071, 0.4161512
923.7355, 0.4170842
925.6640, 0.4175112
927.5925, 0.4181491
929.5209, 0.4189414
931.4494, 0.4190344
933.3779, 0.4190905
935.3063, 0.4200781
937.2348, 0.4206192
939.1633, 0.4208500
941.0917, 0.4213549
943.0202, 0.4221743
944.9487, 0.4229645
946.8771, 0.4236818
948.8056, 0.4244376
950.7341, 0.4247695
952.6625, 0.4249764
954.5910, 0.4259315
956.5195, 0.4267346
958.4479, 0.4272789
960.3764, 0.4282758
962.3049, 0.4293925
964.2333, 0.4301696
966.1618, 0.4311204
968.0903, 0.4320148
970.0187, 0.4330137
971.9472, 0.4339409
973.8757, 0.4340595
975.8041, 0.4345286
977.7326, 0.4357526
979.6611, 0.4364011
981.5895, 0.4370205
983.5180, 0.4381319
985.4465, 0.4388748
987.3749, 0.4392442
989.3034, 0.4402300
991.2319, 0.4410416
993.1603, 0.4409277
995.0888, 0.4410978
997.0173, 0.4420339
998.9457, 0.4428985
1000.874, 0.4435095
1002.803, 0.4438513
1004.731, 0.4448441
1006.660, 0.4458596
1008.588, 0.4465989
1010.517, 0.4474288
1012.445, 0.4484592
1014.373, 0.4499561
1016.302, 0.4505524
1018.230, 0.4496589
1020.159, 0.4497393
1022.087, 0.4505287
1024.016, 0.4506868
1025.944, 0.4509814
1027.873, 0.4514117
1029.801, 0.4521663
1031.730, 0.4533953
1033.658, 0.4540464
1035.587, 0.4542663
1037.515, 0.4548643
1039.444, 0.4555032
1041.372, 0.4560450
1043.301, 0.4566555
1045.229, 0.4573909
1047.157, 0.4583011
1049.086, 0.4592905
1051.014, 0.4595182
1052.943, 0.4596803
1054.871, 0.4604888
1056.800, 0.4613308
1058.728, 0.4618290
1060.657, 0.4623526
1062.585, 0.4633519
1064.514, 0.4639759
1066.442, 0.4642238
1068.371, 0.4641971
1070.299, 0.4650397
1072.228, 0.4664637
1074.156, 0.4671287
1076.084, 0.4679646
1078.013, 0.4683446
1079.941, 0.4684182
1081.870, 0.4690227
1083.798, 0.4693589
1085.727, 0.4695857
1087.655, 0.4703578
1089.584, 0.4707220
1091.512, 0.4715501
1093.441, 0.4727011
1095.369, 0.4736966
1097.298, 0.4740531
1099.226, 0.4746424
1101.155, 0.4751040
1103.083, 0.4755334
1105.011, 0.4758949
1106.940, 0.4762179
1108.868, 0.4768995
1110.797, 0.4776357
1112.725, 0.4776511
1114.654, 0.4782360
1116.582, 0.4791315
1118.511, 0.4795530
1120.439, 0.4797680
1122.368, 0.4796592
1124.296, 0.4799806
1126.225, 0.4810923
1128.153, 0.4820664
1130.082, 0.4823877
1132.010, 0.4824822
1133.938, 0.4835942
1135.867, 0.4847412
1137.795, 0.4858523
1139.724, 0.4869068
1141.652, 0.4875544
1143.581, 0.4883096
1145.509, 0.4889536
1147.438, 0.4892610
1149.366, 0.4892134
1151.295, 0.4896247
1153.223, 0.4896885
1155.152, 0.4894018
1157.080, 0.4893111
1159.009, 0.4896964
1160.937, 0.4897901
1162.865, 0.4899188
1164.794, 0.4895760
1166.722, 0.4892641
1168.651, 0.4893604
1170.579, 0.4891533
1172.508, 0.4891145
1174.436, 0.4896948
1176.365, 0.4905433
1178.293, 0.4909587
1180.222, 0.4911908
1182.150, 0.4912919
1184.079, 0.4916549
1186.007, 0.4922416
1187.936, 0.4925311
1189.864, 0.4928098
1191.792, 0.4933479
1193.721, 0.4935103
1195.649, 0.4937122
1197.578, 0.4942676
1199.506, 0.4943043
1201.435, 0.4944328
1203.363, 0.4947102
1205.292, 0.4949355
1207.220, 0.4951577
1209.149, 0.4953360
1211.077, 0.4953936
1213.006, 0.4955491
1214.934, 0.4956226
1216.863, 0.4960685
1218.791, 0.4970755
1220.719, 0.4977184
1222.648, 0.4979250
1224.576, 0.4982106
1226.505, 0.4983277
1228.433, 0.4984076
1230.362, 0.4988316
1232.290, 0.4991871
1234.219, 0.4990402
1236.147, 0.4993239
1238.076, 0.4999006
1240.004, 0.5006665
1241.933, 0.5013422
1243.861, 0.5013143
1245.790, 0.5009554
1247.718, 0.5011291
1249.646, 0.5014877
1251.575, 0.5015217
1253.503, 0.5018789
1255.432, 0.5019321
1257.360, 0.5012467
1259.289, 0.5010122
1261.217, 0.5014665
1263.146, 0.5018355
1265.074, 0.5019380
1267.003, 0.5017993
1268.931, 0.5022767
1270.860, 0.5029887
1272.788, 0.5038182
1274.717, 0.5041057
1276.645, 0.5042447
1278.573, 0.5048456
1280.502, 0.5052339
1282.430, 0.5058414
1284.359, 0.5067810
1286.287, 0.5075393
1288.216, 0.5080069
1290.144, 0.5082185
1292.073, 0.5085323
1294.001, 0.5090870
1295.930, 0.5092041
1297.858, 0.5096351
1299.787, 0.5099482
1301.715, 0.5103396
1303.644, 0.5107814
1305.572, 0.5108144
1307.500, 0.5110973
1309.429, 0.5115013
1311.357, 0.5117692
1313.286, 0.5115687
1315.214, 0.5116866
1317.143, 0.5125342
1319.071, 0.5130677
1321.000, 0.5135900
1322.928, 0.5141999
1324.857, 0.5146949
1326.785, 0.5147939
1328.714, 0.5150571
1330.642, 0.5153955
1332.571, 0.5159007
1334.499, 0.5165060
1336.427, 0.5174549
1338.356, 0.5182914
1340.284, 0.5185602
1342.213, 0.5183871
1344.141, 0.5185482
1346.070, 0.5195348
1347.998, 0.5205688
1349.927, 0.5214232
1351.855, 0.5220521
1353.784, 0.5225521
1355.712, 0.5230423
1357.641, 0.5235255
1359.569, 0.5242596
1361.498, 0.5252311
1363.426, 0.5260760
1365.354, 0.5267516
1367.283, 0.5272741
1369.211, 0.5276255
1371.140, 0.5277076
1373.068, 0.5282170
1374.997, 0.5291811
1376.925, 0.5296800
1378.854, 0.5296439
1380.782, 0.5300727
1382.711, 0.5306632
1384.639, 0.5305377
1386.568, 0.5305301
1388.496, 0.5309018
1390.424, 0.5312374
1392.353, 0.5318566
1394.281, 0.5324607
1396.210, 0.5327939
1398.138, 0.5333194
1400.067, 0.5342046
1401.995, 0.5348179
1403.924, 0.5354348
1405.852, 0.5358437
1407.781, 0.5359020
1409.709, 0.5363796
1411.638, 0.5367781
1413.566, 0.5365702
1415.495, 0.5367247
1417.423, 0.5371457
1419.351, 0.5378540
1421.280, 0.5388193
1423.208, 0.5389708
1425.137, 0.5390188
1427.065, 0.5394143
1428.994, 0.5398520
1430.922, 0.5401482
1432.851, 0.5408787
1434.779, 0.5415485
1436.708, 0.5418171
1438.636, 0.5421188
1440.565, 0.5425535
1442.493, 0.5435647
1444.422, 0.5446304
1446.350, 0.5453411
1448.278, 0.5460526
1450.207, 0.5469224
1452.135, 0.5472920
1454.064, 0.5473325
1455.992, 0.5484787
1457.921, 0.5496298
1459.849, 0.5495501
1461.778, 0.5496141
1463.706, 0.5505009
1465.635, 0.5510138
1467.563, 0.5506793
1469.492, 0.5504322
1471.420, 0.5502162
1473.349, 0.5500945
1475.277, 0.5501169
1477.205, 0.5503125
1479.134, 0.5508783
1481.062, 0.5517026
1482.991, 0.5522106
1484.919, 0.5524771
1486.848, 0.5528089
1488.776, 0.5533327
1490.705, 0.5547048
1492.633, 0.5556978
1494.562, 0.5563105
1496.490, 0.5568241
1498.419, 0.5574210
1500.347, 0.5578352
1502.276, 0.5581952
1504.204, 0.5591804
1506.132, 0.5599645
1508.061, 0.5603238
1509.989, 0.5602259
1511.918, 0.5599775
1513.846, 0.5600130
1515.775, 0.5603635
1517.703, 0.5607380
1519.632, 0.5614815
1521.560, 0.5617574
1523.489, 0.5620851
1525.417, 0.5627507
1527.346, 0.5632061
1529.274, 0.5637160
1531.203, 0.5641382
1533.131, 0.5643871
1535.059, 0.5645702
1536.988, 0.5651324
1538.916, 0.5658880
1540.845, 0.5664945
1542.773, 0.5665849
1544.702, 0.5671839
1546.630, 0.5673724
1548.559, 0.5675310
1550.487, 0.5684056
1552.416, 0.5692552
1554.344, 0.5696509
1556.273, 0.5697667
1558.201, 0.5698850
1560.130, 0.5698705
1562.058, 0.5700220
1563.986, 0.5705063
1565.915, 0.5715773
1567.843, 0.5724024
1569.772, 0.5725976
1571.700, 0.5724367
1573.629, 0.5732055
1575.557, 0.5743631
1577.486, 0.5753500
1579.414, 0.5760866
1581.343, 0.5764924
1583.271, 0.5767483
1585.200, 0.5771844
1587.128, 0.5773850
1589.057, 0.5773598
1590.985, 0.5778447
1592.913, 0.5788187
1594.842, 0.5790783
1596.770, 0.5786804
1598.699, 0.5793015
1600.627, 0.5800750
1602.556, 0.5806213
1604.484, 0.5810239
1606.413, 0.5815162
1608.341, 0.5823056
1610.270, 0.5828346
1612.198, 0.5829196
1614.127, 0.5829605
1616.055, 0.5832922
1617.984, 0.5837360
1619.912, 0.5847657
1621.840, 0.5851279
1623.769, 0.5849352
1625.697, 0.5849862
1627.626, 0.5853541
1629.554, 0.5855646
1631.483, 0.5857739
1633.411, 0.5861268
1635.340, 0.5866314
1637.268, 0.5871369
1639.197, 0.5877732
1641.125, 0.5879576
1643.054, 0.5883625
1644.982, 0.5889353
1646.911, 0.5887061
1648.839, 0.5877874
1650.767, 0.5884635
1652.696, 0.5900230
1654.624, 0.5899355
1656.553, 0.5898299
1658.481, 0.5901436
1660.410, 0.5901700
1662.338, 0.5905001
1664.267, 0.5912483
1666.195, 0.5914773
1668.124, 0.5916333
1670.052, 0.5922793
1671.981, 0.5930042
1673.909, 0.5935329
1675.838, 0.5941468
1677.766, 0.5940017
1679.694, 0.5947125
1681.623, 0.5954905
1683.551, 0.5949177
1685.480, 0.5941960
1687.408, 0.5950666
1689.337, 0.5955949
1691.265, 0.5958966
1693.194, 0.5963115
1695.122, 0.5969669
1697.051, 0.5975039
1698.979, 0.5977569
1700.908, 0.5979216
1702.836, 0.5981065
1704.765, 0.5987512
1706.693, 0.5995162
1708.621, 0.6001366
1710.550, 0.6005747
1712.478, 0.5998583
1714.407, 0.6001512
1716.335, 0.6015672
1718.264, 0.6022770
1720.192, 0.6029289
1722.121, 0.6031044
1724.049, 0.6038052
1725.978, 0.6045331
1727.906, 0.6048341
1729.835, 0.6057130
1731.763, 0.6071677
1733.692, 0.6076623
1735.620, 0.6071021
1737.548, 0.6071073
1739.477, 0.6076584
1741.405, 0.6078917
1743.334, 0.6076599
1745.262, 0.6080605
1747.191, 0.6083065
1749.119, 0.6086463
1751.048, 0.6095222
1752.976, 0.6092806
1754.905, 0.6087604
1756.833, 0.6087614
1758.762, 0.6093028
1760.690, 0.6102837
1762.619, 0.6112257
1764.547, 0.6106379
1766.475, 0.6100014
1768.404, 0.6107588
1770.332, 0.6114859
1772.261, 0.6117222
1774.189, 0.6124042
1776.118, 0.6128628
1778.046, 0.6126329
1779.975, 0.6124527
1781.903, 0.6122444
1783.832, 0.6120660
1785.760, 0.6122268
1787.689, 0.6126519
1789.617, 0.6132237
1791.546, 0.6143761
1793.474, 0.6143068
1795.402, 0.6126498
1797.331, 0.6127080
1799.259, 0.6138000
1801.188, 0.6139612
1803.116, 0.6138495
1805.045, 0.6140823
1806.973, 0.6142469
1808.902, 0.6149368
1810.830, 0.6150421
1812.759, 0.6144999
1814.687, 0.6153873
1816.616, 0.6154499
1818.544, 0.6153964
1820.473, 0.6145989
1822.401, 0.6145913
1824.329, 0.6150771
1826.258, 0.6156346
1828.186, 0.6166442
1830.115, 0.6168064
1832.043, 0.6168864
1833.972, 0.6172928
1835.900, 0.6171389
1837.829, 0.6178144
1839.757, 0.6179109
1841.686, 0.6176944
1843.614, 0.6183355
1845.543, 0.6192694
1847.471, 0.6189143
1849.400, 0.6188251
1851.328, 0.6190458
1853.256, 0.6199976
1855.185, 0.6207829
1857.113, 0.6213122
1859.042, 0.6209426
1860.970, 0.6215498
1862.899, 0.6216473
1864.827, 0.6207743
1866.756, 0.6204420
1868.684, 0.6215105
1870.613, 0.6221203
1872.541, 0.6219310
1874.470, 0.6216490
1876.398, 0.6228097
1878.327, 0.6232863
1880.255, 0.6239510
1882.183, 0.6255519
1884.112, 0.6258950
1886.040, 0.6248369
1887.969, 0.6233032
1889.897, 0.6235915
1891.826, 0.6242606
1893.754, 0.6253652
1895.683, 0.6266110
1897.611, 0.6259564
1899.540, 0.6260175
1901.468, 0.6257032
1903.397, 0.6257172
1905.325, 0.6256148
1907.254, 0.6254528
1909.182, 0.6257129
1911.110, 0.6254144
1913.039, 0.6260841
1914.967, 0.6270118
1916.896, 0.6242638
1918.824, 0.6237014
1920.753, 0.6253549
1922.681, 0.6263967
1924.610, 0.6270254
1926.538, 0.6264495
1928.467, 0.6276472
1930.395, 0.6290055
1932.324, 0.6268139
1934.252, 0.6249208
1936.181, 0.6232654
1938.109, 0.6218376
1940.037, 0.6236112
1941.966, 0.6234188
1943.894, 0.6219748
1945.823, 0.6212907
1947.751, 0.6209130
1949.680, 0.6201351
1951.608, 0.6210474
1953.537, 0.6208622
1955.465, 0.6194182
1957.394, 0.6189125
1959.322, 0.6169531
1961.251, 0.6159390
1963.179, 0.6186306
1965.108, 0.6204485
1967.036, 0.6191499
1968.964, 0.6134080
1970.893, 0.6091694
1972.821, 0.6125978
1974.750, 0.6108055
1976.678, 0.6095338
1978.607, 0.6155829
1980.535, 0.6199536
1982.464, 0.6215425
1984.392, 0.6209496
1986.321, 0.6192167
1988.249, 0.6223249
1990.178, 0.6282635
1992.106, 0.6282204
1994.035, 0.6259651
1995.963, 0.6240306
1997.891, 0.6229177
1999.820, 0.6246210
2001.748, 0.6245555
2003.677, 0.6220739
2005.605, 0.6189229
2007.534, 0.6196065
2009.462, 0.6188521
2011.391, 0.6151286
2013.319, 0.6138692
2015.248, 0.6171460
2017.176, 0.6188090
2019.105, 0.6195087
2021.033, 0.6192766
2022.962, 0.6172053
2024.890, 0.6186336
2026.818, 0.6212583
2028.747, 0.6227826
2030.675, 0.6218879
2032.604, 0.6214757
2034.532, 0.6244408
2036.461, 0.6248522
2038.389, 0.6238605
2040.318, 0.6275591
2042.246, 0.6311027
2044.175, 0.6315771
2046.103, 0.6318349
2048.032, 0.6355056
2049.960, 0.6393442
2051.889, 0.6403754
2053.817, 0.6404183
2055.746, 0.6425716
2057.674, 0.6457366
2059.603, 0.6469322
2061.531, 0.6462169
2063.459, 0.6445909
2065.388, 0.6450159
2067.316, 0.6450092
2069.245, 0.6465811
2071.173, 0.6485690
2073.102, 0.6507034
2075.030, 0.6524135
2076.959, 0.6521677
2078.887, 0.6522282
2080.816, 0.6516677
2082.744, 0.6530250
2084.673, 0.6549940
2086.601, 0.6558239
2088.530, 0.6550471
2090.458, 0.6534749
2092.386, 0.6526343
2094.315, 0.6525456
2096.243, 0.6544369
2098.172, 0.6557835
2100.100, 0.6553197
2102.029, 0.6568931
2103.957, 0.6581482
2105.886, 0.6595877
2107.814, 0.6608493
2109.743, 0.6626150
2111.671, 0.6639687
2113.600, 0.6616388
2115.528, 0.6592268
2117.457, 0.6598407
2119.385, 0.6591941
2121.313, 0.6599493
2123.242, 0.6620302
2125.170, 0.6631762
2127.099, 0.6630377
2129.027, 0.6610337
2130.956, 0.6578467
2132.884, 0.6559036
2134.813, 0.6550508
2136.741, 0.6552604
2138.670, 0.6544358
2140.598, 0.6519617
2142.527, 0.6494592
2144.455, 0.6478736
2146.384, 0.6473706
2148.312, 0.6466737
2150.240, 0.6431391
2152.169, 0.6430228
2154.097, 0.6460195
2156.026, 0.6392059
2157.954, 0.6358103
2159.883, 0.6371137
2161.811, 0.6399275
2163.740, 0.6432018
2165.668, 0.6399145
2167.597, 0.6428609
2169.525, 0.6477842
2171.454, 0.6455252
2173.382, 0.6449769
2175.311, 0.6522479
2177.239, 0.6566152
2179.167, 0.6509075
2181.096, 0.6506906
2183.024, 0.6563337
2184.953, 0.6608921
2186.881, 0.6599929
2188.810, 0.6578739
2190.738, 0.6573445
2192.667, 0.6594770
2194.595, 0.6607253
2196.524, 0.6594031
2198.452, 0.6609810
2200.381, 0.6610819
2202.309, 0.6599118
2204.238, 0.6645680
2206.166, 0.6687696
2208.094, 0.6684296
2210.023, 0.6668920
2211.951, 0.6666416
2213.880, 0.6659454
2215.808, 0.6668132
2217.737, 0.6676932
2219.665, 0.6707857
2221.594, 0.6755986
2223.522, 0.6761042
2225.451, 0.6746375
2227.379, 0.6750400
2229.308, 0.6741522
2231.236, 0.6747862
2233.165, 0.6770428
2235.093, 0.6797705
2237.021, 0.6817307
2238.950, 0.6814505
2240.878, 0.6802338
2242.807, 0.6829764
2244.735, 0.6853332
2246.664, 0.6830209
2248.592, 0.6817787
2250.521, 0.6838748
2252.449, 0.6827880
2254.378, 0.6806673
2256.306, 0.6831385
2258.235, 0.6867144
2260.163, 0.6881002
2262.092, 0.6871224
2264.020, 0.6864758
2265.948, 0.6877987
2267.877, 0.6886515
2269.805, 0.6892014
2271.734, 0.6925603
2273.662, 0.6938509
2275.591, 0.6942119
2277.519, 0.6953195
2279.448, 0.6958127
2281.376, 0.6971268
2283.305, 0.6991895
2285.233, 0.6994469
2287.162, 0.6987718
2289.090, 0.6996019
2291.019, 0.7011822
2292.947, 0.7021365
2294.875, 0.7030243
2296.804, 0.7049065
2298.732, 0.7048798
2300.661, 0.7043702
2302.589, 0.7044843
2304.518, 0.7052642
2306.446, 0.7060899
2308.375, 0.7078114
2310.303, 0.7083152
2312.232, 0.7090366
2314.160, 0.7098196
2316.089, 0.7096756
2318.017, 0.7094170
2319.946, 0.7109081
2321.874, 0.7123317
2323.802, 0.7140338
2325.731, 0.7168512
2327.659, 0.7164300
2329.588, 0.7152944
2331.516, 0.7155943
2333.445, 0.7163226
2335.373, 0.7170680
2337.302, 0.7175629
2339.230, 0.7167092
2341.159, 0.7163926
2343.087, 0.7170472
2345.016, 0.7176151
2346.944, 0.7178252
2348.873, 0.7177413
2350.801, 0.7184857
2352.729, 0.7178405
2354.658, 0.7192144
2356.586, 0.7209838
2358.515, 0.7212356
2360.443, 0.7217267
2362.372, 0.7214868
2364.300, 0.7201225
2366.229, 0.7203938
2368.157, 0.7210803
2370.086, 0.7198649
2372.014, 0.7196075
2373.942, 0.7202700
2375.871, 0.7198058
2377.799, 0.7186803
2379.728, 0.7182432
2381.656, 0.7189158
2383.585, 0.7206595
2385.513, 0.7212716
2387.442, 0.7217531
2389.370, 0.7222968
2391.299, 0.7216265
2393.227, 0.7213173
2395.156, 0.7222447
2397.084, 0.7222778
2399.012, 0.7217634
2400.941, 0.7218962
2402.869, 0.7220397
2404.798, 0.7215452
2406.726, 0.7217336
2408.655, 0.7221364
2410.583, 0.7225045
2412.512, 0.7228525
2414.440, 0.7225745
2416.369, 0.7241523
2418.297, 0.7252852
2420.226, 0.7261572
2422.154, 0.7264475
2424.083, 0.7254283
2426.011, 0.7245652
2427.939, 0.7262414
2429.868, 0.7270977
2431.796, 0.7270447
2433.725, 0.7269096
2435.653, 0.7275288
2437.582, 0.7280480
2439.510, 0.7287281
2441.439, 0.7303283
2443.367, 0.7298580
2445.296, 0.7299045
2447.224, 0.7303821
2449.153, 0.7309058
2451.081, 0.7322734
2453.010, 0.7316477
2454.938, 0.7301346
2456.866, 0.7312441
2458.795, 0.7324052
2460.723, 0.7332476
2462.652, 0.7361618
2464.580, 0.7367795
2466.509, 0.7344764
2468.437, 0.7336110
2470.366, 0.7332042
2472.294, 0.7331742
2474.223, 0.7342040
2476.151, 0.7358403
2478.080, 0.7367402
2480.008, 0.7364275
2481.937, 0.7354397
2483.865, 0.7355456
2485.793, 0.7359675
2487.722, 0.7369410
2489.650, 0.7390881
2491.579, 0.7396477
2493.507, 0.7373294
2495.436, 0.7378182
2497.364, 0.7380039
2499.293, 0.7375979
2501.221, 0.7411775
2503.150, 0.7429168
2505.078, 0.7422903
2507.007, 0.7419111
2508.935, 0.7412270
2510.864, 0.7413407
2512.792, 0.7418031
2514.720, 0.7428796
2516.649, 0.7419966
2518.577, 0.7420289
2520.506, 0.7447726
2522.434, 0.7440748
2524.363, 0.7428337
2526.291, 0.7433984
2528.220, 0.7444736
2530.148, 0.7450585
2532.077, 0.7453334
2534.005, 0.7448716
2535.934, 0.7442172
2537.862, 0.7450561
2539.791, 0.7454805
2541.719, 0.7462961
2543.647, 0.7475718
2545.576, 0.7482401
2547.504, 0.7475657
2549.433, 0.7476099
2551.361, 0.7468744
2553.290, 0.7473603
2555.218, 0.7483310
2557.147, 0.7487373
2559.075, 0.7494834
2561.004, 0.7488797
2562.932, 0.7493339
2564.861, 0.7520944
2566.789, 0.7540109
2568.718, 0.7531961
2570.646, 0.7527056
2572.574, 0.7532960
2574.503, 0.7518655
2576.431, 0.7513846
2578.360, 0.7506585
2580.288, 0.7520217
2582.217, 0.7536920
2584.145, 0.7544278
2586.074, 0.7561728
2588.002, 0.7575842
2589.931, 0.7582759
2591.859, 0.7572212
2593.788, 0.7566464
2595.716, 0.7567933
2597.645, 0.7566040
2599.573, 0.7566198
2601.501, 0.7591321
2603.430, 0.7606116
2605.358, 0.7593521
2607.287, 0.7583743
2609.215, 0.7609099
2611.144, 0.7618456
2613.072, 0.7620246
2615.001, 0.7638468
2616.929, 0.7645370
2618.858, 0.7637302
2620.786, 0.7624017
2622.715, 0.7638162
2624.643, 0.7648179
2626.572, 0.7651264
2628.500, 0.7658927
2630.428, 0.7664554
2632.357, 0.7665970
2634.285, 0.7676387
2636.214, 0.7695852
2638.142, 0.7708315
2640.071, 0.7709773
2641.999, 0.7711350
2643.928, 0.7720645
2645.856, 0.7729841
2647.785, 0.7728359
2649.713, 0.7718291
2651.642, 0.7723292
2653.570, 0.7731572
2655.499, 0.7732851
2657.427, 0.7741750
2659.355, 0.7758372
2661.284, 0.7750464
2663.212, 0.7748669
2665.141, 0.7763996
2667.069, 0.7773668
2668.998, 0.7771628
2670.926, 0.7769257
2672.855, 0.7765695
2674.783, 0.7774822
2676.712, 0.7797009
2678.640, 0.7794206
2680.569, 0.7793091
2682.497, 0.7799679
2684.426, 0.7796253
2686.354, 0.7796389
2688.282, 0.7800134
2690.211, 0.7806224
2692.139, 0.7810276
2694.068, 0.7812841
2695.996, 0.7799390
2697.925, 0.7792389
2699.853, 0.7802320
2701.782, 0.7813592
2703.710, 0.7824706
2705.639, 0.7822604
2707.567, 0.7811895
2709.496, 0.7820643
2711.424, 0.7838040
2713.353, 0.7844809
2715.281, 0.7853291
2717.209, 0.7851942
2719.138, 0.7849088
2721.066, 0.7856324
2722.995, 0.7867543
2724.923, 0.7873829
2726.852, 0.7880529
2728.780, 0.7881469
2730.709, 0.7884960
2732.637, 0.7889216
2734.566, 0.7892426
2736.494, 0.7896369
2738.423, 0.7890649
2740.351, 0.7888921
2742.280, 0.7893468
2744.208, 0.7905620
2746.136, 0.7905505
2748.065, 0.7895463
2749.993, 0.7903237
2751.922, 0.7912381
2753.850, 0.7910398
2755.779, 0.7918827
2757.707, 0.7931619
2759.636, 0.7924883
2761.564, 0.7919060
2763.493, 0.7922595
2765.421, 0.7919121
2767.350, 0.7927406
2769.278, 0.7936278
2771.207, 0.7943091
2773.135, 0.7942957
2775.063, 0.7945729
2776.992, 0.7955532
2778.920, 0.7956114
2780.849, 0.7946880
2782.777, 0.7947612
2784.706, 0.7943358
2786.634, 0.7946956
2788.563, 0.7960958
2790.491, 0.7974552
2792.420, 0.7988341
2794.348, 0.7985979
2796.277, 0.7979102
2798.205, 0.7990074
2800.134, 0.7988512
2802.062, 0.7986639
2803.990, 0.7988967
2805.919, 0.7997768
2807.847, 0.8009071
2809.776, 0.8015501
2811.704, 0.8028110
2813.633, 0.8018650
2815.561, 0.8005526
2817.490, 0.8017315
2819.418, 0.8028464
2821.347, 0.8030010
2823.275, 0.8034036
2825.204, 0.8037159
2827.132, 0.8040287
2829.061, 0.8033962
2830.989, 0.8032503
2832.917, 0.8059857
2834.846, 0.8071349
2836.774, 0.8068514
2838.703, 0.8087054
2840.631, 0.8105080
2842.560, 0.8113694
2844.488, 0.8125812
2846.417, 0.8137201
2848.345, 0.8143761
2850.274, 0.8142777
2852.202, 0.8141320
2854.131, 0.8140389
2856.059, 0.8120089
2857.988, 0.8100498
2859.916, 0.8104384
2861.844, 0.8116527
2863.773, 0.8121804
2865.701, 0.8115777
2867.630, 0.8123978
2869.558, 0.8142112
2871.487, 0.8145858
2873.415, 0.8146471
2875.344, 0.8138318
2877.272, 0.8136147
2879.201, 0.8148909
2881.129, 0.8169147
2883.058, 0.8174641
2884.986, 0.8165228
2886.915, 0.8159302
2888.843, 0.8178335
2890.771, 0.8188012
2892.700, 0.8195494
2894.628, 0.8195336
2896.557, 0.8188094
2898.485, 0.8192192
2900.414, 0.8211725
2902.342, 0.8227984
2904.271, 0.8239121
2906.199, 0.8240850
2908.128, 0.8242446
2910.056, 0.8257934
2911.985, 0.8262650
2913.913, 0.8270228
2915.842, 0.8279565
2917.770, 0.8267341
2919.698, 0.8256645
2921.627, 0.8249170
2923.555, 0.8244074
2925.484, 0.8262248
2927.412, 0.8275506
2929.341, 0.8258718
2931.269, 0.8240814
2933.198, 0.8220747
2935.126, 0.8210667
2937.055, 0.8205155
2938.983, 0.8211266
2940.912, 0.8221629
2942.840, 0.8223065
2944.769, 0.8210714
2946.697, 0.8228688
2948.625, 0.8239319
2950.554, 0.8229680
2952.482, 0.8231044
2954.411, 0.8251351
2956.339, 0.8259079
2958.268, 0.8258148
2960.196, 0.8256864
2962.125, 0.8267020
2964.053, 0.8253307
2965.982, 0.8233878
2967.910, 0.8226851
2969.839, 0.8224266
2971.767, 0.8225753
2973.696, 0.8233271
2975.624, 0.8231423
2977.552, 0.8232121
2979.481, 0.8222188
2981.409, 0.8210160
2983.338, 0.8221951
2985.266, 0.8231387
2987.195, 0.8230430
2989.123, 0.8239267
2991.052, 0.8257990
2992.980, 0.8243762
2994.909, 0.8218728
2996.837, 0.8211012
2998.766, 0.8238553
3000.694, 0.8265958
3002.623, 0.8267175
3004.551, 0.8273076
3006.479, 0.8287466
3008.408, 0.8270046
3010.336, 0.8272036
3012.265, 0.8291030
3014.193, 0.8299727
3016.122, 0.8301818
3018.050, 0.8293432
3019.979, 0.8289699
3021.907, 0.8305208
3023.836, 0.8318710
3025.764, 0.8313947
3027.693, 0.8302668
3029.621, 0.8304191
3031.550, 0.8300817
3033.478, 0.8305936
3035.406, 0.8300678
3037.335, 0.8277405
3039.263, 0.8274130
3041.192, 0.8308757
3043.120, 0.8328133
3045.049, 0.8352377
3046.977, 0.8358781
3048.906, 0.8341482
3050.834, 0.8340262
3052.763, 0.8323753
3054.691, 0.8322616
3056.620, 0.8338166
3058.548, 0.8364841
3060.477, 0.8381502
3062.405, 0.8372666
3064.333, 0.8355247
3066.262, 0.8368213
3068.190, 0.8377865
3070.119, 0.8389536
3072.047, 0.8392710
3073.976, 0.8399957
3075.904, 0.8389420
3077.833, 0.8369577
3079.761, 0.8370937
3081.690, 0.8364553
3083.618, 0.8375542
3085.547, 0.8380710
3087.475, 0.8395555
3089.404, 0.8441252
3091.332, 0.8434559
3093.260, 0.8404222
3095.189, 0.8415611
3097.117, 0.8414426
3099.046, 0.8404587
3100.974, 0.8419235
3102.903, 0.8424629
3104.831, 0.8423544
3106.760, 0.8431064
3108.688, 0.8427292
3110.617, 0.8421935
3112.545, 0.8442124
3114.474, 0.8437722
3116.402, 0.8459032
3118.331, 0.8471587
3120.259, 0.8464960
3122.188, 0.8475884
3124.116, 0.8472664
3126.044, 0.8463197
3127.973, 0.8466063
3129.901, 0.8458109
3131.830, 0.8447446
3133.758, 0.8465264
3135.687, 0.8489399
3137.615, 0.8503376
3139.544, 0.8483269
3141.472, 0.8468171
3143.401, 0.8490376
3145.329, 0.8483551
3147.258, 0.8460304
3149.186, 0.8469302
3151.115, 0.8488126
3153.043, 0.8495578
3154.971, 0.8504112
3156.900, 0.8532259
3158.828, 0.8529589
3160.757, 0.8515564
3162.685, 0.8510098
3164.614, 0.8493176
3166.542, 0.8515953
3168.471, 0.8525729
3170.399, 0.8513531
3172.328, 0.8531124
3174.256, 0.8550779
3176.185, 0.8542253
3178.113, 0.8546030
3180.042, 0.8544156
3181.970, 0.8542064
3183.898, 0.8554067
3185.827, 0.8585672
3187.755, 0.8613720
3189.684, 0.8604762
3191.612, 0.8586431
3193.541, 0.8597273
3195.469, 0.8623710
3197.398, 0.8633719
3199.326, 0.8633932
3201.255, 0.8614317
3203.183, 0.8609701
3205.112, 0.8609319
3207.040, 0.8598350
3208.969, 0.8614994
3210.897, 0.8618683
3212.825, 0.8582321
3214.754, 0.8583193
3216.682, 0.8616751
3218.611, 0.8619977
3220.539, 0.8606598
3222.468, 0.8597645
3224.396, 0.8613966
3226.325, 0.8647073
3228.253, 0.8663113
3230.182, 0.8669953
3232.110, 0.8676123
3234.039, 0.8686886
3235.967, 0.8673438
3237.896, 0.8664054
3239.824, 0.8683231
3241.752, 0.8691313
3243.681, 0.8652915
3245.609, 0.8642135
3247.538, 0.8661773
3249.466, 0.8698263
3251.395, 0.8686651
3253.323, 0.8662879
3255.252, 0.8690102
3257.180, 0.8744204
3259.109, 0.8738846
3261.037, 0.8702055
3262.966, 0.8708429
3264.894, 0.8732628
3266.823, 0.8745575
3268.751, 0.8750187
3270.679, 0.8765155
3272.608, 0.8772773
3274.536, 0.8770295
3276.465, 0.8751788
3278.393, 0.8749252
3280.322, 0.8767599
3282.250, 0.8777208
3284.179, 0.8779411
3286.107, 0.8787183
3288.036, 0.8812581
3289.964, 0.8805810
3291.893, 0.8779255
3293.821, 0.8761995
3295.750, 0.8794169
3297.678, 0.8816808
3299.606, 0.8806205
3301.535, 0.8801479
3303.463, 0.8784817
3305.392, 0.8780852
3307.320, 0.8791323
3309.249, 0.8792601
3311.177, 0.8814418
3313.106, 0.8833379
3315.034, 0.8821755
3316.963, 0.8808696
3318.891, 0.8807711
3320.820, 0.8820133
3322.748, 0.8836620
3324.677, 0.8845816
3326.605, 0.8850129
3328.533, 0.8850362
3330.462, 0.8837837
3332.390, 0.8852451
3334.319, 0.8857851
3336.247, 0.8858985
3338.176, 0.8868545
3340.104, 0.8884562
3342.033, 0.8871285
3343.961, 0.8881298
3345.890, 0.8895643
3347.818, 0.8884748
3349.747, 0.8877986
3351.675, 0.8874242
3353.604, 0.8897654
3355.532, 0.8907939
3357.460, 0.8878543
3359.389, 0.8886226
3361.317, 0.8887569
3363.246, 0.8869174
3365.174, 0.8873045
3367.103, 0.8880417
3369.031, 0.8893716
3370.960, 0.8895918
3372.888, 0.8889497
3374.817, 0.8894925
3376.745, 0.8915285
3378.674, 0.8952368
3380.602, 0.8957220
3382.531, 0.8912538
3384.459, 0.8892781
3386.387, 0.8881356
3388.316, 0.8881992
3390.244, 0.8915871
3392.173, 0.8939532
3394.101, 0.8916596
3396.030, 0.8927806
3397.958, 0.8969603
3399.887, 0.8988298
3401.815, 0.9000098
3403.744, 0.8966547
3405.672, 0.8944492
3407.601, 0.8933085
3409.529, 0.8926134
3411.458, 0.8951432
3413.386, 0.8956028
3415.314, 0.8951269
3417.243, 0.8937210
3419.171, 0.8934618
3421.100, 0.8929511
3423.028, 0.8933498
3424.957, 0.8972662
3426.885, 0.8997683
3428.814, 0.8996274
3430.742, 0.9010431
3432.671, 0.9018733
3434.599, 0.9013091
3436.528, 0.9004387
3438.456, 0.9007364
3440.385, 0.9003145
3442.313, 0.9009358
3444.241, 0.9011995
3446.170, 0.9024888
3448.098, 0.9025997
3450.027, 0.9021273
3451.955, 0.9031290
3453.884, 0.9027925
3455.812, 0.9022306
3457.741, 0.9035612
3459.669, 0.9032798
3461.598, 0.9045410
3463.526, 0.9055285
3465.455, 0.9018538
3467.383, 0.8984525
3469.312, 0.9016722
3471.240, 0.9063385
3473.168, 0.9068173
3475.097, 0.9012682
3477.025, 0.8978664
3478.954, 0.9035048
3480.882, 0.9082736
3482.811, 0.9080462
3484.739, 0.9060209
3486.668, 0.9040831
3488.596, 0.9050317
3490.525, 0.9043631
3492.453, 0.9027468
3494.382, 0.9045001
3496.310, 0.9045061
3498.239, 0.9063386
3500.167, 0.9097273
3502.095, 0.9096788
3504.024, 0.9096567
3505.952, 0.9087436
3507.881, 0.9093050
3509.809, 0.9092197
3511.738, 0.9083228
3513.666, 0.9067127
3515.595, 0.9080126
3517.523, 0.9099544
3519.452, 0.9108224
3521.380, 0.9128004
3523.309, 0.9114015
3525.237, 0.9106244
3527.166, 0.9099718
3529.094, 0.9096665
3531.022, 0.9117472
3532.951, 0.9129673
3534.879, 0.9082935
3536.808, 0.9077311
3538.736, 0.9079182
3540.665, 0.9094577
3542.593, 0.9133497
3544.522, 0.9142974
3546.450, 0.9114627
3548.379, 0.9100301
3550.307, 0.9099191
3552.236, 0.9080259
3554.164, 0.9074515
3556.093, 0.9090625
3558.021, 0.9101267
3559.949, 0.9112556
3561.878, 0.9131523
3563.806, 0.9147608
3565.735, 0.9151407
3567.663, 0.9150069
3569.592, 0.9151242
3571.520, 0.9123312
3573.449, 0.9124197
3575.377, 0.9184563
3577.306, 0.9202892
3579.234, 0.9181874
3581.163, 0.9189767
3583.091, 0.9187633
3585.020, 0.9162936
3586.948, 0.9151965
3588.876, 0.9122736
3590.805, 0.9131448
3592.733, 0.9146535
3594.662, 0.9136563
3596.590, 0.9143257
3598.519, 0.9149992
3600.447, 0.9176473
3602.376, 0.9207088
3604.304, 0.9195356
3606.233, 0.9203873
3608.161, 0.9203992
3610.090, 0.9207953
3612.018, 0.9213552
3613.947, 0.9192380
3615.875, 0.9238349
3617.803, 0.9239468
3619.732, 0.9194662
3621.660, 0.9186565
3623.589, 0.9206016
3625.517, 0.9209462
3627.446, 0.9212860
3629.374, 0.9219184
3631.303, 0.9209608
3633.231, 0.9201114
3635.160, 0.9237722
3637.088, 0.9258466
3639.017, 0.9240628
3640.945, 0.9231429
3642.874, 0.9228420
3644.802, 0.9235095
3646.730, 0.9274550
3648.659, 0.9330013
3650.587, 0.9333739
3652.516, 0.9324469
3654.444, 0.9318454
3656.373, 0.9299384
3658.301, 0.9267783
3660.230, 0.9240744
3662.158, 0.9231355
3664.087, 0.9269512
3666.015, 0.9269833
3667.944, 0.9294470
3669.872, 0.9325234
3671.801, 0.9317425
3673.729, 0.9280646
3675.657, 0.9311327
3677.586, 0.9305141
3679.514, 0.9266483
3681.443, 0.9285831
3683.371, 0.9296836
3685.300, 0.9298226
3687.228, 0.9332761
3689.157, 0.9330652
3691.085, 0.9332701
3693.014, 0.9356120
3694.942, 0.9303456
3696.871, 0.9283208
3698.799, 0.9328169
3700.728, 0.9358069
3702.656, 0.9394453
3704.584, 0.9376960
3706.513, 0.9349963
3708.441, 0.9307830
3710.370, 0.9299356
3712.298, 0.9367548
3714.227, 0.9424377
3716.155, 0.9410922
3718.084, 0.9359110
3720.012, 0.9344955
3721.941, 0.9388940
3723.869, 0.9419348
3725.798, 0.9383815
3727.726, 0.9362513
3729.655, 0.9364460
3731.583, 0.9379743
3733.511, 0.9413241
3735.440, 0.9402863
3737.368, 0.9432135
3739.297, 0.9452391
3741.225, 0.9460776
3743.154, 0.9468482
3745.082, 0.9460323
3747.011, 0.9467684
3748.939, 0.9471588
3750.868, 0.9425942
3752.796, 0.9402480
3754.725, 0.9425166
3756.653, 0.9451522
3758.582, 0.9465532
3760.510, 0.9471001
3762.438, 0.9470218
3764.367, 0.9456506
3766.295, 0.9429930
3768.224, 0.9433327
3770.152, 0.9465590
3772.081, 0.9483897
3774.009, 0.9495783
3775.938, 0.9492180
3777.866, 0.9507226
3779.795, 0.9515861
3781.723, 0.9501989
3783.652, 0.9498922
3785.580, 0.9494743
3787.509, 0.9470947
3789.437, 0.9480839
3791.365, 0.9507482
3793.294, 0.9516781
3795.222, 0.9513244
3797.151, 0.9522149
3799.079, 0.9524385
3801.008, 0.9516179
3802.936, 0.9491207
3804.865, 0.9514822
3806.793, 0.9535362
3808.722, 0.9538726
3810.650, 0.9564503
3812.579, 0.9568097
3814.507, 0.9593822
3816.436, 0.9605139
3818.364, 0.9539841
3820.292, 0.9505993
3822.221, 0.9531814
3824.149, 0.9509068
3826.078, 0.9524028
3828.006, 0.9568075
3829.935, 0.9543263
3831.863, 0.9587986
3833.792, 0.9645421
3835.720, 0.9628052
3837.649, 0.9584017
3839.577, 0.9609817
3841.506, 0.9617734
3843.434, 0.9641222
3845.363, 0.9670164
3847.291, 0.9623600
3849.219, 0.9605278
3851.148, 0.9576761
3853.076, 0.9586018
3855.005, 0.9612265
3856.933, 0.9605361
3858.862, 0.9626101
3860.790, 0.9649163
3862.719, 0.9620082
3864.647, 0.9616380
3866.576, 0.9613869
3868.504, 0.9601115
3870.433, 0.9603397
3872.361, 0.9586046
3874.290, 0.9614922
3876.218, 0.9663795
3878.146, 0.9633787
3880.075, 0.9619542
3882.003, 0.9621328
3883.932, 0.9656487
3885.860, 0.9673859
3887.789, 0.9668661
3889.717, 0.9716527
3891.646, 0.9747841
3893.574, 0.9712314
3895.503, 0.9731623
3897.431, 0.9709619
3899.360, 0.9706813
3901.288, 0.9757029
3903.217, 0.9741182
3905.145, 0.9685264
3907.073, 0.9669606
3909.002, 0.9679493
3910.930, 0.9686713
3912.859, 0.9696089
3914.787, 0.9710785
3916.716, 0.9712554
3918.644, 0.9734022
3920.573, 0.9720964
3922.501, 0.9700735
3924.430, 0.9726131
3926.358, 0.9790795
3928.287, 0.9779813
3930.215, 0.9751984
3932.144, 0.9776266
3934.072, 0.9763193
3936.000, 0.9766135
3937.929, 0.9814069
3939.857, 0.9824817
3941.786, 0.9759827
3943.714, 0.9750882
3945.643, 0.9771062
3947.571, 0.9777036
3949.500, 0.9735142
3951.428, 0.9760787
3953.357, 0.9810251
3955.285, 0.9821207
3957.214, 0.9821396
3959.142, 0.9841599
3961.071, 0.9842414
3962.999, 0.9829371
3964.927, 0.9818935
3966.856, 0.9825528
3968.784, 0.9860318
3970.713, 0.9872134
3972.641, 0.9873124
3974.570, 0.9840335
3976.498, 0.9778842
3978.427, 0.9739094
3980.355, 0.9733396
3982.284, 0.9804353
3984.212, 0.9886858
3986.141, 0.9937283
3988.069, 0.9925725
3989.998, 0.9884400
3991.926, 0.9861483
3993.854, 0.9827579
3995.783, 0.9813974
3997.711, 0.9828922
3999.640, 0.9833663
##END=



