##NAMES=Bournonite
##RRUFFID=R050111
##IDEAL CHEMISTRY=Cu^1+^Pb^2+^Sb^3+^S^2-^_3_
##LOCALITY=Yao Gang Xian mine, Chenzhou, Hunan Province, China
##OWNER=RRUFF
##SOURCE=He Xin Jian
##DESCRIPTION=Steel-gray short prismatic crystal
##STATUS=The identification of this mineral has been confirmed by X-ray diffraction and chemical analysis
##URL=rruff.info/R050111
##MEASURED CHEMISTRY=PbCuSbS_3_
3.991926e+002, 1.934339e-001
4.011211e+002, 1.990006e-001
4.030495e+002, 2.004573e-001
4.049780e+002, 1.899750e-001
4.069065e+002, 1.933037e-001
4.088349e+002, 1.990997e-001
4.107634e+002, 2.006686e-001
4.126919e+002, 2.068425e-001
4.146203e+002, 2.080504e-001
4.165488e+002, 2.071466e-001
4.184773e+002, 2.071793e-001
4.204057e+002, 2.067165e-001
4.223342e+002, 2.078995e-001
4.242627e+002, 2.095873e-001
4.261911e+002, 2.130758e-001
4.281196e+002, 2.122759e-001
4.300481e+002, 2.120378e-001
4.319765e+002, 2.152494e-001
4.339050e+002, 2.173056e-001
4.358335e+002, 2.173530e-001
4.377619e+002, 2.184255e-001
4.396904e+002, 2.209013e-001
4.416189e+002, 2.210394e-001
4.435473e+002, 2.215549e-001
4.454758e+002, 2.246528e-001
4.474043e+002, 2.268406e-001
4.493327e+002, 2.269737e-001
4.512612e+002, 2.276982e-001
4.531897e+002, 2.292226e-001
4.551181e+002, 2.305726e-001
4.570466e+002, 2.303131e-001
4.589751e+002, 2.311697e-001
4.609035e+002, 2.324037e-001
4.628320e+002, 2.322877e-001
4.647605e+002, 2.319267e-001
4.666889e+002, 2.332675e-001
4.686174e+002, 2.344012e-001
4.705459e+002, 2.338707e-001
4.724743e+002, 2.345711e-001
4.744028e+002, 2.369734e-001
4.763313e+002, 2.385810e-001
4.782597e+002, 2.393354e-001
4.801882e+002, 2.397079e-001
4.821167e+002, 2.405752e-001
4.840451e+002, 2.417572e-001
4.859736e+002, 2.427148e-001
4.879021e+002, 2.431248e-001
4.898305e+002, 2.438140e-001
4.917590e+002, 2.450317e-001
4.936875e+002, 2.465979e-001
4.956159e+002, 2.464763e-001
4.975444e+002, 2.483117e-001
4.994729e+002, 2.501400e-001
5.014013e+002, 2.509189e-001
5.033298e+002, 2.509170e-001
5.052583e+002, 2.519440e-001
5.071867e+002, 2.533073e-001
5.091152e+002, 2.523440e-001
5.110437e+002, 2.538488e-001
5.129721e+002, 2.561508e-001
5.149006e+002, 2.567613e-001
5.168290e+002, 2.560762e-001
5.187575e+002, 2.564901e-001
5.206860e+002, 2.570943e-001
5.226144e+002, 2.566862e-001
5.245429e+002, 2.580788e-001
5.264714e+002, 2.606257e-001
5.283998e+002, 2.614540e-001
5.303283e+002, 2.617835e-001
5.322568e+002, 2.614877e-001
5.341852e+002, 2.620500e-001
5.361137e+002, 2.629723e-001
5.380422e+002, 2.636470e-001
5.399706e+002, 2.642751e-001
5.418991e+002, 2.653835e-001
5.438276e+002, 2.661793e-001
5.457560e+002, 2.661442e-001
5.476845e+002, 2.668590e-001
5.496130e+002, 2.674638e-001
5.515414e+002, 2.681769e-001
5.534699e+002, 2.697168e-001
5.553984e+002, 2.701832e-001
5.573268e+002, 2.704259e-001
5.592553e+002, 2.714028e-001
5.611838e+002, 2.724589e-001
5.631122e+002, 2.721792e-001
5.650407e+002, 2.728592e-001
5.669692e+002, 2.738941e-001
5.688976e+002, 2.745942e-001
5.708261e+002, 2.755556e-001
5.727546e+002, 2.757183e-001
5.746830e+002, 2.768341e-001
5.766115e+002, 2.771603e-001
5.785400e+002, 2.782689e-001
5.804684e+002, 2.790302e-001
5.823969e+002, 2.798410e-001
5.843254e+002, 2.802214e-001
5.862538e+002, 2.814905e-001
5.881823e+002, 2.823742e-001
5.901108e+002, 2.828141e-001
5.920392e+002, 2.840364e-001
5.939677e+002, 2.847689e-001
5.958962e+002, 2.853737e-001
5.978246e+002, 2.856749e-001
5.997531e+002, 2.864664e-001
6.016816e+002, 2.865493e-001
6.036100e+002, 2.858189e-001
6.055385e+002, 2.867625e-001
6.074670e+002, 2.877171e-001
6.093954e+002, 2.871698e-001
6.113239e+002, 2.875434e-001
6.132524e+002, 2.888277e-001
6.151808e+002, 2.900497e-001
6.171093e+002, 2.906096e-001
6.190378e+002, 2.911392e-001
6.209662e+002, 2.917652e-001
6.228947e+002, 2.926454e-001
6.248232e+002, 2.930097e-001
6.267516e+002, 2.931692e-001
6.286801e+002, 2.941517e-001
6.306086e+002, 2.949059e-001
6.325370e+002, 2.950042e-001
6.344655e+002, 2.945088e-001
6.363940e+002, 2.945049e-001
6.383224e+002, 2.954208e-001
6.402509e+002, 2.962725e-001
6.421794e+002, 2.956770e-001
6.441078e+002, 2.951657e-001
6.460363e+002, 2.953723e-001
6.479648e+002, 2.958857e-001
6.498932e+002, 2.964644e-001
6.518217e+002, 2.967543e-001
6.537502e+002, 2.968452e-001
6.556786e+002, 2.975854e-001
6.576071e+002, 2.982621e-001
6.595356e+002, 2.984521e-001
6.614641e+002, 2.985497e-001
6.633925e+002, 2.988953e-001
6.653210e+002, 2.990224e-001
6.672495e+002, 2.996030e-001
6.691779e+002, 2.997865e-001
6.711064e+002, 2.997380e-001
6.730349e+002, 3.002773e-001
6.749633e+002, 3.015261e-001
6.768918e+002, 3.019345e-001
6.788203e+002, 3.022163e-001
6.807487e+002, 3.026780e-001
6.826772e+002, 3.024296e-001
6.846057e+002, 3.029384e-001
6.865341e+002, 3.034499e-001
6.884626e+002, 3.031867e-001
6.903911e+002, 3.033382e-001
6.923195e+002, 3.040249e-001
6.942480e+002, 3.048387e-001
6.961765e+002, 3.056859e-001
6.981049e+002, 3.056154e-001
7.000334e+002, 3.059177e-001
7.019619e+002, 3.057851e-001
7.038903e+002, 3.065234e-001
7.058188e+002, 3.069300e-001
7.077473e+002, 3.071353e-001
7.096757e+002, 3.076482e-001
7.116042e+002, 3.085486e-001
7.135327e+002, 3.088430e-001
7.154611e+002, 3.089920e-001
7.173896e+002, 3.094871e-001
7.193181e+002, 3.099574e-001
7.212465e+002, 3.106792e-001
7.231750e+002, 3.113728e-001
7.251035e+002, 3.121053e-001
7.270319e+002, 3.123211e-001
7.289604e+002, 3.126081e-001
7.308889e+002, 3.121720e-001
7.328173e+002, 3.122757e-001
7.347458e+002, 3.132878e-001
7.366743e+002, 3.142605e-001
7.386027e+002, 3.148641e-001
7.405312e+002, 3.151731e-001
7.424597e+002, 3.153858e-001
7.443881e+002, 3.154561e-001
7.463166e+002, 3.157268e-001
7.482451e+002, 3.160487e-001
7.501735e+002, 3.165337e-001
7.521020e+002, 3.173701e-001
7.540305e+002, 3.178562e-001
7.559589e+002, 3.184920e-001
7.578874e+002, 3.185575e-001
7.598159e+002, 3.191177e-001
7.617443e+002, 3.195248e-001
7.636728e+002, 3.197743e-001
7.656013e+002, 3.201635e-001
7.675297e+002, 3.205469e-001
7.694582e+002, 3.205897e-001
7.713867e+002, 3.206809e-001
7.733151e+002, 3.208796e-001
7.752436e+002, 3.216770e-001
7.771721e+002, 3.224857e-001
7.791005e+002, 3.232930e-001
7.810290e+002, 3.235002e-001
7.829575e+002, 3.238776e-001
7.848859e+002, 3.239979e-001
7.868144e+002, 3.243415e-001
7.887429e+002, 3.248120e-001
7.906713e+002, 3.254258e-001
7.925998e+002, 3.256721e-001
7.945283e+002, 3.257968e-001
7.964567e+002, 3.262051e-001
7.983852e+002, 3.265755e-001
8.003137e+002, 3.269621e-001
8.022421e+002, 3.273596e-001
8.041706e+002, 3.280181e-001
8.060991e+002, 3.285189e-001
8.080275e+002, 3.288759e-001
8.099560e+002, 3.296366e-001
8.118845e+002, 3.303882e-001
8.138129e+002, 3.303064e-001
8.157414e+002, 3.298866e-001
8.176699e+002, 3.299325e-001
8.195983e+002, 3.304521e-001
8.215268e+002, 3.310780e-001
8.234553e+002, 3.315828e-001
8.253837e+002, 3.319629e-001
8.273122e+002, 3.326949e-001
8.292407e+002, 3.333709e-001
8.311691e+002, 3.333631e-001
8.330976e+002, 3.330517e-001
8.350261e+002, 3.336689e-001
8.369545e+002, 3.342207e-001
8.388830e+002, 3.344125e-001
8.408115e+002, 3.345584e-001
8.427399e+002, 3.349858e-001
8.446684e+002, 3.357644e-001
8.465969e+002, 3.362104e-001
8.485253e+002, 3.363480e-001
8.504538e+002, 3.365193e-001
8.523823e+002, 3.368344e-001
8.543107e+002, 3.371115e-001
8.562392e+002, 3.373810e-001
8.581677e+002, 3.387440e-001
8.600961e+002, 3.396201e-001
8.620246e+002, 3.398025e-001
8.639531e+002, 3.400946e-001
8.658815e+002, 3.407419e-001
8.678100e+002, 3.415824e-001
8.697385e+002, 3.420568e-001
8.716669e+002, 3.424329e-001
8.735954e+002, 3.430157e-001
8.755239e+002, 3.438227e-001
8.774523e+002, 3.440811e-001
8.793808e+002, 3.438747e-001
8.813093e+002, 3.439583e-001
8.832377e+002, 3.437085e-001
8.851662e+002, 3.436080e-001
8.870947e+002, 3.439486e-001
8.890231e+002, 3.441899e-001
8.909516e+002, 3.448201e-001
8.928801e+002, 3.454811e-001
8.948085e+002, 3.459645e-001
8.967370e+002, 3.461511e-001
8.986655e+002, 3.464588e-001
9.005939e+002, 3.465718e-001
9.025224e+002, 3.467215e-001
9.044509e+002, 3.470027e-001
9.063793e+002, 3.473439e-001
9.083078e+002, 3.475437e-001
9.102363e+002, 3.480422e-001
9.121647e+002, 3.488654e-001
9.140932e+002, 3.493110e-001
9.160217e+002, 3.495346e-001
9.179501e+002, 3.500496e-001
9.198786e+002, 3.505470e-001
9.218071e+002, 3.509900e-001
9.237355e+002, 3.514642e-001
9.256640e+002, 3.516756e-001
9.275925e+002, 3.522085e-001
9.295209e+002, 3.528644e-001
9.314494e+002, 3.534268e-001
9.333779e+002, 3.538245e-001
9.353063e+002, 3.541595e-001
9.372348e+002, 3.542912e-001
9.391633e+002, 3.545890e-001
9.410917e+002, 3.551261e-001
9.430202e+002, 3.559383e-001
9.449487e+002, 3.564181e-001
9.468771e+002, 3.565252e-001
9.488056e+002, 3.566563e-001
9.507341e+002, 3.570879e-001
9.526625e+002, 3.575698e-001
9.545910e+002, 3.576776e-001
9.565195e+002, 3.581867e-001
9.584479e+002, 3.590021e-001
9.603764e+002, 3.595288e-001
9.623049e+002, 3.599041e-001
9.642333e+002, 3.603913e-001
9.661618e+002, 3.608055e-001
9.680903e+002, 3.613282e-001
9.700187e+002, 3.619375e-001
9.719472e+002, 3.623607e-001
9.738757e+002, 3.628876e-001
9.758041e+002, 3.632802e-001
9.777326e+002, 3.634482e-001
9.796611e+002, 3.638791e-001
9.815895e+002, 3.646846e-001
9.835180e+002, 3.653091e-001
9.854465e+002, 3.657019e-001
9.873749e+002, 3.662551e-001
9.893034e+002, 3.667988e-001
9.912319e+002, 3.671592e-001
9.931603e+002, 3.678274e-001
9.950888e+002, 3.685161e-001
9.970173e+002, 3.687242e-001
9.989457e+002, 3.689023e-001
1.000874e+003, 3.691598e-001
1.002803e+003, 3.696949e-001
1.004731e+003, 3.702601e-001
1.006660e+003, 3.705763e-001
1.008588e+003, 3.707695e-001
1.010517e+003, 3.714750e-001
1.012445e+003, 3.721540e-001
1.014373e+003, 3.725812e-001
1.016302e+003, 3.728534e-001
1.018230e+003, 3.731010e-001
1.020159e+003, 3.729809e-001
1.022087e+003, 3.734479e-001
1.024016e+003, 3.741195e-001
1.025944e+003, 3.745501e-001
1.027873e+003, 3.753091e-001
1.029801e+003, 3.761901e-001
1.031730e+003, 3.765747e-001
1.033658e+003, 3.769641e-001
1.035587e+003, 3.776290e-001
1.037515e+003, 3.780788e-001
1.039443e+003, 3.783551e-001
1.041372e+003, 3.786554e-001
1.043300e+003, 3.789896e-001
1.045229e+003, 3.792278e-001
1.047157e+003, 3.795761e-001
1.049086e+003, 3.801658e-001
1.051014e+003, 3.806089e-001
1.052943e+003, 3.805618e-001
1.054871e+003, 3.808429e-001
1.056800e+003, 3.813775e-001
1.058728e+003, 3.818855e-001
1.060657e+003, 3.821505e-001
1.062585e+003, 3.821869e-001
1.064514e+003, 3.824889e-001
1.066442e+003, 3.831207e-001
1.068370e+003, 3.836621e-001
1.070299e+003, 3.837129e-001
1.072227e+003, 3.839590e-001
1.074156e+003, 3.842834e-001
1.076084e+003, 3.849224e-001
1.078013e+003, 3.855946e-001
1.079941e+003, 3.858795e-001
1.081870e+003, 3.861818e-001
1.083798e+003, 3.864684e-001
1.085727e+003, 3.870789e-001
1.087655e+003, 3.875591e-001
1.089584e+003, 3.877643e-001
1.091512e+003, 3.881424e-001
1.093441e+003, 3.884743e-001
1.095369e+003, 3.889064e-001
1.097297e+003, 3.895514e-001
1.099226e+003, 3.900604e-001
1.101154e+003, 3.899951e-001
1.103083e+003, 3.903266e-001
1.105011e+003, 3.908328e-001
1.106940e+003, 3.913584e-001
1.108868e+003, 3.920324e-001
1.110797e+003, 3.923082e-001
1.112725e+003, 3.924383e-001
1.114654e+003, 3.925938e-001
1.116582e+003, 3.931329e-001
1.118511e+003, 3.936237e-001
1.120439e+003, 3.934551e-001
1.122368e+003, 3.938284e-001
1.124296e+003, 3.943887e-001
1.126224e+003, 3.947839e-001
1.128153e+003, 3.952224e-001
1.130081e+003, 3.958835e-001
1.132010e+003, 3.963407e-001
1.133938e+003, 3.966573e-001
1.135867e+003, 3.972733e-001
1.137795e+003, 3.978712e-001
1.139724e+003, 3.985418e-001
1.141652e+003, 3.991681e-001
1.143581e+003, 3.997288e-001
1.145509e+003, 4.000907e-001
1.147438e+003, 4.002646e-001
1.149366e+003, 4.006979e-001
1.151295e+003, 4.008933e-001
1.153223e+003, 4.008014e-001
1.155151e+003, 4.009568e-001
1.157080e+003, 4.011710e-001
1.159008e+003, 4.011775e-001
1.160937e+003, 4.011931e-001
1.162865e+003, 4.010912e-001
1.164794e+003, 4.011538e-001
1.166722e+003, 4.012857e-001
1.168651e+003, 4.011447e-001
1.170579e+003, 4.011798e-001
1.172508e+003, 4.015389e-001
1.174436e+003, 4.016580e-001
1.176365e+003, 4.016286e-001
1.178293e+003, 4.016465e-001
1.180222e+003, 4.013892e-001
1.182150e+003, 4.015166e-001
1.184078e+003, 4.017889e-001
1.186007e+003, 4.019909e-001
1.187935e+003, 4.022191e-001
1.189864e+003, 4.023594e-001
1.191792e+003, 4.025293e-001
1.193721e+003, 4.025321e-001
1.195649e+003, 4.027525e-001
1.197578e+003, 4.028213e-001
1.199506e+003, 4.030654e-001
1.201435e+003, 4.031902e-001
1.203363e+003, 4.030174e-001
1.205292e+003, 4.031088e-001
1.207220e+003, 4.031421e-001
1.209149e+003, 4.030233e-001
1.211077e+003, 4.030797e-001
1.213005e+003, 4.033913e-001
1.214934e+003, 4.034247e-001
1.216862e+003, 4.033735e-001
1.218791e+003, 4.036065e-001
1.220719e+003, 4.035388e-001
1.222648e+003, 4.036328e-001
1.224576e+003, 4.038517e-001
1.226505e+003, 4.039927e-001
1.228433e+003, 4.039060e-001
1.230362e+003, 4.041576e-001
1.232290e+003, 4.045708e-001
1.234219e+003, 4.047450e-001
1.236147e+003, 4.049088e-001
1.238076e+003, 4.051395e-001
1.240004e+003, 4.054160e-001
1.241932e+003, 4.055143e-001
1.243861e+003, 4.059069e-001
1.245789e+003, 4.062282e-001
1.247718e+003, 4.063059e-001
1.249646e+003, 4.066595e-001
1.251575e+003, 4.069914e-001
1.253503e+003, 4.070835e-001
1.255432e+003, 4.069041e-001
1.257360e+003, 4.069098e-001
1.259289e+003, 4.073623e-001
1.261217e+003, 4.077719e-001
1.263146e+003, 4.079167e-001
1.265074e+003, 4.080163e-001
1.267003e+003, 4.081453e-001
1.268931e+003, 4.082009e-001
1.270859e+003, 4.083434e-001
1.272788e+003, 4.088064e-001
1.274716e+003, 4.092489e-001
1.276645e+003, 4.096538e-001
1.278573e+003, 4.099743e-001
1.280502e+003, 4.101752e-001
1.282430e+003, 4.105228e-001
1.284359e+003, 4.108513e-001
1.286287e+003, 4.110990e-001
1.288216e+003, 4.113795e-001
1.290144e+003, 4.115302e-001
1.292073e+003, 4.122030e-001
1.294001e+003, 4.127445e-001
1.295930e+003, 4.126937e-001
1.297858e+003, 4.126088e-001
1.299786e+003, 4.129015e-001
1.301715e+003, 4.133072e-001
1.303643e+003, 4.135727e-001
1.305572e+003, 4.139463e-001
1.307500e+003, 4.143071e-001
1.309429e+003, 4.147657e-001
1.311357e+003, 4.153215e-001
1.313286e+003, 4.155205e-001
1.315214e+003, 4.155980e-001
1.317143e+003, 4.159823e-001
1.319071e+003, 4.162278e-001
1.321000e+003, 4.164889e-001
1.322928e+003, 4.169345e-001
1.324857e+003, 4.173697e-001
1.326785e+003, 4.179088e-001
1.328714e+003, 4.181802e-001
1.330642e+003, 4.185722e-001
1.332570e+003, 4.189721e-001
1.334499e+003, 4.192855e-001
1.336427e+003, 4.195694e-001
1.338356e+003, 4.197932e-001
1.340284e+003, 4.200027e-001
1.342213e+003, 4.202486e-001
1.344141e+003, 4.206099e-001
1.346070e+003, 4.209968e-001
1.347998e+003, 4.213486e-001
1.349927e+003, 4.217250e-001
1.351855e+003, 4.221590e-001
1.353784e+003, 4.224444e-001
1.355712e+003, 4.226214e-001
1.357641e+003, 4.229876e-001
1.359569e+003, 4.232805e-001
1.361497e+003, 4.237542e-001
1.363426e+003, 4.242641e-001
1.365354e+003, 4.245164e-001
1.367283e+003, 4.247626e-001
1.369211e+003, 4.252140e-001
1.371140e+003, 4.255471e-001
1.373068e+003, 4.257292e-001
1.374997e+003, 4.264117e-001
1.376925e+003, 4.272212e-001
1.378854e+003, 4.276120e-001
1.380782e+003, 4.276870e-001
1.382711e+003, 4.280336e-001
1.384639e+003, 4.284520e-001
1.386568e+003, 4.288363e-001
1.388496e+003, 4.291224e-001
1.390424e+003, 4.293632e-001
1.392353e+003, 4.296649e-001
1.394281e+003, 4.303335e-001
1.396210e+003, 4.312689e-001
1.398138e+003, 4.317433e-001
1.400067e+003, 4.318702e-001
1.401995e+003, 4.319965e-001
1.403924e+003, 4.322816e-001
1.405852e+003, 4.327354e-001
1.407781e+003, 4.333235e-001
1.409709e+003, 4.337929e-001
1.411638e+003, 4.343199e-001
1.413566e+003, 4.349486e-001
1.415495e+003, 4.353856e-001
1.417423e+003, 4.359129e-001
1.419351e+003, 4.364406e-001
1.421280e+003, 4.365348e-001
1.423208e+003, 4.367213e-001
1.425137e+003, 4.371752e-001
1.427065e+003, 4.373234e-001
1.428994e+003, 4.375800e-001
1.430922e+003, 4.382053e-001
1.432851e+003, 4.385955e-001
1.434779e+003, 4.389538e-001
1.436708e+003, 4.393122e-001
1.438636e+003, 4.393217e-001
1.440565e+003, 4.392844e-001
1.442493e+003, 4.394737e-001
1.444422e+003, 4.400990e-001
1.446350e+003, 4.408861e-001
1.448278e+003, 4.411952e-001
1.450207e+003, 4.412762e-001
1.452135e+003, 4.412565e-001
1.454064e+003, 4.416574e-001
1.455992e+003, 4.423626e-001
1.457921e+003, 4.426253e-001
1.459849e+003, 4.424166e-001
1.461778e+003, 4.422392e-001
1.463706e+003, 4.422943e-001
1.465635e+003, 4.424683e-001
1.467563e+003, 4.423233e-001
1.469492e+003, 4.421303e-001
1.471420e+003, 4.423064e-001
1.473349e+003, 4.423449e-001
1.475277e+003, 4.423736e-001
1.477205e+003, 4.423813e-001
1.479134e+003, 4.424183e-001
1.481062e+003, 4.425825e-001
1.482991e+003, 4.424309e-001
1.484919e+003, 4.425790e-001
1.486848e+003, 4.430604e-001
1.488776e+003, 4.433129e-001
1.490705e+003, 4.434291e-001
1.492633e+003, 4.436001e-001
1.494562e+003, 4.437631e-001
1.496490e+003, 4.443329e-001
1.498419e+003, 4.444193e-001
1.500347e+003, 4.441453e-001
1.502276e+003, 4.440856e-001
1.504204e+003, 4.447283e-001
1.506132e+003, 4.454060e-001
1.508061e+003, 4.453541e-001
1.509989e+003, 4.452825e-001
1.511918e+003, 4.454419e-001
1.513846e+003, 4.455605e-001
1.515775e+003, 4.458976e-001
1.517703e+003, 4.459217e-001
1.519632e+003, 4.461265e-001
1.521560e+003, 4.468957e-001
1.523489e+003, 4.470146e-001
1.525417e+003, 4.471546e-001
1.527346e+003, 4.472066e-001
1.529274e+003, 4.472919e-001
1.531203e+003, 4.475066e-001
1.533131e+003, 4.477745e-001
1.535059e+003, 4.478822e-001
1.536988e+003, 4.482354e-001
1.538916e+003, 4.491837e-001
1.540845e+003, 4.494267e-001
1.542773e+003, 4.492880e-001
1.544702e+003, 4.493413e-001
1.546630e+003, 4.493845e-001
1.548559e+003, 4.496258e-001
1.550487e+003, 4.499772e-001
1.552416e+003, 4.502146e-001
1.554344e+003, 4.503905e-001
1.556273e+003, 4.507543e-001
1.558201e+003, 4.518602e-001
1.560130e+003, 4.523377e-001
1.562058e+003, 4.517584e-001
1.563986e+003, 4.515876e-001
1.565915e+003, 4.520349e-001
1.567843e+003, 4.522409e-001
1.569772e+003, 4.524172e-001
1.571700e+003, 4.526541e-001
1.573629e+003, 4.529276e-001
1.575557e+003, 4.535924e-001
1.577486e+003, 4.539594e-001
1.579414e+003, 4.541068e-001
1.581343e+003, 4.543207e-001
1.583271e+003, 4.543973e-001
1.585200e+003, 4.546168e-001
1.587128e+003, 4.547489e-001
1.589057e+003, 4.548898e-001
1.590985e+003, 4.552443e-001
1.592913e+003, 4.557784e-001
1.594842e+003, 4.561576e-001
1.596770e+003, 4.564725e-001
1.598699e+003, 4.570414e-001
1.600627e+003, 4.574547e-001
1.602556e+003, 4.575375e-001
1.604484e+003, 4.576641e-001
1.606413e+003, 4.580234e-001
1.608341e+003, 4.582621e-001
1.610270e+003, 4.586961e-001
1.612198e+003, 4.591600e-001
1.614127e+003, 4.595625e-001
1.616055e+003, 4.599732e-001
1.617984e+003, 4.600453e-001
1.619912e+003, 4.600997e-001
1.621840e+003, 4.603509e-001
1.623769e+003, 4.606107e-001
1.625697e+003, 4.610406e-001
1.627626e+003, 4.615071e-001
1.629554e+003, 4.617151e-001
1.631483e+003, 4.619711e-001
1.633411e+003, 4.623569e-001
1.635340e+003, 4.629183e-001
1.637268e+003, 4.628947e-001
1.639197e+003, 4.625503e-001
1.641125e+003, 4.625638e-001
1.643054e+003, 4.629721e-001
1.644982e+003, 4.637744e-001
1.646911e+003, 4.643439e-001
1.648839e+003, 4.644161e-001
1.650767e+003, 4.648776e-001
1.652696e+003, 4.657069e-001
1.654624e+003, 4.655114e-001
1.656553e+003, 4.652112e-001
1.658481e+003, 4.655838e-001
1.660410e+003, 4.658611e-001
1.662338e+003, 4.662783e-001
1.664267e+003, 4.666534e-001
1.666195e+003, 4.665905e-001
1.668124e+003, 4.669497e-001
1.670052e+003, 4.671432e-001
1.671981e+003, 4.671678e-001
1.673909e+003, 4.674667e-001
1.675838e+003, 4.678794e-001
1.677766e+003, 4.682819e-001
1.679694e+003, 4.684999e-001
1.681623e+003, 4.688246e-001
1.683551e+003, 4.699976e-001
1.685480e+003, 4.700148e-001
1.687408e+003, 4.695364e-001
1.689337e+003, 4.696920e-001
1.691265e+003, 4.698522e-001
1.693194e+003, 4.703464e-001
1.695122e+003, 4.711650e-001
1.697051e+003, 4.714256e-001
1.698979e+003, 4.720182e-001
1.700908e+003, 4.722659e-001
1.702836e+003, 4.716795e-001
1.704765e+003, 4.720137e-001
1.706693e+003, 4.722079e-001
1.708621e+003, 4.724681e-001
1.710550e+003, 4.726944e-001
1.712478e+003, 4.730936e-001
1.714407e+003, 4.737105e-001
1.716335e+003, 4.743358e-001
1.718264e+003, 4.744941e-001
1.720192e+003, 4.744320e-001
1.722121e+003, 4.746831e-001
1.724049e+003, 4.751481e-001
1.725978e+003, 4.755744e-001
1.727906e+003, 4.755760e-001
1.729835e+003, 4.755928e-001
1.731763e+003, 4.759545e-001
1.733692e+003, 4.766294e-001
1.735620e+003, 4.765150e-001
1.737548e+003, 4.760207e-001
1.739477e+003, 4.759831e-001
1.741405e+003, 4.756777e-001
1.743334e+003, 4.758717e-001
1.745262e+003, 4.756989e-001
1.747191e+003, 4.757066e-001
1.749119e+003, 4.758254e-001
1.751048e+003, 4.758435e-001
1.752976e+003, 4.761223e-001
1.754905e+003, 4.763007e-001
1.756833e+003, 4.761907e-001
1.758762e+003, 4.763856e-001
1.760690e+003, 4.768373e-001
1.762619e+003, 4.770742e-001
1.764547e+003, 4.769764e-001
1.766475e+003, 4.767093e-001
1.768404e+003, 4.766417e-001
1.770332e+003, 4.768817e-001
1.772261e+003, 4.774492e-001
1.774189e+003, 4.780454e-001
1.776118e+003, 4.782580e-001
1.778046e+003, 4.780708e-001
1.779975e+003, 4.782613e-001
1.781903e+003, 4.784792e-001
1.783832e+003, 4.788557e-001
1.785760e+003, 4.789542e-001
1.787689e+003, 4.788046e-001
1.789617e+003, 4.790820e-001
1.791546e+003, 4.791494e-001
1.793474e+003, 4.793495e-001
1.795402e+003, 4.796621e-001
1.797331e+003, 4.797259e-001
1.799259e+003, 4.800244e-001
1.801188e+003, 4.804128e-001
1.803116e+003, 4.800944e-001
1.805045e+003, 4.802717e-001
1.806973e+003, 4.802415e-001
1.808902e+003, 4.802136e-001
1.810830e+003, 4.803807e-001
1.812759e+003, 4.805416e-001
1.814687e+003, 4.806837e-001
1.816616e+003, 4.808267e-001
1.818544e+003, 4.808813e-001
1.820473e+003, 4.807992e-001
1.822401e+003, 4.810490e-001
1.824329e+003, 4.815212e-001
1.826258e+003, 4.816372e-001
1.828186e+003, 4.817004e-001
1.830115e+003, 4.817506e-001
1.832043e+003, 4.819606e-001
1.833972e+003, 4.822604e-001
1.835900e+003, 4.825956e-001
1.837829e+003, 4.823613e-001
1.839757e+003, 4.825631e-001
1.841686e+003, 4.827317e-001
1.843614e+003, 4.826807e-001
1.845543e+003, 4.829964e-001
1.847471e+003, 4.831150e-001
1.849400e+003, 4.827476e-001
1.851328e+003, 4.826936e-001
1.853256e+003, 4.832972e-001
1.855185e+003, 4.836957e-001
1.857113e+003, 4.840987e-001
1.859042e+003, 4.844187e-001
1.860970e+003, 4.842773e-001
1.862899e+003, 4.838866e-001
1.864827e+003, 4.838529e-001
1.866756e+003, 4.843002e-001
1.868684e+003, 4.847907e-001
1.870613e+003, 4.843615e-001
1.872541e+003, 4.838982e-001
1.874470e+003, 4.842127e-001
1.876398e+003, 4.842637e-001
1.878327e+003, 4.841916e-001
1.880255e+003, 4.851885e-001
1.882183e+003, 4.856911e-001
1.884112e+003, 4.854751e-001
1.886040e+003, 4.860344e-001
1.887969e+003, 4.864101e-001
1.889897e+003, 4.862508e-001
1.891826e+003, 4.860956e-001
1.893754e+003, 4.868345e-001
1.895683e+003, 4.875357e-001
1.897611e+003, 4.878014e-001
1.899540e+003, 4.880398e-001
1.901468e+003, 4.882760e-001
1.903397e+003, 4.884596e-001
1.905325e+003, 4.892537e-001
1.907254e+003, 4.894994e-001
1.909182e+003, 4.883476e-001
1.911110e+003, 4.882469e-001
1.913039e+003, 4.891316e-001
1.914967e+003, 4.893180e-001
1.916896e+003, 4.895840e-001
1.918824e+003, 4.903189e-001
1.920753e+003, 4.905719e-001
1.922681e+003, 4.909587e-001
1.924610e+003, 4.912529e-001
1.926538e+003, 4.910790e-001
1.928467e+003, 4.905489e-001
1.930395e+003, 4.903394e-001
1.932324e+003, 4.913508e-001
1.934252e+003, 4.913411e-001
1.936181e+003, 4.912124e-001
1.938109e+003, 4.923456e-001
1.940037e+003, 4.931007e-001
1.941966e+003, 4.933526e-001
1.943894e+003, 4.926436e-001
1.945823e+003, 4.927605e-001
1.947751e+003, 4.929599e-001
1.949680e+003, 4.928397e-001
1.951608e+003, 4.929971e-001
1.953537e+003, 4.928971e-001
1.955465e+003, 4.928557e-001
1.957394e+003, 4.953149e-001
1.959322e+003, 4.959874e-001
1.961251e+003, 4.961202e-001
1.963179e+003, 4.954577e-001
1.965108e+003, 4.952377e-001
1.967036e+003, 4.949877e-001
1.968964e+003, 4.941266e-001
1.970893e+003, 4.941483e-001
1.972821e+003, 4.943341e-001
1.974750e+003, 4.956201e-001
1.976678e+003, 4.974775e-001
1.978607e+003, 4.985647e-001
1.980535e+003, 4.975269e-001
1.982464e+003, 4.964016e-001
1.984392e+003, 4.974698e-001
1.986321e+003, 4.976760e-001
1.988249e+003, 4.965708e-001
1.990178e+003, 4.963793e-001
1.992106e+003, 4.963158e-001
1.994035e+003, 4.942191e-001
1.995963e+003, 4.953447e-001
1.997891e+003, 4.992720e-001
1.999820e+003, 5.006852e-001
2.001748e+003, 4.995782e-001
2.003677e+003, 4.981213e-001
2.005605e+003, 4.976768e-001
2.007534e+003, 4.994547e-001
2.009462e+003, 5.023186e-001
2.011391e+003, 5.016576e-001
2.013319e+003, 5.003943e-001
2.015248e+003, 4.997822e-001
2.017176e+003, 4.996256e-001
2.019105e+003, 4.993643e-001
2.021033e+003, 4.994029e-001
2.022962e+003, 5.007592e-001
2.024890e+003, 5.009621e-001
2.026818e+003, 4.996410e-001
2.028747e+003, 5.013482e-001
2.030675e+003, 5.038809e-001
2.032604e+003, 5.049895e-001
2.034532e+003, 5.043136e-001
2.036461e+003, 5.015895e-001
2.038389e+003, 4.997303e-001
2.040318e+003, 5.027676e-001
2.042246e+003, 5.044475e-001
2.044175e+003, 5.037743e-001
2.046103e+003, 5.022336e-001
2.048031e+003, 5.019448e-001
2.049960e+003, 5.033046e-001
2.051888e+003, 5.053379e-001
2.053817e+003, 5.051629e-001
2.055745e+003, 5.049558e-001
2.057674e+003, 5.070000e-001
2.059602e+003, 5.069357e-001
2.061531e+003, 5.053740e-001
2.063459e+003, 5.038564e-001
2.065388e+003, 5.032097e-001
2.067316e+003, 5.035479e-001
2.069245e+003, 5.043805e-001
2.071173e+003, 5.058137e-001
2.073102e+003, 5.062091e-001
2.075030e+003, 5.074326e-001
2.076958e+003, 5.072913e-001
2.078887e+003, 5.067714e-001
2.080815e+003, 5.074790e-001
2.082744e+003, 5.073849e-001
2.084672e+003, 5.081005e-001
2.086601e+003, 5.083094e-001
2.088529e+003, 5.078133e-001
2.090458e+003, 5.083991e-001
2.092386e+003, 5.096290e-001
2.094315e+003, 5.095392e-001
2.096243e+003, 5.096786e-001
2.098172e+003, 5.100403e-001
2.100100e+003, 5.103765e-001
2.102029e+003, 5.104408e-001
2.103957e+003, 5.100497e-001
2.105885e+003, 5.105959e-001
2.107814e+003, 5.109900e-001
2.109742e+003, 5.114458e-001
2.111671e+003, 5.120819e-001
2.113599e+003, 5.119272e-001
2.115528e+003, 5.118003e-001
2.117456e+003, 5.110605e-001
2.119385e+003, 5.115376e-001
2.121313e+003, 5.123618e-001
2.123242e+003, 5.141209e-001
2.125170e+003, 5.142890e-001
2.127099e+003, 5.140289e-001
2.129027e+003, 5.140760e-001
2.130956e+003, 5.142802e-001
2.132884e+003, 5.139863e-001
2.134813e+003, 5.144377e-001
2.136741e+003, 5.148318e-001
2.138669e+003, 5.141455e-001
2.140598e+003, 5.147350e-001
2.142526e+003, 5.160568e-001
2.144455e+003, 5.162095e-001
2.146383e+003, 5.145406e-001
2.148312e+003, 5.154361e-001
2.150240e+003, 5.186090e-001
2.152169e+003, 5.194712e-001
2.154097e+003, 5.205892e-001
2.156026e+003, 5.212797e-001
2.157954e+003, 5.195709e-001
2.159883e+003, 5.177099e-001
2.161811e+003, 5.152855e-001
2.163740e+003, 5.144011e-001
2.165668e+003, 5.155506e-001
2.167596e+003, 5.157471e-001
2.169525e+003, 5.178956e-001
2.171453e+003, 5.170140e-001
2.173382e+003, 5.158635e-001
2.175310e+003, 5.161845e-001
2.177239e+003, 5.175684e-001
2.179167e+003, 5.188636e-001
2.181096e+003, 5.200837e-001
2.183024e+003, 5.198835e-001
2.184953e+003, 5.199131e-001
2.186881e+003, 5.212951e-001
2.188810e+003, 5.225880e-001
2.190738e+003, 5.213019e-001
2.192667e+003, 5.183153e-001
2.194595e+003, 5.188705e-001
2.196523e+003, 5.215371e-001
2.198452e+003, 5.225708e-001
2.200380e+003, 5.232133e-001
2.202309e+003, 5.231217e-001
2.204237e+003, 5.220079e-001
2.206166e+003, 5.206417e-001
2.208094e+003, 5.202559e-001
2.210023e+003, 5.219607e-001
2.211951e+003, 5.227809e-001
2.213880e+003, 5.232909e-001
2.215808e+003, 5.232331e-001
2.217737e+003, 5.243231e-001
2.219665e+003, 5.241444e-001
2.221594e+003, 5.230665e-001
2.223522e+003, 5.232600e-001
2.225450e+003, 5.240525e-001
2.227379e+003, 5.239033e-001
2.229307e+003, 5.239169e-001
2.231236e+003, 5.247405e-001
2.233164e+003, 5.252674e-001
2.235093e+003, 5.268452e-001
2.237021e+003, 5.280859e-001
2.238950e+003, 5.281542e-001
2.240878e+003, 5.278715e-001
2.242807e+003, 5.274982e-001
2.244735e+003, 5.272457e-001
2.246664e+003, 5.283977e-001
2.248592e+003, 5.292587e-001
2.250521e+003, 5.281168e-001
2.252449e+003, 5.278963e-001
2.254377e+003, 5.292661e-001
2.256306e+003, 5.294870e-001
2.258234e+003, 5.289691e-001
2.260163e+003, 5.294213e-001
2.262091e+003, 5.291988e-001
2.264020e+003, 5.281937e-001
2.265948e+003, 5.287359e-001
2.267877e+003, 5.291937e-001
2.269805e+003, 5.304828e-001
2.271734e+003, 5.319611e-001
2.273662e+003, 5.326705e-001
2.275591e+003, 5.331764e-001
2.277519e+003, 5.323419e-001
2.279448e+003, 5.318614e-001
2.281376e+003, 5.317724e-001
2.283304e+003, 5.316817e-001
2.285233e+003, 5.322056e-001
2.287161e+003, 5.326573e-001
2.289090e+003, 5.325425e-001
2.291018e+003, 5.331756e-001
2.292947e+003, 5.335671e-001
2.294875e+003, 5.329019e-001
2.296804e+003, 5.326499e-001
2.298732e+003, 5.330705e-001
2.300661e+003, 5.338473e-001
2.302589e+003, 5.338727e-001
2.304518e+003, 5.340974e-001
2.306446e+003, 5.340192e-001
2.308375e+003, 5.339385e-001
2.310303e+003, 5.342001e-001
2.312231e+003, 5.349961e-001
2.314160e+003, 5.356364e-001
2.316088e+003, 5.356232e-001
2.318017e+003, 5.353233e-001
2.319945e+003, 5.357250e-001
2.321874e+003, 5.364252e-001
2.323802e+003, 5.367429e-001
2.325731e+003, 5.369735e-001
2.327659e+003, 5.373225e-001
2.329588e+003, 5.376272e-001
2.331516e+003, 5.379077e-001
2.333445e+003, 5.386260e-001
2.335373e+003, 5.391683e-001
2.337302e+003, 5.389340e-001
2.339230e+003, 5.384039e-001
2.341158e+003, 5.384139e-001
2.343087e+003, 5.394111e-001
2.345015e+003, 5.398787e-001
2.346944e+003, 5.402669e-001
2.348872e+003, 5.401131e-001
2.350801e+003, 5.400493e-001
2.352729e+003, 5.402147e-001
2.354658e+003, 5.403991e-001
2.356586e+003, 5.404915e-001
2.358515e+003, 5.406082e-001
2.360443e+003, 5.409298e-001
2.362372e+003, 5.416480e-001
2.364300e+003, 5.427918e-001
2.366229e+003, 5.427530e-001
2.368157e+003, 5.420823e-001
2.370085e+003, 5.419905e-001
2.372014e+003, 5.421031e-001
2.373942e+003, 5.418464e-001
2.375871e+003, 5.420183e-001
2.377799e+003, 5.424473e-001
2.379728e+003, 5.429670e-001
2.381656e+003, 5.437837e-001
2.383585e+003, 5.439844e-001
2.385513e+003, 5.437132e-001
2.387442e+003, 5.437059e-001
2.389370e+003, 5.439438e-001
2.391299e+003, 5.441240e-001
2.393227e+003, 5.443678e-001
2.395156e+003, 5.447704e-001
2.397084e+003, 5.442422e-001
2.399012e+003, 5.439006e-001
2.400941e+003, 5.440563e-001
2.402869e+003, 5.436630e-001
2.404798e+003, 5.431033e-001
2.406726e+003, 5.437153e-001
2.408655e+003, 5.451669e-001
2.410583e+003, 5.457845e-001
2.412512e+003, 5.455716e-001
2.414440e+003, 5.454596e-001
2.416369e+003, 5.462140e-001
2.418297e+003, 5.462856e-001
2.420226e+003, 5.452931e-001
2.422154e+003, 5.451908e-001
2.424083e+003, 5.454808e-001
2.426011e+003, 5.462990e-001
2.427939e+003, 5.468920e-001
2.429868e+003, 5.469268e-001
2.431796e+003, 5.470703e-001
2.433725e+003, 5.464852e-001
2.435653e+003, 5.459993e-001
2.437582e+003, 5.462056e-001
2.439510e+003, 5.470803e-001
2.441439e+003, 5.471827e-001
2.443367e+003, 5.465999e-001
2.445296e+003, 5.474543e-001
2.447224e+003, 5.485826e-001
2.449153e+003, 5.491967e-001
2.451081e+003, 5.488786e-001
2.453010e+003, 5.492828e-001
2.454938e+003, 5.494929e-001
2.456866e+003, 5.487975e-001
2.458795e+003, 5.488002e-001
2.460723e+003, 5.492762e-001
2.462652e+003, 5.501629e-001
2.464580e+003, 5.506665e-001
2.466509e+003, 5.513154e-001
2.468437e+003, 5.510271e-001
2.470366e+003, 5.508915e-001
2.472294e+003, 5.511107e-001
2.474223e+003, 5.507587e-001
2.476151e+003, 5.505931e-001
2.478080e+003, 5.506454e-001
2.480008e+003, 5.508724e-001
2.481937e+003, 5.517347e-001
2.483865e+003, 5.525045e-001
2.485793e+003, 5.530001e-001
2.487722e+003, 5.527573e-001
2.489650e+003, 5.523530e-001
2.491579e+003, 5.526386e-001
2.493507e+003, 5.529742e-001
2.495436e+003, 5.532315e-001
2.497364e+003, 5.528816e-001
2.499293e+003, 5.531987e-001
2.501221e+003, 5.540979e-001
2.503150e+003, 5.541470e-001
2.505078e+003, 5.541903e-001
2.507007e+003, 5.539142e-001
2.508935e+003, 5.540059e-001
2.510864e+003, 5.549740e-001
2.512792e+003, 5.558229e-001
2.514720e+003, 5.559480e-001
2.516649e+003, 5.561653e-001
2.518577e+003, 5.565586e-001
2.520506e+003, 5.562065e-001
2.522434e+003, 5.556555e-001
2.524363e+003, 5.555930e-001
2.526291e+003, 5.559199e-001
2.528220e+003, 5.565142e-001
2.530148e+003, 5.568563e-001
2.532077e+003, 5.574387e-001
2.534005e+003, 5.575848e-001
2.535934e+003, 5.576844e-001
2.537862e+003, 5.574825e-001
2.539791e+003, 5.572047e-001
2.541719e+003, 5.578961e-001
2.543647e+003, 5.586049e-001
2.545576e+003, 5.593362e-001
2.547504e+003, 5.592679e-001
2.549433e+003, 5.589756e-001
2.551361e+003, 5.595574e-001
2.553290e+003, 5.596834e-001
2.555218e+003, 5.593808e-001
2.557147e+003, 5.597906e-001
2.559075e+003, 5.601336e-001
2.561004e+003, 5.604124e-001
2.562932e+003, 5.610859e-001
2.564861e+003, 5.616589e-001
2.566789e+003, 5.619176e-001
2.568718e+003, 5.620202e-001
2.570646e+003, 5.623837e-001
2.572574e+003, 5.630237e-001
2.574503e+003, 5.632757e-001
2.576431e+003, 5.636044e-001
2.578360e+003, 5.629745e-001
2.580288e+003, 5.625328e-001
2.582217e+003, 5.632629e-001
2.584145e+003, 5.637466e-001
2.586074e+003, 5.641346e-001
2.588002e+003, 5.645242e-001
2.589931e+003, 5.640677e-001
2.591859e+003, 5.641682e-001
2.593788e+003, 5.650488e-001
2.595716e+003, 5.657579e-001
2.597645e+003, 5.662139e-001
2.599573e+003, 5.660512e-001
2.601501e+003, 5.661015e-001
2.603430e+003, 5.666571e-001
2.605358e+003, 5.666900e-001
2.607287e+003, 5.667383e-001
2.609215e+003, 5.669510e-001
2.611144e+003, 5.674156e-001
2.613072e+003, 5.681223e-001
2.615001e+003, 5.686582e-001
2.616929e+003, 5.687655e-001
2.618858e+003, 5.696136e-001
2.620786e+003, 5.699552e-001
2.622715e+003, 5.696539e-001
2.624643e+003, 5.704634e-001
2.626572e+003, 5.709316e-001
2.628500e+003, 5.706607e-001
2.630428e+003, 5.707782e-001
2.632357e+003, 5.711839e-001
2.634285e+003, 5.717192e-001
2.636214e+003, 5.723301e-001
2.638142e+003, 5.726020e-001
2.640071e+003, 5.729288e-001
2.641999e+003, 5.735084e-001
2.643928e+003, 5.732847e-001
2.645856e+003, 5.732876e-001
2.647785e+003, 5.742559e-001
2.649713e+003, 5.746791e-001
2.651642e+003, 5.745841e-001
2.653570e+003, 5.745036e-001
2.655499e+003, 5.752101e-001
2.657427e+003, 5.754678e-001
2.659355e+003, 5.754316e-001
2.661284e+003, 5.760400e-001
2.663212e+003, 5.764647e-001
2.665141e+003, 5.764996e-001
2.667069e+003, 5.772154e-001
2.668998e+003, 5.776888e-001
2.670926e+003, 5.775927e-001
2.672855e+003, 5.775166e-001
2.674783e+003, 5.777443e-001
2.676712e+003, 5.781466e-001
2.678640e+003, 5.781774e-001
2.680569e+003, 5.783263e-001
2.682497e+003, 5.785420e-001
2.684426e+003, 5.787487e-001
2.686354e+003, 5.790530e-001
2.688282e+003, 5.792423e-001
2.690211e+003, 5.793746e-001
2.692139e+003, 5.796643e-001
2.694068e+003, 5.796919e-001
2.695996e+003, 5.796611e-001
2.697925e+003, 5.802908e-001
2.699853e+003, 5.806553e-001
2.701782e+003, 5.804856e-001
2.703710e+003, 5.804856e-001
2.705639e+003, 5.805296e-001
2.707567e+003, 5.808006e-001
2.709496e+003, 5.815931e-001
2.711424e+003, 5.821906e-001
2.713353e+003, 5.821057e-001
2.715281e+003, 5.825186e-001
2.717209e+003, 5.831290e-001
2.719138e+003, 5.832448e-001
2.721066e+003, 5.833926e-001
2.722995e+003, 5.834920e-001
2.724923e+003, 5.837992e-001
2.726852e+003, 5.841311e-001
2.728780e+003, 5.837854e-001
2.730709e+003, 5.832340e-001
2.732637e+003, 5.835708e-001
2.734566e+003, 5.839956e-001
2.736494e+003, 5.840997e-001
2.738423e+003, 5.843620e-001
2.740351e+003, 5.846134e-001
2.742280e+003, 5.851716e-001
2.744208e+003, 5.856523e-001
2.746136e+003, 5.855110e-001
2.748065e+003, 5.850069e-001
2.749993e+003, 5.852990e-001
2.751922e+003, 5.860906e-001
2.753850e+003, 5.861763e-001
2.755779e+003, 5.865778e-001
2.757707e+003, 5.873245e-001
2.759636e+003, 5.869346e-001
2.761564e+003, 5.869953e-001
2.763493e+003, 5.875095e-001
2.765421e+003, 5.877807e-001
2.767350e+003, 5.881368e-001
2.769278e+003, 5.882840e-001
2.771207e+003, 5.886905e-001
2.773135e+003, 5.888311e-001
2.775063e+003, 5.887139e-001
2.776992e+003, 5.889344e-001
2.778920e+003, 5.895342e-001
2.780849e+003, 5.895028e-001
2.782777e+003, 5.895227e-001
2.784706e+003, 5.900207e-001
2.786634e+003, 5.900742e-001
2.788563e+003, 5.899953e-001
2.790491e+003, 5.903207e-001
2.792420e+003, 5.910388e-001
2.794348e+003, 5.912910e-001
2.796277e+003, 5.911696e-001
2.798205e+003, 5.912392e-001
2.800134e+003, 5.917018e-001
2.802062e+003, 5.924921e-001
2.803990e+003, 5.929556e-001
2.805919e+003, 5.932609e-001
2.807847e+003, 5.933372e-001
2.809776e+003, 5.929814e-001
2.811704e+003, 5.933619e-001
2.813633e+003, 5.940271e-001
2.815561e+003, 5.940967e-001
2.817490e+003, 5.947217e-001
2.819418e+003, 5.954924e-001
2.821347e+003, 5.954043e-001
2.823275e+003, 5.954726e-001
2.825204e+003, 5.955971e-001
2.827132e+003, 5.958691e-001
2.829061e+003, 5.961733e-001
2.830989e+003, 5.961975e-001
2.832917e+003, 5.965884e-001
2.834846e+003, 5.975332e-001
2.836774e+003, 5.983043e-001
2.838703e+003, 5.986347e-001
2.840631e+003, 5.988590e-001
2.842560e+003, 5.989997e-001
2.844488e+003, 5.996220e-001
2.846417e+003, 6.004249e-001
2.848345e+003, 6.005069e-001
2.850274e+003, 6.007432e-001
2.852202e+003, 6.010587e-001
2.854131e+003, 6.010418e-001
2.856059e+003, 6.011380e-001
2.857988e+003, 6.015148e-001
2.859916e+003, 6.015274e-001
2.861844e+003, 6.013573e-001
2.863773e+003, 6.013938e-001
2.865701e+003, 6.013985e-001
2.867630e+003, 6.019400e-001
2.869558e+003, 6.017898e-001
2.871487e+003, 6.016967e-001
2.873415e+003, 6.020771e-001
2.875344e+003, 6.022605e-001
2.877272e+003, 6.023028e-001
2.879201e+003, 6.025643e-001
2.881129e+003, 6.032519e-001
2.883058e+003, 6.034626e-001
2.884986e+003, 6.036769e-001
2.886915e+003, 6.037482e-001
2.888843e+003, 6.040646e-001
2.890771e+003, 6.046554e-001
2.892700e+003, 6.050231e-001
2.894628e+003, 6.047308e-001
2.896557e+003, 6.043774e-001
2.898485e+003, 6.046661e-001
2.900414e+003, 6.056905e-001
2.902342e+003, 6.066794e-001
2.904271e+003, 6.068012e-001
2.906199e+003, 6.068434e-001
2.908128e+003, 6.076058e-001
2.910056e+003, 6.086260e-001
2.911985e+003, 6.091951e-001
2.913913e+003, 6.096793e-001
2.915842e+003, 6.100022e-001
2.917770e+003, 6.098270e-001
2.919698e+003, 6.096668e-001
2.921627e+003, 6.105541e-001
2.923555e+003, 6.113543e-001
2.925484e+003, 6.105017e-001
2.927412e+003, 6.105993e-001
2.929341e+003, 6.108899e-001
2.931269e+003, 6.097813e-001
2.933198e+003, 6.095981e-001
2.935126e+003, 6.101764e-001
2.937055e+003, 6.096406e-001
2.938983e+003, 6.089704e-001
2.940912e+003, 6.088431e-001
2.942840e+003, 6.089981e-001
2.944769e+003, 6.091339e-001
2.946697e+003, 6.091495e-001
2.948625e+003, 6.091849e-001
2.950554e+003, 6.098456e-001
2.952482e+003, 6.104963e-001
2.954411e+003, 6.107430e-001
2.956339e+003, 6.109071e-001
2.958268e+003, 6.107790e-001
2.960196e+003, 6.097617e-001
2.962125e+003, 6.091554e-001
2.964053e+003, 6.089886e-001
2.965982e+003, 6.093373e-001
2.967910e+003, 6.096706e-001
2.969839e+003, 6.094471e-001
2.971767e+003, 6.096398e-001
2.973696e+003, 6.093308e-001
2.975624e+003, 6.086292e-001
2.977552e+003, 6.085479e-001
2.979481e+003, 6.087872e-001
2.981409e+003, 6.092894e-001
2.983338e+003, 6.087913e-001
2.985266e+003, 6.088790e-001
2.987195e+003, 6.095184e-001
2.989123e+003, 6.101648e-001
2.991052e+003, 6.103689e-001
2.992980e+003, 6.102296e-001
2.994909e+003, 6.097759e-001
2.996837e+003, 6.100385e-001
2.998766e+003, 6.107792e-001
3.000694e+003, 6.105924e-001
3.002623e+003, 6.109830e-001
3.004551e+003, 6.117397e-001
3.006479e+003, 6.117617e-001
3.008408e+003, 6.121451e-001
3.010336e+003, 6.125938e-001
3.012265e+003, 6.128795e-001
3.014193e+003, 6.133203e-001
3.016122e+003, 6.137045e-001
3.018050e+003, 6.142289e-001
3.019979e+003, 6.142614e-001
3.021907e+003, 6.143088e-001
3.023836e+003, 6.140316e-001
3.025764e+003, 6.138166e-001
3.027693e+003, 6.142800e-001
3.029621e+003, 6.143502e-001
3.031550e+003, 6.146013e-001
3.033478e+003, 6.154646e-001
3.035406e+003, 6.153010e-001
3.037335e+003, 6.148660e-001
3.039263e+003, 6.154703e-001
3.041192e+003, 6.160571e-001
3.043120e+003, 6.158719e-001
3.045049e+003, 6.157663e-001
3.046977e+003, 6.165631e-001
3.048906e+003, 6.173660e-001
3.050834e+003, 6.174353e-001
3.052763e+003, 6.178751e-001
3.054691e+003, 6.182841e-001
3.056620e+003, 6.178480e-001
3.058548e+003, 6.175202e-001
3.060477e+003, 6.178906e-001
3.062405e+003, 6.184531e-001
3.064333e+003, 6.188269e-001
3.066262e+003, 6.190479e-001
3.068190e+003, 6.193045e-001
3.070119e+003, 6.190503e-001
3.072047e+003, 6.186548e-001
3.073976e+003, 6.191131e-001
3.075904e+003, 6.204752e-001
3.077833e+003, 6.205033e-001
3.079761e+003, 6.199713e-001
3.081690e+003, 6.202493e-001
3.083618e+003, 6.208519e-001
3.085547e+003, 6.215228e-001
3.087475e+003, 6.219474e-001
3.089404e+003, 6.216075e-001
3.091332e+003, 6.212420e-001
3.093260e+003, 6.223199e-001
3.095189e+003, 6.230487e-001
3.097117e+003, 6.224753e-001
3.099046e+003, 6.223303e-001
3.100974e+003, 6.230189e-001
3.102903e+003, 6.233157e-001
3.104831e+003, 6.237512e-001
3.106760e+003, 6.245447e-001
3.108688e+003, 6.242288e-001
3.110617e+003, 6.240702e-001
3.112545e+003, 6.242468e-001
3.114474e+003, 6.248185e-001
3.116402e+003, 6.247724e-001
3.118331e+003, 6.246111e-001
3.120259e+003, 6.254449e-001
3.122188e+003, 6.271685e-001
3.124116e+003, 6.275259e-001
3.126044e+003, 6.274328e-001
3.127973e+003, 6.262358e-001
3.129901e+003, 6.256980e-001
3.131830e+003, 6.268876e-001
3.133758e+003, 6.273435e-001
3.135687e+003, 6.277424e-001
3.137615e+003, 6.286043e-001
3.139544e+003, 6.286362e-001
3.141472e+003, 6.278027e-001
3.143401e+003, 6.284909e-001
3.145329e+003, 6.292989e-001
3.147258e+003, 6.294637e-001
3.149186e+003, 6.301658e-001
3.151115e+003, 6.306023e-001
3.153043e+003, 6.300485e-001
3.154971e+003, 6.300563e-001
3.156900e+003, 6.305602e-001
3.158828e+003, 6.300174e-001
3.160757e+003, 6.300304e-001
3.162685e+003, 6.311402e-001
3.164614e+003, 6.319485e-001
3.166542e+003, 6.320902e-001
3.168471e+003, 6.325008e-001
3.170399e+003, 6.327465e-001
3.172328e+003, 6.326376e-001
3.174256e+003, 6.328412e-001
3.176185e+003, 6.330858e-001
3.178113e+003, 6.328327e-001
3.180042e+003, 6.325125e-001
3.181970e+003, 6.328409e-001
3.183898e+003, 6.332477e-001
3.185827e+003, 6.328669e-001
3.187755e+003, 6.332601e-001
3.189684e+003, 6.345667e-001
3.191612e+003, 6.348785e-001
3.193541e+003, 6.345124e-001
3.195469e+003, 6.350189e-001
3.197398e+003, 6.354587e-001
3.199326e+003, 6.359018e-001
3.201255e+003, 6.361687e-001
3.203183e+003, 6.356276e-001
3.205112e+003, 6.356126e-001
3.207040e+003, 6.356584e-001
3.208969e+003, 6.367004e-001
3.210897e+003, 6.382222e-001
3.212825e+003, 6.392419e-001
3.214754e+003, 6.380638e-001
3.216682e+003, 6.363618e-001
3.218611e+003, 6.371079e-001
3.220539e+003, 6.381199e-001
3.222468e+003, 6.379128e-001
3.224396e+003, 6.382637e-001
3.226325e+003, 6.388824e-001
3.228253e+003, 6.394075e-001
3.230182e+003, 6.392425e-001
3.232110e+003, 6.391276e-001
3.234039e+003, 6.392331e-001
3.235967e+003, 6.391218e-001
3.237896e+003, 6.391415e-001
3.239824e+003, 6.396674e-001
3.241752e+003, 6.408157e-001
3.243681e+003, 6.409219e-001
3.245609e+003, 6.402382e-001
3.247538e+003, 6.411723e-001
3.249466e+003, 6.416235e-001
3.251395e+003, 6.416900e-001
3.253323e+003, 6.414968e-001
3.255252e+003, 6.409088e-001
3.257180e+003, 6.411602e-001
3.259109e+003, 6.420131e-001
3.261037e+003, 6.421866e-001
3.262966e+003, 6.423550e-001
3.264894e+003, 6.433727e-001
3.266823e+003, 6.435297e-001
3.268751e+003, 6.422333e-001
3.270679e+003, 6.421626e-001
3.272608e+003, 6.430779e-001
3.274536e+003, 6.435089e-001
3.276465e+003, 6.441592e-001
3.278393e+003, 6.445112e-001
3.280322e+003, 6.451133e-001
3.282250e+003, 6.457641e-001
3.284179e+003, 6.461339e-001
3.286107e+003, 6.463093e-001
3.288036e+003, 6.461550e-001
3.289964e+003, 6.456649e-001
3.291893e+003, 6.456274e-001
3.293821e+003, 6.456890e-001
3.295750e+003, 6.459299e-001
3.297678e+003, 6.468822e-001
3.299606e+003, 6.465837e-001
3.301535e+003, 6.463737e-001
3.303463e+003, 6.468945e-001
3.305392e+003, 6.463988e-001
3.307320e+003, 6.465243e-001
3.309249e+003, 6.472742e-001
3.311177e+003, 6.479947e-001
3.313106e+003, 6.487927e-001
3.315034e+003, 6.497836e-001
3.316963e+003, 6.496335e-001
3.318891e+003, 6.486170e-001
3.320820e+003, 6.486040e-001
3.322748e+003, 6.499212e-001
3.324677e+003, 6.502663e-001
3.326605e+003, 6.500717e-001
3.328533e+003, 6.508123e-001
3.330462e+003, 6.506771e-001
3.332390e+003, 6.497763e-001
3.334319e+003, 6.507252e-001
3.336247e+003, 6.521617e-001
3.338176e+003, 6.525893e-001
3.340104e+003, 6.526372e-001
3.342033e+003, 6.530991e-001
3.343961e+003, 6.529365e-001
3.345890e+003, 6.523008e-001
3.347818e+003, 6.521015e-001
3.349747e+003, 6.522157e-001
3.351675e+003, 6.532497e-001
3.353604e+003, 6.541104e-001
3.355532e+003, 6.540871e-001
3.357460e+003, 6.543477e-001
3.359389e+003, 6.539893e-001
3.361317e+003, 6.542483e-001
3.363246e+003, 6.552179e-001
3.365174e+003, 6.552144e-001
3.367103e+003, 6.545871e-001
3.369031e+003, 6.542835e-001
3.370960e+003, 6.541611e-001
3.372888e+003, 6.543632e-001
3.374817e+003, 6.557361e-001
3.376745e+003, 6.563782e-001
3.378674e+003, 6.561858e-001
3.380602e+003, 6.568582e-001
3.382531e+003, 6.568458e-001
3.384459e+003, 6.557624e-001
3.386387e+003, 6.557894e-001
3.388316e+003, 6.568870e-001
3.390244e+003, 6.583088e-001
3.392173e+003, 6.579178e-001
3.394101e+003, 6.567718e-001
3.396030e+003, 6.572803e-001
3.397958e+003, 6.582258e-001
3.399887e+003, 6.588193e-001
3.401815e+003, 6.584457e-001
3.403744e+003, 6.586200e-001
3.405672e+003, 6.597106e-001
3.407601e+003, 6.609001e-001
3.409529e+003, 6.610053e-001
3.411458e+003, 6.605532e-001
3.413386e+003, 6.606596e-001
3.415314e+003, 6.614481e-001
3.417243e+003, 6.622154e-001
3.419171e+003, 6.614699e-001
3.421100e+003, 6.613573e-001
3.423028e+003, 6.617982e-001
3.424957e+003, 6.612104e-001
3.426885e+003, 6.603088e-001
3.428814e+003, 6.606069e-001
3.430742e+003, 6.623768e-001
3.432671e+003, 6.636979e-001
3.434599e+003, 6.638669e-001
3.436528e+003, 6.638425e-001
3.438456e+003, 6.639439e-001
3.440385e+003, 6.637973e-001
3.442313e+003, 6.641284e-001
3.444241e+003, 6.644086e-001
3.446170e+003, 6.653723e-001
3.448098e+003, 6.653466e-001
3.450027e+003, 6.653209e-001
3.451955e+003, 6.651419e-001
3.453884e+003, 6.651495e-001
3.455812e+003, 6.645455e-001
3.457741e+003, 6.644632e-001
3.459669e+003, 6.649966e-001
3.461598e+003, 6.640627e-001
3.463526e+003, 6.634226e-001
3.465455e+003, 6.649949e-001
3.467383e+003, 6.671104e-001
3.469312e+003, 6.671299e-001
3.471240e+003, 6.659874e-001
3.473168e+003, 6.665244e-001
3.475097e+003, 6.668987e-001
3.477025e+003, 6.668201e-001
3.478954e+003, 6.659355e-001
3.480882e+003, 6.663796e-001
3.482811e+003, 6.679974e-001
3.484739e+003, 6.689917e-001
3.486668e+003, 6.698110e-001
3.488596e+003, 6.694661e-001
3.490525e+003, 6.695697e-001
3.492453e+003, 6.700857e-001
3.494382e+003, 6.703361e-001
3.496310e+003, 6.697918e-001
3.498239e+003, 6.699449e-001
3.500167e+003, 6.701787e-001
3.502095e+003, 6.691456e-001
3.504024e+003, 6.690434e-001
3.505952e+003, 6.708894e-001
3.507881e+003, 6.717474e-001
3.509809e+003, 6.716121e-001
3.511738e+003, 6.707746e-001
3.513666e+003, 6.705240e-001
3.515595e+003, 6.709937e-001
3.517523e+003, 6.719618e-001
3.519452e+003, 6.730092e-001
3.521380e+003, 6.725059e-001
3.523309e+003, 6.721173e-001
3.525237e+003, 6.719064e-001
3.527166e+003, 6.726933e-001
3.529094e+003, 6.734932e-001
3.531022e+003, 6.728917e-001
3.532951e+003, 6.728071e-001
3.534879e+003, 6.728902e-001
3.536808e+003, 6.730284e-001
3.538736e+003, 6.735335e-001
3.540665e+003, 6.733211e-001
3.542593e+003, 6.733705e-001
3.544522e+003, 6.748005e-001
3.546450e+003, 6.741496e-001
3.548379e+003, 6.749793e-001
3.550307e+003, 6.755992e-001
3.552236e+003, 6.748142e-001
3.554164e+003, 6.743850e-001
3.556093e+003, 6.759530e-001
3.558021e+003, 6.759997e-001
3.559949e+003, 6.749138e-001
3.561878e+003, 6.756020e-001
3.563806e+003, 6.761951e-001
3.565735e+003, 6.766823e-001
3.567663e+003, 6.752163e-001
3.569592e+003, 6.745342e-001
3.571520e+003, 6.749538e-001
3.573449e+003, 6.750798e-001
3.575377e+003, 6.759113e-001
3.577306e+003, 6.771300e-001
3.579234e+003, 6.779600e-001
3.581163e+003, 6.792769e-001
3.583091e+003, 6.786404e-001
3.585020e+003, 6.784992e-001
3.586948e+003, 6.797643e-001
3.588876e+003, 6.795133e-001
3.590805e+003, 6.780830e-001
3.592733e+003, 6.790041e-001
3.594662e+003, 6.804209e-001
3.596590e+003, 6.810285e-001
3.598519e+003, 6.814158e-001
3.600447e+003, 6.815299e-001
3.602376e+003, 6.804352e-001
3.604304e+003, 6.799928e-001
3.606233e+003, 6.817750e-001
3.608161e+003, 6.826308e-001
3.610090e+003, 6.834728e-001
3.612018e+003, 6.834708e-001
3.613947e+003, 6.825082e-001
3.615875e+003, 6.824612e-001
3.617803e+003, 6.833348e-001
3.619732e+003, 6.832356e-001
3.621660e+003, 6.829772e-001
3.623589e+003, 6.846467e-001
3.625517e+003, 6.861498e-001
3.627446e+003, 6.869974e-001
3.629374e+003, 6.867825e-001
3.631303e+003, 6.846734e-001
3.633231e+003, 6.830798e-001
3.635160e+003, 6.847876e-001
3.637088e+003, 6.859739e-001
3.639017e+003, 6.853977e-001
3.640945e+003, 6.849466e-001
3.642874e+003, 6.857532e-001
3.644802e+003, 6.879185e-001
3.646730e+003, 6.885324e-001
3.648659e+003, 6.878744e-001
3.650587e+003, 6.877941e-001
3.652516e+003, 6.872871e-001
3.654444e+003, 6.873432e-001
3.656373e+003, 6.891060e-001
3.658301e+003, 6.901525e-001
3.660230e+003, 6.899179e-001
3.662158e+003, 6.893494e-001
3.664087e+003, 6.894608e-001
3.666015e+003, 6.904813e-001
3.667944e+003, 6.913617e-001
3.669872e+003, 6.906610e-001
3.671801e+003, 6.897214e-001
3.673729e+003, 6.901852e-001
3.675657e+003, 6.911986e-001
3.677586e+003, 6.910011e-001
3.679514e+003, 6.908361e-001
3.681443e+003, 6.905751e-001
3.683371e+003, 6.915522e-001
3.685300e+003, 6.933603e-001
3.687228e+003, 6.939206e-001
3.689157e+003, 6.944543e-001
3.691085e+003, 6.939727e-001
3.693014e+003, 6.935441e-001
3.694942e+003, 6.934794e-001
3.696871e+003, 6.935601e-001
3.698799e+003, 6.941438e-001
3.700728e+003, 6.939898e-001
3.702656e+003, 6.938801e-001
3.704584e+003, 6.949883e-001
3.706513e+003, 6.952884e-001
3.708441e+003, 6.955335e-001
3.710370e+003, 6.957568e-001
3.712298e+003, 6.971218e-001
3.714227e+003, 6.982842e-001
3.716155e+003, 6.977555e-001
3.718084e+003, 6.958469e-001
3.720012e+003, 6.969136e-001
3.721941e+003, 7.003510e-001
3.723869e+003, 7.014453e-001
3.725798e+003, 6.995863e-001
3.727726e+003, 6.990179e-001
3.729655e+003, 7.003881e-001
3.731583e+003, 7.017350e-001
3.733511e+003, 7.029513e-001
3.735440e+003, 7.034543e-001
3.737368e+003, 7.026551e-001
3.739297e+003, 7.018986e-001
3.741225e+003, 7.015833e-001
3.743154e+003, 7.033364e-001
3.745082e+003, 7.045690e-001
3.747011e+003, 7.031235e-001
3.748939e+003, 7.032444e-001
3.750868e+003, 7.040238e-001
3.752796e+003, 7.051781e-001
3.754725e+003, 7.046738e-001
3.756653e+003, 7.034972e-001
3.758582e+003, 7.027251e-001
3.760510e+003, 7.023563e-001
3.762438e+003, 7.026622e-001
3.764367e+003, 7.034814e-001
3.766295e+003, 7.040580e-001
3.768224e+003, 7.039316e-001
3.770152e+003, 7.044244e-001
3.772081e+003, 7.054306e-001
3.774009e+003, 7.058451e-001
3.775938e+003, 7.063165e-001
3.777866e+003, 7.061059e-001
3.779795e+003, 7.058184e-001
3.781723e+003, 7.057232e-001
3.783652e+003, 7.053591e-001
3.785580e+003, 7.058566e-001
3.787509e+003, 7.071491e-001
3.789437e+003, 7.070605e-001
3.791365e+003, 7.073425e-001
3.793294e+003, 7.084302e-001
3.795222e+003, 7.092667e-001
3.797151e+003, 7.092021e-001
3.799079e+003, 7.081442e-001
3.801008e+003, 7.089161e-001
3.802936e+003, 7.088000e-001
3.804865e+003, 7.095522e-001
3.806793e+003, 7.110184e-001
3.808722e+003, 7.093892e-001
3.810650e+003, 7.091245e-001
3.812579e+003, 7.092831e-001
3.814507e+003, 7.103598e-001
3.816436e+003, 7.104360e-001
3.818364e+003, 7.103158e-001
3.820292e+003, 7.131073e-001
3.822221e+003, 7.137827e-001
3.824149e+003, 7.127863e-001
3.826078e+003, 7.130217e-001
3.828006e+003, 7.117633e-001
3.829935e+003, 7.129637e-001
3.831863e+003, 7.140433e-001
3.833792e+003, 7.136009e-001
3.835720e+003, 7.144721e-001
3.837649e+003, 7.149610e-001
3.839577e+003, 7.147633e-001
3.841506e+003, 7.146396e-001
3.843434e+003, 7.154092e-001
3.845363e+003, 7.161016e-001
3.847291e+003, 7.167433e-001
3.849219e+003, 7.166343e-001
3.851148e+003, 7.168463e-001
3.853076e+003, 7.178797e-001
3.855005e+003, 7.188181e-001
3.856933e+003, 7.181323e-001
3.858862e+003, 7.172453e-001
3.860790e+003, 7.171760e-001
3.862719e+003, 7.174845e-001
3.864647e+003, 7.182593e-001
3.866576e+003, 7.199866e-001
3.868504e+003, 7.200192e-001
3.870433e+003, 7.189260e-001
3.872361e+003, 7.182371e-001
3.874290e+003, 7.177932e-001
3.876218e+003, 7.182318e-001
3.878146e+003, 7.179456e-001
3.880075e+003, 7.170415e-001
3.882003e+003, 7.185419e-001
3.883932e+003, 7.216598e-001
3.885860e+003, 7.233184e-001
3.887789e+003, 7.218672e-001
3.889717e+003, 7.205557e-001
3.891646e+003, 7.210690e-001
3.893574e+003, 7.226266e-001
3.895503e+003, 7.234036e-001
3.897431e+003, 7.234358e-001
3.899360e+003, 7.230942e-001
3.901288e+003, 7.228101e-001
3.903217e+003, 7.227750e-001
3.905145e+003, 7.238791e-001
3.907073e+003, 7.248502e-001
3.909002e+003, 7.241282e-001
3.910930e+003, 7.245427e-001
3.912859e+003, 7.248773e-001
3.914787e+003, 7.241357e-001
3.916716e+003, 7.236689e-001
3.918644e+003, 7.256560e-001
3.920573e+003, 7.256240e-001
3.922501e+003, 7.244680e-001
3.924430e+003, 7.251257e-001
3.926358e+003, 7.270512e-001
3.928287e+003, 7.286927e-001
3.930215e+003, 7.284232e-001
3.932144e+003, 7.284759e-001
3.934072e+003, 7.279693e-001
3.936000e+003, 7.269248e-001
3.937929e+003, 7.276301e-001
3.939857e+003, 7.291462e-001
3.941786e+003, 7.297581e-001
3.943714e+003, 7.290418e-001
3.945643e+003, 7.282957e-001
3.947571e+003, 7.284763e-001
3.949500e+003, 7.291109e-001
3.951428e+003, 7.305460e-001
3.953357e+003, 7.311801e-001
3.955285e+003, 7.320149e-001
3.957214e+003, 7.321256e-001
3.959142e+003, 7.323579e-001
3.961071e+003, 7.320533e-001
3.962999e+003, 7.322400e-001
3.964927e+003, 7.315717e-001
3.966856e+003, 7.311455e-001
3.968784e+003, 7.323368e-001
3.970713e+003, 7.332337e-001
3.972641e+003, 7.340035e-001
3.974570e+003, 7.350455e-001
3.976498e+003, 7.354687e-001
3.978427e+003, 7.348365e-001
3.980355e+003, 7.334449e-001
3.982284e+003, 7.332561e-001
3.984212e+003, 7.344305e-001
3.986141e+003, 7.354339e-001
3.988069e+003, 7.346683e-001
3.989998e+003, 7.357264e-001
3.991926e+003, 7.372634e-001
3.993854e+003, 7.388155e-001
3.995783e+003, 7.394642e-001
3.997711e+003, 7.386165e-001
3.999640e+003, 7.381157e-001
4.001568e+003, 0.000000e+000
##END=



