##NAMES=Braunite
##RRUFFID=R050390
##IDEAL CHEMISTRY=Mn^2+^Mn^3+^_6_SiO_12_
##LOCALITY=Oehrenstock, Thuringia, Germany
##OWNER=RRUFF
##SOURCE=University of Arizona Mineral Museum
##DESCRIPTION=Mass of black octahedra
##STATUS=The identification of this mineral has been confirmed by X-ray diffraction and chemical analysis
##URL=rruff.info/R050390
##MEASURED CHEMISTRY=(Mn^2+^_0.83_Ca_0.17_)_Î£=1_Mn^3+^_6.00_Si_1.00_O_12_
399.1926, 0.1868292
401.1211, 0.1920014
403.0496, 0.1929245
404.9780, 0.1993801
406.9065, 0.2100152
408.8350, 0.2121240
410.7634, 0.2123643
412.6919, 0.2135758
414.6204, 0.2206409
416.5488, 0.2231945
418.4773, 0.2227690
420.4058, 0.2229802
422.3342, 0.2244005
424.2627, 0.2252431
426.1912, 0.2262255
428.1196, 0.2323911
430.0481, 0.2393207
431.9766, 0.2409819
433.9050, 0.2420882
435.8335, 0.2466455
437.7620, 0.2502228
439.6904, 0.2507381
441.6189, 0.2524487
443.5474, 0.2547868
445.4758, 0.2550988
447.4043, 0.2517182
449.3328, 0.2484086
451.2612, 0.2441035
453.1897, 0.2390594
455.1182, 0.2366834
457.0466, 0.2396794
458.9751, 0.2431297
460.9036, 0.2444455
462.8320, 0.2447000
464.7605, 0.2475298
466.6890, 0.2513864
468.6174, 0.2542408
470.5459, 0.2570561
472.4744, 0.2582638
474.4028, 0.2581014
476.3313, 0.2588186
478.2598, 0.2574985
480.1882, 0.2559469
482.1167, 0.2543723
484.0452, 0.2536615
485.9736, 0.2529969
487.9021, 0.2527386
489.8306, 0.2545491
491.7590, 0.2571262
493.6875, 0.2601088
495.6160, 0.2653733
497.5444, 0.2688743
499.4729, 0.2698424
501.4014, 0.2699631
503.3298, 0.2711715
505.2583, 0.2732131
507.1868, 0.2707268
509.1152, 0.2683012
511.0437, 0.2680937
512.9722, 0.2660868
514.9006, 0.2626146
516.8291, 0.2593871
518.7576, 0.2558058
520.6860, 0.2514326
522.6145, 0.2458802
524.5430, 0.2380503
526.4714, 0.2314832
528.3999, 0.2259098
530.3284, 0.2206745
532.2568, 0.2177497
534.1853, 0.2158663
536.1138, 0.2149025
538.0422, 0.2144026
539.9707, 0.2162989
541.8992, 0.2200635
543.8276, 0.2224987
545.7561, 0.2236038
547.6846, 0.2253099
549.6130, 0.2254586
551.5415, 0.2208460
553.4700, 0.2137192
555.3984, 0.2057297
557.3269, 0.1973035
559.2554, 0.1900318
561.1838, 0.1835597
563.1123, 0.1796482
565.0408, 0.1775321
566.9692, 0.1770426
568.8977, 0.1793468
570.8262, 0.1835107
572.7546, 0.1894007
574.6831, 0.1976011
576.6116, 0.2072147
578.5400, 0.2167318
580.4685, 0.2259458
582.3970, 0.2353511
584.3254, 0.2443476
586.2539, 0.2522849
588.1824, 0.2589595
590.1108, 0.2658996
592.0393, 0.2726363
593.9678, 0.2775077
595.8962, 0.2815807
597.8247, 0.2839561
599.7532, 0.2848956
601.6816, 0.2848522
603.6101, 0.2835478
605.5386, 0.2803834
607.4670, 0.2757825
609.3955, 0.2718212
611.3240, 0.2684023
613.2524, 0.2634696
615.1809, 0.2581636
617.1094, 0.2519966
619.0378, 0.2456178
620.9663, 0.2392710
622.8948, 0.2333945
624.8232, 0.2270771
626.7517, 0.2206304
628.6802, 0.2146610
630.6086, 0.2093448
632.5371, 0.2040628
634.4656, 0.1981657
636.3940, 0.1921477
638.3225, 0.1867707
640.2510, 0.1819569
642.1794, 0.1772556
644.1079, 0.1726226
646.0364, 0.1679620
647.9648, 0.1626395
649.8933, 0.1575093
651.8218, 0.1525679
653.7502, 0.1481115
655.6787, 0.1430906
657.6072, 0.1384922
659.5356, 0.1341180
661.4641, 0.1294549
663.3926, 0.1246861
665.3210, 0.1206990
667.2495, 0.1173597
669.1780, 0.1139411
671.1064, 0.1106016
673.0349, 0.1080158
674.9634, 0.1053310
676.8918, 0.1025119
678.8203, 0.1006314
680.7488, 9.9256940E-02
682.6772, 9.8493733E-02
684.6057, 9.7779647E-02
686.5342, 9.6710317E-02
688.4626, 9.5858663E-02
690.3911, 9.5634200E-02
692.3196, 9.6299291E-02
694.2480, 9.7393312E-02
696.1765, 9.8509736E-02
698.1050, 0.1000405
700.0334, 0.1024333
701.9619, 0.1048682
703.8904, 0.1064023
705.8188, 0.1064474
707.7473, 0.1057176
709.6758, 0.1033988
711.6042, 9.9231564E-02
713.5327, 9.4176210E-02
715.4612, 8.8330477E-02
717.3896, 8.1898712E-02
719.3181, 7.5492337E-02
721.2466, 6.9499873E-02
723.1750, 6.3720360E-02
725.1035, 5.8383171E-02
727.0320, 5.3511150E-02
728.9604, 4.9164038E-02
730.8889, 4.5953531E-02
732.8174, 4.3099280E-02
734.7458, 4.0199589E-02
736.6743, 3.8024351E-02
738.6028, 3.6299858E-02
740.5313, 3.5076410E-02
742.4597, 3.4524620E-02
744.3882, 3.3716731E-02
746.3167, 3.2620519E-02
748.2451, 3.2096211E-02
750.1736, 3.1945869E-02
752.1021, 3.1619340E-02
754.0305, 3.1254008E-02
755.9590, 3.0967951E-02
757.8875, 3.1103389E-02
759.8159, 3.1410351E-02
761.7444, 3.1819221E-02
763.6729, 3.2037899E-02
765.6013, 3.2672141E-02
767.5298, 3.3176150E-02
769.4583, 3.3720531E-02
771.3867, 3.4498520E-02
773.3152, 3.5234530E-02
775.2437, 3.5838500E-02
777.1721, 3.6542691E-02
779.1006, 3.7459571E-02
781.0291, 3.8508780E-02
782.9575, 3.9657019E-02
784.8860, 4.0744290E-02
786.8145, 4.1908652E-02
788.7429, 4.3551330E-02
790.6714, 4.5225620E-02
792.5999, 4.6688352E-02
794.5283, 4.8315391E-02
796.4568, 5.0081071E-02
798.3853, 5.1564299E-02
800.3137, 5.3273778E-02
802.2422, 5.5506021E-02
804.1707, 5.7929799E-02
806.0991, 5.9834510E-02
808.0276, 6.1427761E-02
809.9561, 6.3021518E-02
811.8845, 6.4490192E-02
813.8130, 6.5926626E-02
815.7415, 6.7337431E-02
817.6699, 6.8920016E-02
819.5984, 7.0672587E-02
821.5269, 7.2501689E-02
823.4553, 7.4230842E-02
825.3838, 7.5768061E-02
827.3123, 7.7739619E-02
829.2407, 7.9306848E-02
831.1692, 8.0594420E-02
833.0977, 8.1919543E-02
835.0261, 8.3105333E-02
836.9546, 8.4323034E-02
838.8831, 8.5501909E-02
840.8115, 8.6705863E-02
842.7400, 8.7279670E-02
844.6685, 8.7545037E-02
846.5969, 8.8081174E-02
848.5254, 8.8525683E-02
850.4539, 8.8394709E-02
852.3823, 8.7943614E-02
854.3108, 8.8096090E-02
856.2393, 8.8334411E-02
858.1677, 8.8637739E-02
860.0962, 8.9148410E-02
862.0247, 8.9531757E-02
863.9531, 8.9885563E-02
865.8816, 9.0397589E-02
867.8101, 9.1105387E-02
869.7385, 9.2230491E-02
871.6670, 9.3350083E-02
873.5955, 9.4122201E-02
875.5239, 9.5490158E-02
877.4524, 9.6978411E-02
879.3809, 9.8490037E-02
881.3093, 0.1007704
883.2378, 0.1033018
885.1663, 0.1060347
887.0947, 0.1089492
889.0232, 0.1121023
890.9517, 0.1159425
892.8801, 0.1203898
894.8085, 0.1253232
896.7370, 0.1306672
898.6655, 0.1360633
900.5939, 0.1414077
902.5224, 0.1463953
904.4509, 0.1518365
906.3793, 0.1574892
908.3078, 0.1629609
910.2363, 0.1693191
912.1647, 0.1761869
914.0932, 0.1834672
916.0217, 0.1918325
917.9501, 0.2009557
919.8786, 0.2105336
921.8071, 0.2205447
923.7355, 0.2302743
925.6640, 0.2388347
927.5925, 0.2465900
929.5209, 0.2533338
931.4494, 0.2588675
933.3779, 0.2622554
935.3063, 0.2636846
937.2348, 0.2635995
939.1633, 0.2617249
941.0917, 0.2582297
943.0202, 0.2524915
944.9487, 0.2455966
946.8771, 0.2380522
948.8056, 0.2299547
950.7341, 0.2211329
952.6625, 0.2106501
954.5910, 0.1985471
956.5195, 0.1855718
958.4479, 0.1725651
960.3764, 0.1595185
962.3049, 0.1464272
964.2333, 0.1336071
966.1618, 0.1210210
968.0903, 0.1087193
970.0187, 9.6458979E-02
971.9472, 8.4404081E-02
973.8757, 7.3358469E-02
975.8041, 6.3624777E-02
977.7326, 5.5643890E-02
979.6611, 4.9493741E-02
981.5895, 4.5072012E-02
983.5180, 4.1870572E-02
985.4465, 3.9179970E-02
987.3749, 3.6732782E-02
989.3034, 3.4576740E-02
991.2319, 3.2628018E-02
993.1603, 3.0973811E-02
995.0888, 2.9633030E-02
997.0173, 2.8423000E-02
998.9457, 2.7538750E-02
1000.874, 2.6747171E-02
1002.803, 2.5944071E-02
1004.731, 2.5559811E-02
1006.660, 2.5057821E-02
1008.588, 2.4786331E-02
1010.517, 2.4878509E-02
1012.445, 2.4856649E-02
1014.373, 2.4434291E-02
1016.302, 2.3963081E-02
1018.230, 2.3480579E-02
1020.159, 2.3324519E-02
1022.087, 2.3360360E-02
1024.016, 2.3077900E-02
1025.944, 2.2927420E-02
1027.873, 2.2939609E-02
1029.801, 2.3184489E-02
1031.730, 2.3422370E-02
1033.658, 2.3801280E-02
1035.587, 2.3891561E-02
1037.515, 2.3717580E-02
1039.444, 2.3836231E-02
1041.372, 2.4065239E-02
1043.301, 2.4318259E-02
1045.229, 2.4532350E-02
1047.157, 2.4798770E-02
1049.086, 2.5262879E-02
1051.014, 2.5518119E-02
1052.943, 2.5487909E-02
1054.871, 2.5696710E-02
1056.800, 2.6079660E-02
1058.728, 2.6587600E-02
1060.657, 2.7085951E-02
1062.585, 2.7493950E-02
1064.514, 2.7888659E-02
1066.442, 2.8252279E-02
1068.371, 2.8973250E-02
1070.299, 2.9402349E-02
1072.228, 3.0167861E-02
1074.156, 3.1309608E-02
1076.084, 3.2126412E-02
1078.013, 3.2911692E-02
1079.941, 3.3499669E-02
1081.870, 3.4196690E-02
1083.798, 3.4579091E-02
1085.727, 3.4944680E-02
1087.655, 3.5705511E-02
1089.584, 3.6391169E-02
1091.512, 3.6925159E-02
1093.441, 3.7394792E-02
1095.369, 3.7631981E-02
1097.298, 3.8115110E-02
1099.226, 3.8909990E-02
1101.155, 3.9384481E-02
1103.083, 3.9733481E-02
1105.011, 4.0583991E-02
1106.940, 4.1212261E-02
1108.868, 4.1544650E-02
1110.797, 4.2217001E-02
1112.725, 4.3362450E-02
1114.654, 4.4538561E-02
1116.582, 4.5427620E-02
1118.511, 4.5859359E-02
1120.439, 4.6314750E-02
1122.368, 4.6729609E-02
1124.296, 4.7210239E-02
1126.225, 4.7624189E-02
1128.153, 4.7601052E-02
1130.082, 4.7749110E-02
1132.010, 4.7736920E-02
1133.938, 4.7728200E-02
1135.867, 4.7436941E-02
1137.795, 4.7493368E-02
1139.724, 4.7651649E-02
1141.652, 4.7591232E-02
1143.581, 4.7409128E-02
1145.509, 4.7127850E-02
1147.438, 4.6817131E-02
1149.366, 4.6845280E-02
1151.295, 4.7076371E-02
1153.223, 4.7045991E-02
1155.152, 4.7008939E-02
1157.080, 4.6704110E-02
1159.009, 4.6355098E-02
1160.937, 4.6432272E-02
1162.865, 4.6466690E-02
1164.794, 4.6128999E-02
1166.722, 4.5905959E-02
1168.651, 4.5829918E-02
1170.579, 4.6047609E-02
1172.508, 4.6385240E-02
1174.436, 4.6763539E-02
1176.365, 4.7246289E-02
1178.293, 4.7847401E-02
1180.222, 4.8313510E-02
1182.150, 4.8657130E-02
1184.079, 4.8894711E-02
1186.007, 4.9269121E-02
1187.936, 4.9314540E-02
1189.864, 4.9288809E-02
1191.792, 4.9342059E-02
1193.721, 4.9014430E-02
1195.649, 4.8492081E-02
1197.578, 4.8280410E-02
1199.506, 4.7978710E-02
1201.435, 4.7594279E-02
1203.363, 4.7261771E-02
1205.292, 4.6793010E-02
1207.220, 4.6482671E-02
1209.149, 4.6634760E-02
1211.077, 4.6714839E-02
1213.006, 4.6724401E-02
1214.934, 4.6884369E-02
1216.863, 4.7000490E-02
1218.791, 4.7171649E-02
1220.719, 4.7482859E-02
1222.648, 4.7642950E-02
1224.576, 4.7653340E-02
1226.505, 4.7683280E-02
1228.433, 4.7868650E-02
1230.362, 4.8129071E-02
1232.290, 4.8434120E-02
1234.219, 4.8812639E-02
1236.147, 4.8650600E-02
1238.076, 4.8688821E-02
1240.004, 4.9103200E-02
1241.933, 4.9347870E-02
1243.861, 4.9335621E-02
1245.790, 4.9429119E-02
1247.718, 4.9439281E-02
1249.646, 4.9485531E-02
1251.575, 4.9569979E-02
1253.503, 4.9852371E-02
1255.432, 5.0026860E-02
1257.360, 4.9704511E-02
1259.289, 4.9712978E-02
1261.217, 5.0062262E-02
1263.146, 5.0321352E-02
1265.074, 5.0704479E-02
1267.003, 5.0918441E-02
1268.931, 5.1163670E-02
1270.860, 5.1434860E-02
1272.788, 5.1678989E-02
1274.717, 5.1680449E-02
1276.645, 5.1792130E-02
1278.573, 5.2137680E-02
1280.502, 5.2670911E-02
1282.430, 5.2897770E-02
1284.359, 5.3127181E-02
1286.287, 5.3643990E-02
1288.216, 5.4127179E-02
1290.144, 5.4576941E-02
1292.073, 5.4936271E-02
1294.001, 5.5026069E-02
1295.930, 5.5099260E-02
1297.858, 5.5449471E-02
1299.787, 5.6001689E-02
1301.715, 5.6665301E-02
1303.644, 5.7190761E-02
1305.572, 5.7407081E-02
1307.500, 5.7505742E-02
1309.429, 5.7659741E-02
1311.357, 5.7970721E-02
1313.286, 5.8594640E-02
1315.214, 5.9221528E-02
1317.143, 5.9617750E-02
1319.071, 5.9916671E-02
1321.000, 6.0341179E-02
1322.928, 6.0856290E-02
1324.857, 6.1284181E-02
1326.785, 6.1534990E-02
1328.714, 6.1977990E-02
1330.642, 6.2475860E-02
1332.571, 6.2870257E-02
1334.499, 6.3190542E-02
1336.427, 6.3632973E-02
1338.356, 6.3920587E-02
1340.284, 6.4048290E-02
1342.213, 6.4466409E-02
1344.141, 6.4961009E-02
1346.070, 6.5251201E-02
1347.998, 6.5590993E-02
1349.927, 6.6081457E-02
1351.855, 6.6517837E-02
1353.784, 6.6693217E-02
1355.712, 6.7214549E-02
1357.641, 6.7505553E-02
1359.569, 6.7903318E-02
1361.498, 6.8723343E-02
1363.426, 6.9235563E-02
1365.354, 6.9458283E-02
1367.283, 6.9907174E-02
1369.211, 7.0319124E-02
1371.140, 7.0480347E-02
1373.068, 7.0629656E-02
1374.997, 7.0987552E-02
1376.925, 7.1157098E-02
1378.854, 7.1269937E-02
1380.782, 7.1521923E-02
1382.711, 7.1756080E-02
1384.639, 7.2504178E-02
1386.568, 7.3145263E-02
1388.496, 7.3042244E-02
1390.424, 7.2941013E-02
1392.353, 7.3126093E-02
1394.281, 7.3396184E-02
1396.210, 7.3938362E-02
1398.138, 7.4317276E-02
1400.067, 7.4336849E-02
1401.995, 7.4083216E-02
1403.924, 7.4230738E-02
1405.852, 7.4845307E-02
1407.781, 7.5472161E-02
1409.709, 7.5497553E-02
1411.638, 7.5415879E-02
1413.566, 7.5820208E-02
1415.495, 7.6326713E-02
1417.423, 7.6762967E-02
1419.351, 7.7355377E-02
1421.280, 7.7877380E-02
1423.208, 7.8411497E-02
1425.137, 7.8672752E-02
1427.065, 7.8922972E-02
1428.994, 7.9367660E-02
1430.922, 7.9520777E-02
1432.851, 7.9833172E-02
1434.779, 8.0016471E-02
1436.708, 8.0119997E-02
1438.636, 8.0479249E-02
1440.565, 8.0733307E-02
1442.493, 8.0821753E-02
1444.422, 8.0766909E-02
1446.350, 8.0803998E-02
1448.278, 8.0941640E-02
1450.207, 8.1100568E-02
1452.135, 8.1377223E-02
1454.064, 8.1466757E-02
1455.992, 8.1660718E-02
1457.921, 8.1357308E-02
1459.849, 8.0985203E-02
1461.778, 8.1547983E-02
1463.706, 8.2051903E-02
1465.635, 8.1891321E-02
1467.563, 8.1788182E-02
1469.492, 8.1972279E-02
1471.420, 8.2226880E-02
1473.349, 8.2296342E-02
1475.277, 8.2109109E-02
1477.205, 8.2069688E-02
1479.134, 8.2133546E-02
1481.062, 8.2274713E-02
1482.991, 8.2363456E-02
1484.919, 8.2444459E-02
1486.848, 8.2668327E-02
1488.776, 8.2669310E-02
1490.705, 8.3006337E-02
1492.633, 8.3677478E-02
1494.562, 8.4140092E-02
1496.490, 8.4447622E-02
1498.419, 8.4859557E-02
1500.347, 8.5421219E-02
1502.276, 8.5609339E-02
1504.204, 8.5507967E-02
1506.132, 8.5598513E-02
1508.061, 8.6115614E-02
1509.989, 8.6352997E-02
1511.918, 8.6282097E-02
1513.846, 8.6108603E-02
1515.775, 8.6013407E-02
1517.703, 8.6151667E-02
1519.632, 8.6575672E-02
1521.560, 8.7012351E-02
1523.489, 8.7438487E-02
1525.417, 8.7703973E-02
1527.346, 8.7795436E-02
1529.274, 8.8042520E-02
1531.203, 8.8516258E-02
1533.131, 8.8903971E-02
1535.059, 8.8991262E-02
1536.988, 8.9406893E-02
1538.916, 8.9984693E-02
1540.845, 9.0255529E-02
1542.773, 9.0463139E-02
1544.702, 9.0694621E-02
1546.630, 9.0907827E-02
1548.559, 9.1259673E-02
1550.487, 9.1485769E-02
1552.416, 9.1553241E-02
1554.344, 9.1609403E-02
1556.273, 9.2263870E-02
1558.201, 9.3171917E-02
1560.130, 9.3155839E-02
1562.058, 9.3110897E-02
1563.986, 9.3117490E-02
1565.915, 9.3503617E-02
1567.843, 9.3681648E-02
1569.772, 9.3860619E-02
1571.700, 9.4496548E-02
1573.629, 9.4727360E-02
1575.557, 9.4638810E-02
1577.486, 9.4757773E-02
1579.414, 9.4695091E-02
1581.343, 9.4799533E-02
1583.271, 9.5307559E-02
1585.200, 9.5536277E-02
1587.128, 9.5740072E-02
1589.057, 9.5830567E-02
1590.985, 9.6042819E-02
1592.913, 9.6435361E-02
1594.842, 9.6535042E-02
1596.770, 9.6568763E-02
1598.699, 9.6680343E-02
1600.627, 9.7065903E-02
1602.556, 9.7464979E-02
1604.484, 9.7834453E-02
1606.413, 9.7768568E-02
1608.341, 9.7744703E-02
1610.270, 9.7879320E-02
1612.198, 9.8250717E-02
1614.127, 9.8554611E-02
1616.055, 9.8543324E-02
1617.984, 9.8512508E-02
1619.912, 9.8468393E-02
1621.840, 9.9103481E-02
1623.769, 9.9850677E-02
1625.697, 9.9907771E-02
1627.626, 0.1000858
1629.554, 0.1005565
1631.483, 0.1006050
1633.411, 0.1007310
1635.340, 0.1009546
1637.268, 0.1012367
1639.197, 0.1016820
1641.125, 0.1020298
1643.054, 0.1021700
1644.982, 0.1021691
1646.911, 0.1025122
1648.839, 0.1028360
1650.767, 0.1026738
1652.696, 0.1024546
1654.624, 0.1027244
1656.553, 0.1030316
1658.481, 0.1034748
1660.410, 0.1038127
1662.338, 0.1039190
1664.267, 0.1038169
1666.195, 0.1033889
1668.124, 0.1035206
1670.052, 0.1041567
1671.981, 0.1042986
1673.909, 0.1039998
1675.838, 0.1038434
1677.766, 0.1041270
1679.694, 0.1043668
1681.623, 0.1047408
1683.551, 0.1047681
1685.480, 0.1045270
1687.408, 0.1045712
1689.337, 0.1046311
1691.265, 0.1045351
1693.194, 0.1047834
1695.122, 0.1049376
1697.051, 0.1047345
1698.979, 0.1047464
1700.908, 0.1053248
1702.836, 0.1058960
1704.765, 0.1061588
1706.693, 0.1059164
1708.621, 0.1056758
1710.550, 0.1059492
1712.478, 0.1062147
1714.407, 0.1064706
1716.335, 0.1070625
1718.264, 0.1075835
1720.192, 0.1079468
1722.121, 0.1087492
1724.049, 0.1089670
1725.978, 0.1089618
1727.906, 0.1092196
1729.835, 0.1088846
1731.763, 0.1087224
1733.692, 0.1088718
1735.620, 0.1087870
1737.548, 0.1088638
1739.477, 0.1088603
1741.405, 0.1082623
1743.334, 0.1087995
1745.262, 0.1090819
1747.191, 0.1085299
1749.119, 0.1088626
1751.048, 0.1098804
1752.976, 0.1103560
1754.905, 0.1106076
1756.833, 0.1111762
1758.762, 0.1115781
1760.690, 0.1118758
1762.619, 0.1123229
1764.547, 0.1130792
1766.475, 0.1133865
1768.404, 0.1139022
1770.332, 0.1139104
1772.261, 0.1131763
1774.189, 0.1131952
1776.118, 0.1133953
1778.046, 0.1134598
1779.975, 0.1135825
1781.903, 0.1139942
1783.832, 0.1142762
1785.760, 0.1146209
1787.689, 0.1146312
1789.617, 0.1141009
1791.546, 0.1138655
1793.474, 0.1137408
1795.402, 0.1136536
1797.331, 0.1141488
1799.259, 0.1148952
1801.188, 0.1149811
1803.116, 0.1149262
1805.045, 0.1149112
1806.973, 0.1150632
1808.902, 0.1151101
1810.830, 0.1153236
1812.759, 0.1158114
1814.687, 0.1155054
1816.616, 0.1158006
1818.544, 0.1163540
1820.473, 0.1162284
1822.401, 0.1161247
1824.329, 0.1162252
1826.258, 0.1164114
1828.186, 0.1167594
1830.115, 0.1170091
1832.043, 0.1175136
1833.972, 0.1178695
1835.900, 0.1178322
1837.829, 0.1183622
1839.757, 0.1189830
1841.686, 0.1190469
1843.614, 0.1188818
1845.543, 0.1184097
1847.471, 0.1180911
1849.400, 0.1181026
1851.328, 0.1187245
1853.256, 0.1191609
1855.185, 0.1182262
1857.113, 0.1177182
1859.042, 0.1179778
1860.970, 0.1186949
1862.899, 0.1190890
1864.827, 0.1196873
1866.756, 0.1197914
1868.684, 0.1188076
1870.613, 0.1194031
1872.541, 0.1207301
1874.470, 0.1211160
1876.398, 0.1204180
1878.327, 0.1200588
1880.255, 0.1205444
1882.183, 0.1202590
1884.112, 0.1194244
1886.040, 0.1200065
1887.969, 0.1211248
1889.897, 0.1209794
1891.826, 0.1214481
1893.754, 0.1221763
1895.683, 0.1220992
1897.611, 0.1211978
1899.540, 0.1213377
1901.468, 0.1225135
1903.397, 0.1222269
1905.325, 0.1209807
1907.254, 0.1211146
1909.182, 0.1208404
1911.110, 0.1201912
1913.039, 0.1209966
1914.967, 0.1222592
1916.896, 0.1229512
1918.824, 0.1230925
1920.753, 0.1226592
1922.681, 0.1225082
1924.610, 0.1216071
1926.538, 0.1226093
1928.467, 0.1229701
1930.395, 0.1235316
1932.324, 0.1248656
1934.252, 0.1237557
1936.181, 0.1237160
1938.109, 0.1247427
1940.037, 0.1247531
1941.966, 0.1257406
1943.894, 0.1262457
1945.823, 0.1255792
1947.751, 0.1257255
1949.680, 0.1242834
1951.608, 0.1244518
1953.537, 0.1247284
1955.465, 0.1243825
1957.394, 0.1248006
1959.322, 0.1253172
1961.251, 0.1261140
1963.179, 0.1255560
1965.108, 0.1248673
1967.036, 0.1264839
1968.964, 0.1281242
1970.893, 0.1286922
1972.821, 0.1295646
1974.750, 0.1292208
1976.678, 0.1309085
1978.607, 0.1335731
1980.535, 0.1324183
1982.464, 0.1304383
1984.392, 0.1309286
1986.321, 0.1314743
1988.249, 0.1304890
1990.178, 0.1297058
1992.106, 0.1278382
1994.035, 0.1282819
1995.963, 0.1292787
1997.891, 0.1295908
1999.820, 0.1304929
2001.748, 0.1306683
2003.677, 0.1302979
2005.605, 0.1290636
2007.534, 0.1292850
2009.462, 0.1304185
2011.391, 0.1313078
2013.319, 0.1297362
2015.248, 0.1283903
2017.176, 0.1285137
2019.105, 0.1278768
2021.033, 0.1272980
2022.962, 0.1282702
2024.890, 0.1269410
2026.818, 0.1283770
2028.747, 0.1314756
2030.675, 0.1321913
2032.604, 0.1310326
2034.532, 0.1302000
2036.461, 0.1319748
2038.389, 0.1324950
2040.318, 0.1342827
2042.246, 0.1345472
2044.175, 0.1338314
2046.103, 0.1352294
2048.032, 0.1358819
2049.960, 0.1351374
2051.889, 0.1347624
2053.817, 0.1347556
2055.746, 0.1346883
2057.674, 0.1351765
2059.603, 0.1369926
2061.531, 0.1363889
2063.459, 0.1359573
2065.388, 0.1362105
2067.316, 0.1364375
2069.245, 0.1368725
2071.173, 0.1368486
2073.102, 0.1373490
2075.030, 0.1386077
2076.959, 0.1386263
2078.887, 0.1383042
2080.816, 0.1383311
2082.744, 0.1385173
2084.673, 0.1382092
2086.601, 0.1376312
2088.530, 0.1376444
2090.458, 0.1388076
2092.386, 0.1390665
2094.315, 0.1379758
2096.243, 0.1363214
2098.172, 0.1354238
2100.100, 0.1371043
2102.029, 0.1388712
2103.957, 0.1394410
2105.886, 0.1417133
2107.814, 0.1421150
2109.743, 0.1408107
2111.671, 0.1404919
2113.600, 0.1412449
2115.528, 0.1413327
2117.457, 0.1409262
2119.385, 0.1401549
2121.313, 0.1409529
2123.242, 0.1417973
2125.170, 0.1419819
2127.099, 0.1423392
2129.027, 0.1418608
2130.956, 0.1395379
2132.884, 0.1397454
2134.813, 0.1389951
2136.741, 0.1388522
2138.670, 0.1390754
2140.598, 0.1393394
2142.527, 0.1398742
2144.455, 0.1397508
2146.384, 0.1402043
2148.312, 0.1391214
2150.240, 0.1396148
2152.169, 0.1391817
2154.097, 0.1343425
2156.026, 0.1343659
2157.954, 0.1375136
2159.883, 0.1411917
2161.811, 0.1441366
2163.740, 0.1420127
2165.668, 0.1417619
2167.597, 0.1449177
2169.525, 0.1441122
2171.454, 0.1421139
2173.382, 0.1414525
2175.311, 0.1426874
2177.239, 0.1457825
2179.167, 0.1444150
2181.096, 0.1414723
2183.024, 0.1420147
2184.953, 0.1445489
2186.881, 0.1472019
2188.810, 0.1489174
2190.738, 0.1472854
2192.667, 0.1463535
2194.595, 0.1472694
2196.524, 0.1453570
2198.452, 0.1445079
2200.381, 0.1447040
2202.309, 0.1450050
2204.238, 0.1440651
2206.166, 0.1425175
2208.094, 0.1434130
2210.023, 0.1463069
2211.951, 0.1495603
2213.880, 0.1481843
2215.808, 0.1474431
2217.737, 0.1467337
2219.665, 0.1456902
2221.594, 0.1472428
2223.522, 0.1496174
2225.451, 0.1496745
2227.379, 0.1501874
2229.308, 0.1502737
2231.236, 0.1478565
2233.165, 0.1455936
2235.093, 0.1453508
2237.021, 0.1473709
2238.950, 0.1488155
2240.878, 0.1483513
2242.807, 0.1485870
2244.735, 0.1489502
2246.664, 0.1494339
2248.592, 0.1482016
2250.521, 0.1468201
2252.449, 0.1478098
2254.378, 0.1498862
2256.306, 0.1517140
2258.235, 0.1535029
2260.163, 0.1517635
2262.092, 0.1509473
2264.020, 0.1505824
2265.948, 0.1501704
2267.877, 0.1509942
2269.805, 0.1516123
2271.734, 0.1507498
2273.662, 0.1504760
2275.591, 0.1517599
2277.519, 0.1530888
2279.448, 0.1543691
2281.376, 0.1545588
2283.305, 0.1531672
2285.233, 0.1536554
2287.162, 0.1542388
2289.090, 0.1543227
2291.019, 0.1533635
2292.947, 0.1526553
2294.875, 0.1542042
2296.804, 0.1555396
2298.732, 0.1543501
2300.661, 0.1535964
2302.589, 0.1539185
2304.518, 0.1540440
2306.446, 0.1538287
2308.375, 0.1548517
2310.303, 0.1554705
2312.232, 0.1558585
2314.160, 0.1554194
2316.089, 0.1544284
2318.017, 0.1553056
2319.946, 0.1568317
2321.874, 0.1571792
2323.802, 0.1574662
2325.731, 0.1568036
2327.659, 0.1561555
2329.588, 0.1556974
2331.516, 0.1559968
2333.445, 0.1563588
2335.373, 0.1564335
2337.302, 0.1564529
2339.230, 0.1567695
2341.159, 0.1565410
2343.087, 0.1560070
2345.016, 0.1564049
2346.944, 0.1568510
2348.873, 0.1572338
2350.801, 0.1578218
2352.729, 0.1579006
2354.658, 0.1581882
2356.586, 0.1582155
2358.515, 0.1583291
2360.443, 0.1587754
2362.372, 0.1588147
2364.300, 0.1583108
2366.229, 0.1580196
2368.157, 0.1581242
2370.086, 0.1584663
2372.014, 0.1582943
2373.942, 0.1582327
2375.871, 0.1586731
2377.799, 0.1584197
2379.728, 0.1578031
2381.656, 0.1581028
2383.585, 0.1586402
2385.513, 0.1592358
2387.442, 0.1592580
2389.370, 0.1590821
2391.299, 0.1593513
2393.227, 0.1595077
2395.156, 0.1592302
2397.084, 0.1596190
2399.012, 0.1590914
2400.941, 0.1584161
2402.869, 0.1594741
2404.798, 0.1602781
2406.726, 0.1599859
2408.655, 0.1607078
2410.583, 0.1609276
2412.512, 0.1602356
2414.440, 0.1605671
2416.369, 0.1612627
2418.297, 0.1617264
2420.226, 0.1609061
2422.154, 0.1603845
2424.083, 0.1611742
2426.011, 0.1622631
2427.939, 0.1619271
2429.868, 0.1617562
2431.796, 0.1619271
2433.725, 0.1617430
2435.653, 0.1612772
2437.582, 0.1620050
2439.510, 0.1629420
2441.439, 0.1618425
2443.367, 0.1615547
2445.296, 0.1626762
2447.224, 0.1618383
2449.153, 0.1622656
2451.081, 0.1638303
2453.010, 0.1634021
2454.938, 0.1627006
2456.866, 0.1625382
2458.795, 0.1630218
2460.723, 0.1634316
2462.652, 0.1634018
2464.580, 0.1637994
2466.509, 0.1635394
2468.437, 0.1626552
2470.366, 0.1626745
2472.294, 0.1634831
2474.223, 0.1635541
2476.151, 0.1642104
2478.080, 0.1650013
2480.008, 0.1645370
2481.937, 0.1650278
2483.865, 0.1654214
2485.793, 0.1652613
2487.722, 0.1655411
2489.650, 0.1651241
2491.579, 0.1644602
2493.507, 0.1659580
2495.436, 0.1662974
2497.364, 0.1657936
2499.293, 0.1664868
2501.221, 0.1666962
2503.150, 0.1654995
2505.078, 0.1648102
2507.007, 0.1655097
2508.935, 0.1647581
2510.864, 0.1636681
2512.792, 0.1634778
2514.720, 0.1648262
2516.649, 0.1664424
2518.577, 0.1652491
2520.506, 0.1653738
2522.434, 0.1669031
2524.363, 0.1667117
2526.291, 0.1650880
2528.220, 0.1655533
2530.148, 0.1669619
2532.077, 0.1660714
2534.005, 0.1663148
2535.934, 0.1686395
2537.862, 0.1692265
2539.791, 0.1678105
2541.719, 0.1673370
2543.647, 0.1678470
2545.576, 0.1671815
2547.504, 0.1668922
2549.433, 0.1682791
2551.361, 0.1695218
2553.290, 0.1697443
2555.218, 0.1681916
2557.147, 0.1671594
2559.075, 0.1682778
2561.004, 0.1702995
2562.932, 0.1704339
2564.861, 0.1701359
2566.789, 0.1693152
2568.718, 0.1689977
2570.646, 0.1697697
2572.574, 0.1692457
2574.503, 0.1690638
2576.431, 0.1692764
2578.360, 0.1699437
2580.288, 0.1692840
2582.217, 0.1695522
2584.145, 0.1703614
2586.074, 0.1714793
2588.002, 0.1725988
2589.931, 0.1716822
2591.859, 0.1701279
2593.788, 0.1696798
2595.716, 0.1708261
2597.645, 0.1716242
2599.573, 0.1704860
2601.501, 0.1705277
2603.430, 0.1718336
2605.358, 0.1724957
2607.287, 0.1723090
2609.215, 0.1721916
2611.144, 0.1718400
2613.072, 0.1727047
2615.001, 0.1737514
2616.929, 0.1741273
2618.858, 0.1742590
2620.786, 0.1738288
2622.715, 0.1734614
2624.643, 0.1744430
2626.572, 0.1735610
2628.500, 0.1723577
2630.428, 0.1728193
2632.357, 0.1732214
2634.285, 0.1725762
2636.214, 0.1727810
2638.142, 0.1736980
2640.071, 0.1741003
2641.999, 0.1735798
2643.928, 0.1732752
2645.856, 0.1747245
2647.785, 0.1756565
2649.713, 0.1756620
2651.642, 0.1746034
2653.570, 0.1739787
2655.499, 0.1745499
2657.427, 0.1747062
2659.355, 0.1747851
2661.284, 0.1752644
2663.212, 0.1757749
2665.141, 0.1758339
2667.069, 0.1761298
2668.998, 0.1754402
2670.926, 0.1755223
2672.855, 0.1755820
2674.783, 0.1757147
2676.712, 0.1762960
2678.640, 0.1762123
2680.569, 0.1762496
2682.497, 0.1767396
2684.426, 0.1765489
2686.354, 0.1761191
2688.282, 0.1763172
2690.211, 0.1769170
2692.139, 0.1771618
2694.068, 0.1767492
2695.996, 0.1769107
2697.925, 0.1772152
2699.853, 0.1767433
2701.782, 0.1766604
2703.710, 0.1772700
2705.639, 0.1773182
2707.567, 0.1771394
2709.496, 0.1781014
2711.424, 0.1785324
2713.353, 0.1781148
2715.281, 0.1786032
2717.209, 0.1787699
2719.138, 0.1787566
2721.066, 0.1780622
2722.995, 0.1781659
2724.923, 0.1784709
2726.852, 0.1778881
2728.780, 0.1777097
2730.709, 0.1788731
2732.637, 0.1799833
2734.566, 0.1800865
2736.494, 0.1792919
2738.423, 0.1791489
2740.351, 0.1794326
2742.280, 0.1795880
2744.208, 0.1794360
2746.136, 0.1798968
2748.065, 0.1806064
2749.993, 0.1799827
2751.922, 0.1797898
2753.850, 0.1801981
2755.779, 0.1805149
2757.707, 0.1802986
2759.636, 0.1806048
2761.564, 0.1811829
2763.493, 0.1805592
2765.421, 0.1810123
2767.350, 0.1821272
2769.278, 0.1816331
2771.207, 0.1816614
2773.135, 0.1819555
2775.063, 0.1821055
2776.992, 0.1825667
2778.920, 0.1823065
2780.849, 0.1826741
2782.777, 0.1834106
2784.706, 0.1835741
2786.634, 0.1833922
2788.563, 0.1825880
2790.491, 0.1824982
2792.420, 0.1833747
2794.348, 0.1835302
2796.277, 0.1825432
2798.205, 0.1825939
2800.134, 0.1837776
2802.062, 0.1836767
2803.990, 0.1834003
2805.919, 0.1834149
2807.847, 0.1837111
2809.776, 0.1833256
2811.704, 0.1839480
2813.633, 0.1841819
2815.561, 0.1835137
2817.490, 0.1835979
2819.418, 0.1846701
2821.347, 0.1845949
2823.275, 0.1843104
2825.204, 0.1848436
2827.132, 0.1853812
2829.061, 0.1855599
2830.989, 0.1856890
2832.917, 0.1853168
2834.846, 0.1849810
2836.774, 0.1852551
2838.703, 0.1848403
2840.631, 0.1856493
2842.560, 0.1859848
2844.488, 0.1854365
2846.417, 0.1848901
2848.345, 0.1844853
2850.274, 0.1846046
2852.202, 0.1839585
2854.131, 0.1838863
2856.059, 0.1848314
2857.988, 0.1853103
2859.916, 0.1860326
2861.844, 0.1861323
2863.773, 0.1854863
2865.701, 0.1854638
2867.630, 0.1864723
2869.558, 0.1873734
2871.487, 0.1872977
2873.415, 0.1854979
2875.344, 0.1846737
2877.272, 0.1857439
2879.201, 0.1863447
2881.129, 0.1869029
2883.058, 0.1865477
2884.986, 0.1860586
2886.915, 0.1858330
2888.843, 0.1870741
2890.771, 0.1871333
2892.700, 0.1868323
2894.628, 0.1875243
2896.557, 0.1873589
2898.485, 0.1868771
2900.414, 0.1854663
2902.342, 0.1854622
2904.271, 0.1866709
2906.199, 0.1864773
2908.128, 0.1870241
2910.056, 0.1873503
2911.985, 0.1880106
2913.913, 0.1883420
2915.842, 0.1875610
2917.770, 0.1878934
2919.698, 0.1893856
2921.627, 0.1886556
2923.555, 0.1872837
2925.484, 0.1874639
2927.412, 0.1880504
2929.341, 0.1875838
2931.269, 0.1865051
2933.198, 0.1869867
2935.126, 0.1864203
2937.055, 0.1860933
2938.983, 0.1862474
2940.912, 0.1860320
2942.840, 0.1862179
2944.769, 0.1868211
2946.697, 0.1881421
2948.625, 0.1885475
2950.554, 0.1872056
2952.482, 0.1875273
2954.411, 0.1880960
2956.339, 0.1875364
2958.268, 0.1864216
2960.196, 0.1859479
2962.125, 0.1861907
2964.053, 0.1865150
2965.982, 0.1876235
2967.910, 0.1871763
2969.839, 0.1859288
2971.767, 0.1866317
2973.696, 0.1858884
2975.624, 0.1865807
2977.552, 0.1869301
2979.481, 0.1858464
2981.409, 0.1862860
2983.338, 0.1867549
2985.266, 0.1884262
2987.195, 0.1889388
2989.123, 0.1871305
2991.052, 0.1865617
2992.980, 0.1876087
2994.909, 0.1885312
2996.837, 0.1881979
2998.766, 0.1874632
3000.694, 0.1877442
3002.623, 0.1886970
3004.551, 0.1892053
3006.479, 0.1891117
3008.408, 0.1906298
3010.336, 0.1911705
3012.265, 0.1907147
3014.193, 0.1906209
3016.122, 0.1902505
3018.050, 0.1904486
3019.979, 0.1919109
3021.907, 0.1924367
3023.836, 0.1931817
3025.764, 0.1917094
3027.693, 0.1904573
3029.621, 0.1922194
3031.550, 0.1920973
3033.478, 0.1913106
3035.406, 0.1924369
3037.335, 0.1929510
3039.263, 0.1926025
3041.192, 0.1923608
3043.120, 0.1926583
3045.049, 0.1940449
3046.977, 0.1943056
3048.906, 0.1933963
3050.834, 0.1934343
3052.763, 0.1943420
3054.691, 0.1955942
3056.620, 0.1950283
3058.548, 0.1943617
3060.477, 0.1952598
3062.405, 0.1955666
3064.333, 0.1946311
3066.262, 0.1930809
3068.190, 0.1936052
3070.119, 0.1940277
3072.047, 0.1948344
3073.976, 0.1950992
3075.904, 0.1947051
3077.833, 0.1945488
3079.761, 0.1933474
3081.690, 0.1929637
3083.618, 0.1945254
3085.547, 0.1946484
3087.475, 0.1939562
3089.404, 0.1955304
3091.332, 0.1978140
3093.260, 0.1985054
3095.189, 0.1968460
3097.117, 0.1962084
3099.046, 0.1961741
3100.974, 0.1956768
3102.903, 0.1964667
3104.831, 0.1975286
3106.760, 0.1968908
3108.688, 0.1963187
3110.617, 0.1964213
3112.545, 0.1973970
3114.474, 0.1989953
3116.402, 0.1986918
3118.331, 0.1985408
3120.259, 0.1985050
3122.188, 0.1979122
3124.116, 0.1983624
3126.044, 0.1980909
3127.973, 0.1973044
3129.901, 0.1970561
3131.830, 0.1982928
3133.758, 0.1996563
3135.687, 0.2002840
3137.615, 0.1994249
3139.544, 0.1967020
3141.472, 0.1973175
3143.401, 0.1988117
3145.329, 0.1990523
3147.258, 0.1988337
3149.186, 0.1977609
3151.115, 0.1965974
3153.043, 0.1966058
3154.971, 0.1981746
3156.900, 0.1991328
3158.828, 0.2003114
3160.757, 0.2005328
3162.685, 0.1996907
3164.614, 0.2011684
3166.542, 0.2016623
3168.471, 0.2006390
3170.399, 0.2000278
3172.328, 0.1995419
3174.256, 0.2006711
3176.185, 0.2021467
3178.113, 0.2009846
3180.042, 0.2003764
3181.970, 0.2003390
3183.898, 0.2002596
3185.827, 0.2019557
3187.755, 0.2025456
3189.684, 0.2008101
3191.612, 0.1992231
3193.541, 0.1997992
3195.469, 0.2002828
3197.398, 0.1992603
3199.326, 0.1992554
3201.255, 0.1993177
3203.183, 0.1993099
3205.112, 0.1985479
3207.040, 0.1986207
3208.969, 0.2000746
3210.897, 0.2012130
3212.825, 0.2019759
3214.754, 0.2020307
3216.682, 0.2009544
3218.611, 0.2013226
3220.539, 0.2025017
3222.468, 0.2009217
3224.396, 0.1995014
3226.325, 0.2008934
3228.253, 0.2033900
3230.182, 0.2017911
3232.110, 0.2010778
3234.039, 0.2004981
3235.967, 0.2007812
3237.896, 0.2021728
3239.824, 0.2026750
3241.752, 0.2033085
3243.681, 0.2033039
3245.609, 0.2040089
3247.538, 0.2038778
3249.466, 0.2030647
3251.395, 0.2012276
3253.323, 0.1999533
3255.252, 0.2012284
3257.180, 0.2041687
3259.109, 0.2047531
3261.037, 0.2020122
3262.966, 0.2017734
3264.894, 0.2024774
3266.823, 0.2040485
3268.751, 0.2048170
3270.679, 0.2048090
3272.608, 0.2053911
3274.536, 0.2057924
3276.465, 0.2031434
3278.393, 0.2033577
3280.322, 0.2045705
3282.250, 0.2045813
3284.179, 0.2030980
3286.107, 0.2041569
3288.036, 0.2064369
3289.964, 0.2058224
3291.893, 0.2037431
3293.821, 0.2031169
3295.750, 0.2027673
3297.678, 0.2024623
3299.606, 0.2034845
3301.535, 0.2069159
3303.463, 0.2060221
3305.392, 0.2050281
3307.320, 0.2051381
3309.249, 0.2049162
3311.177, 0.2045786
3313.106, 0.2048806
3315.034, 0.2047987
3316.963, 0.2068345
3318.891, 0.2067155
3320.820, 0.2049183
3322.748, 0.2037791
3324.677, 0.2038201
3326.605, 0.2053364
3328.533, 0.2064867
3330.462, 0.2062857
3332.390, 0.2038240
3334.319, 0.2016949
3336.247, 0.2011629
3338.176, 0.2013597
3340.104, 0.2030722
3342.033, 0.2061087
3343.961, 0.2060371
3345.890, 0.2068354
3347.818, 0.2080686
3349.747, 0.2064022
3351.675, 0.2070338
3353.604, 0.2080120
3355.532, 0.2059778
3357.460, 0.2062691
3359.389, 0.2078844
3361.317, 0.2069234
3363.246, 0.2045663
3365.174, 0.2052116
3367.103, 0.2059362
3369.031, 0.2059935
3370.960, 0.2067235
3372.888, 0.2071574
3374.817, 0.2084766
3376.745, 0.2075774
3378.674, 0.2076525
3380.602, 0.2063950
3382.531, 0.2049585
3384.459, 0.2035681
3386.387, 0.2041326
3388.316, 0.2043722
3390.244, 0.2053615
3392.173, 0.2071889
3394.101, 0.2082408
3396.030, 0.2091015
3397.958, 0.2082980
3399.887, 0.2083052
3401.815, 0.2081466
3403.744, 0.2064451
3405.672, 0.2048281
3407.601, 0.2044037
3409.529, 0.2068138
3411.458, 0.2112008
3413.386, 0.2135025
3415.314, 0.2117325
3417.243, 0.2097503
3419.171, 0.2071172
3421.100, 0.2063731
3423.028, 0.2069855
3424.957, 0.2073880
3426.885, 0.2079963
3428.814, 0.2071826
3430.742, 0.2045913
3432.671, 0.2051803
3434.599, 0.2079789
3436.528, 0.2095847
3438.456, 0.2107811
3440.385, 0.2098190
3442.313, 0.2065299
3444.241, 0.2079151
3446.170, 0.2091733
3448.098, 0.2055670
3450.027, 0.2049488
3451.955, 0.2092143
3453.884, 0.2100676
3455.812, 0.2097837
3457.741, 0.2090633
3459.669, 0.2082626
3461.598, 0.2089445
3463.526, 0.2112800
3465.455, 0.2112814
3467.383, 0.2102068
3469.312, 0.2116309
3471.240, 0.2107538
3473.168, 0.2093473
3475.097, 0.2097301
3477.025, 0.2091018
3478.954, 0.2075327
3480.882, 0.2082656
3482.811, 0.2071327
3484.739, 0.2077297
3486.668, 0.2093346
3488.596, 0.2085814
3490.525, 0.2082249
3492.453, 0.2076594
3494.382, 0.2078768
3496.310, 0.2066680
3498.239, 0.2052279
3500.167, 0.2074187
3502.095, 0.2091022
3504.024, 0.2115432
3505.952, 0.2103074
3507.881, 0.2108044
3509.809, 0.2103099
3511.738, 0.2076248
3513.666, 0.2079245
3515.595, 0.2106471
3517.523, 0.2090858
3519.452, 0.2076632
3521.380, 0.2084778
3523.309, 0.2060105
3525.237, 0.2064907
3527.166, 0.2112235
3529.094, 0.2118971
3531.022, 0.2094945
3532.951, 0.2072146
3534.879, 0.2093013
3536.808, 0.2085357
3538.736, 0.2067852
3540.665, 0.2067404
3542.593, 0.2083448
3544.522, 0.2128875
3546.450, 0.2147125
3548.379, 0.2100632
3550.307, 0.2086596
3552.236, 0.2098399
3554.164, 0.2091329
3556.093, 0.2110266
3558.021, 0.2113884
3559.949, 0.2111529
3561.878, 0.2116942
3563.806, 0.2109473
3565.735, 0.2122327
3567.663, 0.2132124
3569.592, 0.2119763
3571.520, 0.2119856
3573.449, 0.2107505
3575.377, 0.2101610
3577.306, 0.2102860
3579.234, 0.2073584
3581.163, 0.2071937
3583.091, 0.2083523
3585.020, 0.2092032
3586.948, 0.2114139
3588.876, 0.2115879
3590.805, 0.2094177
3592.733, 0.2104468
3594.662, 0.2127939
3596.590, 0.2102150
3598.519, 0.2081181
3600.447, 0.2077882
3602.376, 0.2079783
3604.304, 0.2094475
3606.233, 0.2118796
3608.161, 0.2147904
3610.090, 0.2142603
3612.018, 0.2125899
3613.947, 0.2125197
3615.875, 0.2146439
3617.803, 0.2164451
3619.732, 0.2137549
3621.660, 0.2133532
3623.589, 0.2152486
3625.517, 0.2136957
3627.446, 0.2088584
3629.374, 0.2094550
3631.303, 0.2154230
3633.231, 0.2159057
3635.160, 0.2158007
3637.088, 0.2148582
3639.017, 0.2110881
3640.945, 0.2108793
3642.874, 0.2127505
3644.802, 0.2139297
3646.730, 0.2136933
3648.659, 0.2134285
3650.587, 0.2120955
3652.516, 0.2130413
3654.444, 0.2137296
3656.373, 0.2141112
3658.301, 0.2150547
3660.230, 0.2160089
3662.158, 0.2136390
3664.087, 0.2094521
3666.015, 0.2100167
3667.944, 0.2143880
3669.872, 0.2144221
3671.801, 0.2096200
3673.729, 0.2105297
3675.657, 0.2139761
3677.586, 0.2149698
3679.514, 0.2125435
3681.443, 0.2141812
3683.371, 0.2150448
3685.300, 0.2150520
3687.228, 0.2177353
3689.157, 0.2183777
3691.085, 0.2157585
3693.014, 0.2147795
3694.942, 0.2154622
3696.871, 0.2133975
3698.799, 0.2108117
3700.728, 0.2118686
3702.656, 0.2105119
3704.584, 0.2105792
3706.513, 0.2140976
3708.441, 0.2149578
3710.370, 0.2137048
3712.298, 0.2152820
3714.227, 0.2185748
3716.155, 0.2199751
3718.084, 0.2164801
3720.012, 0.2129957
3721.941, 0.2109925
3723.869, 0.2113040
3725.798, 0.2142584
3727.726, 0.2182296
3729.655, 0.2181889
3731.583, 0.2162345
3733.511, 0.2142191
3735.440, 0.2144901
3737.368, 0.2163934
3739.297, 0.2163635
3741.225, 0.2164184
3743.154, 0.2192560
3745.082, 0.2230490
3747.011, 0.2203025
3748.939, 0.2161785
3750.868, 0.2182779
3752.796, 0.2212609
3754.725, 0.2241399
3756.653, 0.2236511
3758.582, 0.2216775
3760.510, 0.2214530
3762.438, 0.2196387
3764.367, 0.2172324
3766.295, 0.2189734
3768.224, 0.2211079
3770.152, 0.2230410
3772.081, 0.2229387
3774.009, 0.2200137
3775.938, 0.2176706
3777.866, 0.2174423
3779.795, 0.2191768
3781.723, 0.2213726
3783.652, 0.2206441
3785.580, 0.2188469
3787.509, 0.2191696
3789.437, 0.2180606
3791.365, 0.2180281
3793.294, 0.2191690
3795.222, 0.2179164
3797.151, 0.2162734
3799.079, 0.2174677
3801.008, 0.2220741
3802.936, 0.2231030
3804.865, 0.2232834
3806.793, 0.2247615
3808.722, 0.2263533
3810.650, 0.2234639
3812.579, 0.2188531
3814.507, 0.2197444
3816.436, 0.2214182
3818.364, 0.2220713
3820.292, 0.2241776
3822.221, 0.2256372
3824.149, 0.2251136
3826.078, 0.2239976
3828.006, 0.2232520
3829.935, 0.2232448
3831.863, 0.2234891
3833.792, 0.2242244
3835.720, 0.2241836
3837.649, 0.2224471
3839.577, 0.2221655
3841.506, 0.2202020
3843.434, 0.2164951
3845.363, 0.2199530
3847.291, 0.2247166
3849.219, 0.2238477
3851.148, 0.2231555
3853.076, 0.2225865
3855.005, 0.2204395
3856.933, 0.2234168
3858.862, 0.2261103
3860.790, 0.2232038
3862.719, 0.2222661
3864.647, 0.2230901
3866.576, 0.2209834
3868.504, 0.2200745
3870.433, 0.2195968
3872.361, 0.2249515
3874.290, 0.2276483
3876.218, 0.2267864
3878.146, 0.2280556
3880.075, 0.2289326
3882.003, 0.2253243
3883.932, 0.2229968
3885.860, 0.2235886
3887.789, 0.2210121
3889.717, 0.2210352
3891.646, 0.2199757
3893.574, 0.2242858
3895.503, 0.2293324
3897.431, 0.2275573
3899.360, 0.2236581
3901.288, 0.2233604
3903.217, 0.2233759
3905.145, 0.2245838
3907.073, 0.2254772
3909.002, 0.2257964
3910.930, 0.2246277
3912.859, 0.2231146
3914.787, 0.2239376
3916.716, 0.2276196
3918.644, 0.2286383
3920.573, 0.2268148
3922.501, 0.2229868
3924.430, 0.2214982
3926.358, 0.2264303
3928.287, 0.2284449
3930.215, 0.2298047
3932.144, 0.2329031
3934.072, 0.2298386
3936.000, 0.2275467
3937.929, 0.2255584
3939.857, 0.2259759
3941.786, 0.2298956
3943.714, 0.2318045
3945.643, 0.2277825
3947.571, 0.2291428
3949.500, 0.2309209
3951.428, 0.2272183
3953.357, 0.2249223
3955.285, 0.2239077
3957.214, 0.2250414
3959.142, 0.2280616
3961.071, 0.2288679
3962.999, 0.2250535
3964.927, 0.2259781
3966.856, 0.2278687
3968.784, 0.2300493
3970.713, 0.2308154
3972.641, 0.2271191
3974.570, 0.2266303
3976.498, 0.2265907
3978.427, 0.2279499
3980.355, 0.2273817
3982.284, 0.2276630
3984.212, 0.2259369
3986.141, 0.2299455
3988.069, 0.2362302
3989.998, 0.2351770
3991.926, 0.2331344
3993.854, 0.2326288
3995.783, 0.2308899
3997.711, 0.2284942
3999.640, 0.2286045
##END=



