##NAMES=Bukovskyite
##RRUFFID=R050630
##IDEAL CHEMISTRY=Fe^3+^_2_(As^5+^O_4_)(S^6+^O_4_)(OH)&#183;7H_2_O
##LOCALITY=Kutna Hora, Bohemia, Czechoslovakia
##OWNER=RRUFF
##SOURCE=University of Arizona Mineral Museum
##DESCRIPTION=Compact aggregate of microscopic randomly oriented colorless acicular crystals
##STATUS=The identification of this mineral has been confirmed by X-ray diffraction and chemical analysis
##URL=rruff.info/R050630
##MEASURED CHEMISTRY=(Fe^3+^_1.97_Al_0.03_)((As_0.98_P_0.02_)O_4_)(S_1.00_O_4_)((OH)_0.94_F_0.03_Cl_0.03_)Â·7H_2_O
399.1926, 0.1782255
401.1211, 0.1712160
403.0496, 0.1720392
404.9780, 0.1722995
406.9065, 0.1726976
408.8350, 0.1754545
410.7634, 0.1759171
412.6919, 0.1753453
414.6204, 0.1747548
416.5488, 0.1745910
418.4773, 0.1768740
420.4058, 0.1797885
422.3342, 0.1788214
424.2627, 0.1786377
426.1912, 0.1791942
428.1196, 0.1804592
430.0481, 0.1811092
431.9766, 0.1796731
433.9050, 0.1784950
435.8335, 0.1774687
437.7620, 0.1795834
439.6904, 0.1819640
441.6189, 0.1828594
443.5474, 0.1813211
445.4758, 0.1790125
447.4043, 0.1791279
449.3328, 0.1778351
451.2612, 0.1759345
453.1897, 0.1753830
455.1182, 0.1771257
457.0466, 0.1787766
458.9751, 0.1771150
460.9036, 0.1753966
462.8320, 0.1736229
464.7605, 0.1711858
466.6890, 0.1692782
468.6174, 0.1694545
470.5459, 0.1687271
472.4744, 0.1662084
474.4028, 0.1641919
476.3313, 0.1623235
478.2598, 0.1608739
480.1882, 0.1597346
482.1167, 0.1571443
484.0452, 0.1553330
485.9736, 0.1542379
487.9021, 0.1529127
489.8306, 0.1520143
491.7590, 0.1508380
493.6875, 0.1494630
495.6160, 0.1475847
497.5444, 0.1462251
499.4729, 0.1462175
501.4014, 0.1459296
503.3298, 0.1447095
505.2583, 0.1435125
507.1868, 0.1428549
509.1152, 0.1417057
511.0437, 0.1409842
512.9722, 0.1404049
514.9006, 0.1395448
516.8291, 0.1390577
518.7576, 0.1377561
520.6860, 0.1374124
522.6145, 0.1373596
524.5430, 0.1362354
526.4714, 0.1352853
528.3999, 0.1338941
530.3284, 0.1338792
532.2568, 0.1345091
534.1853, 0.1338597
536.1138, 0.1323759
538.0422, 0.1316429
539.9707, 0.1323579
541.8992, 0.1329539
543.8276, 0.1338001
545.7561, 0.1347128
547.6846, 0.1351878
549.6130, 0.1353464
551.5415, 0.1355130
553.4700, 0.1351290
555.3984, 0.1352389
557.3269, 0.1355728
559.2554, 0.1356297
561.1838, 0.1353964
563.1123, 0.1348421
565.0408, 0.1348642
566.9692, 0.1347883
568.8977, 0.1343168
570.8262, 0.1343992
572.7546, 0.1345069
574.6831, 0.1342976
576.6116, 0.1343099
578.5400, 0.1353742
580.4685, 0.1363008
582.3970, 0.1365737
584.3254, 0.1367065
586.2539, 0.1368597
588.1824, 0.1374038
590.1108, 0.1388715
592.0393, 0.1396342
593.9678, 0.1401398
595.8962, 0.1408459
597.8247, 0.1412599
599.7532, 0.1414763
601.6816, 0.1411529
603.6101, 0.1400960
605.5386, 0.1386050
607.4670, 0.1366739
609.3955, 0.1349793
611.3240, 0.1330907
613.2524, 0.1313908
615.1809, 0.1295428
617.1094, 0.1283853
619.0378, 0.1271327
620.9663, 0.1254352
622.8948, 0.1243411
624.8232, 0.1236463
626.7517, 0.1228513
628.6802, 0.1209175
630.6086, 0.1194536
632.5371, 0.1184950
634.4656, 0.1171544
636.3940, 0.1166209
638.3225, 0.1161817
640.2510, 0.1155521
642.1794, 0.1147464
644.1079, 0.1143552
646.0364, 0.1139955
647.9648, 0.1130026
649.8933, 0.1117857
651.8218, 0.1110294
653.7502, 0.1100698
655.6787, 0.1091682
657.6072, 0.1083724
659.5356, 0.1073494
661.4641, 0.1063062
663.3926, 0.1057545
665.3210, 0.1054472
667.2495, 0.1050399
669.1780, 0.1043768
671.1064, 0.1033667
673.0349, 0.1025955
674.9634, 0.1021214
676.8918, 0.1011015
678.8203, 0.1001074
680.7488, 9.9765413E-02
682.6772, 9.9468537E-02
684.6057, 9.8798826E-02
686.5342, 9.8598577E-02
688.4626, 9.8771080E-02
690.3911, 9.8551393E-02
692.3196, 9.8527662E-02
694.2480, 9.8677851E-02
696.1765, 9.8883294E-02
698.1050, 9.9029914E-02
700.0334, 9.9400967E-02
701.9619, 9.9620439E-02
703.8904, 0.1002384
705.8188, 0.1010284
707.7473, 0.1019809
709.6758, 0.1029919
711.6042, 0.1037214
713.5327, 0.1042565
715.4612, 0.1048573
717.3896, 0.1061038
719.3181, 0.1071357
721.2466, 0.1084490
723.1750, 0.1098563
725.1035, 0.1110472
727.0320, 0.1123023
728.9604, 0.1139048
730.8889, 0.1153658
732.8174, 0.1169961
734.7458, 0.1185154
736.6743, 0.1197922
738.6028, 0.1210431
740.5313, 0.1222744
742.4597, 0.1238179
744.3882, 0.1257073
746.3167, 0.1275243
748.2451, 0.1290699
750.1736, 0.1309912
752.1021, 0.1330199
754.0305, 0.1347079
755.9590, 0.1363486
757.8875, 0.1384123
759.8159, 0.1407677
761.7444, 0.1430084
763.6729, 0.1457551
765.6013, 0.1492155
767.5298, 0.1527865
769.4583, 0.1567155
771.3867, 0.1609837
773.3152, 0.1654440
775.2437, 0.1706504
777.1721, 0.1758122
779.1006, 0.1812574
781.0291, 0.1871498
782.9575, 0.1934406
784.8860, 0.2006480
786.8145, 0.2076275
788.7429, 0.2143472
790.6714, 0.2204339
792.5999, 0.2270026
794.5283, 0.2335934
796.4568, 0.2391017
798.3853, 0.2440419
800.3137, 0.2485735
802.2422, 0.2517903
804.1707, 0.2547055
806.0991, 0.2576299
808.0276, 0.2597796
809.9561, 0.2609329
811.8845, 0.2612290
813.8130, 0.2608076
815.7415, 0.2603502
817.6699, 0.2601050
819.5984, 0.2595190
821.5269, 0.2578707
823.4553, 0.2560897
825.3838, 0.2539807
827.3123, 0.2510018
829.2407, 0.2484466
831.1692, 0.2457031
833.0977, 0.2416093
835.0261, 0.2372267
836.9546, 0.2329818
838.8831, 0.2283784
840.8115, 0.2242336
842.7400, 0.2201557
844.6685, 0.2162783
846.5969, 0.2132853
848.5254, 0.2105753
850.4539, 0.2082660
852.3823, 0.2064346
854.3108, 0.2044501
856.2393, 0.2028009
858.1677, 0.2012091
860.0962, 0.1990752
862.0247, 0.1967253
863.9531, 0.1944444
865.8816, 0.1925221
867.8101, 0.1908628
869.7385, 0.1892830
871.6670, 0.1877675
873.5955, 0.1862257
875.5239, 0.1847633
877.4524, 0.1826926
879.3809, 0.1803160
881.3093, 0.1776725
883.2378, 0.1741587
885.1663, 0.1701249
887.0947, 0.1663332
889.0232, 0.1625041
890.9517, 0.1584170
892.8801, 0.1541595
894.8085, 0.1498223
896.7370, 0.1450573
898.6655, 0.1407877
900.5939, 0.1370219
902.5224, 0.1333870
904.4509, 0.1303225
906.3793, 0.1276392
908.3078, 0.1250265
910.2363, 0.1228942
912.1647, 0.1209425
914.0932, 0.1189967
916.0217, 0.1172611
917.9501, 0.1156142
919.8786, 0.1138440
921.8071, 0.1114955
923.7355, 0.1083152
925.6640, 0.1046033
927.5925, 0.1004408
929.5209, 9.5895886E-02
931.4494, 9.0989217E-02
933.3779, 8.6476050E-02
935.3063, 8.2744308E-02
937.2348, 7.9317041E-02
939.1633, 7.6171942E-02
941.0917, 7.3688179E-02
943.0202, 7.1880713E-02
944.9487, 7.1071088E-02
946.8771, 7.0520803E-02
948.8056, 6.9885947E-02
950.7341, 6.9778070E-02
952.6625, 6.9999747E-02
954.5910, 7.0397153E-02
956.5195, 7.0892662E-02
958.4479, 7.1578451E-02
960.3764, 7.2565742E-02
962.3049, 7.4267477E-02
964.2333, 7.6164961E-02
966.1618, 7.8123689E-02
968.0903, 8.0596082E-02
970.0187, 8.3624087E-02
971.9472, 8.6811781E-02
973.8757, 8.9989051E-02
975.8041, 9.3560502E-02
977.7326, 9.7688243E-02
979.6611, 0.1021023
981.5895, 0.1055913
983.5180, 0.1076549
985.4465, 0.1081588
987.3749, 0.1080859
989.3034, 0.1091135
991.2319, 0.1110944
993.1603, 0.1135321
995.0888, 0.1163077
997.0173, 0.1189706
998.9457, 0.1211010
1000.874, 0.1230197
1002.803, 0.1253020
1004.731, 0.1273104
1006.660, 0.1284109
1008.588, 0.1291546
1010.517, 0.1301929
1012.445, 0.1321352
1014.373, 0.1347422
1016.302, 0.1379407
1018.230, 0.1413599
1020.159, 0.1447394
1022.087, 0.1487454
1024.016, 0.1538736
1025.944, 0.1595775
1027.873, 0.1652847
1029.801, 0.1706437
1031.730, 0.1758293
1033.658, 0.1808599
1035.587, 0.1858128
1037.515, 0.1906224
1039.444, 0.1953180
1041.372, 0.2000397
1043.301, 0.2042347
1045.229, 0.2080223
1047.157, 0.2115866
1049.086, 0.2146405
1051.014, 0.2176591
1052.943, 0.2200251
1054.871, 0.2214727
1056.800, 0.2219880
1058.728, 0.2216448
1060.657, 0.2210667
1062.585, 0.2201568
1064.514, 0.2182187
1066.442, 0.2156126
1068.371, 0.2127813
1070.299, 0.2103269
1072.228, 0.2079353
1074.156, 0.2054540
1076.084, 0.2031276
1078.013, 0.2013043
1079.941, 0.2001383
1081.870, 0.1990203
1083.798, 0.1982200
1085.727, 0.1974501
1087.655, 0.1967770
1089.584, 0.1962098
1091.512, 0.1958502
1093.441, 0.1953602
1095.369, 0.1950785
1097.298, 0.1948763
1099.226, 0.1949449
1101.155, 0.1948620
1103.083, 0.1945730
1105.011, 0.1945083
1106.940, 0.1941378
1108.868, 0.1933759
1110.797, 0.1923663
1112.725, 0.1915725
1114.654, 0.1902022
1116.582, 0.1884619
1118.511, 0.1864240
1120.439, 0.1837515
1122.368, 0.1810530
1124.296, 0.1784543
1126.225, 0.1755250
1128.153, 0.1726107
1130.082, 0.1696152
1132.010, 0.1661240
1133.938, 0.1628058
1135.867, 0.1593475
1137.795, 0.1552678
1139.724, 0.1511729
1141.652, 0.1471784
1143.581, 0.1430534
1145.509, 0.1396081
1147.438, 0.1363087
1149.366, 0.1328290
1151.295, 0.1298096
1153.223, 0.1272154
1155.152, 0.1251867
1157.080, 0.1234468
1159.009, 0.1215873
1160.937, 0.1199672
1162.865, 0.1185482
1164.794, 0.1170759
1166.722, 0.1153778
1168.651, 0.1129541
1170.579, 0.1102023
1172.508, 0.1074558
1174.436, 0.1049217
1176.365, 0.1022264
1178.293, 9.9305078E-02
1180.222, 9.6155353E-02
1182.150, 9.3100697E-02
1184.079, 9.0417787E-02
1186.007, 8.7598167E-02
1187.936, 8.4940054E-02
1189.864, 8.2460552E-02
1191.792, 7.9908997E-02
1193.721, 7.7184103E-02
1195.649, 7.4598983E-02
1197.578, 7.1997158E-02
1199.506, 6.9547497E-02
1201.435, 6.7061387E-02
1203.363, 6.4451173E-02
1205.292, 6.2157940E-02
1207.220, 5.9983000E-02
1209.149, 5.7605240E-02
1211.077, 5.5197779E-02
1213.006, 5.3014871E-02
1214.934, 5.1020849E-02
1216.863, 4.8659809E-02
1218.791, 4.6131149E-02
1220.719, 4.3928880E-02
1222.648, 4.1930709E-02
1224.576, 3.9723299E-02
1226.505, 3.7828960E-02
1228.433, 3.6182061E-02
1230.362, 3.4494691E-02
1232.290, 3.2588560E-02
1234.219, 3.0833621E-02
1236.147, 2.9263780E-02
1238.076, 2.7877551E-02
1240.004, 2.6709581E-02
1241.933, 2.5735261E-02
1243.861, 2.4676060E-02
1245.790, 2.3400851E-02
1247.718, 2.2420660E-02
1249.646, 2.1681961E-02
1251.575, 2.0876439E-02
1253.503, 2.0048721E-02
1255.432, 1.9578081E-02
1257.360, 1.8942101E-02
1259.289, 1.8183781E-02
1261.217, 1.7779261E-02
1263.146, 1.7527310E-02
1265.074, 1.7006440E-02
1267.003, 1.6417971E-02
1268.931, 1.6367679E-02
1270.860, 1.6330270E-02
1272.788, 1.6123740E-02
1274.717, 1.5813120E-02
1276.645, 1.5490990E-02
1278.573, 1.5444120E-02
1280.502, 1.5360630E-02
1282.430, 1.5362840E-02
1284.359, 1.5378550E-02
1286.287, 1.5245090E-02
1288.216, 1.4983640E-02
1290.144, 1.4945080E-02
1292.073, 1.5223690E-02
1294.001, 1.5189890E-02
1295.930, 1.4939740E-02
1297.858, 1.4838470E-02
1299.787, 1.4760150E-02
1301.715, 1.4746410E-02
1303.644, 1.4955260E-02
1305.572, 1.4863460E-02
1307.500, 1.4505830E-02
1309.429, 1.4656010E-02
1311.357, 1.4945160E-02
1313.286, 1.4781470E-02
1315.214, 1.4630980E-02
1317.143, 1.4834020E-02
1319.071, 1.4955680E-02
1321.000, 1.4834110E-02
1322.928, 1.4845200E-02
1324.857, 1.5195680E-02
1326.785, 1.5194780E-02
1328.714, 1.4972600E-02
1330.642, 1.4687540E-02
1332.571, 1.4796290E-02
1334.499, 1.5266510E-02
1336.427, 1.5249380E-02
1338.356, 1.5013270E-02
1340.284, 1.4901620E-02
1342.213, 1.4709430E-02
1344.141, 1.4714130E-02
1346.070, 1.4802200E-02
1347.998, 1.4911050E-02
1349.927, 1.5109100E-02
1351.855, 1.4975080E-02
1353.784, 1.4839040E-02
1355.712, 1.4970160E-02
1357.641, 1.5114210E-02
1359.569, 1.5120890E-02
1361.498, 1.5048530E-02
1363.426, 1.5045510E-02
1365.354, 1.5208670E-02
1367.283, 1.5254970E-02
1369.211, 1.5180050E-02
1371.140, 1.5060460E-02
1373.068, 1.5138290E-02
1374.997, 1.5272140E-02
1376.925, 1.5131020E-02
1378.854, 1.5273870E-02
1380.782, 1.5426140E-02
1382.711, 1.5421320E-02
1384.639, 1.5831441E-02
1386.568, 1.6128350E-02
1388.496, 1.6180649E-02
1390.424, 1.6321771E-02
1392.353, 1.6890731E-02
1394.281, 1.7248480E-02
1396.210, 1.7333981E-02
1398.138, 1.7317070E-02
1400.067, 1.7532960E-02
1401.995, 1.7964950E-02
1403.924, 1.8233670E-02
1405.852, 1.8689100E-02
1407.781, 1.9183511E-02
1409.709, 1.9377880E-02
1411.638, 1.9545039E-02
1413.566, 1.9696360E-02
1415.495, 2.0147720E-02
1417.423, 2.0522300E-02
1419.351, 2.0825010E-02
1421.280, 2.1116590E-02
1423.208, 2.1461969E-02
1425.137, 2.1761719E-02
1427.065, 2.1837790E-02
1428.994, 2.1985959E-02
1430.922, 2.2278439E-02
1432.851, 2.2319829E-02
1434.779, 2.2048080E-02
1436.708, 2.1984501E-02
1438.636, 2.1989871E-02
1440.565, 2.1606451E-02
1442.493, 2.1051440E-02
1444.422, 2.1155121E-02
1446.350, 2.1175779E-02
1448.278, 2.0747310E-02
1450.207, 2.0206761E-02
1452.135, 1.9787030E-02
1454.064, 1.9479560E-02
1455.992, 1.8948641E-02
1457.921, 1.8690029E-02
1459.849, 1.8787540E-02
1461.778, 1.8500170E-02
1463.706, 1.8140210E-02
1465.635, 1.8119941E-02
1467.563, 1.8523781E-02
1469.492, 1.9041751E-02
1471.420, 1.9280549E-02
1473.349, 1.9768471E-02
1475.277, 2.0584950E-02
1477.205, 2.0777609E-02
1479.134, 2.0657031E-02
1481.062, 2.0768810E-02
1482.991, 2.0884920E-02
1484.919, 2.1318490E-02
1486.848, 2.1621309E-02
1488.776, 2.1397980E-02
1490.705, 2.1351360E-02
1492.633, 2.1231741E-02
1494.562, 2.1093300E-02
1496.490, 2.1326769E-02
1498.419, 2.1945810E-02
1500.347, 2.2338649E-02
1502.276, 2.2589790E-02
1504.204, 2.2662440E-02
1506.132, 2.2889201E-02
1508.061, 2.2892941E-02
1509.989, 2.2636849E-02
1511.918, 2.2948271E-02
1513.846, 2.3341769E-02
1515.775, 2.3498440E-02
1517.703, 2.3704089E-02
1519.632, 2.3930700E-02
1521.560, 2.4240971E-02
1523.489, 2.4553850E-02
1525.417, 2.4705591E-02
1527.346, 2.5302069E-02
1529.274, 2.5677441E-02
1531.203, 2.5884710E-02
1533.131, 2.6266931E-02
1535.059, 2.6716489E-02
1536.988, 2.7386680E-02
1538.916, 2.7703840E-02
1540.845, 2.7734300E-02
1542.773, 2.8299211E-02
1544.702, 2.8658319E-02
1546.630, 2.8829049E-02
1548.559, 2.9225601E-02
1550.487, 2.9516749E-02
1552.416, 3.0131010E-02
1554.344, 3.0848389E-02
1556.273, 3.1104440E-02
1558.201, 3.1334061E-02
1560.130, 3.1657532E-02
1562.058, 3.1769119E-02
1563.986, 3.2225970E-02
1565.915, 3.3315640E-02
1567.843, 3.3990640E-02
1569.772, 3.4113482E-02
1571.700, 3.4417629E-02
1573.629, 3.4978818E-02
1575.557, 3.5687629E-02
1577.486, 3.6282640E-02
1579.414, 3.6679901E-02
1581.343, 3.6999620E-02
1583.271, 3.7759360E-02
1585.200, 3.8852330E-02
1587.128, 3.9698690E-02
1589.057, 4.0381640E-02
1590.985, 4.1017201E-02
1592.913, 4.2085718E-02
1594.842, 4.3063339E-02
1596.770, 4.4008419E-02
1598.699, 4.5319669E-02
1600.627, 4.6781279E-02
1602.556, 4.8272520E-02
1604.484, 4.9623981E-02
1606.413, 5.1082142E-02
1608.341, 5.2848000E-02
1610.270, 5.4539979E-02
1612.198, 5.6402050E-02
1614.127, 5.8414292E-02
1616.055, 6.0218468E-02
1617.984, 6.1926410E-02
1619.912, 6.3663676E-02
1621.840, 6.4852670E-02
1623.769, 6.5388888E-02
1625.697, 6.5628901E-02
1627.626, 6.6047087E-02
1629.554, 6.6589609E-02
1631.483, 6.6724837E-02
1633.411, 6.6047817E-02
1635.340, 6.5449148E-02
1637.268, 6.4976826E-02
1639.197, 6.4683311E-02
1641.125, 6.4127043E-02
1643.054, 6.2973097E-02
1644.982, 6.1512690E-02
1646.911, 6.0236290E-02
1648.839, 5.8829889E-02
1650.767, 5.7114169E-02
1652.696, 5.5791851E-02
1654.624, 5.4438230E-02
1656.553, 5.3044390E-02
1658.481, 5.2000880E-02
1660.410, 5.0710130E-02
1662.338, 4.9422730E-02
1664.267, 4.8126820E-02
1666.195, 4.6895739E-02
1668.124, 4.6386991E-02
1670.052, 4.5506280E-02
1671.981, 4.4002891E-02
1673.909, 4.2461671E-02
1675.838, 4.1083869E-02
1677.766, 3.9902449E-02
1679.694, 3.8607061E-02
1681.623, 3.7130781E-02
1683.551, 3.5733640E-02
1685.480, 3.4211271E-02
1687.408, 3.2787811E-02
1689.337, 3.1708751E-02
1691.265, 3.0277200E-02
1693.194, 2.8642271E-02
1695.122, 2.7205739E-02
1697.051, 2.6025470E-02
1698.979, 2.4932710E-02
1700.908, 2.3580769E-02
1702.836, 2.2059970E-02
1704.765, 2.0824160E-02
1706.693, 2.0072410E-02
1708.621, 1.8891299E-02
1710.550, 1.7867031E-02
1712.478, 1.7281961E-02
1714.407, 1.6629100E-02
1716.335, 1.6240200E-02
1718.264, 1.5938140E-02
1720.192, 1.5622810E-02
1722.121, 1.5105860E-02
1724.049, 1.4425190E-02
1725.978, 1.3565920E-02
1727.906, 1.2823410E-02
1729.835, 1.2124070E-02
1731.763, 1.1156040E-02
1733.692, 9.8310262E-03
1735.620, 8.3649056E-03
1737.548, 6.8725972E-03
1739.477, 5.7367878E-03
1741.405, 5.1737102E-03
1743.334, 4.7248220E-03
1745.262, 4.6894909E-03
1747.191, 4.9564382E-03
1749.119, 5.4026428E-03
1751.048, 6.6541340E-03
1752.976, 7.6282271E-03
1754.905, 8.4689604E-03
1756.833, 9.8644774E-03
1758.762, 1.0847670E-02
1760.690, 1.1005140E-02
1762.619, 1.1341180E-02
1764.547, 1.2107920E-02
1766.475, 1.2344060E-02
1768.404, 1.2524750E-02
1770.332, 1.2516470E-02
1772.261, 1.2020140E-02
1774.189, 1.1833330E-02
1776.118, 1.2052390E-02
1778.046, 1.2171410E-02
1779.975, 1.2415610E-02
1781.903, 1.2433510E-02
1783.832, 1.2185010E-02
1785.760, 1.2250000E-02
1787.689, 1.2037900E-02
1789.617, 1.1923220E-02
1791.546, 1.1915210E-02
1793.474, 1.1640800E-02
1795.402, 1.1574760E-02
1797.331, 1.1486560E-02
1799.259, 1.1718780E-02
1801.188, 1.1526840E-02
1803.116, 1.1758150E-02
1805.045, 1.1930120E-02
1806.973, 1.1869430E-02
1808.902, 1.1731630E-02
1810.830, 1.1610960E-02
1812.759, 1.1356250E-02
1814.687, 1.1350280E-02
1816.616, 1.1088690E-02
1818.544, 1.1668550E-02
1820.473, 1.1913340E-02
1822.401, 1.1826350E-02
1824.329, 1.1898570E-02
1826.258, 1.1010770E-02
1828.186, 1.0109090E-02
1830.115, 1.0422470E-02
1832.043, 1.0307870E-02
1833.972, 1.0421530E-02
1835.900, 1.1133670E-02
1837.829, 1.1093320E-02
1839.757, 1.0627660E-02
1841.686, 1.0356190E-02
1843.614, 1.0945040E-02
1845.543, 1.1032060E-02
1847.471, 1.1430260E-02
1849.400, 1.1569630E-02
1851.328, 1.1362540E-02
1853.256, 1.0585930E-02
1855.185, 1.0206460E-02
1857.113, 1.0537010E-02
1859.042, 1.0716530E-02
1860.970, 1.0880000E-02
1862.899, 1.0604480E-02
1864.827, 9.8859426E-03
1866.756, 1.0411630E-02
1868.684, 1.1500840E-02
1870.613, 1.2110090E-02
1872.541, 1.2366210E-02
1874.470, 1.1784060E-02
1876.398, 1.1138660E-02
1878.327, 1.1022790E-02
1880.255, 1.0331950E-02
1882.183, 1.0341290E-02
1884.112, 1.0419660E-02
1886.040, 1.0648080E-02
1887.969, 1.1363300E-02
1889.897, 1.0999050E-02
1891.826, 1.0485680E-02
1893.754, 1.1009540E-02
1895.683, 1.1295610E-02
1897.611, 1.1147620E-02
1899.540, 1.1075450E-02
1901.468, 1.1035480E-02
1903.397, 1.0916940E-02
1905.325, 9.9787740E-03
1907.254, 1.0015670E-02
1909.182, 1.0927680E-02
1911.110, 1.0550820E-02
1913.039, 9.8616863E-03
1914.967, 9.2972899E-03
1916.896, 9.3568163E-03
1918.824, 1.0428770E-02
1920.753, 1.0495900E-02
1922.681, 1.0144600E-02
1924.610, 9.3435878E-03
1926.538, 9.9048549E-03
1928.467, 1.1654540E-02
1930.395, 1.2176330E-02
1932.324, 1.1803810E-02
1934.252, 1.0874950E-02
1936.181, 1.0034220E-02
1938.109, 1.0094710E-02
1940.037, 9.1305692E-03
1941.966, 9.2792464E-03
1943.894, 1.0528960E-02
1945.823, 1.1913470E-02
1947.751, 1.0872200E-02
1949.680, 9.5668221E-03
1951.608, 1.0070520E-02
1953.537, 1.0530200E-02
1955.465, 9.6809920E-03
1957.394, 8.9335907E-03
1959.322, 9.8911254E-03
1961.251, 1.0219910E-02
1963.179, 9.8972386E-03
1965.108, 9.8015713E-03
1967.036, 1.0141030E-02
1968.964, 8.5136220E-03
1970.893, 6.5623131E-03
1972.821, 6.3886628E-03
1974.750, 4.5213010E-03
1976.678, 4.7467751E-03
1978.607, 6.3561439E-03
1980.535, 8.7481951E-03
1982.464, 1.1457160E-02
1984.392, 1.1736270E-02
1986.321, 1.0276080E-02
1988.249, 9.9310577E-03
1990.178, 1.0366840E-02
1992.106, 8.1889201E-03
1994.035, 7.4808658E-03
1995.963, 9.1886222E-03
1997.891, 9.6021611E-03
1999.820, 8.1074554E-03
2001.748, 7.9216147E-03
2003.677, 8.8994429E-03
2005.605, 1.0125580E-02
2007.534, 1.0186460E-02
2009.462, 8.5709216E-03
2011.391, 7.2012572E-03
2013.319, 8.4550716E-03
2015.248, 1.0870140E-02
2017.176, 1.0067300E-02
2019.105, 7.3476708E-03
2021.033, 5.8140289E-03
2022.962, 6.1617382E-03
2024.890, 6.1326819E-03
2026.818, 5.5402969E-03
2028.747, 7.6443851E-03
2030.675, 8.1863645E-03
2032.604, 6.7612720E-03
2034.532, 6.6822339E-03
2036.461, 9.1659287E-03
2038.389, 9.6981227E-03
2040.318, 9.9795731E-03
2042.246, 1.0648890E-02
2044.175, 9.4183739E-03
2046.103, 8.7993694E-03
2048.032, 1.0827350E-02
2049.960, 1.1893560E-02
2051.889, 9.9848770E-03
2053.817, 1.1095620E-02
2055.746, 1.1195490E-02
2057.674, 1.0983510E-02
2059.603, 1.2287980E-02
2061.531, 1.3602840E-02
2063.459, 1.3278120E-02
2065.388, 1.2894100E-02
2067.316, 1.2530900E-02
2069.245, 1.3194560E-02
2071.173, 1.3417900E-02
2073.102, 1.2464900E-02
2075.030, 1.2422540E-02
2076.959, 1.2924580E-02
2078.887, 1.4734610E-02
2080.816, 1.4635030E-02
2082.744, 1.3335960E-02
2084.673, 1.2723590E-02
2086.601, 1.1272450E-02
2088.530, 1.0201670E-02
2090.458, 1.2241550E-02
2092.386, 1.2446110E-02
2094.315, 1.2804470E-02
2096.243, 1.3695440E-02
2098.172, 1.2603660E-02
2100.100, 1.2926580E-02
2102.029, 1.3701290E-02
2103.957, 1.4526970E-02
2105.886, 1.3903880E-02
2107.814, 1.1362720E-02
2109.743, 1.1451330E-02
2111.671, 1.2643950E-02
2113.600, 1.3180160E-02
2115.528, 1.2916390E-02
2117.457, 1.2151290E-02
2119.385, 1.2346460E-02
2121.313, 1.3476220E-02
2123.242, 1.2559890E-02
2125.170, 1.0755150E-02
2127.099, 1.0499980E-02
2129.027, 1.0360320E-02
2130.956, 1.0206990E-02
2132.884, 1.0311340E-02
2134.813, 8.7963939E-03
2136.741, 7.9843970E-03
2138.670, 8.5899001E-03
2140.598, 1.0625300E-02
2142.527, 1.2736080E-02
2144.455, 1.2297440E-02
2146.384, 1.1160730E-02
2148.312, 1.0577050E-02
2150.240, 1.1359760E-02
2152.169, 1.1147440E-02
2154.097, 7.1097421E-03
2156.026, 3.1211721E-03
2157.954, 2.0095641E-03
2159.883, 9.0096621E-03
2161.811, 1.4207670E-02
2163.740, 1.3331380E-02
2165.668, 1.0843520E-02
2167.597, 1.0460050E-02
2169.525, 1.2144210E-02
2171.454, 1.0325610E-02
2173.382, 7.4839368E-03
2175.311, 8.4296903E-03
2177.239, 1.0660300E-02
2179.167, 1.2898480E-02
2181.096, 1.2665750E-02
2183.024, 1.2926800E-02
2184.953, 1.4871900E-02
2186.881, 1.5403190E-02
2188.810, 1.5634321E-02
2190.738, 1.5092830E-02
2192.667, 1.5740460E-02
2194.595, 1.8175179E-02
2196.524, 1.8299161E-02
2198.452, 1.5096240E-02
2200.381, 1.3836260E-02
2202.309, 1.4668090E-02
2204.238, 1.3805900E-02
2206.166, 1.3077620E-02
2208.094, 1.4938230E-02
2210.023, 1.6446879E-02
2211.951, 1.4903500E-02
2213.880, 1.3990960E-02
2215.808, 1.5284420E-02
2217.737, 1.5756009E-02
2219.665, 1.6234450E-02
2221.594, 1.6625630E-02
2223.522, 1.5702309E-02
2225.451, 1.5284630E-02
2227.379, 1.5585610E-02
2229.308, 1.5948599E-02
2231.236, 1.7131720E-02
2233.165, 1.8656990E-02
2235.093, 1.9794790E-02
2237.021, 1.8690050E-02
2238.950, 1.8419420E-02
2240.878, 1.7617570E-02
2242.807, 1.7863410E-02
2244.735, 1.8939290E-02
2246.664, 1.8916391E-02
2248.592, 1.9543801E-02
2250.521, 2.0324660E-02
2252.449, 1.9937759E-02
2254.378, 1.9954760E-02
2256.306, 2.0529279E-02
2258.235, 2.1970591E-02
2260.163, 2.2367829E-02
2262.092, 2.1561811E-02
2264.020, 2.0857429E-02
2265.948, 2.0833710E-02
2267.877, 2.1083411E-02
2269.805, 2.1783710E-02
2271.734, 2.2588540E-02
2273.662, 2.1845611E-02
2275.591, 2.2087330E-02
2277.519, 2.4080070E-02
2279.448, 2.5626030E-02
2281.376, 2.5635300E-02
2283.305, 2.4958160E-02
2285.233, 2.4803150E-02
2287.162, 2.5527829E-02
2289.090, 2.4866860E-02
2291.019, 2.4975840E-02
2292.947, 2.5799699E-02
2294.875, 2.5720511E-02
2296.804, 2.6158201E-02
2298.732, 2.6719820E-02
2300.661, 2.6738791E-02
2302.589, 2.6179289E-02
2304.518, 2.5791749E-02
2306.446, 2.6236011E-02
2308.375, 2.7024871E-02
2310.303, 2.8018581E-02
2312.232, 2.8087029E-02
2314.160, 2.7472280E-02
2316.089, 2.7365681E-02
2318.017, 2.7956240E-02
2319.946, 2.8428979E-02
2321.874, 2.9105449E-02
2323.802, 2.9755110E-02
2325.731, 2.8662549E-02
2327.659, 2.7485980E-02
2329.588, 2.7511850E-02
2331.516, 2.7829889E-02
2333.445, 2.8243501E-02
2335.373, 2.8456550E-02
2337.302, 2.8249331E-02
2339.230, 2.8735220E-02
2341.159, 2.8525610E-02
2343.087, 2.8217571E-02
2345.016, 2.8655799E-02
2346.944, 2.8279360E-02
2348.873, 2.7712571E-02
2350.801, 2.8051591E-02
2352.729, 2.8597331E-02
2354.658, 2.8673969E-02
2356.586, 2.9013170E-02
2358.515, 2.9691450E-02
2360.443, 2.9840279E-02
2362.372, 2.9471479E-02
2364.300, 2.9129580E-02
2366.229, 2.8575500E-02
2368.157, 2.7971050E-02
2370.086, 2.8053381E-02
2372.014, 2.8635349E-02
2373.942, 2.9409900E-02
2375.871, 2.8163200E-02
2377.799, 2.7956869E-02
2379.728, 2.8775331E-02
2381.656, 2.8662421E-02
2383.585, 2.7876411E-02
2385.513, 2.8368801E-02
2387.442, 2.9402969E-02
2389.370, 2.9598510E-02
2391.299, 2.8557479E-02
2393.227, 2.7363090E-02
2395.156, 2.7882760E-02
2397.084, 2.8403880E-02
2399.012, 2.8498210E-02
2400.941, 2.8744681E-02
2402.869, 2.8871540E-02
2404.798, 2.9305110E-02
2406.726, 2.9873330E-02
2408.655, 3.0052820E-02
2410.583, 2.9922020E-02
2412.512, 2.9995810E-02
2414.440, 3.0724630E-02
2416.369, 3.1157929E-02
2418.297, 2.9960630E-02
2420.226, 2.9617410E-02
2422.154, 2.9811740E-02
2424.083, 2.8784800E-02
2426.011, 2.8000230E-02
2427.939, 2.8661121E-02
2429.868, 2.9344689E-02
2431.796, 2.9439401E-02
2433.725, 2.9453291E-02
2435.653, 2.8715281E-02
2437.582, 2.8159820E-02
2439.510, 2.9317871E-02
2441.439, 2.9587910E-02
2443.367, 2.9378369E-02
2445.296, 2.9858040E-02
2447.224, 3.0595381E-02
2449.153, 3.0394601E-02
2451.081, 3.0549990E-02
2453.010, 3.1261310E-02
2454.938, 3.1632140E-02
2456.866, 3.0983649E-02
2458.795, 2.9773870E-02
2460.723, 2.9158140E-02
2462.652, 3.0316230E-02
2464.580, 3.1590588E-02
2466.509, 3.1180050E-02
2468.437, 3.0381979E-02
2470.366, 3.0836090E-02
2472.294, 3.0698650E-02
2474.223, 3.0574720E-02
2476.151, 3.1074829E-02
2478.080, 3.1308152E-02
2480.008, 3.0748099E-02
2481.937, 2.9907130E-02
2483.865, 3.0062631E-02
2485.793, 2.9993920E-02
2487.722, 2.9940579E-02
2489.650, 3.0652151E-02
2491.579, 3.1445719E-02
2493.507, 3.2292351E-02
2495.436, 3.2036841E-02
2497.364, 3.1582199E-02
2499.293, 3.0589510E-02
2501.221, 2.9626340E-02
2503.150, 3.0678179E-02
2505.078, 3.1440418E-02
2507.007, 3.0870879E-02
2508.935, 3.0688200E-02
2510.864, 3.0928301E-02
2512.792, 3.2312840E-02
2514.720, 3.2993808E-02
2516.649, 3.2133728E-02
2518.577, 3.1838439E-02
2520.506, 3.1286981E-02
2522.434, 3.0842740E-02
2524.363, 3.1865850E-02
2526.291, 3.2624912E-02
2528.220, 3.2424081E-02
2530.148, 3.2674629E-02
2532.077, 3.2479510E-02
2534.005, 3.1212149E-02
2535.934, 3.0369651E-02
2537.862, 3.0822439E-02
2539.791, 3.1767812E-02
2541.719, 3.2973550E-02
2543.647, 3.3800799E-02
2545.576, 3.4990210E-02
2547.504, 3.3936571E-02
2549.433, 3.2720242E-02
2551.361, 3.3300649E-02
2553.290, 3.4253560E-02
2555.218, 3.4736041E-02
2557.147, 3.4888331E-02
2559.075, 3.5217341E-02
2561.004, 3.5377461E-02
2562.932, 3.4993291E-02
2564.861, 3.5451349E-02
2566.789, 3.5901450E-02
2568.718, 3.5325699E-02
2570.646, 3.5616972E-02
2572.574, 3.5673611E-02
2574.503, 3.5453159E-02
2576.431, 3.4843691E-02
2578.360, 3.4543369E-02
2580.288, 3.4226879E-02
2582.217, 3.4654159E-02
2584.145, 3.5592921E-02
2586.074, 3.6102869E-02
2588.002, 3.6208339E-02
2589.931, 3.7269600E-02
2591.859, 3.8357168E-02
2593.788, 3.8624309E-02
2595.716, 3.8790289E-02
2597.645, 3.8704369E-02
2599.573, 3.8317431E-02
2601.501, 3.8629819E-02
2603.430, 3.9286058E-02
2605.358, 3.8961541E-02
2607.287, 3.8608730E-02
2609.215, 3.8787659E-02
2611.144, 3.9179791E-02
2613.072, 3.9378669E-02
2615.001, 3.9950311E-02
2616.929, 4.1200191E-02
2618.858, 4.0244199E-02
2620.786, 4.0078271E-02
2622.715, 4.0658969E-02
2624.643, 4.1256979E-02
2626.572, 4.2070091E-02
2628.500, 4.2457171E-02
2630.428, 4.1610930E-02
2632.357, 4.1227121E-02
2634.285, 4.2536210E-02
2636.214, 4.3361239E-02
2638.142, 4.3744721E-02
2640.071, 4.4180822E-02
2641.999, 4.4202171E-02
2643.928, 4.4338509E-02
2645.856, 4.4878591E-02
2647.785, 4.5873221E-02
2649.713, 4.6646509E-02
2651.642, 4.6665270E-02
2653.570, 4.6233259E-02
2655.499, 4.5988549E-02
2657.427, 4.6513122E-02
2659.355, 4.7323611E-02
2661.284, 4.7473598E-02
2663.212, 4.7464330E-02
2665.141, 4.7671039E-02
2667.069, 4.7547061E-02
2668.998, 4.8284411E-02
2670.926, 4.9297690E-02
2672.855, 4.9112640E-02
2674.783, 4.9457941E-02
2676.712, 5.0793141E-02
2678.640, 5.0477549E-02
2680.569, 5.0379589E-02
2682.497, 5.0780371E-02
2684.426, 5.0371271E-02
2686.354, 5.1434431E-02
2688.282, 5.2614581E-02
2690.211, 5.2990019E-02
2692.139, 5.3438678E-02
2694.068, 5.3958360E-02
2695.996, 5.4546889E-02
2697.925, 5.5007990E-02
2699.853, 5.5455141E-02
2701.782, 5.5394690E-02
2703.710, 5.5258691E-02
2705.639, 5.6496661E-02
2707.567, 5.7129551E-02
2709.496, 5.7590771E-02
2711.424, 5.7768591E-02
2713.353, 5.9700869E-02
2715.281, 6.1230399E-02
2717.209, 6.1093200E-02
2719.138, 6.0795069E-02
2721.066, 6.0658000E-02
2722.995, 6.2202219E-02
2724.923, 6.3997239E-02
2726.852, 6.4121209E-02
2728.780, 6.3200332E-02
2730.709, 6.3545637E-02
2732.637, 6.4084992E-02
2734.566, 6.3621633E-02
2736.494, 6.5682091E-02
2738.423, 6.7611814E-02
2740.351, 6.6725887E-02
2742.280, 6.6515803E-02
2744.208, 6.7689642E-02
2746.136, 6.9418147E-02
2748.065, 6.9622777E-02
2749.993, 6.9745727E-02
2751.922, 7.0261031E-02
2753.850, 7.2041564E-02
2755.779, 7.2681509E-02
2757.707, 7.2567537E-02
2759.636, 7.3159188E-02
2761.564, 7.4020647E-02
2763.493, 7.4558564E-02
2765.421, 7.5963877E-02
2767.350, 7.6857232E-02
2769.278, 7.6366201E-02
2771.207, 7.5867407E-02
2773.135, 7.6949067E-02
2775.063, 7.8713544E-02
2776.992, 7.9727098E-02
2778.920, 8.0525398E-02
2780.849, 8.1638947E-02
2782.777, 8.2839511E-02
2784.706, 8.2246937E-02
2786.634, 8.2824498E-02
2788.563, 8.3890110E-02
2790.491, 8.4134169E-02
2792.420, 8.5567549E-02
2794.348, 8.6596318E-02
2796.277, 8.5887536E-02
2798.205, 8.6208157E-02
2800.134, 8.7695219E-02
2802.062, 8.8454247E-02
2803.990, 8.8731810E-02
2805.919, 9.0196706E-02
2807.847, 9.2496157E-02
2809.776, 9.4690204E-02
2811.704, 9.5007077E-02
2813.633, 9.4906479E-02
2815.561, 9.4959751E-02
2817.490, 9.5513210E-02
2819.418, 9.5978163E-02
2821.347, 9.7637244E-02
2823.275, 9.9265672E-02
2825.204, 0.1002293
2827.132, 9.9853709E-02
2829.061, 9.9781193E-02
2830.989, 0.1017873
2832.917, 0.1030719
2834.846, 0.1035923
2836.774, 0.1049243
2838.703, 0.1056532
2840.631, 0.1040657
2842.560, 0.1045768
2844.488, 0.1069907
2846.417, 0.1076687
2848.345, 0.1083215
2850.274, 0.1098048
2852.202, 0.1110238
2854.131, 0.1122342
2856.059, 0.1132242
2857.988, 0.1154622
2859.916, 0.1172997
2861.844, 0.1186227
2863.773, 0.1195592
2865.701, 0.1197383
2867.630, 0.1205984
2869.558, 0.1214779
2871.487, 0.1220051
2873.415, 0.1230671
2875.344, 0.1248142
2877.272, 0.1262589
2879.201, 0.1271701
2881.129, 0.1272147
2883.058, 0.1263051
2884.986, 0.1273321
2886.915, 0.1294397
2888.843, 0.1314913
2890.771, 0.1323506
2892.700, 0.1332064
2894.628, 0.1350062
2896.557, 0.1361092
2898.485, 0.1371466
2900.414, 0.1382587
2902.342, 0.1383606
2904.271, 0.1375615
2906.199, 0.1390642
2908.128, 0.1412936
2910.056, 0.1429305
2911.985, 0.1442785
2913.913, 0.1468518
2915.842, 0.1482791
2917.770, 0.1488303
2919.698, 0.1516442
2921.627, 0.1521251
2923.555, 0.1512129
2925.484, 0.1532513
2927.412, 0.1567065
2929.341, 0.1584737
2931.269, 0.1586481
2933.198, 0.1600310
2935.126, 0.1609069
2937.055, 0.1610067
2938.983, 0.1625300
2940.912, 0.1652733
2942.840, 0.1677962
2944.769, 0.1693027
2946.697, 0.1695334
2948.625, 0.1700782
2950.554, 0.1719526
2952.482, 0.1723613
2954.411, 0.1725634
2956.339, 0.1760535
2958.268, 0.1784554
2960.196, 0.1784057
2962.125, 0.1796394
2964.053, 0.1812060
2965.982, 0.1825166
2967.910, 0.1849874
2969.839, 0.1876767
2971.767, 0.1880161
2973.696, 0.1864813
2975.624, 0.1884765
2977.552, 0.1899139
2979.481, 0.1909680
2981.409, 0.1921068
2983.338, 0.1927427
2985.266, 0.1951142
2987.195, 0.1977042
2989.123, 0.1989311
2991.052, 0.1992575
2992.980, 0.1996738
2994.909, 0.2002997
2996.837, 0.2016803
2998.766, 0.2033173
3000.694, 0.2058651
3002.623, 0.2083474
3004.551, 0.2105538
3006.479, 0.2107279
3008.408, 0.2092078
3010.336, 0.2099659
3012.265, 0.2121413
3014.193, 0.2134612
3016.122, 0.2143929
3018.050, 0.2166125
3019.979, 0.2184156
3021.907, 0.2193625
3023.836, 0.2204914
3025.764, 0.2220769
3027.693, 0.2215051
3029.621, 0.2213936
3031.550, 0.2196667
3033.478, 0.2206622
3035.406, 0.2261045
3037.335, 0.2269752
3039.263, 0.2266555
3041.192, 0.2282557
3043.120, 0.2284663
3045.049, 0.2271849
3046.977, 0.2299121
3048.906, 0.2321559
3050.834, 0.2336116
3052.763, 0.2344097
3054.691, 0.2360680
3056.620, 0.2381140
3058.548, 0.2383693
3060.477, 0.2379724
3062.405, 0.2380371
3064.333, 0.2373714
3066.262, 0.2378635
3068.190, 0.2387767
3070.119, 0.2389101
3072.047, 0.2398693
3073.976, 0.2415711
3075.904, 0.2445397
3077.833, 0.2472375
3079.761, 0.2480119
3081.690, 0.2472141
3083.618, 0.2480059
3085.547, 0.2508071
3087.475, 0.2506198
3089.404, 0.2510158
3091.332, 0.2532924
3093.260, 0.2537359
3095.189, 0.2531176
3097.117, 0.2525209
3099.046, 0.2526446
3100.974, 0.2537188
3102.903, 0.2553904
3104.831, 0.2566687
3106.760, 0.2565016
3108.688, 0.2551725
3110.617, 0.2542837
3112.545, 0.2556092
3114.474, 0.2568015
3116.402, 0.2557923
3118.331, 0.2539068
3120.259, 0.2546899
3122.188, 0.2565353
3124.116, 0.2571731
3126.044, 0.2587213
3127.973, 0.2599044
3129.901, 0.2602129
3131.830, 0.2621109
3133.758, 0.2633523
3135.687, 0.2627253
3137.615, 0.2624882
3139.544, 0.2623414
3141.472, 0.2612015
3143.401, 0.2614186
3145.329, 0.2628068
3147.258, 0.2624707
3149.186, 0.2620733
3151.115, 0.2638726
3153.043, 0.2648919
3154.971, 0.2637996
3156.900, 0.2629544
3158.828, 0.2626792
3160.757, 0.2629108
3162.685, 0.2647683
3164.614, 0.2659370
3166.542, 0.2656993
3168.471, 0.2667856
3170.399, 0.2660983
3172.328, 0.2648894
3174.256, 0.2654185
3176.185, 0.2664911
3178.113, 0.2664891
3180.042, 0.2658669
3181.970, 0.2654048
3183.898, 0.2660857
3185.827, 0.2665701
3187.755, 0.2656278
3189.684, 0.2655487
3191.612, 0.2660120
3193.541, 0.2670453
3195.469, 0.2670887
3197.398, 0.2651978
3199.326, 0.2642600
3201.255, 0.2645232
3203.183, 0.2649801
3205.112, 0.2650507
3207.040, 0.2657291
3208.969, 0.2663396
3210.897, 0.2654519
3212.825, 0.2649274
3214.754, 0.2662972
3216.682, 0.2668120
3218.611, 0.2636181
3220.539, 0.2613800
3222.468, 0.2618130
3224.396, 0.2621555
3226.325, 0.2617527
3228.253, 0.2626723
3230.182, 0.2636516
3232.110, 0.2610012
3234.039, 0.2592607
3235.967, 0.2600348
3237.896, 0.2606755
3239.824, 0.2604388
3241.752, 0.2595218
3243.681, 0.2588983
3245.609, 0.2583209
3247.538, 0.2573437
3249.466, 0.2585057
3251.395, 0.2586917
3253.323, 0.2577786
3255.252, 0.2577700
3257.180, 0.2567850
3259.109, 0.2560583
3261.037, 0.2578729
3262.966, 0.2570105
3264.894, 0.2540566
3266.823, 0.2535157
3268.751, 0.2536363
3270.679, 0.2536992
3272.608, 0.2529494
3274.536, 0.2535393
3276.465, 0.2534342
3278.393, 0.2528451
3280.322, 0.2506227
3282.250, 0.2493774
3284.179, 0.2489048
3286.107, 0.2489952
3288.036, 0.2500446
3289.964, 0.2500429
3291.893, 0.2496442
3293.821, 0.2485267
3295.750, 0.2476074
3297.678, 0.2473262
3299.606, 0.2460395
3301.535, 0.2472391
3303.463, 0.2464895
3305.392, 0.2458865
3307.320, 0.2469102
3309.249, 0.2459522
3311.177, 0.2457430
3313.106, 0.2469608
3315.034, 0.2461682
3316.963, 0.2457088
3318.891, 0.2461382
3320.820, 0.2458883
3322.748, 0.2446726
3324.677, 0.2443501
3326.605, 0.2443607
3328.533, 0.2423505
3330.462, 0.2412781
3332.390, 0.2412237
3334.319, 0.2403143
3336.247, 0.2408876
3338.176, 0.2414205
3340.104, 0.2409683
3342.033, 0.2402351
3343.961, 0.2381756
3345.890, 0.2367764
3347.818, 0.2346655
3349.747, 0.2336365
3351.675, 0.2374189
3353.604, 0.2390967
3355.532, 0.2366392
3357.460, 0.2318737
3359.389, 0.2290318
3361.317, 0.2311362
3363.246, 0.2329070
3365.174, 0.2328229
3367.103, 0.2301217
3369.031, 0.2276635
3370.960, 0.2272542
3372.888, 0.2260137
3374.817, 0.2237010
3376.745, 0.2240914
3378.674, 0.2256477
3380.602, 0.2235436
3382.531, 0.2213292
3384.459, 0.2205259
3386.387, 0.2194160
3388.316, 0.2167962
3390.244, 0.2164342
3392.173, 0.2173617
3394.101, 0.2163170
3396.030, 0.2145429
3397.958, 0.2129212
3399.887, 0.2120125
3401.815, 0.2127395
3403.744, 0.2133621
3405.672, 0.2091522
3407.601, 0.2067546
3409.529, 0.2069695
3411.458, 0.2069970
3413.386, 0.2058034
3415.314, 0.2033577
3417.243, 0.2020168
3419.171, 0.1983877
3421.100, 0.1973325
3423.028, 0.1973929
3424.957, 0.1933037
3426.885, 0.1929418
3428.814, 0.1942941
3430.742, 0.1901588
3432.671, 0.1864460
3434.599, 0.1864592
3436.528, 0.1858571
3438.456, 0.1840125
3440.385, 0.1826434
3442.313, 0.1803913
3444.241, 0.1765434
3446.170, 0.1755404
3448.098, 0.1764493
3450.027, 0.1760487
3451.955, 0.1749925
3453.884, 0.1709010
3455.812, 0.1665139
3457.741, 0.1642667
3459.669, 0.1632216
3461.598, 0.1629329
3463.526, 0.1612940
3465.455, 0.1606805
3467.383, 0.1601046
3469.312, 0.1566770
3471.240, 0.1537815
3473.168, 0.1524547
3475.097, 0.1520166
3477.025, 0.1536816
3478.954, 0.1510087
3480.882, 0.1488433
3482.811, 0.1465807
3484.739, 0.1441749
3486.668, 0.1401750
3488.596, 0.1358292
3490.525, 0.1357747
3492.453, 0.1361564
3494.382, 0.1356566
3496.310, 0.1345008
3498.239, 0.1325874
3500.167, 0.1297804
3502.095, 0.1300159
3504.024, 0.1306872
3505.952, 0.1273573
3507.881, 0.1237887
3509.809, 0.1228589
3511.738, 0.1220410
3513.666, 0.1213585
3515.595, 0.1215264
3517.523, 0.1204159
3519.452, 0.1176760
3521.380, 0.1122626
3523.309, 0.1096799
3525.237, 0.1104478
3527.166, 0.1091742
3529.094, 0.1091309
3531.022, 0.1086212
3532.951, 0.1047260
3534.879, 0.1024468
3536.808, 0.1026231
3538.736, 0.1040622
3540.665, 0.1034387
3542.593, 0.1005204
3544.522, 9.8385356E-02
3546.450, 9.4809659E-02
3548.379, 9.4946228E-02
3550.307, 9.4124667E-02
3552.236, 8.8925421E-02
3554.164, 8.6980462E-02
3556.093, 8.5259274E-02
3558.021, 8.2798824E-02
3559.949, 8.2965910E-02
3561.878, 8.2556397E-02
3563.806, 7.9240859E-02
3565.735, 7.8067780E-02
3567.663, 7.5636700E-02
3569.592, 7.2359763E-02
3571.520, 7.1447492E-02
3573.449, 6.8074048E-02
3575.377, 6.7209557E-02
3577.306, 6.5336540E-02
3579.234, 6.1826330E-02
3581.163, 6.0996551E-02
3583.091, 6.2169589E-02
3585.020, 5.8126561E-02
3586.948, 5.6194380E-02
3588.876, 5.5694692E-02
3590.805, 5.2773248E-02
3592.733, 5.0158922E-02
3594.662, 5.0895210E-02
3596.590, 5.4087531E-02
3598.519, 4.9654819E-02
3600.447, 4.2284671E-02
3602.376, 4.2254090E-02
3604.304, 4.5036580E-02
3606.233, 4.3580860E-02
3608.161, 4.1583698E-02
3610.090, 3.7120320E-02
3612.018, 3.5363469E-02
3613.947, 3.3897810E-02
3615.875, 3.1077109E-02
3617.803, 3.2486580E-02
3619.732, 3.3160690E-02
3621.660, 3.1949822E-02
3623.589, 3.0117750E-02
3625.517, 2.6756329E-02
3627.446, 2.5974540E-02
3629.374, 2.5374619E-02
3631.303, 2.3414640E-02
3633.231, 2.2651400E-02
3635.160, 2.2935679E-02
3637.088, 2.3423821E-02
3639.017, 2.0286581E-02
3640.945, 2.0658350E-02
3642.874, 2.1735661E-02
3644.802, 1.9623561E-02
3646.730, 1.8453700E-02
3648.659, 1.5235880E-02
3650.587, 1.5047080E-02
3652.516, 1.5888250E-02
3654.444, 1.6641650E-02
3656.373, 1.6338030E-02
3658.301, 1.4597050E-02
3660.230, 1.5852099E-02
3662.158, 1.6835460E-02
3664.087, 1.4342150E-02
3666.015, 1.3348250E-02
3667.944, 1.4843930E-02
3669.872, 1.5938200E-02
3671.801, 1.3073670E-02
3673.729, 1.4398560E-02
3675.657, 1.6891850E-02
3677.586, 1.6833849E-02
3679.514, 1.5238800E-02
3681.443, 1.1601040E-02
3683.371, 1.3394710E-02
3685.300, 1.4111630E-02
3687.228, 1.2997420E-02
3689.157, 1.5513350E-02
3691.085, 1.5090790E-02
3693.014, 1.0786520E-02
3694.942, 9.3975188E-03
3696.871, 1.0066180E-02
3698.799, 1.1569690E-02
3700.728, 1.0640310E-02
3702.656, 9.6083013E-03
3704.584, 1.1898880E-02
3706.513, 1.1889480E-02
3708.441, 1.1654310E-02
3710.370, 1.1053820E-02
3712.298, 9.9625066E-03
3714.227, 1.1224180E-02
3716.155, 8.2720639E-03
3718.084, 8.5488018E-03
3720.012, 1.0346640E-02
3721.941, 1.1136850E-02
3723.869, 1.2982290E-02
3725.798, 1.3545880E-02
3727.726, 1.3018400E-02
3729.655, 1.1601600E-02
3731.583, 9.4719287E-03
3733.511, 1.0238900E-02
3735.440, 1.2109090E-02
3737.368, 9.1873240E-03
3739.297, 6.4397128E-03
3741.225, 9.0614241E-03
3743.154, 1.1258890E-02
3745.082, 1.4258800E-02
3747.011, 1.6540840E-02
3748.939, 1.1105320E-02
3750.868, 8.6305523E-03
3752.796, 1.2748370E-02
3754.725, 1.4875450E-02
3756.653, 1.3499540E-02
3758.582, 1.3001620E-02
3760.510, 1.1147370E-02
3762.438, 1.0802430E-02
3764.367, 1.2412480E-02
3766.295, 1.3758430E-02
3768.224, 1.2914910E-02
3770.152, 1.0950710E-02
3772.081, 1.0568690E-02
3774.009, 8.6453333E-03
3775.938, 9.3286913E-03
3777.866, 1.3582960E-02
3779.795, 1.3782740E-02
3781.723, 1.1493510E-02
3783.652, 1.1621330E-02
3785.580, 9.9678477E-03
3787.509, 9.5164375E-03
3789.437, 9.6282531E-03
3791.365, 1.1690570E-02
3793.294, 1.3980130E-02
3795.222, 1.4635430E-02
3797.151, 1.5137620E-02
3799.079, 1.4259320E-02
3801.008, 1.3605080E-02
3802.936, 1.0414200E-02
3804.865, 8.6399736E-03
3806.793, 1.2085240E-02
3808.722, 1.3793280E-02
3810.650, 1.0144250E-02
3812.579, 9.0917209E-03
3814.507, 1.0404040E-02
3816.436, 1.1727250E-02
3818.364, 1.3465670E-02
3820.292, 1.3236400E-02
3822.221, 1.0625310E-02
3824.149, 8.2759643E-03
3826.078, 1.0479610E-02
3828.006, 1.3277190E-02
3829.935, 9.8017389E-03
3831.863, 9.3502831E-03
3833.792, 1.1936410E-02
3835.720, 1.1965330E-02
3837.649, 1.0404590E-02
3839.577, 1.0715300E-02
3841.506, 1.2201080E-02
3843.434, 1.2679740E-02
3845.363, 1.2250160E-02
3847.291, 1.3409740E-02
3849.219, 1.3184160E-02
3851.148, 1.2793910E-02
3853.076, 1.1432570E-02
3855.005, 1.3350880E-02
3856.933, 1.7342540E-02
3858.862, 1.7482091E-02
3860.790, 1.4583330E-02
3862.719, 1.1849750E-02
3864.647, 1.1550580E-02
3866.576, 1.1697210E-02
3868.504, 1.2486720E-02
3870.433, 1.1088090E-02
3872.361, 1.1319010E-02
3874.290, 1.3402010E-02
3876.218, 1.5337210E-02
3878.146, 1.5458570E-02
3880.075, 1.3854520E-02
3882.003, 1.1745180E-02
3883.932, 1.0802680E-02
3885.860, 1.3299540E-02
3887.789, 1.7790301E-02
3889.717, 1.6788840E-02
3891.646, 1.2060430E-02
3893.574, 1.1464010E-02
3895.503, 1.1306610E-02
3897.431, 1.2498780E-02
3899.360, 1.7832279E-02
3901.288, 1.5667450E-02
3903.217, 1.2173530E-02
3905.145, 1.1697800E-02
3907.073, 1.3082490E-02
3909.002, 1.5119020E-02
3910.930, 1.5825581E-02
3912.859, 1.3719960E-02
3914.787, 1.2530920E-02
3916.716, 1.3835010E-02
3918.644, 1.4084530E-02
3920.573, 1.4775470E-02
3922.501, 1.4198780E-02
3924.430, 1.3622640E-02
3926.358, 1.3974400E-02
3928.287, 1.2147770E-02
3930.215, 9.0440074E-03
3932.144, 1.0059120E-02
3934.072, 1.4035760E-02
3936.000, 1.5001350E-02
3937.929, 1.4067940E-02
3939.857, 1.5129180E-02
3941.786, 1.8509589E-02
3943.714, 1.8837010E-02
3945.643, 1.6510990E-02
3947.571, 1.6255479E-02
3949.500, 1.5613700E-02
3951.428, 1.3753580E-02
3953.357, 1.2429000E-02
3955.285, 1.3692230E-02
3957.214, 1.6369440E-02
3959.142, 1.8031040E-02
3961.071, 1.6376920E-02
3962.999, 1.2919520E-02
3964.927, 1.1402580E-02
3966.856, 1.3976350E-02
3968.784, 1.3438880E-02
3970.713, 1.0266320E-02
3972.641, 1.4190350E-02
3974.570, 2.0632111E-02
3976.498, 2.0964039E-02
3978.427, 1.8713631E-02
3980.355, 1.9663000E-02
3982.284, 1.6403221E-02
3984.212, 1.4821170E-02
3986.141, 1.9315969E-02
3988.069, 1.9760851E-02
3989.998, 1.8907720E-02
3991.926, 1.5892750E-02
3993.854, 1.1906900E-02
3995.783, 1.0596860E-02
3997.711, 9.4823223E-03
3999.640, 9.4868969E-03
##END=



