##NAMES=Calcite
##RRUFFID=R050128
##IDEAL CHEMISTRY=CaCO_3_
##LOCALITY=Tie Siding, Albany County, Wyoming, USA
##OWNER=RRUFF
##SOURCE=Dave Bunk Minerals
##DESCRIPTION=Pseudomorph after aragonite, not single crystal. Trace of aragonite still present.
##STATUS=The identification of this mineral has been confirmed by X-ray diffraction and chemical analysis
##URL=rruff.info/R050128
##MEASURED CHEMISTRY=Ca_1.00_CO_3_
3.741225e+002, 4.965393e-002
3.760510e+002, 3.773483e-002
3.779795e+002, 3.912300e-002
3.799079e+002, 3.740117e-002
3.818364e+002, 3.667112e-002
3.837649e+002, 2.996121e-002
3.856933e+002, 2.549841e-002
3.876218e+002, 2.563742e-002
3.895503e+002, 2.370368e-002
3.914787e+002, 2.464209e-002
3.934072e+002, 2.842051e-002
3.953357e+002, 2.927744e-002
3.972641e+002, 2.810526e-002
3.991926e+002, 2.396669e-002
4.011211e+002, 2.521063e-002
4.030495e+002, 2.486859e-002
4.049780e+002, 2.092962e-002
4.069065e+002, 1.906015e-002
4.088349e+002, 1.953302e-002
4.107634e+002, 1.920760e-002
4.126919e+002, 1.914782e-002
4.146203e+002, 1.804992e-002
4.165488e+002, 1.838298e-002
4.184773e+002, 1.705104e-002
4.204057e+002, 1.654945e-002
4.223342e+002, 1.621700e-002
4.242627e+002, 1.524194e-002
4.261911e+002, 1.553064e-002
4.281196e+002, 1.545405e-002
4.300481e+002, 1.503979e-002
4.319765e+002, 1.450297e-002
4.339050e+002, 1.501379e-002
4.358335e+002, 1.428429e-002
4.377619e+002, 1.224666e-002
4.396904e+002, 1.258868e-002
4.416189e+002, 1.302375e-002
4.435473e+002, 1.347762e-002
4.454758e+002, 1.371276e-002
4.474043e+002, 1.296733e-002
4.493327e+002, 1.281628e-002
4.512612e+002, 1.230096e-002
4.531897e+002, 1.248676e-002
4.551181e+002, 1.291215e-002
4.570466e+002, 1.262424e-002
4.589751e+002, 1.289620e-002
4.609035e+002, 1.193151e-002
4.628320e+002, 1.061431e-002
4.647605e+002, 1.106136e-002
4.666889e+002, 1.184906e-002
4.686174e+002, 1.109449e-002
4.705459e+002, 9.822231e-003
4.724743e+002, 9.996236e-003
4.744028e+002, 1.130843e-002
4.763313e+002, 1.196795e-002
4.782597e+002, 1.137392e-002
4.801882e+002, 1.112234e-002
4.821167e+002, 1.136887e-002
4.840451e+002, 1.115112e-002
4.859736e+002, 1.068914e-002
4.879021e+002, 1.014669e-002
4.898305e+002, 1.003215e-002
4.917590e+002, 9.807299e-003
4.936875e+002, 9.187569e-003
4.956159e+002, 9.034377e-003
4.975444e+002, 9.354870e-003
4.994729e+002, 9.314014e-003
5.014013e+002, 9.088453e-003
5.033298e+002, 8.978631e-003
5.052583e+002, 8.856726e-003
5.071867e+002, 8.193720e-003
5.091152e+002, 7.958120e-003
5.110437e+002, 8.310590e-003
5.129721e+002, 8.336601e-003
5.149006e+002, 8.008550e-003
5.168290e+002, 7.268691e-003
5.187575e+002, 6.976853e-003
5.206860e+002, 7.058512e-003
5.226144e+002, 7.093444e-003
5.245429e+002, 6.951139e-003
5.264714e+002, 7.038426e-003
5.283998e+002, 6.693271e-003
5.303283e+002, 6.241035e-003
5.322568e+002, 6.357031e-003
5.341852e+002, 6.502373e-003
5.361137e+002, 6.446684e-003
5.380422e+002, 6.459720e-003
5.399706e+002, 6.349471e-003
5.418991e+002, 6.044571e-003
5.438276e+002, 5.870282e-003
5.457560e+002, 5.883757e-003
5.476845e+002, 5.868759e-003
5.496130e+002, 5.768425e-003
5.515414e+002, 5.504712e-003
5.534699e+002, 5.638399e-003
5.553984e+002, 5.323858e-003
5.573268e+002, 4.893732e-003
5.592553e+002, 5.372460e-003
5.611838e+002, 5.635808e-003
5.631122e+002, 5.384067e-003
5.650407e+002, 5.026562e-003
5.669692e+002, 4.940234e-003
5.688976e+002, 5.639963e-003
5.708261e+002, 6.167223e-003
5.727546e+002, 6.032499e-003
5.746830e+002, 5.856998e-003
5.766115e+002, 6.034348e-003
5.785400e+002, 6.187428e-003
5.804684e+002, 5.893456e-003
5.823969e+002, 5.886172e-003
5.843254e+002, 6.328531e-003
5.862538e+002, 6.232401e-003
5.881823e+002, 5.974407e-003
5.901108e+002, 6.087887e-003
5.920392e+002, 6.522215e-003
5.939677e+002, 6.468196e-003
5.958962e+002, 5.838890e-003
5.978246e+002, 5.798267e-003
5.997531e+002, 6.029372e-003
6.016816e+002, 5.651529e-003
6.036100e+002, 5.687158e-003
6.055385e+002, 5.815067e-003
6.074670e+002, 5.597212e-003
6.093954e+002, 5.370238e-003
6.113239e+002, 5.498257e-003
6.132524e+002, 5.680553e-003
6.151808e+002, 5.571739e-003
6.171093e+002, 5.671248e-003
6.190378e+002, 5.624705e-003
6.209662e+002, 5.454251e-003
6.228947e+002, 5.502888e-003
6.248232e+002, 5.411938e-003
6.267516e+002, 5.419236e-003
6.286801e+002, 5.499030e-003
6.306086e+002, 5.537881e-003
6.325370e+002, 5.410559e-003
6.344655e+002, 5.312028e-003
6.363940e+002, 5.183173e-003
6.383224e+002, 5.302988e-003
6.402509e+002, 5.540157e-003
6.421794e+002, 5.583892e-003
6.441078e+002, 5.453967e-003
6.460363e+002, 5.114759e-003
6.479648e+002, 5.086149e-003
6.498932e+002, 5.656699e-003
6.518217e+002, 6.104149e-003
6.537502e+002, 6.010877e-003
6.556786e+002, 5.712663e-003
6.576071e+002, 5.731621e-003
6.595356e+002, 5.824001e-003
6.614641e+002, 6.027543e-003
6.633925e+002, 5.822170e-003
6.653210e+002, 5.720977e-003
6.672495e+002, 6.071707e-003
6.691779e+002, 5.907700e-003
6.711064e+002, 5.775307e-003
6.730349e+002, 6.037146e-003
6.749633e+002, 6.339582e-003
6.768918e+002, 6.524085e-003
6.788203e+002, 6.724725e-003
6.807487e+002, 6.972373e-003
6.826772e+002, 7.067009e-003
6.846057e+002, 7.343529e-003
6.865341e+002, 7.261618e-003
6.884626e+002, 7.356658e-003
6.903911e+002, 7.694693e-003
6.923195e+002, 8.346096e-003
6.942480e+002, 8.834202e-003
6.961765e+002, 9.674474e-003
6.981049e+002, 1.130638e-002
7.000334e+002, 1.322109e-002
7.019619e+002, 1.467944e-002
7.038903e+002, 1.750603e-002
7.058188e+002, 2.352910e-002
7.077473e+002, 3.869002e-002
7.096757e+002, 7.294752e-002
7.116042e+002, 1.102202e-001
7.135327e+002, 9.512956e-002
7.154611e+002, 5.016079e-002
7.173896e+002, 2.372810e-002
7.193181e+002, 1.373117e-002
7.212465e+002, 1.008154e-002
7.231750e+002, 8.297981e-003
7.251035e+002, 7.276499e-003
7.270319e+002, 6.689092e-003
7.289604e+002, 6.200335e-003
7.308889e+002, 5.963332e-003
7.328173e+002, 6.117302e-003
7.347458e+002, 6.177728e-003
7.366743e+002, 6.139521e-003
7.386027e+002, 6.094453e-003
7.405312e+002, 5.983130e-003
7.424597e+002, 5.884746e-003
7.443881e+002, 5.828727e-003
7.463166e+002, 5.768804e-003
7.482451e+002, 5.934944e-003
7.501735e+002, 5.945304e-003
7.521020e+002, 5.936503e-003
7.540305e+002, 6.062672e-003
7.559589e+002, 6.052994e-003
7.578874e+002, 6.277407e-003
7.598159e+002, 6.594875e-003
7.617443e+002, 6.666489e-003
7.636728e+002, 6.701750e-003
7.656013e+002, 6.854676e-003
7.675297e+002, 7.000085e-003
7.694582e+002, 7.098604e-003
7.713867e+002, 7.048678e-003
7.733151e+002, 7.315903e-003
7.752436e+002, 7.511477e-003
7.771721e+002, 7.567295e-003
7.791005e+002, 7.756606e-003
7.810290e+002, 7.824636e-003
7.829575e+002, 7.740912e-003
7.848859e+002, 7.875731e-003
7.868144e+002, 8.012706e-003
7.887429e+002, 8.044117e-003
7.906713e+002, 8.022859e-003
7.925998e+002, 8.066972e-003
7.945283e+002, 8.130423e-003
7.964567e+002, 8.300901e-003
7.983852e+002, 8.489499e-003
8.003137e+002, 8.624674e-003
8.022421e+002, 8.596848e-003
8.041706e+002, 8.622839e-003
8.060991e+002, 8.578967e-003
8.080275e+002, 8.609726e-003
8.099560e+002, 8.747459e-003
8.118845e+002, 9.207745e-003
8.138129e+002, 9.556344e-003
8.157414e+002, 9.659256e-003
8.176699e+002, 9.696346e-003
8.195983e+002, 9.944366e-003
8.215268e+002, 1.029687e-002
8.234553e+002, 1.072334e-002
8.253837e+002, 1.111178e-002
8.273122e+002, 1.143062e-002
8.292407e+002, 1.182534e-002
8.311691e+002, 1.252601e-002
8.330976e+002, 1.310764e-002
8.350261e+002, 1.397754e-002
8.369545e+002, 1.508906e-002
8.388830e+002, 1.663582e-002
8.408115e+002, 1.863372e-002
8.427399e+002, 2.162317e-002
8.446684e+002, 2.646846e-002
8.465969e+002, 3.657222e-002
8.485253e+002, 3.985831e-002
8.504538e+002, 3.407239e-002
8.523823e+002, 3.584499e-002
8.543107e+002, 4.326889e-002
8.562392e+002, 5.301062e-002
8.581677e+002, 6.465121e-002
8.600961e+002, 7.922465e-002
8.620246e+002, 9.820986e-002
8.639531e+002, 1.236365e-001
8.658815e+002, 1.583798e-001
8.678100e+002, 2.085494e-001
8.697385e+002, 2.700248e-001
8.716669e+002, 3.096006e-001
8.735954e+002, 3.026589e-001
8.755239e+002, 2.686184e-001
8.774523e+002, 2.261328e-001
8.793808e+002, 1.812889e-001
8.813093e+002, 1.392346e-001
8.832377e+002, 1.011546e-001
8.851662e+002, 6.119942e-002
8.870947e+002, 2.975494e-002
8.890231e+002, 1.627098e-002
8.909516e+002, 1.313693e-002
8.928801e+002, 1.232219e-002
8.948085e+002, 1.191068e-002
8.967370e+002, 1.161883e-002
8.986655e+002, 1.138425e-002
9.005939e+002, 1.115440e-002
9.025224e+002, 1.107906e-002
9.044509e+002, 1.116992e-002
9.063793e+002, 1.124058e-002
9.083078e+002, 1.112200e-002
9.102363e+002, 1.114711e-002
9.121647e+002, 1.113612e-002
9.140932e+002, 1.105402e-002
9.160217e+002, 1.101992e-002
9.179501e+002, 1.123691e-002
9.198786e+002, 1.147087e-002
9.218071e+002, 1.162640e-002
9.237355e+002, 1.178005e-002
9.256640e+002, 1.180313e-002
9.275925e+002, 1.185469e-002
9.295209e+002, 1.203748e-002
9.314494e+002, 1.220544e-002
9.333779e+002, 1.235752e-002
9.353063e+002, 1.248467e-002
9.372348e+002, 1.253866e-002
9.391633e+002, 1.255964e-002
9.410917e+002, 1.263573e-002
9.430202e+002, 1.289211e-002
9.449487e+002, 1.299584e-002
9.468771e+002, 1.296436e-002
9.488056e+002, 1.292426e-002
9.507341e+002, 1.296041e-002
9.526625e+002, 1.297550e-002
9.545910e+002, 1.295633e-002
9.565195e+002, 1.314175e-002
9.584479e+002, 1.321856e-002
9.603764e+002, 1.313924e-002
9.623049e+002, 1.330174e-002
9.642333e+002, 1.334311e-002
9.661618e+002, 1.333854e-002
9.680903e+002, 1.349120e-002
9.700187e+002, 1.356080e-002
9.719472e+002, 1.370926e-002
9.738757e+002, 1.397147e-002
9.758041e+002, 1.401614e-002
9.777326e+002, 1.407877e-002
9.796611e+002, 1.417332e-002
9.815895e+002, 1.428310e-002
9.835180e+002, 1.439795e-002
9.854465e+002, 1.463700e-002
9.873749e+002, 1.485672e-002
9.893034e+002, 1.495643e-002
9.912319e+002, 1.499007e-002
9.931603e+002, 1.521694e-002
9.950888e+002, 1.552949e-002
9.970173e+002, 1.573183e-002
9.989457e+002, 1.588142e-002
1.000874e+003, 1.596774e-002
1.002803e+003, 1.599444e-002
1.004731e+003, 1.619653e-002
1.006660e+003, 1.639526e-002
1.008588e+003, 1.651213e-002
1.010517e+003, 1.679596e-002
1.012445e+003, 1.700877e-002
1.014373e+003, 1.704302e-002
1.016302e+003, 1.708218e-002
1.018230e+003, 1.725008e-002
1.020159e+003, 1.729801e-002
1.022087e+003, 1.728018e-002
1.024016e+003, 1.741545e-002
1.025944e+003, 1.762772e-002
1.027873e+003, 1.788222e-002
1.029801e+003, 1.794706e-002
1.031730e+003, 1.792402e-002
1.033658e+003, 1.796797e-002
1.035587e+003, 1.799949e-002
1.037515e+003, 1.816098e-002
1.039443e+003, 1.835806e-002
1.041372e+003, 1.869974e-002
1.043300e+003, 1.872082e-002
1.045229e+003, 1.866376e-002
1.047157e+003, 1.910611e-002
1.049086e+003, 1.957326e-002
1.051014e+003, 1.970119e-002
1.052943e+003, 1.965742e-002
1.054871e+003, 1.990379e-002
1.056800e+003, 2.031320e-002
1.058728e+003, 2.051772e-002
1.060657e+003, 2.068428e-002
1.062585e+003, 2.105748e-002
1.064514e+003, 2.147305e-002
1.066442e+003, 2.164063e-002
1.068370e+003, 2.177778e-002
1.070299e+003, 2.203765e-002
1.072227e+003, 2.223981e-002
1.074156e+003, 2.254815e-002
1.076084e+003, 2.298445e-002
1.078013e+003, 2.357765e-002
1.079941e+003, 2.449716e-002
1.081870e+003, 2.616402e-002
1.083798e+003, 2.699335e-002
1.085727e+003, 2.669996e-002
1.087655e+003, 2.670368e-002
1.089584e+003, 2.654173e-002
1.091512e+003, 2.629781e-002
1.093441e+003, 2.607562e-002
1.095369e+003, 2.565126e-002
1.097297e+003, 2.538919e-002
1.099226e+003, 2.544645e-002
1.101154e+003, 2.547262e-002
1.103083e+003, 2.567331e-002
1.105011e+003, 2.618548e-002
1.106940e+003, 2.662926e-002
1.108868e+003, 2.695165e-002
1.110797e+003, 2.723971e-002
1.112725e+003, 2.763347e-002
1.114654e+003, 2.799157e-002
1.116582e+003, 2.837194e-002
1.118511e+003, 2.882961e-002
1.120439e+003, 2.913643e-002
1.122368e+003, 2.948841e-002
1.124296e+003, 3.006073e-002
1.126224e+003, 3.058192e-002
1.128153e+003, 3.102755e-002
1.130081e+003, 3.169264e-002
1.132010e+003, 3.228275e-002
1.133938e+003, 3.278426e-002
1.135867e+003, 3.325517e-002
1.137795e+003, 3.386182e-002
1.139724e+003, 3.459765e-002
1.141652e+003, 3.521977e-002
1.143581e+003, 3.579300e-002
1.145509e+003, 3.637977e-002
1.147438e+003, 3.705347e-002
1.149366e+003, 3.789682e-002
1.151295e+003, 3.862663e-002
1.153223e+003, 3.929810e-002
1.155151e+003, 4.008244e-002
1.157080e+003, 4.089786e-002
1.159008e+003, 4.185726e-002
1.160937e+003, 4.274255e-002
1.162865e+003, 4.336372e-002
1.164794e+003, 4.384625e-002
1.166722e+003, 4.439458e-002
1.168651e+003, 4.487960e-002
1.170579e+003, 4.528791e-002
1.172508e+003, 4.589907e-002
1.174436e+003, 4.651072e-002
1.176365e+003, 4.698422e-002
1.178293e+003, 4.744571e-002
1.180222e+003, 4.779270e-002
1.182150e+003, 4.814648e-002
1.184078e+003, 4.865421e-002
1.186007e+003, 4.922860e-002
1.187935e+003, 4.973866e-002
1.189864e+003, 5.026773e-002
1.191792e+003, 5.086473e-002
1.193721e+003, 5.133446e-002
1.195649e+003, 5.196802e-002
1.197578e+003, 5.271807e-002
1.199506e+003, 5.339657e-002
1.201435e+003, 5.408978e-002
1.203363e+003, 5.488171e-002
1.205292e+003, 5.588664e-002
1.207220e+003, 5.683098e-002
1.209149e+003, 5.768768e-002
1.211077e+003, 5.860667e-002
1.213005e+003, 5.964354e-002
1.214934e+003, 6.060030e-002
1.216862e+003, 6.171172e-002
1.218791e+003, 6.292982e-002
1.220719e+003, 6.407072e-002
1.222648e+003, 6.532059e-002
1.224576e+003, 6.665438e-002
1.226505e+003, 6.801713e-002
1.228433e+003, 6.929856e-002
1.230362e+003, 7.074293e-002
1.232290e+003, 7.216854e-002
1.234219e+003, 7.368648e-002
1.236147e+003, 7.533395e-002
1.238076e+003, 7.693095e-002
1.240004e+003, 7.837941e-002
1.241932e+003, 7.997001e-002
1.243861e+003, 8.170615e-002
1.245789e+003, 8.339958e-002
1.247718e+003, 8.512393e-002
1.249646e+003, 8.689746e-002
1.251575e+003, 8.866189e-002
1.253503e+003, 9.071478e-002
1.255432e+003, 9.291297e-002
1.257360e+003, 9.515063e-002
1.259289e+003, 9.744155e-002
1.261217e+003, 9.976128e-002
1.263146e+003, 1.021140e-001
1.265074e+003, 1.044318e-001
1.267003e+003, 1.068346e-001
1.268931e+003, 1.092199e-001
1.270859e+003, 1.116778e-001
1.272788e+003, 1.144538e-001
1.274716e+003, 1.175182e-001
1.276645e+003, 1.204793e-001
1.278573e+003, 1.235916e-001
1.280502e+003, 1.269029e-001
1.282430e+003, 1.300270e-001
1.284359e+003, 1.332656e-001
1.286287e+003, 1.365910e-001
1.288216e+003, 1.400176e-001
1.290144e+003, 1.436465e-001
1.292073e+003, 1.475620e-001
1.294001e+003, 1.518349e-001
1.295930e+003, 1.561368e-001
1.297858e+003, 1.604221e-001
1.299786e+003, 1.649363e-001
1.301715e+003, 1.696954e-001
1.303643e+003, 1.748542e-001
1.305572e+003, 1.801244e-001
1.307500e+003, 1.852258e-001
1.309429e+003, 1.903020e-001
1.311357e+003, 1.956563e-001
1.313286e+003, 2.009552e-001
1.315214e+003, 2.062172e-001
1.317143e+003, 2.120024e-001
1.319071e+003, 2.177911e-001
1.321000e+003, 2.238779e-001
1.322928e+003, 2.303430e-001
1.324857e+003, 2.369221e-001
1.326785e+003, 2.436755e-001
1.328714e+003, 2.504852e-001
1.330642e+003, 2.578666e-001
1.332570e+003, 2.657711e-001
1.334499e+003, 2.739032e-001
1.336427e+003, 2.824346e-001
1.338356e+003, 2.912696e-001
1.340284e+003, 3.002988e-001
1.342213e+003, 3.096668e-001
1.344141e+003, 3.194525e-001
1.346070e+003, 3.296771e-001
1.347998e+003, 3.401957e-001
1.349927e+003, 3.511282e-001
1.351855e+003, 3.624935e-001
1.353784e+003, 3.744188e-001
1.355712e+003, 3.869004e-001
1.357641e+003, 3.998296e-001
1.359569e+003, 4.134327e-001
1.361497e+003, 4.272980e-001
1.363426e+003, 4.417721e-001
1.365354e+003, 4.565386e-001
1.367283e+003, 4.716282e-001
1.369211e+003, 4.871629e-001
1.371140e+003, 5.022722e-001
1.373068e+003, 5.177863e-001
1.374997e+003, 5.338359e-001
1.376925e+003, 5.498531e-001
1.378854e+003, 5.661405e-001
1.380782e+003, 5.827779e-001
1.382711e+003, 6.001217e-001
1.384639e+003, 6.174493e-001
1.386568e+003, 6.339209e-001
1.388496e+003, 6.488299e-001
1.390424e+003, 6.618917e-001
1.392353e+003, 6.724762e-001
1.394281e+003, 6.790204e-001
1.396210e+003, 6.802813e-001
1.398138e+003, 6.773092e-001
1.400067e+003, 6.740925e-001
1.401995e+003, 6.746747e-001
1.403924e+003, 6.767029e-001
1.405852e+003, 6.746743e-001
1.407781e+003, 6.666830e-001
1.409709e+003, 6.542482e-001
1.411638e+003, 6.402724e-001
1.413566e+003, 6.259283e-001
1.415495e+003, 6.111359e-001
1.417423e+003, 5.969234e-001
1.419351e+003, 5.833819e-001
1.421280e+003, 5.698278e-001
1.423208e+003, 5.571375e-001
1.425137e+003, 5.453026e-001
1.427065e+003, 5.334353e-001
1.428994e+003, 5.217270e-001
1.430922e+003, 5.100930e-001
1.432851e+003, 4.982839e-001
1.434779e+003, 4.867713e-001
1.436708e+003, 4.762177e-001
1.438636e+003, 4.653172e-001
1.440565e+003, 4.543115e-001
1.442493e+003, 4.435308e-001
1.444422e+003, 4.327426e-001
1.446350e+003, 4.221472e-001
1.448278e+003, 4.115105e-001
1.450207e+003, 4.007191e-001
1.452135e+003, 3.900398e-001
1.454064e+003, 3.798209e-001
1.455992e+003, 3.702025e-001
1.457921e+003, 3.601299e-001
1.459849e+003, 3.502627e-001
1.461778e+003, 3.413799e-001
1.463706e+003, 3.328519e-001
1.465635e+003, 3.240923e-001
1.467563e+003, 3.152676e-001
1.469492e+003, 3.067690e-001
1.471420e+003, 2.988498e-001
1.473349e+003, 2.909301e-001
1.475277e+003, 2.828808e-001
1.477205e+003, 2.749251e-001
1.479134e+003, 2.670856e-001
1.481062e+003, 2.594349e-001
1.482991e+003, 2.516714e-001
1.484919e+003, 2.439589e-001
1.486848e+003, 2.365606e-001
1.488776e+003, 2.291507e-001
1.490705e+003, 2.216646e-001
1.492633e+003, 2.141672e-001
1.494562e+003, 2.068847e-001
1.496490e+003, 2.000128e-001
1.498419e+003, 1.927977e-001
1.500347e+003, 1.854501e-001
1.502276e+003, 1.783957e-001
1.504204e+003, 1.719170e-001
1.506132e+003, 1.657116e-001
1.508061e+003, 1.587727e-001
1.509989e+003, 1.517528e-001
1.511918e+003, 1.450352e-001
1.513846e+003, 1.384810e-001
1.515775e+003, 1.323180e-001
1.517703e+003, 1.263345e-001
1.519632e+003, 1.206255e-001
1.521560e+003, 1.149749e-001
1.523489e+003, 1.091309e-001
1.525417e+003, 1.035429e-001
1.527346e+003, 9.782773e-002
1.529274e+003, 9.229917e-002
1.531203e+003, 8.671319e-002
1.533131e+003, 8.119971e-002
1.535059e+003, 7.557511e-002
1.536988e+003, 7.021799e-002
1.538916e+003, 6.497800e-002
1.540845e+003, 5.908794e-002
1.542773e+003, 5.288766e-002
1.544702e+003, 4.701293e-002
1.546630e+003, 4.150610e-002
1.548559e+003, 3.665603e-002
1.550487e+003, 3.246986e-002
1.552416e+003, 2.905647e-002
1.554344e+003, 2.626616e-002
1.556273e+003, 2.436411e-002
1.558201e+003, 2.334929e-002
1.560130e+003, 2.202504e-002
1.562058e+003, 1.997535e-002
1.563986e+003, 1.869962e-002
1.565915e+003, 1.793518e-002
1.567843e+003, 1.692710e-002
1.569772e+003, 1.593752e-002
1.571700e+003, 1.508063e-002
1.573629e+003, 1.443532e-002
1.575557e+003, 1.448341e-002
1.577486e+003, 1.438903e-002
1.579414e+003, 1.411163e-002
1.581343e+003, 1.377621e-002
1.583271e+003, 1.329168e-002
1.585200e+003, 1.275038e-002
1.587128e+003, 1.210413e-002
1.589057e+003, 1.149764e-002
1.590985e+003, 1.080961e-002
1.592913e+003, 9.966687e-003
1.594842e+003, 8.999984e-003
1.596770e+003, 8.118100e-003
1.598699e+003, 7.580700e-003
1.600627e+003, 6.897344e-003
1.602556e+003, 6.456284e-003
1.604484e+003, 6.161110e-003
1.606413e+003, 5.812308e-003
1.608341e+003, 5.406227e-003
1.610270e+003, 5.096671e-003
1.612198e+003, 4.634521e-003
1.614127e+003, 4.486698e-003
1.616055e+003, 4.604752e-003
1.617984e+003, 4.112504e-003
1.619912e+003, 3.651849e-003
1.621840e+003, 3.532290e-003
1.623769e+003, 3.216345e-003
1.625697e+003, 2.986548e-003
1.627626e+003, 2.932684e-003
1.629554e+003, 2.548659e-003
1.631483e+003, 2.319567e-003
1.633411e+003, 2.445198e-003
1.635340e+003, 2.561950e-003
1.637268e+003, 2.226619e-003
1.639197e+003, 1.914179e-003
1.641125e+003, 1.726006e-003
1.643054e+003, 1.630027e-003
1.644982e+003, 1.912956e-003
1.646911e+003, 1.925266e-003
1.648839e+003, 1.575427e-003
1.650767e+003, 1.793555e-003
1.652696e+003, 2.410713e-003
1.654624e+003, 1.779389e-003
1.656553e+003, 1.061224e-003
1.658481e+003, 9.848117e-004
1.660410e+003, 9.389104e-004
1.662338e+003, 9.385116e-004
1.664267e+003, 8.218351e-004
1.666195e+003, 6.629625e-004
1.668124e+003, 7.826826e-004
1.670052e+003, 6.709774e-004
1.671981e+003, 4.709928e-004
1.673909e+003, 5.754383e-004
1.675838e+003, 5.718778e-004
1.677766e+003, 2.550969e-004
1.679694e+003, 7.263347e-005
1.681623e+003, 1.498994e-004
1.683551e+003, 8.429185e-004
1.685480e+003, 5.110645e-004
1.687408e+003, -1.723523e-004
1.689337e+003, -3.048301e-004
1.691265e+003, -3.169971e-004
1.693194e+003, -7.040508e-005
1.695122e+003, 3.705096e-004
1.697051e+003, 3.230005e-004
1.698979e+003, 3.194252e-004
1.700908e+003, 7.264895e-005
1.702836e+003, -3.202374e-004
1.704765e+003, -2.522223e-004
1.706693e+003, -4.397126e-004
1.708621e+003, -5.523990e-004
1.710550e+003, -5.954977e-004
1.712478e+003, -5.952619e-004
1.714407e+003, -3.659629e-004
1.716335e+003, 8.843673e-005
1.718264e+003, 1.514434e-005
1.720192e+003, -6.245390e-004
1.722121e+003, -7.285970e-004
1.724049e+003, -5.994553e-004
1.725978e+003, -5.398949e-004
1.727906e+003, -7.240094e-004
1.729835e+003, -1.040832e-003
1.731763e+003, -1.150284e-003
1.733692e+003, -7.566194e-004
1.735620e+003, -1.099558e-003
1.737548e+003, -1.689458e-003
1.739477e+003, -1.691045e-003
1.741405e+003, -1.848978e-003
1.743334e+003, -2.039716e-003
1.745262e+003, -2.198939e-003
1.747191e+003, -2.282813e-003
1.749119e+003, -2.193860e-003
1.751048e+003, -1.933412e-003
1.752976e+003, -2.004018e-003
1.754905e+003, -2.069782e-003
1.756833e+003, -1.920464e-003
1.758762e+003, -1.872522e-003
1.760690e+003, -1.574808e-003
1.762619e+003, -1.383010e-003
1.764547e+003, -1.519092e-003
1.766475e+003, -1.589211e-003
1.768404e+003, -1.285714e-003
1.770332e+003, -9.934981e-004
1.772261e+003, -6.448515e-004
1.774189e+003, -5.253095e-004
1.776118e+003, -3.249598e-004
1.778046e+003, -9.308333e-006
1.779975e+003, 4.304215e-004
1.781903e+003, 1.122664e-003
1.783832e+003, 2.307070e-003
1.785760e+003, 3.602365e-003
1.787689e+003, 6.122923e-003
1.789617e+003, 1.076052e-002
1.791546e+003, 1.572955e-002
1.793474e+003, 1.811206e-002
1.795402e+003, 1.824724e-002
1.797331e+003, 1.740779e-002
1.799259e+003, 1.468820e-002
1.801188e+003, 1.005271e-002
1.803116e+003, 5.516961e-003
1.805045e+003, 2.793299e-003
1.806973e+003, 1.181751e-003
1.808902e+003, 1.306718e-004
1.810830e+003, -4.715795e-004
1.812759e+003, -1.007890e-003
1.814687e+003, -1.646805e-003
1.816616e+003, -1.784834e-003
1.818544e+003, -1.690351e-003
1.820473e+003, -1.659519e-003
1.822401e+003, -1.563233e-003
1.824329e+003, -1.722208e-003
1.826258e+003, -2.165826e-003
1.828186e+003, -2.355543e-003
1.830115e+003, -2.152500e-003
1.832043e+003, -2.113661e-003
1.833972e+003, -2.022790e-003
1.835900e+003, -1.823203e-003
1.837829e+003, -2.058264e-003
1.839757e+003, -2.231380e-003
1.841686e+003, -2.152842e-003
1.843614e+003, -1.905032e-003
1.845543e+003, -2.012007e-003
1.847471e+003, -2.238293e-003
1.849400e+003, -2.571092e-003
1.851328e+003, -2.711890e-003
1.853256e+003, -2.415579e-003
1.855185e+003, -2.416928e-003
1.857113e+003, -2.749064e-003
1.859042e+003, -2.799370e-003
1.860970e+003, -2.592525e-003
1.862899e+003, -2.529497e-003
1.864827e+003, -2.076914e-003
1.866756e+003, -1.795031e-003
1.868684e+003, -1.935014e-003
1.870613e+003, -2.302982e-003
1.872541e+003, -2.358129e-003
1.874470e+003, -2.221020e-003
1.876398e+003, -2.148215e-003
1.878327e+003, -1.943322e-003
1.880255e+003, -1.784887e-003
1.882183e+003, -1.547229e-003
1.884112e+003, -1.205350e-003
1.886040e+003, -1.481660e-003
1.887969e+003, -2.377682e-003
1.889897e+003, -2.633136e-003
1.891826e+003, -2.478538e-003
1.893754e+003, -2.379587e-003
1.895683e+003, -2.046495e-003
1.897611e+003, -2.023301e-003
1.899540e+003, -2.300937e-003
1.901468e+003, -1.848274e-003
1.903397e+003, -1.369001e-003
1.905325e+003, -1.850827e-003
1.907254e+003, -2.093657e-003
1.909182e+003, -1.701310e-003
1.911110e+003, -1.518358e-003
1.913039e+003, -1.741182e-003
1.914967e+003, -1.667396e-003
1.916896e+003, -1.665272e-003
1.918824e+003, -1.024572e-003
1.920753e+003, -8.906439e-004
1.922681e+003, -1.503895e-003
1.924610e+003, -1.835455e-003
1.926538e+003, -1.969958e-003
1.928467e+003, -2.113756e-003
1.930395e+003, -1.807082e-003
1.932324e+003, -1.273912e-003
1.934252e+003, -1.229044e-003
1.936181e+003, -9.033089e-004
1.938109e+003, -6.007318e-004
1.940037e+003, -4.429101e-004
1.941966e+003, -3.943437e-004
1.943894e+003, -1.021168e-003
1.945823e+003, -9.298333e-004
1.947751e+003, -6.902628e-004
1.949680e+003, -8.548180e-004
1.951608e+003, -6.310216e-004
1.953537e+003, -8.925904e-004
1.955465e+003, -4.332215e-004
1.957394e+003, 7.927846e-004
1.959322e+003, 6.449675e-004
1.961251e+003, 1.893199e-004
1.963179e+003, -4.857055e-004
1.965108e+003, -8.103891e-004
1.967036e+003, -2.482187e-004
1.968964e+003, 1.792976e-004
1.970893e+003, 7.836796e-005
1.972821e+003, -3.055388e-004
1.974750e+003, -1.394231e-004
1.976678e+003, 7.380566e-004
1.978607e+003, 2.587516e-003
1.980535e+003, 2.376870e-003
1.982464e+003, 7.579678e-004
1.984392e+003, 6.328878e-004
1.986321e+003, 1.114043e-003
1.988249e+003, 1.832053e-003
1.990178e+003, 1.556922e-003
1.992106e+003, 1.709078e-004
1.994035e+003, -7.308929e-004
1.995963e+003, -1.395567e-003
1.997891e+003, -1.760872e-003
1.999820e+003, -1.340640e-003
2.001748e+003, -6.303990e-004
2.003677e+003, -1.267522e-003
2.005605e+003, -7.435665e-004
2.007534e+003, 1.047051e-004
2.009462e+003, 7.784197e-004
2.011391e+003, 5.545332e-004
2.013319e+003, 8.791380e-004
2.015248e+003, 3.953204e-004
2.017176e+003, -6.491496e-004
2.019105e+003, -1.094955e-003
2.021033e+003, -7.498884e-004
2.022962e+003, 6.565921e-004
2.024890e+003, 4.007023e-004
2.026818e+003, -8.436879e-004
2.028747e+003, -2.016191e-003
2.030675e+003, -1.597836e-003
2.032604e+003, -2.633282e-005
2.034532e+003, 1.112463e-003
2.036461e+003, 1.808320e-003
2.038389e+003, 1.037212e-003
2.040318e+003, -2.072495e-004
2.042246e+003, 3.105822e-004
2.044175e+003, 4.108204e-004
2.046103e+003, -4.366324e-004
2.048031e+003, -7.984843e-004
2.049960e+003, -7.693082e-004
2.051888e+003, -8.449540e-004
2.053817e+003, -1.855120e-003
2.055745e+003, -1.857746e-003
2.057674e+003, -1.273427e-003
2.059602e+003, -1.420985e-003
2.061531e+003, -1.770401e-003
2.063459e+003, -1.445080e-003
2.065388e+003, -1.415821e-003
2.067316e+003, -1.696543e-003
2.069245e+003, -2.183322e-003
2.071173e+003, -2.194461e-003
2.073102e+003, -1.621757e-003
2.075030e+003, -1.091155e-003
2.076958e+003, -5.128926e-004
2.078887e+003, -1.811413e-004
2.080815e+003, -7.739301e-004
2.082744e+003, -1.726699e-003
2.084672e+003, -2.280975e-003
2.086601e+003, -2.396660e-003
2.088529e+003, -2.216924e-003
2.090458e+003, -2.105923e-003
2.092386e+003, -2.642381e-003
2.094315e+003, -2.874642e-003
2.096243e+003, -1.969890e-003
2.098172e+003, -1.672944e-003
2.100100e+003, -1.451427e-003
2.102029e+003, -2.125292e-003
2.103957e+003, -2.845485e-003
2.105885e+003, -1.935643e-003
2.107814e+003, -1.557303e-003
2.109742e+003, -1.971695e-003
2.111671e+003, -1.572795e-003
2.113599e+003, -1.303072e-003
2.115528e+003, -1.693219e-003
2.117456e+003, -2.022868e-003
2.119385e+003, -1.650183e-003
2.121313e+003, -1.331551e-003
2.123242e+003, -2.216364e-003
2.125170e+003, -3.091197e-003
2.127099e+003, -3.035066e-003
2.129027e+003, -3.172666e-003
2.130956e+003, -3.440639e-003
2.132884e+003, -3.492403e-003
2.134813e+003, -2.679314e-003
2.136741e+003, -2.892153e-003
2.138669e+003, -3.110409e-003
2.140598e+003, -2.547101e-003
2.142526e+003, -1.648289e-003
2.144455e+003, -1.249932e-003
2.146383e+003, -1.525591e-003
2.148312e+003, -1.525256e-003
2.150240e+003, -2.145687e-004
2.152169e+003, -6.411426e-004
2.154097e+003, -1.323692e-003
2.156026e+003, -1.338288e-003
2.157954e+003, -1.342707e-004
2.159883e+003, 3.130274e-003
2.161811e+003, 4.231941e-003
2.163740e+003, 2.528729e-003
2.165668e+003, 9.108979e-004
2.167596e+003, 8.270255e-004
2.169525e+003, 9.027344e-004
2.171453e+003, 8.958310e-004
2.173382e+003, 5.507715e-004
2.175310e+003, 1.045332e-003
2.177239e+003, 5.088732e-004
2.179167e+003, -6.281593e-005
2.181096e+003, 2.450942e-004
2.183024e+003, 2.601430e-004
2.184953e+003, 4.386782e-004
2.186881e+003, 1.439788e-003
2.188810e+003, 1.924997e-003
2.190738e+003, 1.604603e-003
2.192667e+003, 2.009418e-003
2.194595e+003, 1.632849e-003
2.196523e+003, 4.386713e-004
2.198452e+003, -1.179265e-004
2.200380e+003, -8.471475e-005
2.202309e+003, 4.490254e-004
2.204237e+003, 7.366252e-004
2.206166e+003, 4.222408e-004
2.208094e+003, 1.748025e-004
2.210023e+003, 1.014070e-003
2.211951e+003, 1.030729e-003
2.213880e+003, 8.947576e-004
2.215808e+003, 5.249399e-004
2.217737e+003, 2.960333e-004
2.219665e+003, 4.633070e-004
2.221594e+003, -2.629004e-004
2.223522e+003, 1.960671e-004
2.225450e+003, 9.664531e-004
2.227379e+003, 4.251194e-004
2.229307e+003, -4.740295e-004
2.231236e+003, -1.420828e-004
2.233164e+003, 6.382581e-004
2.235093e+003, 1.273145e-003
2.237021e+003, 1.212792e-003
2.238950e+003, 6.607717e-004
2.240878e+003, 1.568273e-004
2.242807e+003, -7.549933e-005
2.244735e+003, -1.733577e-004
2.246664e+003, -6.766456e-005
2.248592e+003, -2.874723e-004
2.250521e+003, -7.483099e-004
2.252449e+003, -9.610213e-004
2.254377e+003, -2.423606e-004
2.256306e+003, 5.749253e-005
2.258234e+003, 2.743447e-004
2.260163e+003, 7.386768e-004
2.262091e+003, 4.530407e-004
2.264020e+003, -5.593111e-004
2.265948e+003, -6.646841e-004
2.267877e+003, 1.751760e-004
2.269805e+003, -4.166384e-004
2.271734e+003, -6.339604e-004
2.273662e+003, 1.921998e-004
2.275591e+003, 1.265285e-004
2.277519e+003, -4.738989e-005
2.279448e+003, 2.016029e-004
2.281376e+003, 1.247333e-004
2.283304e+003, 4.823429e-004
2.285233e+003, 1.157586e-003
2.287161e+003, 6.853137e-004
2.289090e+003, -2.441209e-004
2.291018e+003, -3.406289e-004
2.292947e+003, -1.059030e-004
2.294875e+003, -2.289256e-004
2.296804e+003, -3.961104e-004
2.298732e+003, -7.915869e-004
2.300661e+003, -1.152164e-003
2.302589e+003, -1.003679e-003
2.304518e+003, -6.956848e-004
2.306446e+003, -1.827080e-004
2.308375e+003, -1.032505e-004
2.310303e+003, -1.832432e-004
2.312231e+003, -3.273164e-004
2.314160e+003, -1.084161e-004
2.316088e+003, 3.210604e-004
2.318017e+003, 5.181849e-004
2.319945e+003, 6.039882e-004
2.321874e+003, 9.059089e-004
2.323802e+003, 1.255446e-003
2.325731e+003, 8.112370e-004
2.327659e+003, 6.409270e-005
2.329588e+003, -1.983554e-004
2.331516e+003, 1.353555e-004
2.333445e+003, 5.699825e-004
2.335373e+003, 6.790851e-004
2.337302e+003, 5.354357e-004
2.339230e+003, 6.088539e-004
2.341158e+003, 5.657351e-004
2.343087e+003, 2.355747e-004
2.345015e+003, -3.560361e-004
2.346944e+003, -9.046128e-004
2.348872e+003, -1.051920e-003
2.350801e+003, -6.044150e-004
2.352729e+003, 2.975992e-004
2.354658e+003, 8.316340e-004
2.356586e+003, 8.821739e-004
2.358515e+003, 1.187587e-003
2.360443e+003, 1.418947e-003
2.362372e+003, 1.314608e-003
2.364300e+003, 1.218499e-003
2.366229e+003, 9.404002e-004
2.368157e+003, 5.232700e-004
2.370085e+003, 5.316653e-005
2.372014e+003, -7.476331e-004
2.373942e+003, -1.086171e-003
2.375871e+003, -1.013051e-003
2.377799e+003, -8.271590e-004
2.379728e+003, -1.220193e-003
2.381656e+003, -1.247901e-003
2.383585e+003, -8.628675e-004
2.385513e+003, -1.102677e-003
2.387442e+003, -1.540307e-003
2.389370e+003, -1.955464e-003
2.391299e+003, -2.000853e-003
2.393227e+003, -1.750282e-003
2.395156e+003, -1.462313e-003
2.397084e+003, -1.265346e-003
2.399012e+003, -1.375999e-003
2.400941e+003, -1.520816e-003
2.402869e+003, -1.245259e-003
2.404798e+003, -1.088428e-003
2.406726e+003, -1.284932e-003
2.408655e+003, -1.052463e-003
2.410583e+003, -1.000402e-003
2.412512e+003, -1.051992e-003
2.414440e+003, -1.214339e-003
2.416369e+003, -1.344695e-003
2.418297e+003, -1.181223e-003
2.420226e+003, -8.635520e-004
2.422154e+003, -6.481062e-004
2.424083e+003, -8.133238e-004
2.426011e+003, -8.148544e-004
2.427939e+003, -5.605696e-004
2.429868e+003, -2.157483e-004
2.431796e+003, -5.640116e-005
2.433725e+003, -4.418932e-005
2.435653e+003, -5.212938e-004
2.437582e+003, -6.885564e-004
2.439510e+003, -5.104854e-004
2.441439e+003, -2.575376e-004
2.443367e+003, -7.188883e-005
2.445296e+003, 1.346680e-004
2.447224e+003, 6.888090e-004
2.449153e+003, 5.860667e-004
2.451081e+003, -1.879131e-004
2.453010e+003, 1.126574e-004
2.454938e+003, 7.050616e-004
2.456866e+003, 8.458170e-004
2.458795e+003, 3.180240e-004
2.460723e+003, 4.883980e-005
2.462652e+003, 3.581919e-004
2.464580e+003, 7.236021e-004
2.466509e+003, 9.033647e-004
2.468437e+003, 7.934044e-004
2.470366e+003, 1.168599e-003
2.472294e+003, 1.472568e-003
2.474223e+003, 1.621331e-003
2.476151e+003, 1.576828e-003
2.478080e+003, 2.374412e-003
2.480008e+003, 3.079382e-003
2.481937e+003, 3.262158e-003
2.483865e+003, 3.696185e-003
2.485793e+003, 4.028536e-003
2.487722e+003, 4.205587e-003
2.489650e+003, 4.561692e-003
2.491579e+003, 4.881389e-003
2.493507e+003, 5.546662e-003
2.495436e+003, 6.913207e-003
2.497364e+003, 8.213368e-003
2.499293e+003, 9.469878e-003
2.501221e+003, 1.059761e-002
2.503150e+003, 1.144992e-002
2.505078e+003, 1.230502e-002
2.507007e+003, 1.304816e-002
2.508935e+003, 1.393076e-002
2.510864e+003, 1.438159e-002
2.512792e+003, 1.429419e-002
2.514720e+003, 1.383048e-002
2.516649e+003, 1.335425e-002
2.518577e+003, 1.284229e-002
2.520506e+003, 1.196345e-002
2.522434e+003, 1.109411e-002
2.524363e+003, 1.021619e-002
2.526291e+003, 9.366332e-003
2.528220e+003, 8.530105e-003
2.530148e+003, 7.539600e-003
2.532077e+003, 6.791913e-003
2.534005e+003, 5.761149e-003
2.535934e+003, 5.064260e-003
2.537862e+003, 4.436994e-003
2.539791e+003, 3.660603e-003
2.541719e+003, 3.281604e-003
2.543647e+003, 3.089518e-003
2.545576e+003, 3.381167e-003
2.547504e+003, 3.901846e-003
2.549433e+003, 3.593139e-003
2.551361e+003, 3.418530e-003
2.553290e+003, 3.009100e-003
2.555218e+003, 2.260308e-003
2.557147e+003, 2.243081e-003
2.559075e+003, 2.545671e-003
2.561004e+003, 2.454377e-003
2.562932e+003, 2.525591e-003
2.564861e+003, 2.568632e-003
2.566789e+003, 2.562721e-003
2.568718e+003, 2.334595e-003
2.570646e+003, 1.828690e-003
2.572574e+003, 1.380629e-003
2.574503e+003, 1.733862e-003
2.576431e+003, 2.387545e-003
2.578360e+003, 1.920522e-003
2.580288e+003, 9.097836e-004
2.582217e+003, 8.761269e-004
2.584145e+003, 1.509867e-003
2.586074e+003, 1.974165e-003
2.588002e+003, 1.801441e-003
2.589931e+003, 1.530519e-003
2.591859e+003, 1.257452e-003
2.593788e+003, 1.112131e-003
2.595716e+003, 1.221869e-003
2.597645e+003, 1.051066e-003
2.599573e+003, 9.530481e-004
2.601501e+003, 1.189041e-003
2.603430e+003, 1.180078e-003
2.605358e+003, 7.581103e-004
2.607287e+003, 1.969862e-004
2.609215e+003, -2.721240e-004
2.611144e+003, -2.585721e-004
2.613072e+003, 2.519554e-005
2.615001e+003, -4.174681e-004
2.616929e+003, -8.108775e-004
2.618858e+003, -5.392552e-004
2.620786e+003, -6.335618e-004
2.622715e+003, -9.602871e-004
2.624643e+003, -1.092105e-003
2.626572e+003, -1.068476e-003
2.628500e+003, -1.216474e-003
2.630428e+003, -1.382253e-003
2.632357e+003, -1.634654e-003
2.634285e+003, -1.842575e-003
2.636214e+003, -1.572152e-003
2.638142e+003, -1.516299e-003
2.640071e+003, -1.798412e-003
2.641999e+003, -2.161953e-003
2.643928e+003, -2.284191e-003
2.645856e+003, -2.340977e-003
2.647785e+003, -2.476807e-003
2.649713e+003, -2.360511e-003
2.651642e+003, -2.321808e-003
2.653570e+003, -2.868536e-003
2.655499e+003, -2.940658e-003
2.657427e+003, -2.739368e-003
2.659355e+003, -2.618984e-003
2.661284e+003, -2.387450e-003
2.663212e+003, -2.557012e-003
2.665141e+003, -2.867214e-003
2.667069e+003, -2.907987e-003
2.668998e+003, -3.006503e-003
2.670926e+003, -3.362493e-003
2.672855e+003, -3.625218e-003
2.674783e+003, -3.427968e-003
2.676712e+003, -3.245963e-003
2.678640e+003, -3.480165e-003
2.680569e+003, -3.560595e-003
2.682497e+003, -3.337709e-003
2.684426e+003, -3.470921e-003
2.686354e+003, -3.834641e-003
2.688282e+003, -3.871485e-003
2.690211e+003, -3.759294e-003
2.692139e+003, -3.573207e-003
2.694068e+003, -3.431411e-003
2.695996e+003, -3.546889e-003
2.697925e+003, -3.670003e-003
2.699853e+003, -3.688767e-003
2.701782e+003, -3.996027e-003
2.703710e+003, -4.187871e-003
2.705639e+003, -4.237398e-003
2.707567e+003, -4.434109e-003
2.709496e+003, -3.892550e-003
2.711424e+003, -3.698397e-003
2.713353e+003, -4.312452e-003
2.715281e+003, -4.319371e-003
2.717209e+003, -3.977212e-003
2.719138e+003, -4.045940e-003
2.721066e+003, -4.090501e-003
2.722995e+003, -4.106527e-003
2.724923e+003, -3.923533e-003
2.726852e+003, -3.749613e-003
2.728780e+003, -4.142282e-003
2.730709e+003, -4.765013e-003
2.732637e+003, -4.726443e-003
2.734566e+003, -4.728516e-003
2.736494e+003, -5.041124e-003
2.738423e+003, -4.822935e-003
2.740351e+003, -4.481015e-003
2.742280e+003, -4.376080e-003
2.744208e+003, -4.527359e-003
2.746136e+003, -4.835886e-003
2.748065e+003, -4.792760e-003
2.749993e+003, -4.706637e-003
2.751922e+003, -4.489398e-003
2.753850e+003, -4.289992e-003
2.755779e+003, -4.471947e-003
2.757707e+003, -4.789008e-003
2.759636e+003, -4.924771e-003
2.761564e+003, -4.501846e-003
2.763493e+003, -4.067954e-003
2.765421e+003, -4.183658e-003
2.767350e+003, -4.596686e-003
2.769278e+003, -4.981819e-003
2.771207e+003, -4.790410e-003
2.773135e+003, -4.748257e-003
2.775063e+003, -4.659969e-003
2.776992e+003, -4.537354e-003
2.778920e+003, -4.462531e-003
2.780849e+003, -4.742100e-003
2.782777e+003, -5.223063e-003
2.784706e+003, -5.200683e-003
2.786634e+003, -4.948124e-003
2.788563e+003, -4.811394e-003
2.790491e+003, -4.479639e-003
2.792420e+003, -4.163094e-003
2.794348e+003, -4.436846e-003
2.796277e+003, -4.974288e-003
2.798205e+003, -5.204661e-003
2.800134e+003, -5.350140e-003
2.802062e+003, -5.250107e-003
2.803990e+003, -4.954699e-003
2.805919e+003, -4.159778e-003
2.807847e+003, -4.080208e-003
2.809776e+003, -4.306517e-003
2.811704e+003, -4.370556e-003
2.813633e+003, -4.481399e-003
2.815561e+003, -4.300882e-003
2.817490e+003, -3.823435e-003
2.819418e+003, -3.513663e-003
2.821347e+003, -3.573113e-003
2.823275e+003, -3.535353e-003
2.825204e+003, -3.504538e-003
2.827132e+003, -3.739492e-003
2.829061e+003, -3.765032e-003
2.830989e+003, -3.631059e-003
2.832917e+003, -3.198453e-003
2.834846e+003, -2.475381e-003
2.836774e+003, -1.844281e-003
2.838703e+003, -1.769366e-003
2.840631e+003, -1.877614e-003
2.842560e+003, -1.846820e-003
2.844488e+003, -1.493233e-003
2.846417e+003, -1.273610e-003
2.848345e+003, -1.059779e-003
2.850274e+003, -8.931847e-004
2.852202e+003, -6.784544e-004
2.854131e+003, -7.750333e-004
2.856059e+003, -7.300662e-004
2.857988e+003, -2.451455e-004
2.859916e+003, 1.947482e-004
2.861844e+003, 4.055356e-004
2.863773e+003, 5.635748e-004
2.865701e+003, 1.062019e-003
2.867630e+003, 1.536599e-003
2.869558e+003, 1.307942e-003
2.871487e+003, 1.312059e-003
2.873415e+003, 1.145781e-003
2.875344e+003, 6.181808e-004
2.877272e+003, 7.440303e-004
2.879201e+003, 7.694432e-004
2.881129e+003, 2.340028e-004
2.883058e+003, -9.666994e-005
2.884986e+003, -1.067709e-004
2.886915e+003, -9.525545e-004
2.888843e+003, -1.478275e-003
2.890771e+003, -9.965133e-004
2.892700e+003, -7.998747e-004
2.894628e+003, -1.628947e-003
2.896557e+003, -2.331078e-003
2.898485e+003, -1.778721e-003
2.900414e+003, -9.238781e-004
2.902342e+003, -5.217866e-004
2.904271e+003, -9.919360e-004
2.906199e+003, -1.362981e-003
2.908128e+003, -1.444063e-003
2.910056e+003, -1.427877e-003
2.911985e+003, -1.299768e-003
2.913913e+003, -8.732804e-004
2.915842e+003, -5.507710e-004
2.917770e+003, -1.076337e-003
2.919698e+003, -1.234400e-003
2.921627e+003, -9.036461e-004
2.923555e+003, -1.147865e-003
2.925484e+003, -1.226678e-003
2.927412e+003, -4.399023e-004
2.929341e+003, -2.437936e-004
2.931269e+003, -3.949453e-004
2.933198e+003, -2.959052e-004
2.935126e+003, -2.457336e-004
2.937055e+003, -7.955087e-004
2.938983e+003, -1.364446e-003
2.940912e+003, -1.113303e-003
2.942840e+003, -1.172875e-003
2.944769e+003, -1.311964e-003
2.946697e+003, -1.607348e-003
2.948625e+003, -1.792417e-003
2.950554e+003, -1.397553e-003
2.952482e+003, -6.935084e-004
2.954411e+003, -5.173506e-004
2.956339e+003, -2.173448e-004
2.958268e+003, -2.848127e-004
2.960196e+003, -8.675479e-004
2.962125e+003, -1.169677e-003
2.964053e+003, -1.080359e-003
2.965982e+003, -8.272094e-004
2.967910e+003, -1.960728e-004
2.969839e+003, 4.729119e-004
2.971767e+003, 5.418772e-004
2.973696e+003, -1.834508e-004
2.975624e+003, -7.031814e-004
2.977552e+003, -4.940852e-004
2.979481e+003, -4.529571e-004
2.981409e+003, -5.854719e-004
2.983338e+003, -7.540064e-004
2.985266e+003, -5.642801e-004
2.987195e+003, -3.839772e-004
2.989123e+003, -5.030345e-004
2.991052e+003, -9.501745e-004
2.992980e+003, -1.264689e-003
2.994909e+003, -1.885754e-003
2.996837e+003, -2.040053e-003
2.998766e+003, -1.993150e-003
3.000694e+003, -2.436718e-003
3.002623e+003, -2.426169e-003
3.004551e+003, -2.239213e-003
3.006479e+003, -2.511712e-003
3.008408e+003, -2.794449e-003
3.010336e+003, -2.243126e-003
3.012265e+003, -1.864192e-003
3.014193e+003, -1.373324e-003
3.016122e+003, -1.018954e-003
3.018050e+003, -1.394860e-003
3.019979e+003, -1.825099e-003
3.021907e+003, -1.820166e-003
3.023836e+003, -1.997109e-003
3.025764e+003, -1.919098e-003
3.027693e+003, -2.165623e-003
3.029621e+003, -2.239658e-003
3.031550e+003, -2.283801e-003
3.033478e+003, -2.104032e-003
3.035406e+003, -1.987578e-003
3.037335e+003, -1.800715e-003
3.039263e+003, -1.461701e-003
3.041192e+003, -1.204221e-003
3.043120e+003, -1.169322e-003
3.045049e+003, -1.199599e-003
3.046977e+003, -1.421038e-003
3.048906e+003, -1.532333e-003
3.050834e+003, -1.651431e-003
3.052763e+003, -1.087527e-003
3.054691e+003, -6.947551e-004
3.056620e+003, -7.399345e-004
3.058548e+003, -1.127256e-003
3.060477e+003, -1.153803e-003
3.062405e+003, -1.324942e-003
3.064333e+003, -9.146063e-004
3.066262e+003, -5.340933e-004
3.068190e+003, -6.589089e-004
3.070119e+003, -6.481387e-004
3.072047e+003, -1.485024e-004
3.073976e+003, 2.117697e-004
3.075904e+003, 6.245923e-004
3.077833e+003, 3.793213e-004
3.079761e+003, -3.228312e-004
3.081690e+003, -1.791890e-004
3.083618e+003, 1.408014e-004
3.085547e+003, 7.869419e-004
3.087475e+003, 9.598200e-004
3.089404e+003, 2.790744e-004
3.091332e+003, 3.627477e-004
3.093260e+003, 4.303312e-004
3.095189e+003, 4.286503e-004
3.097117e+003, 3.408442e-004
3.099046e+003, 1.186051e-004
3.100974e+003, -3.459075e-004
3.102903e+003, -2.276059e-004
3.104831e+003, 2.811883e-004
3.106760e+003, 8.331407e-004
3.108688e+003, 6.109484e-004
3.110617e+003, 9.915438e-005
3.112545e+003, 1.281982e-004
3.114474e+003, 5.697569e-004
3.116402e+003, 4.827186e-004
3.118331e+003, 5.812127e-004
3.120259e+003, 1.250316e-003
3.122188e+003, 1.654772e-003
3.124116e+003, 1.404281e-003
3.126044e+003, 1.307790e-003
3.127973e+003, 7.395861e-004
3.129901e+003, 4.365698e-004
3.131830e+003, 1.305017e-003
3.133758e+003, 1.605702e-003
3.135687e+003, 1.893506e-003
3.137615e+003, 2.160376e-003
3.139544e+003, 1.674907e-003
3.141472e+003, 1.004210e-003
3.143401e+003, 1.160556e-003
3.145329e+003, 1.282685e-003
3.147258e+003, 1.249966e-003
3.149186e+003, 2.277875e-003
3.151115e+003, 2.463453e-003
3.153043e+003, 1.631378e-003
3.154971e+003, 1.766454e-003
3.156900e+003, 1.652119e-003
3.158828e+003, 6.575569e-004
3.160757e+003, 1.022428e-003
3.162685e+003, 1.752410e-003
3.164614e+003, 2.089699e-003
3.166542e+003, 2.107785e-003
3.168471e+003, 2.070691e-003
3.170399e+003, 1.819795e-003
3.172328e+003, 1.253505e-003
3.174256e+003, 1.452614e-003
3.176185e+003, 1.339301e-003
3.178113e+003, 1.485687e-003
3.180042e+003, 1.700310e-003
3.181970e+003, 1.171208e-003
3.183898e+003, 1.317632e-003
3.185827e+003, 1.573200e-003
3.187755e+003, 1.688889e-003
3.189684e+003, 1.469513e-003
3.191612e+003, 1.538156e-003
3.193541e+003, 1.271526e-003
3.195469e+003, 1.155195e-003
3.197398e+003, 1.888547e-003
3.199326e+003, 2.731611e-003
3.201255e+003, 2.669811e-003
3.203183e+003, 1.864438e-003
3.205112e+003, 1.380306e-003
3.207040e+003, 1.058774e-003
3.208969e+003, 1.298208e-003
3.210897e+003, 2.388585e-003
3.212825e+003, 2.943359e-003
3.214754e+003, 2.314098e-003
3.216682e+003, 1.495502e-003
3.218611e+003, 1.916241e-003
3.220539e+003, 2.160721e-003
3.222468e+003, 1.566281e-003
3.224396e+003, 1.641555e-003
3.226325e+003, 2.171455e-003
3.228253e+003, 2.329601e-003
3.230182e+003, 1.952067e-003
3.232110e+003, 1.556172e-003
3.234039e+003, 1.501533e-003
3.235967e+003, 1.705629e-003
3.237896e+003, 2.160224e-003
3.239824e+003, 2.700686e-003
3.241752e+003, 2.146983e-003
3.243681e+003, 1.692047e-003
3.245609e+003, 2.077916e-003
3.247538e+003, 2.005766e-003
3.249466e+003, 1.424951e-003
3.251395e+003, 1.643328e-003
3.253323e+003, 2.178506e-003
3.255252e+003, 1.410753e-003
3.257180e+003, 1.096712e-003
3.259109e+003, 1.491336e-003
3.261037e+003, 1.530942e-003
3.262966e+003, 1.268435e-003
3.264894e+003, 1.888442e-003
3.266823e+003, 2.188955e-003
3.268751e+003, 1.536298e-003
3.270679e+003, 9.646111e-004
3.272608e+003, 1.209019e-003
3.274536e+003, 1.216898e-003
3.276465e+003, 1.324862e-003
3.278393e+003, 2.384064e-003
3.280322e+003, 2.917734e-003
3.282250e+003, 1.725560e-003
3.284179e+003, 8.741861e-004
3.286107e+003, 1.697827e-003
3.288036e+003, 2.365976e-003
3.289964e+003, 1.489087e-003
3.291893e+003, 1.196712e-003
3.293821e+003, 8.763159e-004
3.295750e+003, 7.593702e-004
3.297678e+003, 1.581068e-003
3.299606e+003, 1.798392e-003
3.301535e+003, 1.300509e-003
3.303463e+003, 6.276548e-004
3.305392e+003, 6.885045e-004
3.307320e+003, 9.276068e-004
3.309249e+003, 9.794973e-004
3.311177e+003, 5.518509e-004
3.313106e+003, 6.701225e-004
3.315034e+003, 1.459091e-003
3.316963e+003, 1.664914e-003
3.318891e+003, 1.398155e-003
3.320820e+003, 1.154149e-003
3.322748e+003, 1.307322e-003
3.324677e+003, 1.342593e-003
3.326605e+003, 1.728131e-003
3.328533e+003, 2.052367e-003
3.330462e+003, 1.796537e-003
3.332390e+003, 1.603791e-003
3.334319e+003, 1.796626e-003
3.336247e+003, 1.749963e-003
3.338176e+003, 1.811551e-003
3.340104e+003, 2.063270e-003
3.342033e+003, 1.466873e-003
3.343961e+003, 8.184809e-004
3.345890e+003, 7.894470e-004
3.347818e+003, 6.929025e-004
3.349747e+003, 8.669843e-004
3.351675e+003, 1.232227e-003
3.353604e+003, 1.669622e-003
3.355532e+003, 2.016797e-003
3.357460e+003, 2.335036e-003
3.359389e+003, 1.390703e-003
3.361317e+003, 1.184832e-003
3.363246e+003, 1.308087e-003
3.365174e+003, 1.460623e-003
3.367103e+003, 1.624630e-003
3.369031e+003, 1.093486e-003
3.370960e+003, 6.686383e-004
3.372888e+003, 8.664880e-004
3.374817e+003, 1.846102e-003
3.376745e+003, 1.500253e-003
3.378674e+003, 6.765524e-004
3.380602e+003, 1.201831e-003
3.382531e+003, 1.346100e-003
3.384459e+003, 1.177726e-003
3.386387e+003, 4.368778e-004
3.388316e+003, 5.428065e-004
3.390244e+003, 8.636407e-004
3.392173e+003, 9.700753e-004
3.394101e+003, 6.754788e-004
3.396030e+003, 3.108246e-004
3.397958e+003, 8.042106e-004
3.399887e+003, 1.445243e-003
3.401815e+003, 1.545241e-003
3.403744e+003, 1.934085e-003
3.405672e+003, 1.748530e-003
3.407601e+003, 1.509215e-003
3.409529e+003, 1.847219e-003
3.411458e+003, 1.229204e-003
3.413386e+003, 1.285478e-003
3.415314e+003, 2.288906e-003
3.417243e+003, 2.170451e-003
3.419171e+003, 1.932188e-003
3.421100e+003, 1.431568e-003
3.423028e+003, 8.967323e-004
3.424957e+003, 9.260797e-004
3.426885e+003, 1.079197e-003
3.428814e+003, 9.490632e-004
3.430742e+003, 1.455174e-003
3.432671e+003, 1.743034e-003
3.434599e+003, 1.827074e-003
3.436528e+003, 1.492961e-003
3.438456e+003, 2.209265e-004
3.440385e+003, 9.911631e-004
3.442313e+003, 2.321051e-003
3.444241e+003, 1.971837e-003
3.446170e+003, 1.475548e-003
3.448098e+003, 1.292604e-003
3.450027e+003, 1.609596e-003
3.451955e+003, 1.637861e-003
3.453884e+003, 2.090579e-003
3.455812e+003, 1.430964e-003
3.457741e+003, 1.312846e-003
3.459669e+003, 1.684212e-003
3.461598e+003, 7.225910e-006
3.463526e+003, -6.706263e-004
3.465455e+003, 4.591384e-004
3.467383e+003, 1.013427e-003
3.469312e+003, -1.300054e-004
3.471240e+003, -8.898478e-004
3.473168e+003, 3.442439e-004
3.475097e+003, 9.993201e-004
3.477025e+003, 8.118578e-004
3.478954e+003, 1.250525e-003
3.480882e+003, 1.214396e-003
3.482811e+003, 8.256786e-004
3.484739e+003, 9.645429e-004
3.486668e+003, 1.131667e-003
3.488596e+003, 7.034206e-004
3.490525e+003, 6.839077e-004
3.492453e+003, 5.628463e-004
3.494382e+003, 4.671405e-004
3.496310e+003, 3.274186e-004
3.498239e+003, -9.076579e-004
3.500167e+003, -7.752090e-004
3.502095e+003, -3.625773e-004
3.504024e+003, -5.668228e-004
3.505952e+003, 3.168186e-004
3.507881e+003, 8.643009e-004
3.509809e+003, 3.871924e-004
3.511738e+003, 4.712574e-005
3.513666e+003, 7.954857e-004
3.515595e+003, 1.000646e-004
3.517523e+003, -3.393552e-004
3.519452e+003, 7.336760e-004
3.521380e+003, 1.244756e-003
3.523309e+003, 1.786603e-003
3.525237e+003, 1.547401e-003
3.527166e+003, 7.506013e-004
3.529094e+003, 2.180958e-004
3.531022e+003, 5.990365e-005
3.532951e+003, -7.257607e-005
3.534879e+003, 2.238419e-004
3.536808e+003, 5.490101e-004
3.538736e+003, -4.480742e-004
3.540665e+003, -7.346952e-004
3.542593e+003, 9.343765e-005
3.544522e+003, 2.746093e-004
3.546450e+003, 5.579126e-004
3.548379e+003, 1.156521e-003
3.550307e+003, 1.103468e-003
3.552236e+003, 5.471662e-004
3.554164e+003, 3.165816e-004
3.556093e+003, 8.372749e-004
3.558021e+003, 2.360370e-004
3.559949e+003, -3.467853e-005
3.561878e+003, -3.870988e-005
3.563806e+003, 5.467354e-005
3.565735e+003, 4.225520e-004
3.567663e+003, 2.493273e-004
3.569592e+003, -4.523359e-004
3.571520e+003, -3.810044e-004
3.573449e+003, -7.506106e-004
3.575377e+003, -1.423904e-004
3.577306e+003, 3.689110e-004
3.579234e+003, -7.008776e-005
3.581163e+003, 2.880105e-004
3.583091e+003, 8.217752e-004
3.585020e+003, 1.311239e-003
3.586948e+003, 1.146136e-003
3.588876e+003, 5.499552e-004
3.590805e+003, -7.507323e-005
3.592733e+003, -4.461048e-004
3.594662e+003, -1.564970e-004
3.596590e+003, -3.105250e-004
3.598519e+003, 2.396611e-005
3.600447e+003, 5.785800e-004
3.602376e+003, 4.714841e-005
3.604304e+003, -6.583718e-004
3.606233e+003, -4.234120e-004
3.608161e+003, -3.180076e-005
3.610090e+003, 6.260800e-004
3.612018e+003, 1.125522e-003
3.613947e+003, 1.234094e-003
3.615875e+003, 4.337668e-004
3.617803e+003, 1.318652e-004
3.619732e+003, 7.058639e-004
3.621660e+003, 7.684293e-004
3.623589e+003, 4.406971e-004
3.625517e+003, 5.808061e-004
3.627446e+003, 1.263965e-003
3.629374e+003, 2.330235e-003
3.631303e+003, 1.487131e-003
3.633231e+003, 6.882629e-004
3.635160e+003, 4.013822e-004
3.637088e+003, -2.647414e-004
3.639017e+003, -1.285281e-004
3.640945e+003, -5.132366e-004
3.642874e+003, -3.992355e-004
3.644802e+003, 1.154470e-003
3.646730e+003, 2.383249e-003
3.648659e+003, 2.081846e-003
3.650587e+003, 1.471783e-003
3.652516e+003, 1.354216e-003
3.654444e+003, 9.642625e-004
3.656373e+003, 1.040781e-003
3.658301e+003, 5.014215e-004
3.660230e+003, 5.174570e-004
3.662158e+003, 6.196934e-004
3.664087e+003, 2.084677e-004
3.666015e+003, -2.866663e-005
3.667944e+003, 1.053074e-003
3.669872e+003, 1.253192e-003
3.671801e+003, -6.142727e-004
3.673729e+003, -1.472199e-003
3.675657e+003, -6.791967e-004
3.677586e+003, 6.096265e-004
3.679514e+003, 9.853946e-004
3.681443e+003, -5.282128e-004
3.683371e+003, -4.877394e-004
3.685300e+003, 3.810250e-004
3.687228e+003, 8.892982e-004
3.689157e+003, 1.398876e-003
3.691085e+003, 8.582905e-004
3.693014e+003, 1.335052e-004
3.694942e+003, 3.058552e-004
3.696871e+003, 8.180892e-004
3.698799e+003, 1.093328e-003
3.700728e+003, 9.838366e-004
3.702656e+003, 1.254687e-003
3.704584e+003, 7.048498e-004
3.706513e+003, -3.929928e-005
3.708441e+003, 9.676907e-004
3.710370e+003, 1.240692e-003
3.712298e+003, 1.170310e-003
3.714227e+003, 6.521426e-004
3.716155e+003, 3.620099e-005
3.718084e+003, -5.556376e-004
3.720012e+003, 2.432084e-004
3.721941e+003, 7.941481e-004
3.723869e+003, 1.430117e-004
3.725798e+003, -2.370080e-004
3.727726e+003, 4.841846e-005
3.729655e+003, 2.801768e-004
3.731583e+003, 8.876247e-004
3.733511e+003, 1.767737e-003
3.735440e+003, 2.222083e-003
3.737368e+003, 9.314998e-004
3.739297e+003, 7.654984e-004
3.741225e+003, 1.202255e-003
3.743154e+003, 2.295850e-003
3.745082e+003, 3.170851e-003
3.747011e+003, 1.828692e-003
3.748939e+003, 1.999390e-003
3.750868e+003, 1.457105e-003
3.752796e+003, 4.205900e-004
3.754725e+003, -7.303672e-004
3.756653e+003, -1.708926e-004
3.758582e+003, 4.226087e-004
3.760510e+003, 6.217703e-005
3.762438e+003, -5.246298e-004
3.764367e+003, -1.000641e-003
3.766295e+003, -5.781866e-004
3.768224e+003, -3.003771e-004
3.770152e+003, -8.035405e-004
3.772081e+003, -7.990795e-004
3.774009e+003, -5.369940e-004
3.775938e+003, -5.455230e-004
3.777866e+003, 3.844604e-004
3.779795e+003, 1.004105e-003
3.781723e+003, 2.087693e-004
3.783652e+003, -6.332354e-004
3.785580e+003, -1.427920e-003
3.787509e+003, -7.847869e-004
3.789437e+003, -5.578912e-004
3.791365e+003, -7.030888e-004
3.793294e+003, -5.149855e-004
3.795222e+003, -3.119588e-004
3.797151e+003, -2.225516e-004
3.799079e+003, -2.478368e-004
3.801008e+003, 9.863004e-004
3.802936e+003, 1.943137e-004
3.804865e+003, -7.456650e-004
3.806793e+003, 1.232379e-004
3.808722e+003, 2.656688e-004
3.810650e+003, 4.909804e-004
3.812579e+003, 8.617684e-004
3.814507e+003, 1.725743e-003
3.816436e+003, 1.230854e-003
3.818364e+003, 5.713264e-004
3.820292e+003, 2.260897e-003
3.822221e+003, 2.267365e-003
3.824149e+003, -2.541599e-004
3.826078e+003, -5.214640e-004
3.828006e+003, -6.781876e-004
3.829935e+003, -9.313210e-004
3.831863e+003, -3.453093e-004
3.833792e+003, -2.017098e-004
3.835720e+003, 8.424577e-004
3.837649e+003, 1.291905e-003
3.839577e+003, 9.187865e-004
3.841506e+003, 2.121969e-004
3.843434e+003, -7.436769e-004
3.845363e+003, -8.838807e-004
3.847291e+003, -2.975032e-004
3.849219e+003, -6.819459e-004
3.851148e+003, -7.081877e-005
3.853076e+003, 1.559042e-003
3.855005e+003, 1.500372e-003
3.856933e+003, 4.076735e-005
3.858862e+003, -1.271977e-003
3.860790e+003, -1.072808e-003
3.862719e+003, 8.396800e-004
3.864647e+003, 1.666007e-003
3.866576e+003, 2.182195e-003
3.868504e+003, 1.872587e-003
3.870433e+003, 1.001492e-003
3.872361e+003, 1.040602e-004
3.874290e+003, 1.562346e-004
3.876218e+003, -7.412907e-004
3.878146e+003, -2.861422e-004
3.880075e+003, 4.338259e-004
3.882003e+003, -4.439601e-004
3.883932e+003, 2.921296e-005
3.885860e+003, 5.906991e-004
3.887789e+003, -6.622531e-004
3.889717e+003, -2.066262e-003
3.891646e+003, -1.703806e-003
3.893574e+003, -1.123431e-003
3.895503e+003, -5.154420e-004
3.897431e+003, 4.214286e-004
3.899360e+003, 7.005464e-004
3.901288e+003, 5.779151e-004
3.903217e+003, -4.823298e-004
3.905145e+003, -1.508658e-004
3.907073e+003, 1.092063e-003
3.909002e+003, 9.833494e-004
3.910930e+003, 8.981313e-004
3.912859e+003, 6.715942e-005
3.914787e+003, -1.374658e-003
3.916716e+003, -1.101966e-003
3.918644e+003, -1.052974e-004
3.920573e+003, -7.950891e-004
3.922501e+003, -1.963469e-003
3.924430e+003, -1.117520e-003
3.926358e+003, -1.489535e-004
3.928287e+003, 5.167431e-005
3.930215e+003, -3.073256e-005
3.932144e+003, 2.892634e-004
3.934072e+003, -4.488723e-004
3.936000e+003, -1.298707e-003
3.937929e+003, -1.070249e-003
3.939857e+003, -5.163517e-004
3.941786e+003, 1.142803e-003
3.943714e+003, 1.193705e-003
3.945643e+003, -6.034976e-004
3.947571e+003, -1.744624e-003
3.949500e+003, -1.070648e-003
3.951428e+003, 1.158569e-003
3.953357e+003, 1.129380e-003
3.955285e+003, -2.263163e-004
3.957214e+003, -1.289853e-003
3.959142e+003, -9.632647e-004
3.961071e+003, -4.131136e-004
3.962999e+003, 2.736721e-004
3.964927e+003, 7.133759e-005
3.966856e+003, -9.831279e-005
3.968784e+003, 1.568889e-004
3.970713e+003, 2.855000e-005
3.972641e+003, -1.332041e-004
3.974570e+003, 1.344644e-004
3.976498e+003, 5.599783e-005
3.978427e+003, -2.596861e-005
3.980355e+003, -5.710537e-005
3.982284e+003, 2.276273e-004
3.984212e+003, -4.106438e-004
3.986141e+003, -1.215065e-004
3.988069e+003, 1.916053e-005
3.989998e+003, -7.625213e-004
3.991926e+003, -4.680355e-004
3.993854e+003, 5.396036e-004
3.995783e+003, 1.095529e-003
3.997711e+003, -3.223785e-004
3.999640e+003, -5.387600e-004
##END=



