##NAMES=Cancrinite
##RRUFFID=R050352
##IDEAL CHEMISTRY=(Na,Ca,[box])_8_(Al_6_Si_6_)O_24_(CO_3_,S^6+^O_4_)_2_&#183;2H_2_O
##LOCALITY=York River, quarry #2, Dungannon Township, Ontario, Canada
##OWNER=RRUFF
##SOURCE=California Institute of Technology
##DESCRIPTION=Pink fragment
##STATUS=The identification of this mineral has been confirmed by X-ray diffraction and chemical analysis
##URL=rruff.info/R050352
##MEASURED CHEMISTRY=(Na_6.07_Ca_1.62_[box]_0.31_)_Σ=8_(Al_0.99_Si_1.01_O_4_)_6_((CO_3_)_0.84_[box]_0.16_)_Σ=2_·2H_2_O
3.991926e+002, 1.349257e-001
4.011211e+002, 1.224435e-001
4.030496e+002, 1.230322e-001
4.049780e+002, 1.231590e-001
4.069065e+002, 1.289607e-001
4.088350e+002, 1.401123e-001
4.107634e+002, 1.473157e-001
4.126919e+002, 1.542901e-001
4.146204e+002, 1.626519e-001
4.165488e+002, 1.666902e-001
4.184773e+002, 1.735419e-001
4.204058e+002, 1.836510e-001
4.223342e+002, 1.894121e-001
4.242627e+002, 1.937045e-001
4.261912e+002, 1.926720e-001
4.281196e+002, 1.825561e-001
4.300481e+002, 1.773728e-001
4.319766e+002, 1.746291e-001
4.339050e+002, 1.693268e-001
4.358335e+002, 1.602371e-001
4.377620e+002, 1.467320e-001
4.396904e+002, 1.319648e-001
4.416189e+002, 1.187844e-001
4.435474e+002, 1.091714e-001
4.454758e+002, 1.026579e-001
4.474043e+002, 1.006923e-001
4.493328e+002, 1.044058e-001
4.512612e+002, 1.117047e-001
4.531897e+002, 1.223210e-001
4.551182e+002, 1.337070e-001
4.570466e+002, 1.456004e-001
4.589751e+002, 1.591838e-001
4.609036e+002, 1.687937e-001
4.628320e+002, 1.692175e-001
4.647605e+002, 1.634771e-001
4.666890e+002, 1.538751e-001
4.686174e+002, 1.424735e-001
4.705459e+002, 1.299420e-001
4.724744e+002, 1.172985e-001
4.744028e+002, 1.056368e-001
4.763313e+002, 9.705430e-002
4.782598e+002, 9.015994e-002
4.801882e+002, 8.255037e-002
4.821167e+002, 7.548659e-002
4.840452e+002, 7.120483e-002
4.859736e+002, 6.868317e-002
4.879021e+002, 6.682789e-002
4.898306e+002, 6.730892e-002
4.917590e+002, 6.998927e-002
4.936875e+002, 7.248557e-002
4.956160e+002, 7.454097e-002
4.975444e+002, 7.707672e-002
4.994729e+002, 7.838045e-002
5.014014e+002, 7.866081e-002
5.033298e+002, 7.774778e-002
5.052583e+002, 7.573205e-002
5.071868e+002, 7.309458e-002
5.091152e+002, 6.943238e-002
5.110437e+002, 6.389458e-002
5.129722e+002, 5.864554e-002
5.149006e+002, 5.505014e-002
5.168291e+002, 5.129371e-002
5.187576e+002, 4.708828e-002
5.206860e+002, 4.316640e-002
5.226145e+002, 3.902871e-002
5.245430e+002, 3.569090e-002
5.264714e+002, 3.373450e-002
5.283999e+002, 3.244603e-002
5.303284e+002, 3.147283e-002
5.322568e+002, 3.100322e-002
5.341853e+002, 3.154364e-002
5.361138e+002, 3.193497e-002
5.380422e+002, 3.145478e-002
5.399707e+002, 3.103506e-002
5.418992e+002, 3.166074e-002
5.438276e+002, 3.270328e-002
5.457561e+002, 3.343740e-002
5.476846e+002, 3.457328e-002
5.496130e+002, 3.571982e-002
5.515415e+002, 3.722873e-002
5.534700e+002, 3.906401e-002
5.553984e+002, 4.164023e-002
5.573269e+002, 4.451550e-002
5.592554e+002, 4.802303e-002
5.611838e+002, 5.163192e-002
5.631123e+002, 5.597186e-002
5.650408e+002, 6.219170e-002
5.669692e+002, 6.953929e-002
5.688977e+002, 7.877379e-002
5.708262e+002, 8.913481e-002
5.727546e+002, 1.005183e-001
5.746831e+002, 1.117075e-001
5.766116e+002, 1.193344e-001
5.785400e+002, 1.218183e-001
5.804685e+002, 1.178292e-001
5.823970e+002, 1.080810e-001
5.843254e+002, 9.466184e-002
5.862539e+002, 8.126356e-002
5.881824e+002, 6.982812e-002
5.901108e+002, 6.086527e-002
5.920393e+002, 5.412889e-002
5.939678e+002, 5.013039e-002
5.958962e+002, 4.895189e-002
5.978247e+002, 4.971968e-002
5.997532e+002, 5.183220e-002
6.016816e+002, 5.562774e-002
6.036101e+002, 6.102601e-002
6.055386e+002, 6.784067e-002
6.074670e+002, 7.710657e-002
6.093955e+002, 8.765066e-002
6.113240e+002, 9.786855e-002
6.132524e+002, 1.088548e-001
6.151809e+002, 1.203920e-001
6.171094e+002, 1.303649e-001
6.190378e+002, 1.367500e-001
6.209663e+002, 1.382690e-001
6.228948e+002, 1.333850e-001
6.248232e+002, 1.225504e-001
6.267517e+002, 1.088791e-001
6.286802e+002, 9.434986e-002
6.306086e+002, 8.068063e-002
6.325371e+002, 6.846680e-002
6.344656e+002, 5.844288e-002
6.363940e+002, 5.182456e-002
6.383225e+002, 4.715501e-002
6.402510e+002, 4.353361e-002
6.421794e+002, 4.132120e-002
6.441079e+002, 4.038031e-002
6.460364e+002, 4.020999e-002
6.479648e+002, 4.080403e-002
6.498933e+002, 4.199244e-002
6.518218e+002, 4.396641e-002
6.537502e+002, 4.709007e-002
6.556787e+002, 5.108267e-002
6.576072e+002, 5.596940e-002
6.595356e+002, 6.258333e-002
6.614641e+002, 7.187572e-002
6.633926e+002, 8.453747e-002
6.653210e+002, 9.933762e-002
6.672495e+002, 1.134265e-001
6.691780e+002, 1.237350e-001
6.711064e+002, 1.280707e-001
6.730349e+002, 1.275806e-001
6.749634e+002, 1.245622e-001
6.768918e+002, 1.209086e-001
6.788203e+002, 1.186586e-001
6.807488e+002, 1.171018e-001
6.826772e+002, 1.148568e-001
6.846057e+002, 1.108875e-001
6.865342e+002, 1.055268e-001
6.884626e+002, 9.864284e-002
6.903911e+002, 9.086885e-002
6.923196e+002, 8.230319e-002
6.942480e+002, 7.418749e-002
6.961765e+002, 6.759227e-002
6.981050e+002, 6.111491e-002
7.000334e+002, 5.417322e-002
7.019619e+002, 4.819126e-002
7.038904e+002, 4.352570e-002
7.058188e+002, 4.024749e-002
7.077473e+002, 3.814761e-002
7.096758e+002, 3.646657e-002
7.116042e+002, 3.543367e-002
7.135327e+002, 3.451519e-002
7.154612e+002, 3.284733e-002
7.173896e+002, 3.036954e-002
7.193181e+002, 2.731880e-002
7.212466e+002, 2.520142e-002
7.231750e+002, 2.414523e-002
7.251035e+002, 2.309670e-002
7.270320e+002, 2.266577e-002
7.289604e+002, 2.275876e-002
7.308889e+002, 2.315655e-002
7.328174e+002, 2.422222e-002
7.347458e+002, 2.550230e-002
7.366743e+002, 2.592243e-002
7.386028e+002, 2.497463e-002
7.405313e+002, 2.345254e-002
7.424597e+002, 2.194469e-002
7.443882e+002, 2.069297e-002
7.463167e+002, 1.977716e-002
7.482451e+002, 1.912781e-002
7.501736e+002, 1.882949e-002
7.521021e+002, 1.858682e-002
7.540305e+002, 1.843143e-002
7.559590e+002, 1.876140e-002
7.578875e+002, 1.875133e-002
7.598159e+002, 1.895332e-002
7.617444e+002, 1.910842e-002
7.636729e+002, 1.899263e-002
7.656013e+002, 1.923457e-002
7.675298e+002, 1.998146e-002
7.694583e+002, 2.103051e-002
7.713867e+002, 2.152700e-002
7.733152e+002, 2.171022e-002
7.752437e+002, 2.135185e-002
7.771721e+002, 2.025026e-002
7.791006e+002, 1.893900e-002
7.810291e+002, 1.764254e-002
7.829575e+002, 1.688097e-002
7.848860e+002, 1.654975e-002
7.868145e+002, 1.664108e-002
7.887429e+002, 1.666038e-002
7.906714e+002, 1.623522e-002
7.925999e+002, 1.604207e-002
7.945283e+002, 1.646942e-002
7.964568e+002, 1.670836e-002
7.983853e+002, 1.702986e-002
8.003137e+002, 1.722378e-002
8.022422e+002, 1.749314e-002
8.041707e+002, 1.779807e-002
8.060991e+002, 1.806592e-002
8.080276e+002, 1.853906e-002
8.099561e+002, 1.907029e-002
8.118845e+002, 1.948807e-002
8.138130e+002, 1.994906e-002
8.157415e+002, 2.035285e-002
8.176699e+002, 2.083498e-002
8.195984e+002, 2.161061e-002
8.215269e+002, 2.218474e-002
8.234553e+002, 2.253010e-002
8.253838e+002, 2.338752e-002
8.273123e+002, 2.442264e-002
8.292407e+002, 2.559426e-002
8.311692e+002, 2.685547e-002
8.330977e+002, 2.766104e-002
8.350261e+002, 2.842805e-002
8.369546e+002, 2.989787e-002
8.388831e+002, 3.159232e-002
8.408115e+002, 3.389220e-002
8.427400e+002, 3.628590e-002
8.446685e+002, 3.817444e-002
8.465969e+002, 4.013998e-002
8.485254e+002, 4.455024e-002
8.504539e+002, 5.395750e-002
8.523823e+002, 6.914366e-002
8.543108e+002, 7.629201e-002
8.562393e+002, 6.539742e-002
8.581677e+002, 5.113751e-002
8.600962e+002, 4.389394e-002
8.620247e+002, 4.255123e-002
8.639531e+002, 4.356619e-002
8.658816e+002, 4.584785e-002
8.678101e+002, 4.920015e-002
8.697385e+002, 5.320806e-002
8.716670e+002, 5.782225e-002
8.735955e+002, 6.252210e-002
8.755239e+002, 6.700677e-002
8.774524e+002, 7.027957e-002
8.793809e+002, 7.245168e-002
8.813093e+002, 7.462413e-002
8.832378e+002, 7.734857e-002
8.851663e+002, 8.103998e-002
8.870947e+002, 8.559055e-002
8.890232e+002, 9.081510e-002
8.909517e+002, 9.700532e-002
8.928801e+002, 1.041806e-001
8.948085e+002, 1.114991e-001
8.967370e+002, 1.194050e-001
8.986655e+002, 1.278708e-001
9.005939e+002, 1.364906e-001
9.025224e+002, 1.454570e-001
9.044509e+002, 1.549483e-001
9.063793e+002, 1.649122e-001
9.083078e+002, 1.748922e-001
9.102363e+002, 1.852914e-001
9.121647e+002, 1.966546e-001
9.140932e+002, 2.079520e-001
9.160217e+002, 2.197560e-001
9.179501e+002, 2.324427e-001
9.198786e+002, 2.452529e-001
9.218071e+002, 2.572377e-001
9.237355e+002, 2.681366e-001
9.256640e+002, 2.780442e-001
9.275925e+002, 2.869358e-001
9.295209e+002, 2.942125e-001
9.314494e+002, 2.991361e-001
9.333779e+002, 3.021834e-001
9.353063e+002, 3.037497e-001
9.372348e+002, 3.034319e-001
9.391633e+002, 3.011692e-001
9.410917e+002, 2.974375e-001
9.430202e+002, 2.932070e-001
9.449487e+002, 2.888018e-001
9.468771e+002, 2.843256e-001
9.488056e+002, 2.815121e-001
9.507341e+002, 2.818357e-001
9.526625e+002, 2.846598e-001
9.545910e+002, 2.890121e-001
9.565195e+002, 2.942343e-001
9.584479e+002, 2.993173e-001
9.603764e+002, 3.023393e-001
9.623049e+002, 3.034070e-001
9.642333e+002, 3.029377e-001
9.661618e+002, 3.009224e-001
9.680903e+002, 2.983154e-001
9.700187e+002, 2.958217e-001
9.719472e+002, 2.930487e-001
9.738757e+002, 2.903529e-001
9.758041e+002, 2.876240e-001
9.777326e+002, 2.845165e-001
9.796611e+002, 2.813004e-001
9.815895e+002, 2.773053e-001
9.835180e+002, 2.729990e-001
9.854465e+002, 2.687455e-001
9.873749e+002, 2.640880e-001
9.893034e+002, 2.584057e-001
9.912319e+002, 2.519879e-001
9.931603e+002, 2.447167e-001
9.950888e+002, 2.363518e-001
9.970173e+002, 2.268710e-001
9.989457e+002, 2.162105e-001
1.000874e+003, 2.050628e-001
1.002803e+003, 1.941137e-001
1.004731e+003, 1.832303e-001
1.006660e+003, 1.725106e-001
1.008588e+003, 1.621967e-001
1.010517e+003, 1.532008e-001
1.012445e+003, 1.462568e-001
1.014373e+003, 1.417925e-001
1.016302e+003, 1.400361e-001
1.018230e+003, 1.403328e-001
1.020159e+003, 1.421048e-001
1.022087e+003, 1.452668e-001
1.024016e+003, 1.490783e-001
1.025944e+003, 1.528800e-001
1.027873e+003, 1.562955e-001
1.029801e+003, 1.586084e-001
1.031730e+003, 1.590543e-001
1.033658e+003, 1.576731e-001
1.035587e+003, 1.539843e-001
1.037515e+003, 1.482683e-001
1.039444e+003, 1.419477e-001
1.041372e+003, 1.357225e-001
1.043301e+003, 1.294471e-001
1.045229e+003, 1.232397e-001
1.047157e+003, 1.172290e-001
1.049086e+003, 1.116386e-001
1.051014e+003, 1.059574e-001
1.052943e+003, 9.988090e-002
1.054871e+003, 9.391141e-002
1.056800e+003, 8.710635e-002
1.058728e+003, 7.918360e-002
1.060657e+003, 7.127640e-002
1.062585e+003, 6.378470e-002
1.064514e+003, 5.792687e-002
1.066442e+003, 5.370297e-002
1.068371e+003, 5.065256e-002
1.070299e+003, 4.890923e-002
1.072228e+003, 4.833084e-002
1.074156e+003, 4.795032e-002
1.076084e+003, 4.755477e-002
1.078013e+003, 4.757344e-002
1.079941e+003, 4.737008e-002
1.081870e+003, 4.667721e-002
1.083798e+003, 4.590023e-002
1.085727e+003, 4.490875e-002
1.087655e+003, 4.387438e-002
1.089584e+003, 4.294244e-002
1.091512e+003, 4.201785e-002
1.093441e+003, 4.161679e-002
1.095369e+003, 4.170826e-002
1.097298e+003, 4.224923e-002
1.099226e+003, 4.339445e-002
1.101155e+003, 4.500578e-002
1.103083e+003, 4.743238e-002
1.105011e+003, 5.088132e-002
1.106940e+003, 5.441330e-002
1.108868e+003, 5.853781e-002
1.110797e+003, 6.372574e-002
1.112725e+003, 6.949972e-002
1.114654e+003, 7.553425e-002
1.116582e+003, 8.157288e-002
1.118511e+003, 8.699747e-002
1.120439e+003, 9.154666e-002
1.122368e+003, 9.540993e-002
1.124296e+003, 9.827431e-002
1.126225e+003, 9.980898e-002
1.128153e+003, 9.966867e-002
1.130082e+003, 9.765343e-002
1.132010e+003, 9.435333e-002
1.133938e+003, 9.031137e-002
1.135867e+003, 8.534904e-002
1.137795e+003, 7.991321e-002
1.139724e+003, 7.491427e-002
1.141652e+003, 6.994819e-002
1.143581e+003, 6.471633e-002
1.145509e+003, 5.951135e-002
1.147438e+003, 5.471686e-002
1.149366e+003, 5.024558e-002
1.151295e+003, 4.614873e-002
1.153223e+003, 4.210319e-002
1.155152e+003, 3.834908e-002
1.157080e+003, 3.461833e-002
1.159009e+003, 3.091546e-002
1.160937e+003, 2.777569e-002
1.162865e+003, 2.494352e-002
1.164794e+003, 2.212194e-002
1.166722e+003, 1.950130e-002
1.168651e+003, 1.727370e-002
1.170579e+003, 1.553568e-002
1.172508e+003, 1.362731e-002
1.174436e+003, 1.185598e-002
1.176365e+003, 1.083029e-002
1.178293e+003, 9.910491e-003
1.180222e+003, 8.714256e-003
1.182150e+003, 7.533898e-003
1.184079e+003, 6.882571e-003
1.186007e+003, 6.423642e-003
1.187936e+003, 5.859816e-003
1.189864e+003, 5.395309e-003
1.191792e+003, 4.902432e-003
1.193721e+003, 4.415199e-003
1.195649e+003, 4.115884e-003
1.197578e+003, 3.878362e-003
1.199506e+003, 3.431889e-003
1.201435e+003, 2.849128e-003
1.203363e+003, 2.616859e-003
1.205292e+003, 2.651639e-003
1.207220e+003, 2.699906e-003
1.209149e+003, 2.528184e-003
1.211077e+003, 2.039073e-003
1.213006e+003, 1.843039e-003
1.214934e+003, 1.780894e-003
1.216863e+003, 1.596403e-003
1.218791e+003, 1.254706e-003
1.220719e+003, 1.241569e-003
1.222648e+003, 1.243936e-003
1.224576e+003, 7.675052e-004
1.226505e+003, 3.873091e-004
1.228433e+003, 4.452726e-004
1.230362e+003, 5.510442e-004
1.232290e+003, 4.445048e-004
1.234219e+003, 3.404743e-004
1.236147e+003, 2.694110e-004
1.238076e+003, 4.366972e-004
1.240004e+003, 1.362185e-004
1.241933e+003, -4.546420e-004
1.243861e+003, -4.042419e-004
1.245790e+003, -8.461338e-005
1.247718e+003, 2.232098e-004
1.249646e+003, 2.153146e-005
1.251575e+003, -2.677456e-004
1.253503e+003, 7.165023e-005
1.255432e+003, 1.406178e-004
1.257360e+003, -1.370073e-004
1.259289e+003, -1.994107e-004
1.261217e+003, -2.344709e-004
1.263146e+003, -2.032848e-004
1.265074e+003, -1.758976e-004
1.267003e+003, -2.349171e-004
1.268931e+003, -1.797963e-004
1.270860e+003, -1.541157e-005
1.272788e+003, 1.853797e-004
1.274717e+003, 2.539841e-004
1.276645e+003, 1.835296e-004
1.278573e+003, 1.150734e-004
1.280502e+003, 8.027995e-005
1.282430e+003, 2.225756e-004
1.284359e+003, 1.363661e-004
1.286287e+003, 1.446281e-004
1.288216e+003, 4.924035e-004
1.290144e+003, 6.266895e-004
1.292073e+003, 5.295295e-004
1.294001e+003, 4.550502e-004
1.295930e+003, 4.286553e-004
1.297858e+003, 5.672406e-004
1.299787e+003, 5.147152e-004
1.301715e+003, 6.900007e-004
1.303644e+003, 7.962543e-004
1.305572e+003, 8.120311e-004
1.307500e+003, 9.128511e-004
1.309429e+003, 1.053058e-003
1.311357e+003, 8.489179e-004
1.313286e+003, 8.462004e-004
1.315214e+003, 9.002973e-004
1.317143e+003, 8.124101e-004
1.319071e+003, 1.050128e-003
1.321000e+003, 1.574159e-003
1.322928e+003, 1.806121e-003
1.324857e+003, 1.785239e-003
1.326785e+003, 1.706526e-003
1.328714e+003, 1.516032e-003
1.330642e+003, 1.465365e-003
1.332571e+003, 1.532828e-003
1.334499e+003, 1.363807e-003
1.336427e+003, 1.544590e-003
1.338356e+003, 1.778208e-003
1.340284e+003, 2.069717e-003
1.342213e+003, 2.611421e-003
1.344141e+003, 2.739823e-003
1.346070e+003, 2.551638e-003
1.347998e+003, 2.665974e-003
1.349927e+003, 2.951763e-003
1.351855e+003, 3.136127e-003
1.353784e+003, 3.164547e-003
1.355712e+003, 3.483742e-003
1.357641e+003, 4.266081e-003
1.359569e+003, 4.724341e-003
1.361498e+003, 4.994215e-003
1.363426e+003, 5.591936e-003
1.365354e+003, 6.723727e-003
1.367283e+003, 8.397040e-003
1.369211e+003, 1.064442e-002
1.371140e+003, 1.314509e-002
1.373068e+003, 1.577304e-002
1.374997e+003, 1.826961e-002
1.376925e+003, 1.967808e-002
1.378854e+003, 2.048686e-002
1.380782e+003, 2.223312e-002
1.382711e+003, 2.431168e-002
1.384639e+003, 2.570065e-002
1.386568e+003, 2.623580e-002
1.388496e+003, 2.692614e-002
1.390424e+003, 2.901326e-002
1.392353e+003, 3.247328e-002
1.394281e+003, 3.678095e-002
1.396210e+003, 4.104942e-002
1.398138e+003, 4.278864e-002
1.400067e+003, 3.961331e-002
1.401995e+003, 3.345555e-002
1.403924e+003, 2.846359e-002
1.405852e+003, 2.658853e-002
1.407781e+003, 2.670993e-002
1.409709e+003, 2.645065e-002
1.411638e+003, 2.528117e-002
1.413566e+003, 2.409066e-002
1.415495e+003, 2.183410e-002
1.417423e+003, 1.879905e-002
1.419351e+003, 1.615735e-002
1.421280e+003, 1.457537e-002
1.423208e+003, 1.393846e-002
1.425137e+003, 1.359971e-002
1.427065e+003, 1.362913e-002
1.428994e+003, 1.386157e-002
1.430922e+003, 1.382976e-002
1.432851e+003, 1.399288e-002
1.434779e+003, 1.434549e-002
1.436708e+003, 1.490016e-002
1.438636e+003, 1.575192e-002
1.440565e+003, 1.647249e-002
1.442493e+003, 1.714030e-002
1.444422e+003, 1.853250e-002
1.446350e+003, 2.043723e-002
1.448278e+003, 2.210341e-002
1.450207e+003, 2.299255e-002
1.452135e+003, 2.357261e-002
1.454064e+003, 2.395621e-002
1.455992e+003, 2.435313e-002
1.457921e+003, 2.521051e-002
1.459849e+003, 2.692467e-002
1.461778e+003, 2.896026e-002
1.463706e+003, 3.087833e-002
1.465635e+003, 3.182194e-002
1.467563e+003, 3.180482e-002
1.469492e+003, 3.249132e-002
1.471420e+003, 3.510960e-002
1.473349e+003, 4.048078e-002
1.475277e+003, 4.857961e-002
1.477205e+003, 5.801632e-002
1.479134e+003, 6.651076e-002
1.481062e+003, 7.264813e-002
1.482991e+003, 7.584427e-002
1.484919e+003, 7.736148e-002
1.486848e+003, 7.943584e-002
1.488776e+003, 8.328965e-002
1.490705e+003, 8.821894e-002
1.492633e+003, 9.128647e-002
1.494562e+003, 8.921030e-002
1.496490e+003, 8.272687e-002
1.498419e+003, 7.587490e-002
1.500347e+003, 7.166675e-002
1.502276e+003, 7.023398e-002
1.504204e+003, 7.040712e-002
1.506132e+003, 7.195842e-002
1.508061e+003, 7.621405e-002
1.509989e+003, 8.283507e-002
1.511918e+003, 8.739378e-002
1.513846e+003, 8.699960e-002
1.515775e+003, 8.277947e-002
1.517703e+003, 7.612768e-002
1.519632e+003, 6.804302e-002
1.521560e+003, 5.924379e-002
1.523489e+003, 4.999730e-002
1.525417e+003, 4.072852e-002
1.527346e+003, 3.205311e-002
1.529274e+003, 2.418312e-002
1.531203e+003, 1.808082e-002
1.533131e+003, 1.379378e-002
1.535059e+003, 1.088408e-002
1.536988e+003, 9.162627e-003
1.538916e+003, 7.909767e-003
1.540845e+003, 6.791089e-003
1.542773e+003, 5.780788e-003
1.544702e+003, 5.326638e-003
1.546630e+003, 4.992042e-003
1.548559e+003, 4.547709e-003
1.550487e+003, 4.148765e-003
1.552416e+003, 3.915270e-003
1.554344e+003, 3.720467e-003
1.556273e+003, 3.621598e-003
1.558201e+003, 3.459070e-003
1.560130e+003, 3.193897e-003
1.562058e+003, 3.208557e-003
1.563986e+003, 3.278282e-003
1.565915e+003, 2.974947e-003
1.567843e+003, 2.584425e-003
1.569772e+003, 2.271072e-003
1.571700e+003, 2.163466e-003
1.573629e+003, 2.222561e-003
1.575557e+003, 1.716340e-003
1.577486e+003, 1.326917e-003
1.579414e+003, 1.271756e-003
1.581343e+003, 1.206068e-003
1.583271e+003, 9.853832e-004
1.585200e+003, 7.914146e-004
1.587128e+003, 5.468162e-004
1.589057e+003, 6.711637e-004
1.590985e+003, 6.478641e-004
1.592913e+003, 5.861024e-004
1.594842e+003, 3.110013e-004
1.596770e+003, 3.098424e-004
1.598699e+003, 5.161858e-004
1.600627e+003, 7.058331e-004
1.602556e+003, 7.001988e-004
1.604484e+003, 8.330310e-004
1.606413e+003, 9.553856e-004
1.608341e+003, 1.314963e-003
1.610270e+003, 1.330331e-003
1.612198e+003, 1.641233e-003
1.614127e+003, 2.665120e-003
1.616055e+003, 3.915454e-003
1.617984e+003, 5.148250e-003
1.619912e+003, 7.065071e-003
1.621840e+003, 9.687155e-003
1.623769e+003, 1.133835e-002
1.625697e+003, 1.169917e-002
1.627626e+003, 1.073472e-002
1.629554e+003, 8.821496e-003
1.631483e+003, 6.775002e-003
1.633411e+003, 5.069121e-003
1.635340e+003, 3.810661e-003
1.637268e+003, 2.842642e-003
1.639197e+003, 1.843603e-003
1.641125e+003, 1.228131e-003
1.643054e+003, 9.330208e-004
1.644982e+003, 6.490666e-004
1.646911e+003, 3.804457e-004
1.648839e+003, 3.344849e-004
1.650767e+003, 5.164672e-004
1.652696e+003, -1.642796e-005
1.654624e+003, -1.095050e-003
1.656553e+003, -1.325702e-003
1.658481e+003, -1.530275e-003
1.660410e+003, -2.114082e-003
1.662338e+003, -2.054751e-003
1.664267e+003, -2.315858e-003
1.666195e+003, -2.916758e-003
1.668124e+003, -2.963291e-003
1.670052e+003, -3.120402e-003
1.671981e+003, -3.037948e-003
1.673909e+003, -2.416512e-003
1.675838e+003, -2.003938e-003
1.677766e+003, -2.208234e-003
1.679694e+003, -2.308200e-003
1.681623e+003, -2.298020e-003
1.683551e+003, -2.409860e-003
1.685480e+003, -2.311975e-003
1.687408e+003, -2.297398e-003
1.689337e+003, -2.214757e-003
1.691265e+003, -1.783442e-003
1.693194e+003, -1.622372e-003
1.695122e+003, -2.036689e-003
1.697051e+003, -2.121151e-003
1.698979e+003, -2.142590e-003
1.700908e+003, -2.372462e-003
1.702836e+003, -2.998882e-003
1.704765e+003, -3.048689e-003
1.706693e+003, -3.303608e-003
1.708621e+003, -4.037486e-003
1.710550e+003, -4.162778e-003
1.712478e+003, -4.041409e-003
1.714407e+003, -4.215658e-003
1.716335e+003, -3.982182e-003
1.718264e+003, -3.933480e-003
1.720192e+003, -3.994929e-003
1.722121e+003, -3.851315e-003
1.724049e+003, -3.975135e-003
1.725978e+003, -3.978045e-003
1.727906e+003, -3.887720e-003
1.729835e+003, -4.027128e-003
1.731763e+003, -4.239565e-003
1.733692e+003, -4.493351e-003
1.735620e+003, -4.750694e-003
1.737548e+003, -5.202538e-003
1.739477e+003, -5.867372e-003
1.741405e+003, -6.273400e-003
1.743334e+003, -6.410663e-003
1.745262e+003, -5.748013e-003
1.747191e+003, -4.929679e-003
1.749119e+003, -4.245229e-003
1.751048e+003, -3.628963e-003
1.752976e+003, -3.212358e-003
1.754905e+003, -2.423145e-003
1.756833e+003, -1.812689e-003
1.758762e+003, -1.651297e-003
1.760690e+003, -1.086313e-003
1.762619e+003, -7.786371e-004
1.764547e+003, -9.608801e-004
1.766475e+003, -6.219267e-004
1.768404e+003, -3.537699e-004
1.770332e+003, -4.359419e-004
1.772261e+003, -6.466117e-004
1.774189e+003, -8.758846e-004
1.776118e+003, -7.724895e-004
1.778046e+003, -6.833928e-004
1.779975e+003, -6.877285e-004
1.781903e+003, -6.871758e-004
1.783832e+003, -5.160560e-004
1.785760e+003, -9.902783e-004
1.787689e+003, -1.170989e-003
1.789617e+003, -9.002629e-004
1.791546e+003, -9.738628e-004
1.793474e+003, -9.870186e-004
1.795402e+003, -6.425132e-004
1.797331e+003, -9.125899e-004
1.799259e+003, -1.276722e-003
1.801188e+003, -1.473916e-003
1.803116e+003, -1.544247e-003
1.805045e+003, -1.446567e-003
1.806973e+003, -2.171854e-003
1.808902e+003, -2.095331e-003
1.810830e+003, -1.772505e-003
1.812759e+003, -1.471574e-003
1.814687e+003, -1.208486e-003
1.816616e+003, -1.692763e-003
1.818544e+003, -2.342458e-003
1.820473e+003, -2.077270e-003
1.822401e+003, -1.552205e-003
1.824329e+003, -1.672747e-003
1.826258e+003, -2.158946e-003
1.828186e+003, -2.612908e-003
1.830115e+003, -2.274045e-003
1.832043e+003, -1.300530e-003
1.833972e+003, -1.139779e-003
1.835900e+003, -1.796194e-003
1.837829e+003, -1.948625e-003
1.839757e+003, -1.667549e-003
1.841686e+003, -1.719838e-003
1.843614e+003, -2.128960e-003
1.845543e+003, -2.712130e-003
1.847471e+003, -3.020857e-003
1.849400e+003, -3.663171e-003
1.851328e+003, -3.781354e-003
1.853256e+003, -2.311189e-003
1.855185e+003, -1.548226e-003
1.857113e+003, -2.419379e-003
1.859042e+003, -2.720549e-003
1.860970e+003, -2.038730e-003
1.862899e+003, -2.405130e-003
1.864827e+003, -3.483468e-003
1.866756e+003, -4.202649e-003
1.868684e+003, -4.220850e-003
1.870613e+003, -3.541856e-003
1.872541e+003, -3.369800e-003
1.874470e+003, -3.478226e-003
1.876398e+003, -3.456855e-003
1.878327e+003, -2.660129e-003
1.880255e+003, -2.776429e-003
1.882183e+003, -3.586738e-003
1.884112e+003, -3.626275e-003
1.886040e+003, -3.470823e-003
1.887969e+003, -4.041590e-003
1.889897e+003, -3.899770e-003
1.891826e+003, -2.866040e-003
1.893754e+003, -2.600417e-003
1.895683e+003, -3.507707e-003
1.897611e+003, -4.194423e-003
1.899540e+003, -4.858185e-003
1.901468e+003, -5.055881e-003
1.903397e+003, -4.833315e-003
1.905325e+003, -4.454641e-003
1.907254e+003, -3.974705e-003
1.909182e+003, -3.241432e-003
1.911110e+003, -4.021499e-003
1.913039e+003, -4.512961e-003
1.914967e+003, -5.010734e-003
1.916896e+003, -5.243911e-003
1.918824e+003, -4.925457e-003
1.920753e+003, -5.540145e-003
1.922681e+003, -5.235998e-003
1.924610e+003, -5.142258e-003
1.926538e+003, -5.299341e-003
1.928467e+003, -5.872475e-003
1.930395e+003, -7.157450e-003
1.932324e+003, -7.049247e-003
1.934252e+003, -5.877364e-003
1.936181e+003, -6.197873e-003
1.938109e+003, -7.846383e-003
1.940037e+003, -7.537426e-003
1.941966e+003, -8.325256e-003
1.943894e+003, -9.009283e-003
1.945823e+003, -8.006247e-003
1.947751e+003, -7.680218e-003
1.949680e+003, -8.428173e-003
1.951608e+003, -8.087123e-003
1.953537e+003, -6.898610e-003
1.955465e+003, -7.473550e-003
1.957394e+003, -1.023993e-002
1.959322e+003, -1.135723e-002
1.961251e+003, -9.694197e-003
1.963179e+003, -1.034468e-002
1.965108e+003, -1.231385e-002
1.967036e+003, -1.256648e-002
1.968964e+003, -1.288996e-002
1.970893e+003, -1.420620e-002
1.972821e+003, -1.259359e-002
1.974750e+003, -1.190778e-002
1.976678e+003, -1.199259e-002
1.978607e+003, -9.956401e-003
1.980535e+003, -8.234940e-003
1.982464e+003, -7.308173e-003
1.984392e+003, -7.712099e-003
1.986321e+003, -9.266535e-003
1.988249e+003, -9.429005e-003
1.990178e+003, -8.923098e-003
1.992106e+003, -8.575240e-003
1.994035e+003, -6.943838e-003
1.995963e+003, -9.884933e-003
1.997891e+003, -1.124702e-002
1.999820e+003, -9.301387e-003
2.001748e+003, -9.446180e-003
2.003677e+003, -9.323793e-003
2.005605e+003, -9.809227e-003
2.007534e+003, -1.028171e-002
2.009462e+003, -9.578669e-003
2.011391e+003, -1.087719e-002
2.013319e+003, -9.519126e-003
2.015248e+003, -6.923642e-003
2.017176e+003, -7.175715e-003
2.019105e+003, -6.571628e-003
2.021033e+003, -7.894186e-003
2.022962e+003, -8.335193e-003
2.024890e+003, -7.880727e-003
2.026818e+003, -9.682989e-003
2.028747e+003, -8.650494e-003
2.030675e+003, -3.604321e-003
2.032604e+003, -6.204636e-003
2.034532e+003, -9.937642e-003
2.036461e+003, -8.049736e-003
2.038389e+003, -4.258275e-003
2.040318e+003, -5.794615e-003
2.042246e+003, -8.198121e-003
2.044175e+003, -9.335186e-003
2.046103e+003, -1.049278e-002
2.048032e+003, -1.029663e-002
2.049960e+003, -7.432860e-003
2.051889e+003, -5.904542e-003
2.053817e+003, -4.649372e-003
2.055746e+003, -3.340648e-003
2.057674e+003, -3.710839e-003
2.059603e+003, -3.917291e-003
2.061531e+003, -3.723372e-003
2.063459e+003, -5.445628e-003
2.065388e+003, -6.281334e-003
2.067316e+003, -5.414275e-003
2.069245e+003, -4.252655e-003
2.071173e+003, -3.937180e-003
2.073102e+003, -3.542042e-003
2.075030e+003, -3.832924e-003
2.076959e+003, -4.554216e-003
2.078887e+003, -3.224179e-003
2.080816e+003, -2.822024e-003
2.082744e+003, -3.909360e-003
2.084673e+003, -3.980859e-003
2.086601e+003, -3.693670e-003
2.088530e+003, -3.886318e-003
2.090458e+003, -4.796193e-003
2.092386e+003, -5.672661e-003
2.094315e+003, -4.312535e-003
2.096243e+003, -2.755561e-003
2.098172e+003, -5.315400e-003
2.100100e+003, -5.110161e-003
2.102029e+003, -3.265899e-003
2.103957e+003, -1.485970e-003
2.105886e+003, -2.700059e-003
2.107814e+003, -3.270643e-003
2.109743e+003, -2.258967e-003
2.111671e+003, -1.930488e-003
2.113600e+003, -2.154458e-003
2.115528e+003, -3.003535e-003
2.117457e+003, -2.835555e-003
2.119385e+003, -2.157974e-003
2.121313e+003, -2.159797e-003
2.123242e+003, -3.274462e-003
2.125170e+003, -4.744561e-003
2.127099e+003, -4.077593e-003
2.129027e+003, -2.735146e-003
2.130956e+003, -4.215026e-003
2.132884e+003, -7.020366e-003
2.134813e+003, -7.887679e-003
2.136741e+003, -6.137391e-003
2.138670e+003, -5.369805e-003
2.140598e+003, -6.084280e-003
2.142527e+003, -6.814923e-003
2.144455e+003, -5.405596e-003
2.146384e+003, -6.633447e-003
2.148312e+003, -6.779126e-003
2.150240e+003, -5.424075e-003
2.152169e+003, -6.794128e-003
2.154097e+003, -7.858080e-003
2.156026e+003, -9.675954e-003
2.157954e+003, -1.009779e-002
2.159883e+003, -8.927776e-003
2.161811e+003, -7.932743e-003
2.163740e+003, -6.856064e-003
2.165668e+003, -7.657328e-003
2.167597e+003, -7.797139e-003
2.169525e+003, -6.726736e-003
2.171454e+003, -6.550104e-003
2.173382e+003, -6.635799e-003
2.175311e+003, -5.531886e-003
2.177239e+003, -3.276575e-003
2.179167e+003, -4.584486e-003
2.181096e+003, -7.269708e-003
2.183024e+003, -6.319407e-003
2.184953e+003, -4.506235e-003
2.186881e+003, -5.923589e-003
2.188810e+003, -7.347595e-003
2.190738e+003, -6.950404e-003
2.192667e+003, -7.740538e-003
2.194595e+003, -7.444436e-003
2.196524e+003, -6.806616e-003
2.198452e+003, -6.512248e-003
2.200381e+003, -5.774001e-003
2.202309e+003, -4.651761e-003
2.204238e+003, -4.795735e-003
2.206166e+003, -4.402285e-003
2.208094e+003, -6.186282e-003
2.210023e+003, -6.480264e-003
2.211951e+003, -4.808798e-003
2.213880e+003, -5.277232e-003
2.215808e+003, -7.352401e-003
2.217737e+003, -8.098104e-003
2.219665e+003, -7.112413e-003
2.221594e+003, -6.298480e-003
2.223522e+003, -4.542223e-003
2.225451e+003, -2.363881e-003
2.227379e+003, -3.110916e-003
2.229308e+003, -6.091727e-003
2.231236e+003, -5.836009e-003
2.233165e+003, -5.021366e-003
2.235093e+003, -6.409810e-003
2.237021e+003, -5.272388e-003
2.238950e+003, -3.079379e-003
2.240878e+003, -3.151085e-003
2.242807e+003, -3.018382e-003
2.244735e+003, -3.397497e-003
2.246664e+003, -4.983067e-003
2.248592e+003, -5.611281e-003
2.250521e+003, -4.179508e-003
2.252449e+003, -3.178737e-003
2.254378e+003, -4.474620e-003
2.256306e+003, -4.057663e-003
2.258235e+003, -3.244254e-003
2.260163e+003, -4.039242e-003
2.262092e+003, -5.637441e-003
2.264020e+003, -5.536850e-003
2.265948e+003, -3.746485e-003
2.267877e+003, -3.332175e-003
2.269805e+003, -3.705211e-003
2.271734e+003, -4.163514e-003
2.273662e+003, -3.558462e-003
2.275591e+003, -3.319688e-003
2.277519e+003, -2.420092e-003
2.279448e+003, -2.058545e-003
2.281376e+003, -2.429846e-003
2.283305e+003, -2.073127e-003
2.285233e+003, -7.151355e-004
2.287162e+003, 4.811864e-004
2.289090e+003, -5.293456e-004
2.291019e+003, -7.986394e-004
2.292947e+003, -2.185549e-004
2.294875e+003, -1.134001e-003
2.296804e+003, -1.794857e-003
2.298732e+003, -8.202025e-004
2.300661e+003, -3.150859e-004
2.302589e+003, -1.222247e-003
2.304518e+003, -1.964899e-003
2.306446e+003, -2.357818e-003
2.308375e+003, -2.103751e-003
2.310303e+003, -5.665373e-004
2.312232e+003, 2.133149e-004
2.314160e+003, 7.710578e-004
2.316089e+003, 8.926680e-004
2.318017e+003, 7.369090e-004
2.319946e+003, 1.050657e-003
2.321874e+003, 1.944588e-003
2.323802e+003, 2.499025e-003
2.325731e+003, 2.297329e-003
2.327659e+003, 1.725905e-003
2.329588e+003, 1.188245e-003
2.331516e+003, 8.543874e-004
2.333445e+003, 1.419596e-003
2.335373e+003, 2.142680e-003
2.337302e+003, 1.647957e-003
2.339230e+003, 1.064124e-003
2.341159e+003, 7.536589e-004
2.343087e+003, 2.107258e-004
2.345016e+003, 7.280746e-004
2.346944e+003, 7.387899e-004
2.348873e+003, 6.114415e-004
2.350801e+003, 1.569552e-003
2.352729e+003, 1.961838e-003
2.354658e+003, 1.401485e-003
2.356586e+003, 9.492293e-004
2.358515e+003, 9.733159e-004
2.360443e+003, 1.474399e-003
2.362372e+003, 1.636232e-003
2.364300e+003, 1.543651e-003
2.366229e+003, 1.713665e-003
2.368157e+003, 1.488883e-003
2.370086e+003, 9.056981e-004
2.372014e+003, 1.219858e-004
2.373942e+003, 2.570874e-004
2.375871e+003, 2.035170e-004
2.377799e+003, -7.993694e-004
2.379728e+003, -1.114653e-003
2.381656e+003, -1.129982e-003
2.383585e+003, -8.149669e-004
2.385513e+003, -2.794537e-004
2.387442e+003, -4.993524e-004
2.389370e+003, -5.815744e-004
2.391299e+003, -1.556027e-004
2.393227e+003, -7.398173e-005
2.395156e+003, -1.701365e-004
2.397084e+003, -8.190268e-004
2.399012e+003, -1.973431e-003
2.400941e+003, -1.449559e-003
2.402869e+003, -1.193807e-003
2.404798e+003, -1.515303e-003
2.406726e+003, -4.254304e-004
2.408655e+003, -2.866327e-004
2.410583e+003, -1.003674e-003
2.412512e+003, -1.124260e-003
2.414440e+003, -8.998556e-004
2.416369e+003, -2.088663e-004
2.418297e+003, 2.711078e-004
2.420226e+003, -2.011821e-004
2.422154e+003, 5.800880e-004
2.424083e+003, 1.828135e-003
2.426011e+003, 1.364349e-003
2.427939e+003, -5.510818e-004
2.429868e+003, -1.015564e-003
2.431796e+003, -7.844309e-004
2.433725e+003, -1.396392e-003
2.435653e+003, -8.580093e-004
2.437582e+003, -7.582913e-004
2.439510e+003, 1.352386e-004
2.441439e+003, 6.810287e-004
2.443367e+003, 6.762200e-004
2.445296e+003, 6.252727e-004
2.447224e+003, 1.283676e-004
2.449153e+003, -5.136691e-005
2.451081e+003, 7.220769e-004
2.453010e+003, 3.235360e-004
2.454938e+003, 7.972870e-004
2.456866e+003, 1.168978e-003
2.458795e+003, -9.164961e-005
2.460723e+003, -1.202353e-003
2.462652e+003, -1.071329e-003
2.464580e+003, -1.607768e-003
2.466509e+003, -1.217262e-003
2.468437e+003, 9.160793e-005
2.470366e+003, 2.261842e-004
2.472294e+003, 2.175939e-004
2.474223e+003, 3.544623e-004
2.476151e+003, -1.565425e-003
2.478080e+003, -2.035767e-003
2.480008e+003, -1.870269e-003
2.481937e+003, -2.530326e-003
2.483865e+003, -2.613986e-003
2.485793e+003, -1.625226e-003
2.487722e+003, -1.504587e-003
2.489650e+003, -1.972568e-003
2.491579e+003, -1.138015e-003
2.493507e+003, -8.896168e-004
2.495436e+003, -9.514389e-004
2.497364e+003, -1.762419e-003
2.499293e+003, -1.456921e-003
2.501221e+003, -8.666983e-004
2.503150e+003, -1.007248e-003
2.505078e+003, -6.921108e-004
2.507007e+003, -5.928557e-004
2.508935e+003, -3.171823e-004
2.510864e+003, 2.833160e-004
2.512792e+003, -1.550172e-004
2.514720e+003, -2.628519e-004
2.516649e+003, -1.009514e-003
2.518577e+003, -2.418561e-003
2.520506e+003, -2.139054e-003
2.522434e+003, -1.170893e-003
2.524363e+003, -8.695354e-004
2.526291e+003, -1.644014e-003
2.528220e+003, -1.985817e-003
2.530148e+003, -2.268637e-003
2.532077e+003, -1.432379e-003
2.534005e+003, -8.418990e-004
2.535934e+003, -4.730473e-004
2.537862e+003, 7.753335e-005
2.539791e+003, 5.125068e-005
2.541719e+003, -1.058779e-003
2.543647e+003, -1.508616e-003
2.545576e+003, -2.456606e-003
2.547504e+003, -2.073507e-003
2.549433e+003, -2.202722e-003
2.551361e+003, -3.191317e-003
2.553290e+003, -2.729498e-003
2.555218e+003, -2.017672e-003
2.557147e+003, -2.519172e-003
2.559075e+003, -2.008445e-003
2.561004e+003, -1.102417e-003
2.562932e+003, -3.774067e-004
2.564861e+003, -6.642933e-004
2.566789e+003, -1.044241e-003
2.568718e+003, -9.746171e-004
2.570646e+003, -1.775527e-003
2.572574e+003, -2.358395e-003
2.574503e+003, -3.002238e-003
2.576431e+003, -1.891682e-003
2.578360e+003, -1.068409e-003
2.580288e+003, -1.529408e-004
2.582217e+003, -2.566484e-004
2.584145e+003, -1.054297e-003
2.586074e+003, -1.290477e-003
2.588002e+003, -1.329297e-003
2.589931e+003, -9.247041e-004
2.591859e+003, -1.091591e-003
2.593788e+003, -1.501019e-003
2.595716e+003, -1.618599e-003
2.597645e+003, -1.338376e-003
2.599573e+003, 1.567656e-005
2.601501e+003, 1.490466e-004
2.603430e+003, -7.437664e-004
2.605358e+003, -1.687451e-003
2.607287e+003, -9.964150e-004
2.609215e+003, 1.011555e-004
2.611144e+003, -7.769227e-004
2.613072e+003, -2.055404e-003
2.615001e+003, -1.521948e-003
2.616929e+003, -1.808615e-004
2.618858e+003, -4.637090e-004
2.620786e+003, -9.229660e-004
2.622715e+003, -6.051924e-004
2.624643e+003, -9.089438e-004
2.626572e+003, -7.955150e-004
2.628500e+003, -1.248576e-003
2.630428e+003, -1.486275e-003
2.632357e+003, -9.149269e-004
2.634285e+003, -1.278702e-003
2.636214e+003, -1.683887e-003
2.638142e+003, -1.576707e-003
2.640071e+003, -1.289723e-003
2.641999e+003, -1.097316e-003
2.643928e+003, -2.982529e-004
2.645856e+003, 4.157964e-004
2.647785e+003, 4.670912e-004
2.649713e+003, -3.009243e-004
2.651642e+003, -9.642945e-004
2.653570e+003, -1.323982e-003
2.655499e+003, -1.798906e-003
2.657427e+003, -1.238481e-003
2.659355e+003, -1.360578e-003
2.661284e+003, -1.227771e-003
2.663212e+003, -4.553324e-004
2.665141e+003, -7.525714e-004
2.667069e+003, -7.259152e-004
2.668998e+003, -1.174613e-003
2.670926e+003, -2.033419e-003
2.672855e+003, -2.491421e-003
2.674783e+003, -2.031489e-003
2.676712e+003, -1.762358e-003
2.678640e+003, -1.480719e-003
2.680569e+003, -1.208098e-003
2.682497e+003, -1.727207e-003
2.684426e+003, -2.119431e-003
2.686354e+003, -1.644275e-003
2.688282e+003, -1.304912e-003
2.690211e+003, -1.223040e-003
2.692139e+003, -6.202316e-004
2.694068e+003, -4.190258e-004
2.695996e+003, -1.346578e-003
2.697925e+003, -2.165335e-003
2.699853e+003, -2.308402e-003
2.701782e+003, -2.222311e-003
2.703710e+003, -2.232034e-003
2.705639e+003, -2.307174e-003
2.707567e+003, -1.832656e-003
2.709496e+003, -1.451778e-003
2.711424e+003, -1.703759e-003
2.713353e+003, -1.639882e-003
2.715281e+003, -9.691892e-004
2.717209e+003, -1.059383e-003
2.719138e+003, -1.388644e-003
2.721066e+003, -1.142495e-003
2.722995e+003, -8.816091e-004
2.724923e+003, -1.257852e-003
2.726852e+003, -2.102873e-003
2.728780e+003, -1.470329e-003
2.730709e+003, -8.890793e-004
2.732637e+003, -1.868248e-003
2.734566e+003, -2.446591e-003
2.736494e+003, -1.286561e-003
2.738423e+003, -8.420856e-004
2.740351e+003, -2.065607e-003
2.742280e+003, -2.186785e-003
2.744208e+003, -1.440499e-003
2.746136e+003, -2.217925e-003
2.748065e+003, -2.935989e-003
2.749993e+003, -2.972770e-003
2.751922e+003, -2.215134e-003
2.753850e+003, -1.383678e-003
2.755779e+003, -9.940453e-004
2.757707e+003, -1.647436e-003
2.759636e+003, -2.755967e-003
2.761564e+003, -2.951689e-003
2.763493e+003, -1.436995e-003
2.765421e+003, -7.618415e-004
2.767350e+003, -1.810682e-003
2.769278e+003, -2.300724e-003
2.771207e+003, -2.068974e-003
2.773135e+003, -2.238813e-003
2.775063e+003, -1.940034e-003
2.776992e+003, -1.689554e-003
2.778920e+003, -2.587622e-003
2.780849e+003, -3.209142e-003
2.782777e+003, -2.827833e-003
2.784706e+003, -2.507104e-003
2.786634e+003, -2.487924e-003
2.788563e+003, -2.772503e-003
2.790491e+003, -3.130172e-003
2.792420e+003, -2.714856e-003
2.794348e+003, -3.585263e-003
2.796277e+003, -4.165244e-003
2.798205e+003, -4.560284e-003
2.800134e+003, -4.429393e-003
2.802062e+003, -4.113440e-003
2.803990e+003, -3.254935e-003
2.805919e+003, -2.736051e-003
2.807847e+003, -4.103946e-003
2.809776e+003, -4.556231e-003
2.811704e+003, -3.557464e-003
2.813633e+003, -3.618279e-003
2.815561e+003, -2.951239e-003
2.817490e+003, -2.651762e-003
2.819418e+003, -3.854641e-003
2.821347e+003, -4.560745e-003
2.823275e+003, -4.187561e-003
2.825204e+003, -4.576026e-003
2.827132e+003, -5.751879e-003
2.829061e+003, -6.190317e-003
2.830989e+003, -6.155431e-003
2.832917e+003, -5.565193e-003
2.834846e+003, -4.978070e-003
2.836774e+003, -5.910791e-003
2.838703e+003, -7.246686e-003
2.840631e+003, -8.804361e-003
2.842560e+003, -1.069595e-002
2.844488e+003, -1.290550e-002
2.846417e+003, -1.507256e-002
2.848345e+003, -1.718991e-002
2.850274e+003, -1.762516e-002
2.852202e+003, -1.959861e-002
2.854131e+003, -2.015023e-002
2.856059e+003, -1.835756e-002
2.857988e+003, -1.581103e-002
2.859916e+003, -1.405429e-002
2.861844e+003, -1.197535e-002
2.863773e+003, -1.136347e-002
2.865701e+003, -1.117051e-002
2.867630e+003, -1.019011e-002
2.869558e+003, -9.673173e-003
2.871487e+003, -9.429278e-003
2.873415e+003, -9.826364e-003
2.875344e+003, -1.004118e-002
2.877272e+003, -9.523117e-003
2.879201e+003, -9.940796e-003
2.881129e+003, -1.075107e-002
2.883058e+003, -1.002907e-002
2.884986e+003, -8.877294e-003
2.886915e+003, -8.427242e-003
2.888843e+003, -8.698585e-003
2.890771e+003, -9.802466e-003
2.892700e+003, -1.118969e-002
2.894628e+003, -1.105179e-002
2.896557e+003, -1.214826e-002
2.898485e+003, -1.285773e-002
2.900414e+003, -1.275507e-002
2.902342e+003, -1.422161e-002
2.904271e+003, -1.657264e-002
2.906199e+003, -1.758322e-002
2.908128e+003, -1.804362e-002
2.910056e+003, -1.907596e-002
2.911985e+003, -2.117615e-002
2.913913e+003, -2.256966e-002
2.915842e+003, -2.468966e-002
2.917770e+003, -2.717606e-002
2.919698e+003, -2.864741e-002
2.921627e+003, -3.123811e-002
2.923555e+003, -3.316297e-002
2.925484e+003, -3.236225e-002
2.927412e+003, -3.212191e-002
2.929341e+003, -3.049793e-002
2.931269e+003, -2.775373e-002
2.933198e+003, -2.449698e-002
2.935126e+003, -2.239783e-002
2.937055e+003, -2.026700e-002
2.938983e+003, -1.802817e-002
2.940912e+003, -1.661995e-002
2.942840e+003, -1.674893e-002
2.944769e+003, -1.657153e-002
2.946697e+003, -1.610281e-002
2.948625e+003, -1.525624e-002
2.950554e+003, -1.480784e-002
2.952482e+003, -1.473222e-002
2.954411e+003, -1.547546e-002
2.956339e+003, -1.544811e-002
2.958268e+003, -1.508159e-002
2.960196e+003, -1.415562e-002
2.962125e+003, -1.305259e-002
2.964053e+003, -1.202694e-002
2.965982e+003, -1.104451e-002
2.967910e+003, -1.141454e-002
2.969839e+003, -1.039030e-002
2.971767e+003, -8.756114e-003
2.973696e+003, -9.093025e-003
2.975624e+003, -9.998628e-003
2.977552e+003, -9.363227e-003
2.979481e+003, -7.883293e-003
2.981409e+003, -8.095060e-003
2.983338e+003, -8.808567e-003
2.985266e+003, -8.650772e-003
2.987195e+003, -8.208438e-003
2.989123e+003, -7.903391e-003
2.991052e+003, -7.411442e-003
2.992980e+003, -7.293056e-003
2.994909e+003, -6.872383e-003
2.996837e+003, -5.951065e-003
2.998766e+003, -5.468572e-003
3.000694e+003, -4.053020e-003
3.002623e+003, -4.730667e-003
3.004551e+003, -6.969372e-003
3.006479e+003, -7.336847e-003
3.008408e+003, -5.979400e-003
3.010336e+003, -4.449905e-003
3.012265e+003, -3.420852e-003
3.014193e+003, -3.842439e-003
3.016122e+003, -4.878688e-003
3.018050e+003, -5.028054e-003
3.019979e+003, -5.814923e-003
3.021907e+003, -6.991506e-003
3.023836e+003, -7.171655e-003
3.025764e+003, -5.880759e-003
3.027693e+003, -4.188390e-003
3.029621e+003, -4.061969e-003
3.031550e+003, -4.921856e-003
3.033478e+003, -4.962938e-003
3.035406e+003, -4.768991e-003
3.037335e+003, -4.909391e-003
3.039263e+003, -5.041224e-003
3.041192e+003, -4.966524e-003
3.043120e+003, -3.932396e-003
3.045049e+003, -2.573137e-003
3.046977e+003, -2.699303e-003
3.048906e+003, -4.217635e-003
3.050834e+003, -4.571926e-003
3.052763e+003, -3.547953e-003
3.054691e+003, -4.165203e-003
3.056620e+003, -3.554354e-003
3.058548e+003, -1.989374e-003
3.060477e+003, -1.936254e-003
3.062405e+003, -2.669325e-003
3.064333e+003, -2.969086e-003
3.066262e+003, -3.132936e-003
3.068190e+003, -2.987227e-003
3.070119e+003, -1.125219e-003
3.072047e+003, 9.771813e-006
3.073976e+003, -1.745438e-003
3.075904e+003, -3.286247e-003
3.077833e+003, -2.394408e-003
3.079761e+003, -2.432375e-003
3.081690e+003, -2.869244e-003
3.083618e+003, -2.815881e-003
3.085547e+003, -3.282883e-003
3.087475e+003, -2.658915e-003
3.089404e+003, -2.613376e-003
3.091332e+003, -1.628851e-003
3.093260e+003, -1.438425e-003
3.095189e+003, -2.914764e-003
3.097117e+003, -2.365260e-003
3.099046e+003, -7.306031e-004
3.100974e+003, -1.021274e-004
3.102903e+003, -3.992615e-004
3.104831e+003, -5.453362e-004
3.106760e+003, -2.462843e-003
3.108688e+003, -4.073915e-003
3.110617e+003, -3.613957e-003
3.112545e+003, -3.621032e-003
3.114474e+003, -3.871803e-003
3.116402e+003, -2.804910e-003
3.118331e+003, -2.610415e-003
3.120259e+003, -3.521530e-003
3.122188e+003, -3.390905e-003
3.124116e+003, -3.634494e-003
3.126044e+003, -3.706257e-003
3.127973e+003, -4.368956e-003
3.129901e+003, -4.967155e-003
3.131830e+003, -2.458893e-003
3.133758e+003, -1.754806e-003
3.135687e+003, -1.934867e-003
3.137615e+003, -8.738311e-004
3.139544e+003, 1.389972e-003
3.141472e+003, 9.392119e-004
3.143401e+003, -2.512682e-003
3.145329e+003, -2.928496e-003
3.147258e+003, -1.915036e-003
3.149186e+003, -3.047449e-003
3.151115e+003, -2.953990e-003
3.153043e+003, -2.572842e-003
3.154971e+003, -3.079541e-003
3.156900e+003, -3.002311e-003
3.158828e+003, -1.947684e-003
3.160757e+003, -2.493104e-003
3.162685e+003, -2.419728e-003
3.164614e+003, -2.440777e-003
3.166542e+003, -1.711235e-003
3.168471e+003, -3.087689e-003
3.170399e+003, -4.223384e-003
3.172328e+003, -2.965905e-003
3.174256e+003, -1.869076e-003
3.176185e+003, -1.311296e-003
3.178113e+003, -1.600215e-003
3.180042e+003, -2.824439e-003
3.181970e+003, -3.357918e-003
3.183898e+003, -3.274601e-003
3.185827e+003, -2.346493e-003
3.187755e+003, -1.890632e-003
3.189684e+003, -2.645568e-003
3.191612e+003, -1.825118e-003
3.193541e+003, -1.436540e-003
3.195469e+003, -3.300338e-003
3.197398e+003, -3.449973e-003
3.199326e+003, -4.174834e-003
3.201255e+003, -4.503347e-003
3.203183e+003, -4.804253e-003
3.205112e+003, -4.619598e-003
3.207040e+003, -3.405998e-003
3.208969e+003, -2.429240e-003
3.210897e+003, -3.524498e-003
3.212825e+003, -4.713260e-003
3.214754e+003, -3.765009e-003
3.216682e+003, -3.177527e-003
3.218611e+003, -4.145347e-003
3.220539e+003, -4.039305e-003
3.222468e+003, -1.752015e-003
3.224396e+003, -2.860636e-003
3.226325e+003, -4.057540e-003
3.228253e+003, -3.885465e-003
3.230182e+003, -3.380394e-003
3.232110e+003, -3.701813e-003
3.234039e+003, -5.786210e-003
3.235967e+003, -5.342609e-003
3.237896e+003, -4.062678e-003
3.239824e+003, -3.684416e-003
3.241752e+003, -3.638400e-003
3.243681e+003, -4.911476e-003
3.245609e+003, -4.704871e-003
3.247538e+003, -3.183529e-003
3.249466e+003, -2.698914e-003
3.251395e+003, -2.921357e-003
3.253323e+003, -3.033025e-003
3.255252e+003, -2.997691e-003
3.257180e+003, -2.295182e-003
3.259109e+003, -2.731173e-003
3.261037e+003, -4.468430e-003
3.262966e+003, -2.977499e-003
3.264894e+003, -6.555221e-004
3.266823e+003, -1.775590e-003
3.268751e+003, -2.737848e-003
3.270679e+003, -3.446559e-003
3.272608e+003, -3.949339e-003
3.274536e+003, -3.537534e-003
3.276465e+003, -3.262469e-003
3.278393e+003, -4.690142e-003
3.280322e+003, -5.156382e-003
3.282250e+003, -4.523732e-003
3.284179e+003, -3.033993e-003
3.286107e+003, -2.423506e-003
3.288036e+003, -3.028424e-003
3.289964e+003, -3.737740e-003
3.291893e+003, -3.845779e-003
3.293821e+003, -3.460384e-003
3.295750e+003, -2.948132e-003
3.297678e+003, -2.566746e-003
3.299606e+003, -3.133012e-003
3.301535e+003, -3.921847e-003
3.303463e+003, -3.249382e-003
3.305392e+003, -2.493378e-003
3.307320e+003, -3.898993e-003
3.309249e+003, -4.308216e-003
3.311177e+003, -2.279886e-003
3.313106e+003, -1.333826e-003
3.315034e+003, -2.170678e-003
3.316963e+003, -3.785185e-003
3.318891e+003, -3.892126e-003
3.320820e+003, -2.240165e-003
3.322748e+003, -1.205599e-003
3.324677e+003, -3.555328e-003
3.326605e+003, -3.742209e-003
3.328533e+003, -2.499825e-003
3.330462e+003, -2.587527e-003
3.332390e+003, -2.396462e-003
3.334319e+003, -3.089464e-003
3.336247e+003, -3.360818e-003
3.338176e+003, -4.857576e-003
3.340104e+003, -5.701184e-003
3.342033e+003, -5.963659e-003
3.343961e+003, -5.541438e-003
3.345890e+003, -4.357686e-003
3.347818e+003, -4.060788e-003
3.349747e+003, -2.823302e-003
3.351675e+003, -1.094142e-003
3.353604e+003, -3.115094e-003
3.355532e+003, -4.829089e-003
3.357460e+003, -5.037861e-003
3.359389e+003, -4.226995e-003
3.361317e+003, -2.636625e-003
3.363246e+003, -2.521223e-003
3.365174e+003, -1.680147e-003
3.367103e+003, -1.473710e-003
3.369031e+003, -4.289548e-003
3.370960e+003, -5.119891e-003
3.372888e+003, -2.734162e-003
3.374817e+003, -1.339678e-003
3.376745e+003, -1.843157e-003
3.378674e+003, -1.852260e-003
3.380602e+003, -3.037449e-003
3.382531e+003, -3.044774e-003
3.384459e+003, -3.511081e-003
3.386387e+003, -3.852883e-003
3.388316e+003, -3.377538e-003
3.390244e+003, -4.447484e-003
3.392173e+003, -5.494691e-003
3.394101e+003, -4.760845e-003
3.396030e+003, -5.025872e-003
3.397958e+003, -2.849778e-003
3.399887e+003, -2.129389e-003
3.401815e+003, -1.650028e-003
3.403744e+003, -1.476903e-003
3.405672e+003, -2.863231e-003
3.407601e+003, -2.878149e-003
3.409529e+003, -1.961580e-003
3.411458e+003, -1.359531e-003
3.413386e+003, -1.253087e-004
3.415314e+003, -9.354511e-004
3.417243e+003, -1.881773e-003
3.419171e+003, -4.164622e-003
3.421100e+003, -4.964574e-003
3.423028e+003, -2.827108e-003
3.424957e+003, -2.350637e-003
3.426885e+003, -1.322003e-003
3.428814e+003, -1.498903e-003
3.430742e+003, -2.241790e-003
3.432671e+003, -1.969555e-003
3.434599e+003, -1.694916e-003
3.436528e+003, -2.530008e-003
3.438456e+003, -3.025646e-003
3.440385e+003, -3.565687e-003
3.442313e+003, -5.479204e-003
3.444241e+003, -6.163774e-003
3.446170e+003, -4.297249e-003
3.448098e+003, -3.532080e-003
3.450027e+003, -3.362523e-003
3.451955e+003, -3.232815e-003
3.453884e+003, -4.243192e-003
3.455812e+003, -3.456244e-003
3.457741e+003, -1.954648e-003
3.459669e+003, -1.933757e-003
3.461598e+003, -1.646372e-003
3.463526e+003, -2.214855e-003
3.465455e+003, -2.223999e-003
3.467383e+003, -2.118430e-003
3.469312e+003, -6.597967e-004
3.471240e+003, 7.872614e-004
3.473168e+003, -3.579717e-004
3.475097e+003, -1.295044e-003
3.477025e+003, -1.116413e-003
3.478954e+003, -1.764472e-003
3.480882e+003, -1.359658e-003
3.482811e+003, -5.711202e-004
3.484739e+003, 8.692278e-004
3.486668e+003, 5.552109e-004
3.488596e+003, -2.949602e-004
3.490525e+003, -3.413757e-004
3.492453e+003, 1.026081e-003
3.494382e+003, 9.377844e-004
3.496310e+003, 6.486494e-004
3.498239e+003, 1.288895e-003
3.500167e+003, 2.082243e-003
3.502095e+003, 2.910012e-003
3.504024e+003, 2.642579e-003
3.505952e+003, 3.715697e-003
3.507881e+003, 3.831929e-003
3.509809e+003, 1.835645e-003
3.511738e+003, 1.599715e-003
3.513666e+003, 2.229712e-003
3.515595e+003, 3.876324e-003
3.517523e+003, 5.523476e-003
3.519452e+003, 5.657006e-003
3.521380e+003, 6.989297e-003
3.523309e+003, 5.849406e-003
3.525237e+003, 3.698667e-003
3.527166e+003, 2.886818e-003
3.529094e+003, 3.835408e-003
3.531022e+003, 6.926164e-003
3.532951e+003, 7.585657e-003
3.534879e+003, 5.725771e-003
3.536808e+003, 4.571532e-003
3.538736e+003, 3.878565e-003
3.540665e+003, 4.785742e-003
3.542593e+003, 7.167604e-003
3.544522e+003, 5.150201e-003
3.546450e+003, 5.136026e-003
3.548379e+003, 7.385443e-003
3.550307e+003, 6.346449e-003
3.552236e+003, 4.854158e-003
3.554164e+003, 6.279794e-003
3.556093e+003, 6.703607e-003
3.558021e+003, 5.566245e-003
3.559949e+003, 4.662373e-003
3.561878e+003, 5.636596e-003
3.563806e+003, 6.254149e-003
3.565735e+003, 5.756895e-003
3.567663e+003, 4.722749e-003
3.569592e+003, 4.558272e-003
3.571520e+003, 3.376093e-003
3.573449e+003, 3.124122e-003
3.575377e+003, 3.160589e-003
3.577306e+003, 3.290097e-003
3.579234e+003, 3.376373e-003
3.581163e+003, 3.081881e-003
3.583091e+003, 4.729597e-003
3.585020e+003, 6.271219e-003
3.586948e+003, 8.502760e-003
3.588876e+003, 9.269862e-003
3.590805e+003, 6.664369e-003
3.592733e+003, 4.922754e-003
3.594662e+003, 5.256875e-003
3.596590e+003, 4.845674e-003
3.598519e+003, 4.738121e-003
3.600447e+003, 5.957593e-003
3.602376e+003, 5.446015e-003
3.604304e+003, 6.426784e-003
3.606233e+003, 8.145805e-003
3.608161e+003, 8.126968e-003
3.610090e+003, 7.094114e-003
3.612018e+003, 6.615761e-003
3.613947e+003, 6.344544e-003
3.615875e+003, 6.258674e-003
3.617803e+003, 5.433733e-003
3.619732e+003, 5.259722e-003
3.621660e+003, 5.701212e-003
3.623589e+003, 5.126676e-003
3.625517e+003, 5.614210e-003
3.627446e+003, 4.538126e-003
3.629374e+003, -1.830187e-004
3.631303e+003, -2.848042e-003
3.633231e+003, -1.890575e-003
3.635160e+003, 1.285698e-003
3.637088e+003, 2.951429e-003
3.639017e+003, 4.790113e-003
3.640945e+003, 2.192690e-003
3.642874e+003, -8.074185e-004
3.644802e+003, -8.837678e-004
3.646730e+003, -1.087829e-003
3.648659e+003, 1.341938e-005
3.650587e+003, -2.798738e-004
3.652516e+003, -2.821431e-003
3.654444e+003, -3.734875e-003
3.656373e+003, -2.787041e-003
3.658301e+003, -5.170161e-004
3.660230e+003, -1.306113e-004
3.662158e+003, -5.196233e-004
3.664087e+003, -2.050415e-004
3.666015e+003, -1.200035e-003
3.667944e+003, -1.479958e-003
3.669872e+003, 3.350368e-004
3.671801e+003, 4.947528e-004
3.673729e+003, 2.115729e-004
3.675657e+003, 1.169119e-003
3.677586e+003, 9.651258e-004
3.679514e+003, -6.535862e-004
3.681443e+003, -1.085019e-003
3.683371e+003, -1.013384e-003
3.685300e+003, -2.902093e-003
3.687228e+003, -6.673568e-003
3.689157e+003, -7.084309e-003
3.691085e+003, -5.683737e-003
3.693014e+003, -5.060954e-003
3.694942e+003, -2.016719e-003
3.696871e+003, -1.478046e-003
3.698799e+003, -2.658003e-003
3.700728e+003, 2.084554e-005
3.702656e+003, -5.622850e-004
3.704584e+003, -3.549264e-003
3.706513e+003, -2.617568e-003
3.708441e+003, -2.239571e-003
3.710370e+003, -2.959386e-003
3.712298e+003, -3.815354e-003
3.714227e+003, -4.285169e-003
3.716155e+003, -2.447470e-003
3.718084e+003, -2.706545e-003
3.720012e+003, -2.069672e-003
3.721941e+003, -2.336636e-003
3.723869e+003, -4.189105e-003
3.725798e+003, -3.370765e-003
3.727726e+003, -7.796836e-004
3.729655e+003, 1.553509e-003
3.731583e+003, 3.266956e-003
3.733511e+003, -2.907336e-003
3.735440e+003, -4.284090e-003
3.737368e+003, -4.300629e-003
3.739297e+003, -4.466570e-003
3.741225e+003, -5.127395e-003
3.743154e+003, -5.304354e-003
3.745082e+003, -1.733602e-003
3.747011e+003, -2.050594e-003
3.748939e+003, -2.608588e-003
3.750868e+003, -4.864808e-003
3.752796e+003, -3.200860e-003
3.754725e+003, -2.745141e-003
3.756653e+003, -2.927220e-003
3.758582e+003, -3.248302e-003
3.760510e+003, -3.140659e-003
3.762438e+003, -7.230542e-006
3.764367e+003, 3.290674e-004
3.766295e+003, -2.231515e-003
3.768224e+003, -1.767886e-003
3.770152e+003, -1.283428e-003
3.772081e+003, -1.667441e-003
3.774009e+003, -3.125973e-003
3.775938e+003, -4.083948e-003
3.777866e+003, -3.201130e-003
3.779795e+003, -1.747543e-003
3.781723e+003, -3.174884e-003
3.783652e+003, -1.922141e-003
3.785580e+003, -7.469007e-004
3.787509e+003, 8.651422e-004
3.789437e+003, 1.454997e-003
3.791365e+003, 2.879537e-004
3.793294e+003, -5.814518e-004
3.795222e+003, -1.103473e-003
3.797151e+003, -4.459264e-003
3.799079e+003, -5.224127e-003
3.801008e+003, -4.358409e-003
3.802936e+003, -4.991762e-003
3.804865e+003, -4.944394e-003
3.806793e+003, -3.387399e-003
3.808722e+003, -1.944331e-003
3.810650e+003, -3.074028e-003
3.812579e+003, -4.949380e-003
3.814507e+003, -4.245179e-003
3.816436e+003, -3.657940e-003
3.818364e+003, -1.048754e-003
3.820292e+003, 2.512397e-003
3.822221e+003, 3.893597e-003
3.824149e+003, 2.193269e-003
3.826078e+003, -1.088120e-003
3.828006e+003, -1.643253e-003
3.829935e+003, -1.322800e-003
3.831863e+003, -3.916832e-003
3.833792e+003, -7.603969e-003
3.835720e+003, -5.454530e-003
3.837649e+003, -2.461590e-003
3.839577e+003, -2.682453e-003
3.841506e+003, -5.110967e-004
3.843434e+003, 1.193300e-003
3.845363e+003, -7.300409e-004
3.847291e+003, -3.000009e-003
3.849219e+003, -3.462317e-003
3.851148e+003, -2.578804e-003
3.853076e+003, -3.734969e-003
3.855005e+003, -2.274891e-003
3.856933e+003, -1.909160e-004
3.858862e+003, -5.059922e-004
3.860790e+003, -2.519991e-003
3.862719e+003, -5.856966e-003
3.864647e+003, -5.604916e-003
3.866576e+003, -6.051498e-003
3.868504e+003, -5.492846e-003
3.870433e+003, -2.998468e-003
3.872361e+003, 1.220244e-004
3.874290e+003, -9.503178e-004
3.876218e+003, -3.767140e-003
3.878146e+003, -5.921975e-003
3.880075e+003, -5.924535e-003
3.882003e+003, -2.570183e-003
3.883932e+003, -1.468875e-003
3.885860e+003, -3.943766e-003
3.887789e+003, 3.813448e-004
3.889717e+003, -5.823176e-004
3.891646e+003, -4.508636e-003
3.893574e+003, -6.562747e-004
3.895503e+003, 2.748145e-003
3.897431e+003, 1.373807e-003
3.899360e+003, 9.716234e-005
3.901288e+003, -2.512607e-003
3.903217e+003, -3.849382e-003
3.905145e+003, -1.320720e-003
3.907073e+003, 2.815956e-003
3.909002e+003, 1.989054e-003
3.910930e+003, -1.947711e-003
3.912859e+003, -3.472464e-003
3.914787e+003, -3.493334e-003
3.916716e+003, -3.046761e-003
3.918644e+003, -2.000725e-004
3.920573e+003, -5.974555e-004
3.922501e+003, -4.093510e-004
3.924430e+003, 2.476832e-003
3.926358e+003, 2.561564e-003
3.928287e+003, -2.773796e-003
3.930215e+003, -1.783136e-003
3.932144e+003, 7.927247e-004
3.934072e+003, -1.667036e-003
3.936000e+003, -5.966261e-003
3.937929e+003, -5.756451e-003
3.939857e+003, -5.691354e-003
3.941786e+003, -4.010819e-003
3.943714e+003, -1.818891e-003
3.945643e+003, -1.111280e-003
3.947571e+003, -3.762487e-003
3.949500e+003, -4.291901e-003
3.951428e+003, -9.093074e-004
3.953357e+003, -1.320335e-004
3.955285e+003, -8.238736e-004
3.957214e+003, -3.736470e-004
3.959142e+003, -3.166451e-004
3.961071e+003, -1.655793e-003
3.962999e+003, -1.471489e-003
3.964927e+003, -1.584168e-003
3.966856e+003, -3.547274e-003
3.968784e+003, -3.357783e-003
3.970713e+003, -8.549654e-004
3.972641e+003, -2.108734e-003
3.974570e+003, -2.269037e-003
3.976498e+003, -3.743649e-003
3.978427e+003, -5.227501e-003
3.980355e+003, -5.238187e-003
3.982284e+003, -3.113307e-003
3.984212e+003, 3.405970e-005
3.986141e+003, -1.055237e-003
3.988069e+003, -6.280617e-003
3.989998e+003, -4.470813e-003
3.991926e+003, -7.159546e-004
3.993854e+003, -8.328333e-004
3.995783e+003, -3.494790e-003
3.997711e+003, -4.704043e-003
3.999640e+003, -4.706312e-003
4.001568e+003, 0.000000e+000
##END=



