##NAMES=Cassiterite
##RRUFFID=R050502
##IDEAL CHEMISTRY=SnO_2_
##LOCALITY=Redruth, Cornwall, England
##OWNER=RRUFF
##SOURCE=California Institute of Technology
##DESCRIPTION=Black crystals associated with colorless quartz and grey stannite.
##STATUS=The identification of this mineral has been confirmed by X-ray diffraction and chemical analysis
##URL=rruff.info/R050502
##MEASURED CHEMISTRY=SnO_2_
399.1926, 0.5305967
401.1211, 0.5202547
403.0496, 0.5202547
404.9780, 0.5259536
406.9065, 0.5378773
408.8350, 0.5463022
410.7634, 0.5525504
412.6919, 0.5462671
414.6204, 0.5444307
416.5488, 0.5582161
418.4773, 0.5597662
420.4058, 0.5658441
422.3342, 0.5771890
424.2627, 0.5717350
426.1912, 0.5557911
428.1196, 0.5583931
430.0481, 0.5702407
431.9766, 0.5722914
433.9050, 0.5656644
435.8335, 0.5610540
437.7620, 0.5578660
439.6904, 0.5626191
441.6189, 0.5669768
443.5474, 0.5660046
445.4758, 0.5748503
447.4043, 0.5753566
449.3328, 0.5733755
451.2612, 0.5813237
453.1897, 0.5914041
455.1182, 0.5896308
457.0466, 0.5845901
458.9751, 0.5910544
460.9036, 0.5999287
462.8320, 0.6005711
464.7605, 0.5985739
466.6890, 0.5967702
468.6174, 0.5927698
470.5459, 0.5895116
472.4744, 0.5856125
474.4028, 0.5860858
476.3313, 0.5875643
478.2598, 0.5804414
480.1882, 0.5755011
482.1167, 0.5697073
484.0452, 0.5649945
485.9736, 0.5606378
487.9021, 0.5566257
489.8306, 0.5567870
491.7590, 0.5540642
493.6875, 0.5514374
495.6160, 0.5499929
497.5444, 0.5464474
499.4729, 0.5476218
501.4014, 0.5483615
503.3298, 0.5476303
505.2583, 0.5461142
507.1868, 0.5461043
509.1152, 0.5457964
511.0437, 0.5412179
512.9722, 0.5371584
514.9006, 0.5339842
516.8291, 0.5316693
518.7576, 0.5280228
520.6860, 0.5227572
522.6145, 0.5202439
524.5430, 0.5180003
526.4714, 0.5136783
528.3999, 0.5090172
530.3284, 0.5033509
532.2568, 0.4990038
534.1853, 0.4960220
536.1138, 0.4920410
538.0422, 0.4879064
539.9707, 0.4849346
541.8992, 0.4822171
543.8276, 0.4774988
545.7561, 0.4725730
547.6846, 0.4709909
549.6130, 0.4686734
551.5415, 0.4644099
553.4700, 0.4614541
555.3984, 0.4590761
557.3269, 0.4576778
559.2554, 0.4558438
561.1838, 0.4522697
563.1123, 0.4492257
565.0408, 0.4474467
566.9692, 0.4478391
568.8977, 0.4478269
570.8262, 0.4458373
572.7546, 0.4446636
574.6831, 0.4446591
576.6116, 0.4450601
578.5400, 0.4448469
580.4685, 0.4454295
582.3970, 0.4451364
584.3254, 0.4451901
586.2539, 0.4438915
588.1824, 0.4436617
590.1108, 0.4461986
592.0393, 0.4473242
593.9678, 0.4452354
595.8962, 0.4454201
597.8247, 0.4478958
599.7532, 0.4489314
601.6816, 0.4477310
603.6101, 0.4473273
605.5386, 0.4466494
607.4670, 0.4460637
609.3955, 0.4441743
611.3240, 0.4427838
613.2524, 0.4412890
615.1809, 0.4391404
617.1094, 0.4357695
619.0378, 0.4313843
620.9663, 0.4263585
622.8948, 0.4232426
624.8232, 0.4199961
626.7517, 0.4156474
628.6802, 0.4113921
630.6086, 0.4069099
632.5371, 0.4019074
634.4656, 0.3962656
636.3940, 0.3907368
638.3225, 0.3852353
640.2510, 0.3795748
642.1794, 0.3744609
644.1079, 0.3694653
646.0364, 0.3642851
647.9648, 0.3588920
649.8933, 0.3528928
651.8218, 0.3484477
653.7502, 0.3437967
655.6787, 0.3382052
657.6072, 0.3336588
659.5356, 0.3293315
661.4641, 0.3255091
663.3926, 0.3205974
665.3210, 0.3158537
667.2495, 0.3112729
669.1780, 0.3065566
671.1064, 0.3015302
673.0349, 0.2970138
674.9634, 0.2931021
676.8918, 0.2890669
678.8203, 0.2846581
680.7488, 0.2801162
682.6772, 0.2751801
684.6057, 0.2713811
686.5342, 0.2674021
688.4626, 0.2631984
690.3911, 0.2589008
692.3196, 0.2547400
694.2480, 0.2509105
696.1765, 0.2476337
698.1050, 0.2442070
700.0334, 0.2405178
701.9619, 0.2363299
703.8904, 0.2328833
705.8188, 0.2297923
707.7473, 0.2262315
709.6758, 0.2230437
711.6042, 0.2202623
713.5327, 0.2165327
715.4612, 0.2130652
717.3896, 0.2106850
719.3181, 0.2078306
721.2466, 0.2050438
723.1750, 0.2022489
725.1035, 0.1994537
727.0320, 0.1966842
728.9604, 0.1939433
730.8889, 0.1919406
732.8174, 0.1898233
734.7458, 0.1872132
736.6743, 0.1844259
738.6028, 0.1812930
740.5313, 0.1789850
742.4597, 0.1769920
744.3882, 0.1747840
746.3167, 0.1727496
748.2451, 0.1705244
750.1736, 0.1681440
752.1021, 0.1661645
754.0305, 0.1648483
755.9590, 0.1631133
757.8875, 0.1617842
759.8159, 0.1617220
761.7444, 0.1614468
763.6729, 0.1608495
765.6013, 0.1604849
767.5298, 0.1604613
769.4583, 0.1605868
771.3867, 0.1609910
773.3152, 0.1616066
775.2437, 0.1622001
777.1721, 0.1623617
779.1006, 0.1619195
781.0291, 0.1610550
782.9575, 0.1605092
784.8860, 0.1606032
786.8145, 0.1607775
788.7429, 0.1607621
790.6714, 0.1604582
792.5999, 0.1597443
794.5283, 0.1596510
796.4568, 0.1597141
798.3853, 0.1588365
800.3137, 0.1585581
802.2422, 0.1586295
804.1707, 0.1587061
806.0991, 0.1582295
808.0276, 0.1576338
809.9561, 0.1576572
811.8845, 0.1577270
813.8130, 0.1569677
815.7415, 0.1562201
817.6699, 0.1563813
819.5984, 0.1567631
821.5269, 0.1558833
823.4553, 0.1548259
825.3838, 0.1543394
827.3123, 0.1538255
829.2407, 0.1531719
831.1692, 0.1525175
833.0977, 0.1520383
835.0261, 0.1515704
836.9546, 0.1512923
838.8831, 0.1509740
840.8115, 0.1507666
842.7400, 0.1507595
844.6685, 0.1501874
846.5969, 0.1499451
848.5254, 0.1499619
850.4539, 0.1501430
852.3823, 0.1503688
854.3108, 0.1501307
856.2393, 0.1498737
858.1677, 0.1498069
860.0962, 0.1496291
862.0247, 0.1492402
863.9531, 0.1494486
865.8816, 0.1498701
867.8101, 0.1499359
869.7385, 0.1498788
871.6670, 0.1497609
873.5955, 0.1493277
875.5239, 0.1492977
877.4524, 0.1496743
879.3809, 0.1497176
881.3093, 0.1494603
883.2378, 0.1493972
885.1663, 0.1496378
887.0947, 0.1500167
889.0232, 0.1500144
890.9517, 0.1500738
892.8801, 0.1500213
894.8085, 0.1497613
896.7370, 0.1497297
898.6655, 0.1498624
900.5939, 0.1502121
902.5224, 0.1502293
904.4509, 0.1503727
906.3793, 0.1501645
908.3078, 0.1500455
910.2363, 0.1500851
912.1647, 0.1499331
914.0932, 0.1494233
916.0217, 0.1492046
917.9501, 0.1493893
919.8786, 0.1491578
921.8071, 0.1485062
923.7355, 0.1482735
925.6640, 0.1479448
927.5925, 0.1477072
929.5209, 0.1474726
931.4494, 0.1475168
933.3779, 0.1473521
935.3063, 0.1469057
937.2348, 0.1469243
939.1633, 0.1474265
941.0917, 0.1476579
943.0202, 0.1476256
944.9487, 0.1475862
946.8771, 0.1479314
948.8056, 0.1484204
950.7341, 0.1490055
952.6625, 0.1492517
954.5910, 0.1497089
956.5195, 0.1505433
958.4479, 0.1512660
960.3764, 0.1519027
962.3049, 0.1526662
964.2333, 0.1536199
966.1618, 0.1546110
968.0903, 0.1556162
970.0187, 0.1566010
971.9472, 0.1571853
973.8757, 0.1582655
975.8041, 0.1594357
977.7326, 0.1599506
979.6611, 0.1601044
981.5895, 0.1606161
983.5180, 0.1611504
985.4465, 0.1612671
987.3749, 0.1614313
989.3034, 0.1615698
991.2319, 0.1614320
993.1603, 0.1614006
995.0888, 0.1614357
997.0173, 0.1614855
998.9457, 0.1614027
1000.874, 0.1610688
1002.803, 0.1608242
1004.731, 0.1606381
1006.660, 0.1602332
1008.588, 0.1596078
1010.517, 0.1590395
1012.445, 0.1587211
1014.373, 0.1584738
1016.302, 0.1582360
1018.230, 0.1578733
1020.159, 0.1572561
1022.087, 0.1568940
1024.016, 0.1566712
1025.944, 0.1559818
1027.873, 0.1550280
1029.801, 0.1541952
1031.730, 0.1530820
1033.658, 0.1513614
1035.587, 0.1493532
1037.515, 0.1469637
1039.444, 0.1442904
1041.372, 0.1416900
1043.301, 0.1393801
1045.229, 0.1371688
1047.157, 0.1351423
1049.086, 0.1331217
1051.014, 0.1311649
1052.943, 0.1297811
1054.871, 0.1284194
1056.800, 0.1269107
1058.728, 0.1258187
1060.657, 0.1249758
1062.585, 0.1241283
1064.514, 0.1237033
1066.442, 0.1231232
1068.371, 0.1223248
1070.299, 0.1218155
1072.228, 0.1213905
1074.156, 0.1213037
1076.084, 0.1206797
1078.013, 0.1197779
1079.941, 0.1189739
1081.870, 0.1181820
1083.798, 0.1171150
1085.727, 0.1160919
1087.655, 0.1149600
1089.584, 0.1136851
1091.512, 0.1126217
1093.441, 0.1118201
1095.369, 0.1108124
1097.298, 0.1096994
1099.226, 0.1088889
1101.155, 0.1080391
1103.083, 0.1072677
1105.011, 0.1067528
1106.940, 0.1062290
1108.868, 0.1054114
1110.797, 0.1045405
1112.725, 0.1040280
1114.654, 0.1035603
1116.582, 0.1028598
1118.511, 0.1020312
1120.439, 0.1011821
1122.368, 0.1007088
1124.296, 0.1006359
1126.225, 0.1003342
1128.153, 9.9702440E-02
1130.082, 9.9160418E-02
1132.010, 9.8579437E-02
1133.938, 9.7990327E-02
1135.867, 9.7684257E-02
1137.795, 9.7235970E-02
1139.724, 9.6629947E-02
1141.652, 9.5897697E-02
1143.581, 9.5335610E-02
1145.509, 9.5005549E-02
1147.438, 9.4622754E-02
1149.366, 9.4291933E-02
1151.295, 9.3904249E-02
1153.223, 9.3318023E-02
1155.152, 9.2912249E-02
1157.080, 9.2595883E-02
1159.009, 9.2264742E-02
1160.937, 9.1873273E-02
1162.865, 9.1541819E-02
1164.794, 9.1212869E-02
1166.722, 9.0727150E-02
1168.651, 9.0344228E-02
1170.579, 9.0112247E-02
1172.508, 8.9763641E-02
1174.436, 8.9423053E-02
1176.365, 8.9012243E-02
1178.293, 8.8739634E-02
1180.222, 8.8815272E-02
1182.150, 8.8633232E-02
1184.079, 8.8282682E-02
1186.007, 8.7978587E-02
1187.936, 8.7804399E-02
1189.864, 8.7734163E-02
1191.792, 8.7355576E-02
1193.721, 8.7270223E-02
1195.649, 8.7209463E-02
1197.578, 8.6864866E-02
1199.506, 8.6502977E-02
1201.435, 8.6418137E-02
1203.363, 8.6393081E-02
1205.292, 8.6042523E-02
1207.220, 8.5622020E-02
1209.149, 8.5512467E-02
1211.077, 8.5296281E-02
1213.006, 8.5016437E-02
1214.934, 8.4696338E-02
1216.863, 8.4363677E-02
1218.791, 8.4305987E-02
1220.719, 8.4295653E-02
1222.648, 8.3852641E-02
1224.576, 8.3599627E-02
1226.505, 8.3599269E-02
1228.433, 8.3543003E-02
1230.362, 8.3205648E-02
1232.290, 8.3016068E-02
1234.219, 8.2839929E-02
1236.147, 8.2574643E-02
1238.076, 8.2309201E-02
1240.004, 8.2165703E-02
1241.933, 8.1796892E-02
1243.861, 8.1553787E-02
1245.790, 8.1373923E-02
1247.718, 8.1053697E-02
1249.646, 8.0870330E-02
1251.575, 8.0833331E-02
1253.503, 8.0639839E-02
1255.432, 8.0550477E-02
1257.360, 8.0266587E-02
1259.289, 8.0039293E-02
1261.217, 7.9740793E-02
1263.146, 7.9503179E-02
1265.074, 7.9404309E-02
1267.003, 7.9248033E-02
1268.931, 7.8905463E-02
1270.860, 7.8639351E-02
1272.788, 7.8487843E-02
1274.717, 7.8327060E-02
1276.645, 7.8237541E-02
1278.573, 7.8208297E-02
1280.502, 7.8058049E-02
1282.430, 7.7690773E-02
1284.359, 7.7474363E-02
1286.287, 7.7419862E-02
1288.216, 7.7174850E-02
1290.144, 7.6886542E-02
1292.073, 7.6686181E-02
1294.001, 7.6655589E-02
1295.930, 7.6668277E-02
1297.858, 7.6500967E-02
1299.787, 7.6097578E-02
1301.715, 7.5960606E-02
1303.644, 7.5857773E-02
1305.572, 7.5549558E-02
1307.500, 7.5090677E-02
1309.429, 7.5094260E-02
1311.357, 7.5104780E-02
1313.286, 7.4982412E-02
1315.214, 7.4725859E-02
1317.143, 7.4413612E-02
1319.071, 7.4129529E-02
1321.000, 7.3954158E-02
1322.928, 7.3835783E-02
1324.857, 7.3854081E-02
1326.785, 7.3892608E-02
1328.714, 7.3720753E-02
1330.642, 7.3510513E-02
1332.571, 7.3254667E-02
1334.499, 7.3151641E-02
1336.427, 7.3136702E-02
1338.356, 7.2857179E-02
1340.284, 7.2714143E-02
1342.213, 7.2474808E-02
1344.141, 7.2232768E-02
1346.070, 7.2063677E-02
1347.998, 7.2049752E-02
1349.927, 7.1775660E-02
1351.855, 7.1615621E-02
1353.784, 7.1563967E-02
1355.712, 7.1468763E-02
1357.641, 7.1386240E-02
1359.569, 7.1248829E-02
1361.498, 7.0946477E-02
1363.426, 7.0676319E-02
1365.354, 7.0345379E-02
1367.283, 7.0405848E-02
1369.211, 7.0434608E-02
1371.140, 7.0286512E-02
1373.068, 7.0140809E-02
1374.997, 7.0092477E-02
1376.925, 6.9940731E-02
1378.854, 6.9807284E-02
1380.782, 6.9388911E-02
1382.711, 6.9199361E-02
1384.639, 6.8931527E-02
1386.568, 6.8774857E-02
1388.496, 6.8901896E-02
1390.424, 6.8871878E-02
1392.353, 6.8859108E-02
1394.281, 6.8714887E-02
1396.210, 6.8313383E-02
1398.138, 6.8298027E-02
1400.067, 6.8035483E-02
1401.995, 6.7750692E-02
1403.924, 6.7810759E-02
1405.852, 6.7818783E-02
1407.781, 6.7667007E-02
1409.709, 6.7593724E-02
1411.638, 6.7340247E-02
1413.566, 6.7184053E-02
1415.495, 6.6966422E-02
1417.423, 6.6924363E-02
1419.351, 6.6694513E-02
1421.280, 6.6379681E-02
1423.208, 6.6383310E-02
1425.137, 6.6454813E-02
1427.065, 6.6361576E-02
1428.994, 6.6186808E-02
1430.922, 6.5842427E-02
1432.851, 6.5566629E-02
1434.779, 6.5434627E-02
1436.708, 6.5461941E-02
1438.636, 6.5269828E-02
1440.565, 6.5064713E-02
1442.493, 6.4990006E-02
1444.422, 6.4919047E-02
1446.350, 6.4855494E-02
1448.278, 6.4642072E-02
1450.207, 6.4382948E-02
1452.135, 6.4294487E-02
1454.064, 6.4072281E-02
1455.992, 6.3960508E-02
1457.921, 6.3854247E-02
1459.849, 6.3489623E-02
1461.778, 6.3020743E-02
1463.706, 6.2763542E-02
1465.635, 6.2752128E-02
1467.563, 6.2710367E-02
1469.492, 6.2608972E-02
1471.420, 6.2765457E-02
1473.349, 6.2860027E-02
1475.277, 6.2655129E-02
1477.205, 6.2381461E-02
1479.134, 6.2332429E-02
1481.062, 6.2371790E-02
1482.991, 6.2329289E-02
1484.919, 6.2302899E-02
1486.848, 6.2175490E-02
1488.776, 6.2013291E-02
1490.705, 6.2027238E-02
1492.633, 6.1737541E-02
1494.562, 6.1458811E-02
1496.490, 6.1551720E-02
1498.419, 6.1525770E-02
1500.347, 6.1258301E-02
1502.276, 6.1079249E-02
1504.204, 6.0971830E-02
1506.132, 6.1056480E-02
1508.061, 6.0934812E-02
1509.989, 6.0643289E-02
1511.918, 6.0573909E-02
1513.846, 6.0512170E-02
1515.775, 6.0426328E-02
1517.703, 6.0388289E-02
1519.632, 6.0173970E-02
1521.560, 6.0047250E-02
1523.489, 5.9884701E-02
1525.417, 5.9908930E-02
1527.346, 5.9735451E-02
1529.274, 5.9500668E-02
1531.203, 5.9320740E-02
1533.131, 5.9400588E-02
1535.059, 5.9213180E-02
1536.988, 5.9126269E-02
1538.916, 5.9277371E-02
1540.845, 5.9361950E-02
1542.773, 5.9004601E-02
1544.702, 5.8679029E-02
1546.630, 5.8557831E-02
1548.559, 5.8446821E-02
1550.487, 5.8351681E-02
1552.416, 5.8263808E-02
1554.344, 5.8147691E-02
1556.273, 5.8252141E-02
1558.201, 5.8368329E-02
1560.130, 5.8250200E-02
1562.058, 5.7814650E-02
1563.986, 5.7698421E-02
1565.915, 5.7619192E-02
1567.843, 5.7656121E-02
1569.772, 5.7773769E-02
1571.700, 5.7457998E-02
1573.629, 5.7201579E-02
1575.557, 5.7444502E-02
1577.486, 5.7283651E-02
1579.414, 5.7135511E-02
1581.343, 5.7148319E-02
1583.271, 5.6941029E-02
1585.200, 5.6664448E-02
1587.128, 5.6517132E-02
1589.057, 5.6429099E-02
1590.985, 5.6336809E-02
1592.913, 5.6334130E-02
1594.842, 5.6340661E-02
1596.770, 5.6136020E-02
1598.699, 5.6397550E-02
1600.627, 5.6532640E-02
1602.556, 5.6364048E-02
1604.484, 5.6273211E-02
1606.413, 5.6074072E-02
1608.341, 5.5797670E-02
1610.270, 5.5716969E-02
1612.198, 5.5724010E-02
1614.127, 5.5645511E-02
1616.055, 5.5605110E-02
1617.984, 5.5406269E-02
1619.912, 5.5103201E-02
1621.840, 5.5006571E-02
1623.769, 5.5062730E-02
1625.697, 5.5118959E-02
1627.626, 5.5239391E-02
1629.554, 5.5130400E-02
1631.483, 5.4776810E-02
1633.411, 5.4652791E-02
1635.340, 5.4734711E-02
1637.268, 5.4702811E-02
1639.197, 5.4681540E-02
1641.125, 5.4605480E-02
1643.054, 5.4346301E-02
1644.982, 5.4376978E-02
1646.911, 5.4422989E-02
1648.839, 5.4228518E-02
1650.767, 5.4121770E-02
1652.696, 5.4124359E-02
1654.624, 5.3765669E-02
1656.553, 5.3417720E-02
1658.481, 5.3396180E-02
1660.410, 5.3328030E-02
1662.338, 5.3357810E-02
1664.267, 5.3278279E-02
1666.195, 5.3015549E-02
1668.124, 5.2886371E-02
1670.052, 5.2827548E-02
1671.981, 5.2587640E-02
1673.909, 5.2482001E-02
1675.838, 5.2567970E-02
1677.766, 5.2282121E-02
1679.694, 5.1932260E-02
1681.623, 5.2031379E-02
1683.551, 5.2260030E-02
1685.480, 5.2187201E-02
1687.408, 5.2016892E-02
1689.337, 5.1901050E-02
1691.265, 5.1816300E-02
1693.194, 5.1814761E-02
1695.122, 5.1833950E-02
1697.051, 5.1620118E-02
1698.979, 5.1404931E-02
1700.908, 5.1295370E-02
1702.836, 5.1215880E-02
1704.765, 5.1282540E-02
1706.693, 5.1185720E-02
1708.621, 5.0666619E-02
1710.550, 5.0224211E-02
1712.478, 5.0250169E-02
1714.407, 5.0465871E-02
1716.335, 5.0733760E-02
1718.264, 5.0636839E-02
1720.192, 5.0337601E-02
1722.121, 5.0074849E-02
1724.049, 5.0045371E-02
1725.978, 5.0177529E-02
1727.906, 4.9999598E-02
1729.835, 4.9788639E-02
1731.763, 4.9608681E-02
1733.692, 4.9331531E-02
1735.620, 4.8671260E-02
1737.548, 4.8172489E-02
1739.477, 4.8054520E-02
1741.405, 4.7861431E-02
1743.334, 4.7491021E-02
1745.262, 4.7593869E-02
1747.191, 4.7365289E-02
1749.119, 4.6932690E-02
1751.048, 4.7100171E-02
1752.976, 4.7480039E-02
1754.905, 4.7628839E-02
1756.833, 4.7757201E-02
1758.762, 4.7880858E-02
1760.690, 4.7946569E-02
1762.619, 4.7893099E-02
1764.547, 4.7909010E-02
1766.475, 4.7891330E-02
1768.404, 4.7784202E-02
1770.332, 4.7716629E-02
1772.261, 4.7725100E-02
1774.189, 4.7611870E-02
1776.118, 4.7696140E-02
1778.046, 4.7593381E-02
1779.975, 4.7294941E-02
1781.903, 4.7197189E-02
1783.832, 4.7374971E-02
1785.760, 4.7581039E-02
1787.689, 4.7423352E-02
1789.617, 4.7444150E-02
1791.546, 4.7626290E-02
1793.474, 4.7364440E-02
1795.402, 4.7065489E-02
1797.331, 4.7081519E-02
1799.259, 4.7220979E-02
1801.188, 4.6960119E-02
1803.116, 4.6878319E-02
1805.045, 4.6939962E-02
1806.973, 4.6826970E-02
1808.902, 4.6492729E-02
1810.830, 4.6510991E-02
1812.759, 4.6491850E-02
1814.687, 4.6293821E-02
1816.616, 4.5981240E-02
1818.544, 4.5561891E-02
1820.473, 4.5496110E-02
1822.401, 4.5738678E-02
1824.329, 4.5782011E-02
1826.258, 4.5729470E-02
1828.186, 4.5487639E-02
1830.115, 4.5514759E-02
1832.043, 4.5389421E-02
1833.972, 4.5363449E-02
1835.900, 4.4983100E-02
1837.829, 4.5101419E-02
1839.757, 4.5158919E-02
1841.686, 4.5439120E-02
1843.614, 4.5637310E-02
1845.543, 4.5148879E-02
1847.471, 4.4922840E-02
1849.400, 4.5040771E-02
1851.328, 4.5029368E-02
1853.256, 4.4624131E-02
1855.185, 4.4484880E-02
1857.113, 4.4689570E-02
1859.042, 4.4769119E-02
1860.970, 4.4556420E-02
1862.899, 4.4779960E-02
1864.827, 4.5186009E-02
1866.756, 4.5246419E-02
1868.684, 4.4897519E-02
1870.613, 4.4634379E-02
1872.541, 4.4612560E-02
1874.470, 4.4252250E-02
1876.398, 4.4154409E-02
1878.327, 4.3944608E-02
1880.255, 4.3703038E-02
1882.183, 4.3354169E-02
1884.112, 4.3446220E-02
1886.040, 4.3332271E-02
1887.969, 4.3080460E-02
1889.897, 4.2876750E-02
1891.826, 4.2920049E-02
1893.754, 4.2814430E-02
1895.683, 4.2929009E-02
1897.611, 4.2725470E-02
1899.540, 4.2508330E-02
1901.468, 4.2716481E-02
1903.397, 4.2778671E-02
1905.325, 4.2660508E-02
1907.254, 4.2421661E-02
1909.182, 4.2380340E-02
1911.110, 4.2342391E-02
1913.039, 4.2277008E-02
1914.967, 4.2053118E-02
1916.896, 4.2324241E-02
1918.824, 4.2440519E-02
1920.753, 4.2121422E-02
1922.681, 4.1766260E-02
1924.610, 4.0968589E-02
1926.538, 4.0889941E-02
1928.467, 4.0973790E-02
1930.395, 4.1508071E-02
1932.324, 4.1440811E-02
1934.252, 4.0920120E-02
1936.181, 4.0665489E-02
1938.109, 3.9593671E-02
1940.037, 3.9227620E-02
1941.966, 4.0344391E-02
1943.894, 4.0516980E-02
1945.823, 4.0082570E-02
1947.751, 3.9801810E-02
1949.680, 4.0136281E-02
1951.608, 3.9982650E-02
1953.537, 3.9149441E-02
1955.465, 3.8479339E-02
1957.394, 3.8031649E-02
1959.322, 3.8465649E-02
1961.251, 3.8795181E-02
1963.179, 3.7522290E-02
1965.108, 3.6534019E-02
1967.036, 3.5727460E-02
1968.964, 3.5616599E-02
1970.893, 3.6685199E-02
1972.821, 3.7517920E-02
1974.750, 3.7305601E-02
1976.678, 3.7742060E-02
1978.607, 3.8073029E-02
1980.535, 3.6942132E-02
1982.464, 3.6261551E-02
1984.392, 3.7001990E-02
1986.321, 3.8268570E-02
1988.249, 3.8742401E-02
1990.178, 3.8426299E-02
1992.106, 3.8612660E-02
1994.035, 3.9066382E-02
1995.963, 3.9053291E-02
1997.891, 3.8618270E-02
1999.820, 3.7690450E-02
2001.748, 3.7234299E-02
2003.677, 3.7389379E-02
2005.605, 3.6303911E-02
2007.534, 3.5940740E-02
2009.462, 3.6321849E-02
2011.391, 3.5801541E-02
2013.319, 3.5204951E-02
2015.248, 3.6845751E-02
2017.176, 3.7253760E-02
2019.105, 3.5474770E-02
2021.033, 3.5939191E-02
2022.962, 3.5954349E-02
2024.890, 3.4747530E-02
2026.818, 3.5559669E-02
2028.747, 3.7450951E-02
2030.675, 3.7565719E-02
2032.604, 3.7189860E-02
2034.532, 3.8119871E-02
2036.461, 3.7664361E-02
2038.389, 3.6478329E-02
2040.318, 3.7320480E-02
2042.246, 3.8493421E-02
2044.175, 3.7670389E-02
2046.103, 3.7906930E-02
2048.032, 3.8388580E-02
2049.960, 3.8510181E-02
2051.889, 3.7687302E-02
2053.817, 3.7035789E-02
2055.746, 3.7445679E-02
2057.674, 3.7788000E-02
2059.603, 3.8369581E-02
2061.531, 3.8524341E-02
2063.459, 3.8691469E-02
2065.388, 3.9001379E-02
2067.316, 3.8425788E-02
2069.245, 3.7555888E-02
2071.173, 3.7542880E-02
2073.102, 3.7916731E-02
2075.030, 3.8352240E-02
2076.959, 3.9270889E-02
2078.887, 3.9534211E-02
2080.816, 3.9510299E-02
2082.744, 3.8756419E-02
2084.673, 3.7971910E-02
2086.601, 3.7955999E-02
2088.530, 3.8651481E-02
2090.458, 3.9109990E-02
2092.386, 3.9454959E-02
2094.315, 3.9212462E-02
2096.243, 3.8744930E-02
2098.172, 3.8990039E-02
2100.100, 3.8969409E-02
2102.029, 3.8275521E-02
2103.957, 3.8640220E-02
2105.886, 3.9052419E-02
2107.814, 3.8774058E-02
2109.743, 3.9417122E-02
2111.671, 3.9695449E-02
2113.600, 3.9030600E-02
2115.528, 3.8349710E-02
2117.457, 3.8027711E-02
2119.385, 3.8524229E-02
2121.313, 3.8505219E-02
2123.242, 3.7633140E-02
2125.170, 3.7235059E-02
2127.099, 3.7708119E-02
2129.027, 3.7436511E-02
2130.956, 3.6242351E-02
2132.884, 3.5333280E-02
2134.813, 3.5711490E-02
2136.741, 3.5994150E-02
2138.670, 3.5922129E-02
2140.598, 3.6333960E-02
2142.527, 3.6399350E-02
2144.455, 3.6271930E-02
2146.384, 3.6287740E-02
2148.312, 3.5911690E-02
2150.240, 3.6221139E-02
2152.169, 3.4847651E-02
2154.097, 3.3353992E-02
2156.026, 3.3088449E-02
2157.954, 3.2648291E-02
2159.883, 3.2830112E-02
2161.811, 3.5698321E-02
2163.740, 3.6697529E-02
2165.668, 3.6551241E-02
2167.597, 3.6088869E-02
2169.525, 3.4811031E-02
2171.454, 3.4537852E-02
2173.382, 3.4672841E-02
2175.311, 3.6009379E-02
2177.239, 3.6896899E-02
2179.167, 3.6311079E-02
2181.096, 3.5445940E-02
2183.024, 3.5841908E-02
2184.953, 3.7182860E-02
2186.881, 3.8134519E-02
2188.810, 3.7485339E-02
2190.738, 3.5584200E-02
2192.667, 3.6059462E-02
2194.595, 3.7358679E-02
2196.524, 3.6965549E-02
2198.452, 3.6486119E-02
2200.381, 3.6802359E-02
2202.309, 3.7191380E-02
2204.238, 3.7702080E-02
2206.166, 3.7540931E-02
2208.094, 3.6456279E-02
2210.023, 3.6608558E-02
2211.951, 3.8320068E-02
2213.880, 3.7575040E-02
2215.808, 3.6085960E-02
2217.737, 3.6021549E-02
2219.665, 3.6727790E-02
2221.594, 3.7529949E-02
2223.522, 3.7626959E-02
2225.451, 3.6956958E-02
2227.379, 3.7104830E-02
2229.308, 3.7884980E-02
2231.236, 3.8193818E-02
2233.165, 3.7961129E-02
2235.093, 3.8492691E-02
2237.021, 3.9053030E-02
2238.950, 3.8405269E-02
2240.878, 3.7653480E-02
2242.807, 3.7971221E-02
2244.735, 3.8147181E-02
2246.664, 3.7548769E-02
2248.592, 3.7186649E-02
2250.521, 3.7499610E-02
2252.449, 3.7796561E-02
2254.378, 3.7867051E-02
2256.306, 3.8263109E-02
2258.235, 3.8681291E-02
2260.163, 3.9005481E-02
2262.092, 3.8649339E-02
2264.020, 3.8112130E-02
2265.948, 3.7833940E-02
2267.877, 3.8201410E-02
2269.805, 3.8623881E-02
2271.734, 3.8491681E-02
2273.662, 3.7923921E-02
2275.591, 3.7453551E-02
2277.519, 3.7891850E-02
2279.448, 3.8815539E-02
2281.376, 3.9422020E-02
2283.305, 3.9562270E-02
2285.233, 3.9251771E-02
2287.162, 3.8862720E-02
2289.090, 3.8533028E-02
2291.019, 3.8674630E-02
2292.947, 3.9236289E-02
2294.875, 3.9329320E-02
2296.804, 3.9465670E-02
2298.732, 3.9204739E-02
2300.661, 3.9138339E-02
2302.589, 3.9353121E-02
2304.518, 3.9663721E-02
2306.446, 3.9565139E-02
2308.375, 3.9432969E-02
2310.303, 3.9354831E-02
2312.232, 3.9131779E-02
2314.160, 3.8979411E-02
2316.089, 3.9336938E-02
2318.017, 3.9303750E-02
2319.946, 3.9659299E-02
2321.874, 4.0426500E-02
2323.802, 4.0480290E-02
2325.731, 3.9766621E-02
2327.659, 3.9280899E-02
2329.588, 3.9266970E-02
2331.516, 3.9482649E-02
2333.445, 3.9607130E-02
2335.373, 3.9825700E-02
2337.302, 3.9847668E-02
2339.230, 3.9711721E-02
2341.159, 3.9366540E-02
2343.087, 3.9282709E-02
2345.016, 3.9211661E-02
2346.944, 3.8947370E-02
2348.873, 3.8885150E-02
2350.801, 3.8854752E-02
2352.729, 3.8984090E-02
2354.658, 3.9258670E-02
2356.586, 3.9416250E-02
2358.515, 3.9302628E-02
2360.443, 3.9258599E-02
2362.372, 3.9281260E-02
2364.300, 3.9368469E-02
2366.229, 3.9523259E-02
2368.157, 3.9200351E-02
2370.086, 3.9071161E-02
2372.014, 3.8913451E-02
2373.942, 3.8727939E-02
2375.871, 3.8609069E-02
2377.799, 3.8468178E-02
2379.728, 3.8182352E-02
2381.656, 3.8117990E-02
2383.585, 3.7940409E-02
2385.513, 3.8187850E-02
2387.442, 3.8705699E-02
2389.370, 3.8771421E-02
2391.299, 3.7939910E-02
2393.227, 3.7795909E-02
2395.156, 3.8086049E-02
2397.084, 3.8029838E-02
2399.012, 3.7586421E-02
2400.941, 3.7575431E-02
2402.869, 3.8029809E-02
2404.798, 3.8237959E-02
2406.726, 3.7882891E-02
2408.655, 3.7672780E-02
2410.583, 3.7707940E-02
2412.512, 3.7806831E-02
2414.440, 3.7817851E-02
2416.369, 3.7794139E-02
2418.297, 3.7464678E-02
2420.226, 3.7694242E-02
2422.154, 3.8320720E-02
2424.083, 3.8097121E-02
2426.011, 3.7623849E-02
2427.939, 3.7592020E-02
2429.868, 3.7492570E-02
2431.796, 3.7165601E-02
2433.725, 3.7415490E-02
2435.653, 3.7789479E-02
2437.582, 3.7807230E-02
2439.510, 3.7817020E-02
2441.439, 3.7670430E-02
2443.367, 3.7662368E-02
2445.296, 3.7551410E-02
2447.224, 3.7303939E-02
2449.153, 3.7567560E-02
2451.081, 3.7952639E-02
2453.010, 3.7846629E-02
2454.938, 3.7731569E-02
2456.866, 3.7871320E-02
2458.795, 3.8071830E-02
2460.723, 3.7787240E-02
2462.652, 3.7851181E-02
2464.580, 3.7795261E-02
2466.509, 3.7584431E-02
2468.437, 3.7934121E-02
2470.366, 3.8045648E-02
2472.294, 3.7658028E-02
2474.223, 3.7859321E-02
2476.151, 3.7666488E-02
2478.080, 3.7634511E-02
2480.008, 3.7773289E-02
2481.937, 3.8089521E-02
2483.865, 3.7647840E-02
2485.793, 3.6890108E-02
2487.722, 3.6738928E-02
2489.650, 3.7280578E-02
2491.579, 3.7470020E-02
2493.507, 3.7410360E-02
2495.436, 3.7186969E-02
2497.364, 3.7384789E-02
2499.293, 3.7565179E-02
2501.221, 3.7362721E-02
2503.150, 3.7116300E-02
2505.078, 3.7220690E-02
2507.007, 3.7506610E-02
2508.935, 3.7249710E-02
2510.864, 3.7165571E-02
2512.792, 3.7748922E-02
2514.720, 3.8201779E-02
2516.649, 3.7586559E-02
2518.577, 3.6970738E-02
2520.506, 3.7198309E-02
2522.434, 3.7427980E-02
2524.363, 3.7352540E-02
2526.291, 3.7079029E-02
2528.220, 3.6984019E-02
2530.148, 3.7062790E-02
2532.077, 3.7292462E-02
2534.005, 3.7328750E-02
2535.934, 3.7137602E-02
2537.862, 3.6887228E-02
2539.791, 3.6941089E-02
2541.719, 3.6918651E-02
2543.647, 3.7318129E-02
2545.576, 3.7861630E-02
2547.504, 3.7666962E-02
2549.433, 3.7382331E-02
2551.361, 3.7420940E-02
2553.290, 3.6596701E-02
2555.218, 3.6442880E-02
2557.147, 3.7019450E-02
2559.075, 3.7336439E-02
2561.004, 3.7691131E-02
2562.932, 3.8066950E-02
2564.861, 3.7453409E-02
2566.789, 3.6869701E-02
2568.718, 3.6809102E-02
2570.646, 3.6789630E-02
2572.574, 3.6949418E-02
2574.503, 3.7724640E-02
2576.431, 3.7613839E-02
2578.360, 3.7458789E-02
2580.288, 3.8044531E-02
2582.217, 3.7738871E-02
2584.145, 3.7553720E-02
2586.074, 3.7594039E-02
2588.002, 3.7684631E-02
2589.931, 3.7369370E-02
2591.859, 3.7473381E-02
2593.788, 3.7560299E-02
2595.716, 3.7453551E-02
2597.645, 3.7289750E-02
2599.573, 3.7786011E-02
2601.501, 3.8368601E-02
2603.430, 3.7963118E-02
2605.358, 3.7479632E-02
2607.287, 3.7476990E-02
2609.215, 3.7637401E-02
2611.144, 3.7540101E-02
2613.072, 3.7373811E-02
2615.001, 3.7941929E-02
2616.929, 3.8505841E-02
2618.858, 3.8328610E-02
2620.786, 3.8222730E-02
2622.715, 3.8106740E-02
2624.643, 3.7915461E-02
2626.572, 3.7992850E-02
2628.500, 3.8001958E-02
2630.428, 3.8109161E-02
2632.357, 3.8356941E-02
2634.285, 3.8228258E-02
2636.214, 3.8159698E-02
2638.142, 3.8269941E-02
2640.071, 3.8009230E-02
2641.999, 3.7925769E-02
2643.928, 3.8208690E-02
2645.856, 3.8281199E-02
2647.785, 3.8182851E-02
2649.713, 3.8389672E-02
2651.642, 3.8441971E-02
2653.570, 3.8225081E-02
2655.499, 3.8019542E-02
2657.427, 3.7891850E-02
2659.355, 3.7861049E-02
2661.284, 3.8129240E-02
2663.212, 3.7879959E-02
2665.141, 3.7611961E-02
2667.069, 3.7799381E-02
2668.998, 3.7866689E-02
2670.926, 3.7547290E-02
2672.855, 3.7492890E-02
2674.783, 3.7421230E-02
2676.712, 3.7396200E-02
2678.640, 3.7709240E-02
2680.569, 3.7799779E-02
2682.497, 3.7660889E-02
2684.426, 3.7507050E-02
2686.354, 3.7557520E-02
2688.282, 3.7626561E-02
2690.211, 3.7504882E-02
2692.139, 3.7370779E-02
2694.068, 3.7691388E-02
2695.996, 3.7880320E-02
2697.925, 3.7432641E-02
2699.853, 3.7357848E-02
2701.782, 3.7674289E-02
2703.710, 3.7670750E-02
2705.639, 3.7581898E-02
2707.567, 3.7533421E-02
2709.496, 3.7863512E-02
2711.424, 3.7956901E-02
2713.353, 3.8030822E-02
2715.281, 3.8135711E-02
2717.209, 3.8002498E-02
2719.138, 3.8063731E-02
2721.066, 3.8045689E-02
2722.995, 3.8031042E-02
2724.923, 3.7992850E-02
2726.852, 3.7835781E-02
2728.780, 3.7533749E-02
2730.709, 3.7562720E-02
2732.637, 3.7734721E-02
2734.566, 3.7651271E-02
2736.494, 3.7644882E-02
2738.423, 3.7920602E-02
2740.351, 3.8286518E-02
2742.280, 3.8107902E-02
2744.208, 3.7697669E-02
2746.136, 3.7720371E-02
2748.065, 3.7576951E-02
2749.993, 3.7505601E-02
2751.922, 3.7645850E-02
2753.850, 3.7517339E-02
2755.779, 3.7379991E-02
2757.707, 3.7903208E-02
2759.636, 3.8218129E-02
2761.564, 3.8098961E-02
2763.493, 3.7989009E-02
2765.421, 3.8148191E-02
2767.350, 3.8098130E-02
2769.278, 3.7804149E-02
2771.207, 3.7685029E-02
2773.135, 3.7886031E-02
2775.063, 3.7975091E-02
2776.992, 3.8035560E-02
2778.920, 3.8152032E-02
2780.849, 3.8061559E-02
2782.777, 3.7939079E-02
2784.706, 3.7867811E-02
2786.634, 3.7740640E-02
2788.563, 3.7735619E-02
2790.491, 3.8046341E-02
2792.420, 3.8210500E-02
2794.348, 3.7974618E-02
2796.277, 3.7674181E-02
2798.205, 3.7634648E-02
2800.134, 3.7827469E-02
2802.062, 3.7729800E-02
2803.990, 3.7449691E-02
2805.919, 3.7662510E-02
2807.847, 3.7774481E-02
2809.776, 3.7644342E-02
2811.704, 3.7563618E-02
2813.633, 3.7760530E-02
2815.561, 3.7923198E-02
2817.490, 3.7978351E-02
2819.418, 3.7983119E-02
2821.347, 3.7821941E-02
2823.275, 3.7611309E-02
2825.204, 3.7477139E-02
2827.132, 3.7501808E-02
2829.061, 3.7618540E-02
2830.989, 3.7431091E-02
2832.917, 3.7578139E-02
2834.846, 3.7775490E-02
2836.774, 3.7674081E-02
2838.703, 3.8060442E-02
2840.631, 3.8403310E-02
2842.560, 3.7878189E-02
2844.488, 3.7116479E-02
2846.417, 3.6609709E-02
2848.345, 3.6260940E-02
2850.274, 3.5999700E-02
2852.202, 3.5631709E-02
2854.131, 3.5638150E-02
2856.059, 3.5534140E-02
2857.988, 3.5696160E-02
2859.916, 3.6410190E-02
2861.844, 3.6840521E-02
2863.773, 3.7189830E-02
2865.701, 3.7425712E-02
2867.630, 3.7506830E-02
2869.558, 3.7562389E-02
2871.487, 3.7531320E-02
2873.415, 3.7746500E-02
2875.344, 3.7799340E-02
2877.272, 3.7302069E-02
2879.201, 3.7056539E-02
2881.129, 3.7333440E-02
2883.058, 3.7498709E-02
2884.986, 3.7670791E-02
2886.915, 3.7806071E-02
2888.843, 3.7972990E-02
2890.771, 3.7880611E-02
2892.700, 3.7691642E-02
2894.628, 3.7735220E-02
2896.557, 3.7329901E-02
2898.485, 3.7025731E-02
2900.414, 3.6929220E-02
2902.342, 3.6905728E-02
2904.271, 3.6902741E-02
2906.199, 3.6720611E-02
2908.128, 3.6153261E-02
2910.056, 3.5962880E-02
2911.985, 3.6268111E-02
2913.913, 3.6249381E-02
2915.842, 3.6052261E-02
2917.770, 3.5821799E-02
2919.698, 3.5581499E-02
2921.627, 3.5665881E-02
2923.555, 3.5334680E-02
2925.484, 3.5041351E-02
2927.412, 3.5166331E-02
2929.341, 3.5451800E-02
2931.269, 3.5287820E-02
2933.198, 3.5568621E-02
2935.126, 3.5738289E-02
2937.055, 3.5960071E-02
2938.983, 3.6217362E-02
2940.912, 3.6347400E-02
2942.840, 3.6018919E-02
2944.769, 3.6030728E-02
2946.697, 3.6423061E-02
2948.625, 3.6054671E-02
2950.554, 3.5629801E-02
2952.482, 3.6120199E-02
2954.411, 3.6325201E-02
2956.339, 3.6657479E-02
2958.268, 3.7055999E-02
2960.196, 3.6872439E-02
2962.125, 3.7066471E-02
2964.053, 3.7102450E-02
2965.982, 3.6675651E-02
2967.910, 3.6712781E-02
2969.839, 3.6894951E-02
2971.767, 3.6893651E-02
2973.696, 3.6697999E-02
2975.624, 3.6697280E-02
2977.552, 3.6730740E-02
2979.481, 3.7087109E-02
2981.409, 3.7603799E-02
2983.338, 3.7581831E-02
2985.266, 3.7338529E-02
2987.195, 3.7167769E-02
2989.123, 3.7433870E-02
2991.052, 3.7560482E-02
2992.980, 3.7273329E-02
2994.909, 3.7188020E-02
2996.837, 3.7390709E-02
2998.766, 3.7117101E-02
3000.694, 3.6977779E-02
3002.623, 3.7057299E-02
3004.551, 3.6983039E-02
3006.479, 3.6994699E-02
3008.408, 3.7345208E-02
3010.336, 3.7275709E-02
3012.265, 3.7369549E-02
3014.193, 3.7203182E-02
3016.122, 3.7237871E-02
3018.050, 3.8007021E-02
3019.979, 3.7721131E-02
3021.907, 3.6522701E-02
3023.836, 3.6488932E-02
3025.764, 3.6813289E-02
3027.693, 3.6658488E-02
3029.621, 3.7189972E-02
3031.550, 3.8008001E-02
3033.478, 3.7891850E-02
3035.406, 3.7304480E-02
3037.335, 3.7656881E-02
3039.263, 3.8123779E-02
3041.192, 3.7391402E-02
3043.120, 3.7104759E-02
3045.049, 3.7408259E-02
3046.977, 3.7541620E-02
3048.906, 3.7389699E-02
3050.834, 3.7776500E-02
3052.763, 3.8107641E-02
3054.691, 3.7640620E-02
3056.620, 3.7191700E-02
3058.548, 3.7305601E-02
3060.477, 3.7401222E-02
3062.405, 3.7203830E-02
3064.333, 3.7259500E-02
3066.262, 3.7367381E-02
3068.190, 3.7665870E-02
3070.119, 3.7824869E-02
3072.047, 3.7309110E-02
3073.976, 3.7266470E-02
3075.904, 3.7307050E-02
3077.833, 3.7418991E-02
3079.761, 3.7328210E-02
3081.690, 3.7420399E-02
3083.618, 3.7687272E-02
3085.547, 3.7380200E-02
3087.475, 3.7201341E-02
3089.404, 3.7166622E-02
3091.332, 3.7281770E-02
3093.260, 3.7882529E-02
3095.189, 3.8041160E-02
3097.117, 3.8057368E-02
3099.046, 3.8202070E-02
3100.974, 3.7997618E-02
3102.903, 3.8099941E-02
3104.831, 3.8042858E-02
3106.760, 3.7974879E-02
3108.688, 3.8244620E-02
3110.617, 3.8238682E-02
3112.545, 3.7965290E-02
3114.474, 3.8295530E-02
3116.402, 3.8640760E-02
3118.331, 3.8260501E-02
3120.259, 3.7889320E-02
3122.188, 3.7816629E-02
3124.116, 3.7812721E-02
3126.044, 3.7751451E-02
3127.973, 3.7694059E-02
3129.901, 3.7673570E-02
3131.830, 3.7299279E-02
3133.758, 3.7168570E-02
3135.687, 3.7274908E-02
3137.615, 3.7167769E-02
3139.544, 3.7285641E-02
3141.472, 3.7656549E-02
3143.401, 3.8251381E-02
3145.329, 3.8328931E-02
3147.258, 3.8029298E-02
3149.186, 3.8162671E-02
3151.115, 3.8443059E-02
3153.043, 3.8443532E-02
3154.971, 3.8335189E-02
3156.900, 3.7996750E-02
3158.828, 3.7722319E-02
3160.757, 3.8048759E-02
3162.685, 3.8406819E-02
3164.614, 3.8556419E-02
3166.542, 3.8328391E-02
3168.471, 3.7935641E-02
3170.399, 3.7719861E-02
3172.328, 3.7833579E-02
3174.256, 3.7800100E-02
3176.185, 3.8316660E-02
3178.113, 3.8888630E-02
3180.042, 3.8766019E-02
3181.970, 3.8363822E-02
3183.898, 3.8685750E-02
3185.827, 3.8917799E-02
3187.755, 3.8206082E-02
3189.684, 3.8347360E-02
3191.612, 3.8743090E-02
3193.541, 3.8386662E-02
3195.469, 3.7529159E-02
3197.398, 3.7805419E-02
3199.326, 3.8444649E-02
3201.255, 3.8372289E-02
3203.183, 3.8308591E-02
3205.112, 3.8111191E-02
3207.040, 3.7825190E-02
3208.969, 3.7985831E-02
3210.897, 3.8514849E-02
3212.825, 3.8315941E-02
3214.754, 3.8104638E-02
3216.682, 3.8316380E-02
3218.611, 3.8626850E-02
3220.539, 3.8209189E-02
3222.468, 3.7617531E-02
3224.396, 3.7582658E-02
3226.325, 3.7552491E-02
3228.253, 3.7303109E-02
3230.182, 3.7560262E-02
3232.110, 3.8050570E-02
3234.039, 3.8070571E-02
3235.967, 3.8553409E-02
3237.896, 3.8475350E-02
3239.824, 3.8503300E-02
3241.752, 3.8237710E-02
3243.681, 3.8135141E-02
3245.609, 3.8325969E-02
3247.538, 3.8738590E-02
3249.466, 3.8839638E-02
3251.395, 3.8357310E-02
3253.323, 3.8219400E-02
3255.252, 3.8148340E-02
3257.180, 3.8230140E-02
3259.109, 3.8226631E-02
3261.037, 3.8344100E-02
3262.966, 3.8744640E-02
3264.894, 3.9169200E-02
3266.823, 3.8834170E-02
3268.751, 3.8471442E-02
3270.679, 3.8151450E-02
3272.608, 3.8353439E-02
3274.536, 3.8688030E-02
3276.465, 3.8649160E-02
3278.393, 3.9241511E-02
3280.322, 3.9545938E-02
3282.250, 3.9318189E-02
3284.179, 3.9632939E-02
3286.107, 3.9274011E-02
3288.036, 3.8618781E-02
3289.964, 3.8686510E-02
3291.893, 3.8287781E-02
3293.821, 3.8048722E-02
3295.750, 3.8314600E-02
3297.678, 3.8716130E-02
3299.606, 3.9238431E-02
3301.535, 3.9026141E-02
3303.463, 3.8862899E-02
3305.392, 3.9004970E-02
3307.320, 3.8461629E-02
3309.249, 3.7906930E-02
3311.177, 3.8424201E-02
3313.106, 3.8920231E-02
3315.034, 3.8930699E-02
3316.963, 3.8987279E-02
3318.891, 3.8920559E-02
3320.820, 3.8760729E-02
3322.748, 3.9028239E-02
3324.677, 3.8888771E-02
3326.605, 3.8682159E-02
3328.533, 3.9204489E-02
3330.462, 3.8969159E-02
3332.390, 3.8650829E-02
3334.319, 3.9128412E-02
3336.247, 3.9084319E-02
3338.176, 3.8582671E-02
3340.104, 3.8525060E-02
3342.033, 3.8598970E-02
3343.961, 3.9107312E-02
3345.890, 3.8554680E-02
3347.818, 3.8295351E-02
3349.747, 3.8653940E-02
3351.675, 3.9271578E-02
3353.604, 3.9063979E-02
3355.532, 3.8778082E-02
3357.460, 3.8936138E-02
3359.389, 3.8434949E-02
3361.317, 3.7965041E-02
3363.246, 3.8224719E-02
3365.174, 3.8467459E-02
3367.103, 3.8744830E-02
3369.031, 3.8687158E-02
3370.960, 3.8667958E-02
3372.888, 3.8910259E-02
3374.817, 3.8517460E-02
3376.745, 3.7981201E-02
3378.674, 3.8145371E-02
3380.602, 3.8409501E-02
3382.531, 3.8452290E-02
3384.459, 3.8697261E-02
3386.387, 3.8452938E-02
3388.316, 3.8535848E-02
3390.244, 3.8875479E-02
3392.173, 3.8792279E-02
3394.101, 3.8728740E-02
3396.030, 3.8686939E-02
3397.958, 3.8329620E-02
3399.887, 3.8541611E-02
3401.815, 3.9068550E-02
3403.744, 3.8897689E-02
3405.672, 3.9086059E-02
3407.601, 3.9558209E-02
3409.529, 3.8998049E-02
3411.458, 3.8271502E-02
3413.386, 3.8787320E-02
3415.314, 3.9436750E-02
3417.243, 3.9302841E-02
3419.171, 3.8871631E-02
3421.100, 3.8509492E-02
3423.028, 3.8494829E-02
3424.957, 3.8805690E-02
3426.885, 3.8424559E-02
3428.814, 3.7951339E-02
3430.742, 3.8441069E-02
3432.671, 3.8717732E-02
3434.599, 3.8564488E-02
3436.528, 3.8416602E-02
3438.456, 3.9059091E-02
3440.385, 3.9204959E-02
3442.313, 3.8926061E-02
3444.241, 3.8460940E-02
3446.170, 3.8586549E-02
3448.098, 3.8973540E-02
3450.027, 3.8512710E-02
3451.955, 3.8030531E-02
3453.884, 3.8185820E-02
3455.812, 3.8109630E-02
3457.741, 3.8257100E-02
3459.669, 3.8446501E-02
3461.598, 3.7943739E-02
3463.526, 3.7792400E-02
3465.455, 3.8194899E-02
3467.383, 3.8959481E-02
3469.312, 3.8789932E-02
3471.240, 3.8813841E-02
3473.168, 3.8824309E-02
3475.097, 3.8434010E-02
3477.025, 3.8512971E-02
3478.954, 3.8791120E-02
3480.882, 3.9076932E-02
3482.811, 3.9489578E-02
3484.739, 3.9570112E-02
3486.668, 3.9057821E-02
3488.596, 3.8066521E-02
3490.525, 3.8266331E-02
3492.453, 3.9075691E-02
3494.382, 3.9312460E-02
3496.310, 3.8655501E-02
3498.239, 3.7934739E-02
3500.167, 3.8027100E-02
3502.095, 3.8337220E-02
3504.024, 3.8346160E-02
3505.952, 3.8669840E-02
3507.881, 3.8987819E-02
3509.809, 3.9292540E-02
3511.738, 3.9397780E-02
3513.666, 3.9000951E-02
3515.595, 3.8296070E-02
3517.523, 3.8265169E-02
3519.452, 3.8318440E-02
3521.380, 3.8536251E-02
3523.309, 3.8932260E-02
3525.237, 3.8998801E-02
3527.166, 3.8866241E-02
3529.094, 3.8915880E-02
3531.022, 3.8510252E-02
3532.951, 3.8038962E-02
3534.879, 3.8168930E-02
3536.808, 3.7812538E-02
3538.736, 3.8123161E-02
3540.665, 3.8847361E-02
3542.593, 3.8699470E-02
3544.522, 3.8228258E-02
3546.450, 3.8868159E-02
3548.379, 3.8577888E-02
3550.307, 3.6917280E-02
3552.236, 3.6545008E-02
3554.164, 3.7652690E-02
3556.093, 3.8440268E-02
3558.021, 3.8656261E-02
3559.949, 3.8030021E-02
3561.878, 3.7765149E-02
3563.806, 3.7472449E-02
3565.735, 3.6974821E-02
3567.663, 3.7422638E-02
3569.592, 3.8130511E-02
3571.520, 3.8124651E-02
3573.449, 3.8071729E-02
3575.377, 3.8605958E-02
3577.306, 3.8891930E-02
3579.234, 3.8641851E-02
3581.163, 3.8119040E-02
3583.091, 3.8028609E-02
3585.020, 3.8307261E-02
3586.948, 3.8469199E-02
3588.876, 3.8599759E-02
3590.805, 3.8425971E-02
3592.733, 3.8081530E-02
3594.662, 3.8446900E-02
3596.590, 3.9219141E-02
3598.519, 3.9152991E-02
3600.447, 3.8950529E-02
3602.376, 3.9154839E-02
3604.304, 3.9492950E-02
3606.233, 4.0288869E-02
3608.161, 4.0681321E-02
3610.090, 4.0074721E-02
3612.018, 3.9424479E-02
3613.947, 3.9239921E-02
3615.875, 3.9544601E-02
3617.803, 3.9411571E-02
3619.732, 3.9321601E-02
3621.660, 3.9073151E-02
3623.589, 3.9005619E-02
3625.517, 3.9419580E-02
3627.446, 3.9196402E-02
3629.374, 3.9339121E-02
3631.303, 3.9875749E-02
3633.231, 3.9677590E-02
3635.160, 3.9479531E-02
3637.088, 3.9526310E-02
3639.017, 3.9244410E-02
3640.945, 3.8221609E-02
3642.874, 3.7969962E-02
3644.802, 3.8279209E-02
3646.730, 3.8435970E-02
3648.659, 3.8846310E-02
3650.587, 3.8853809E-02
3652.516, 3.8398571E-02
3654.444, 3.8808148E-02
3656.373, 3.9354060E-02
3658.301, 3.8817719E-02
3660.230, 3.9142009E-02
3662.158, 3.9430719E-02
3664.087, 3.9111331E-02
3666.015, 3.9384030E-02
3667.944, 3.9273541E-02
3669.872, 3.8926970E-02
3671.801, 3.8879640E-02
3673.729, 3.8759030E-02
3675.657, 3.8916711E-02
3677.586, 3.8917109E-02
3679.514, 3.8963940E-02
3681.443, 3.8807608E-02
3683.371, 3.9026320E-02
3685.300, 3.9046109E-02
3687.228, 3.8946610E-02
3689.157, 3.8477849E-02
3691.085, 3.8020190E-02
3693.014, 3.7862819E-02
3694.942, 3.8418841E-02
3696.871, 3.8600810E-02
3698.799, 3.8486969E-02
3700.728, 3.9323121E-02
3702.656, 3.8704250E-02
3704.584, 3.7251879E-02
3706.513, 3.8072519E-02
3708.441, 3.8937990E-02
3710.370, 3.8603239E-02
3712.298, 3.7870452E-02
3714.227, 3.8125511E-02
3716.155, 3.9098140E-02
3718.084, 3.9505910E-02
3720.012, 3.8773730E-02
3721.941, 3.8416490E-02
3723.869, 3.8917981E-02
3725.798, 3.9211560E-02
3727.726, 3.8695421E-02
3729.655, 3.8539730E-02
3731.583, 3.8474452E-02
3733.511, 3.8035959E-02
3735.440, 3.7930150E-02
3737.368, 3.9836161E-02
3739.297, 4.0514261E-02
3741.225, 3.9712559E-02
3743.154, 3.9697710E-02
3745.082, 3.9238751E-02
3747.011, 3.8660750E-02
3748.939, 3.8241509E-02
3750.868, 3.8533211E-02
3752.796, 3.9319418E-02
3754.725, 3.9062530E-02
3756.653, 3.8617291E-02
3758.582, 3.8022641E-02
3760.510, 3.7979469E-02
3762.438, 3.9264109E-02
3764.367, 4.0405910E-02
3766.295, 3.9824069E-02
3768.224, 3.9319530E-02
3770.152, 3.8599361E-02
3772.081, 3.8052451E-02
3774.009, 3.8241290E-02
3775.938, 3.8813189E-02
3777.866, 3.9379019E-02
3779.795, 3.9820939E-02
3781.723, 3.9538570E-02
3783.652, 3.9615840E-02
3785.580, 3.9506890E-02
3787.509, 3.9029870E-02
3789.437, 3.9360780E-02
3791.365, 3.9150059E-02
3793.294, 3.7886791E-02
3795.222, 3.7445500E-02
3797.151, 3.8758591E-02
3799.079, 3.9098680E-02
3801.008, 3.9523110E-02
3802.936, 3.9527539E-02
3804.865, 3.8953502E-02
3806.793, 3.9093751E-02
3808.722, 3.9307341E-02
3810.650, 3.9140880E-02
3812.579, 3.8939841E-02
3814.507, 3.8748160E-02
3816.436, 3.9488450E-02
3818.364, 3.9934259E-02
3820.292, 4.0269312E-02
3822.221, 3.9551530E-02
3824.149, 3.8782392E-02
3826.078, 3.9060179E-02
3828.006, 3.9302450E-02
3829.935, 3.9690480E-02
3831.863, 4.0454749E-02
3833.792, 4.0010881E-02
3835.720, 3.9663579E-02
3837.649, 3.9326530E-02
3839.577, 3.9363790E-02
3841.506, 3.9732780E-02
3843.434, 3.9172102E-02
3845.363, 3.7804149E-02
3847.291, 3.7759800E-02
3849.219, 3.8453881E-02
3851.148, 3.8672630E-02
3853.076, 3.9124019E-02
3855.005, 3.9542351E-02
3856.933, 3.9528951E-02
3858.862, 3.9647061E-02
3860.790, 3.9550841E-02
3862.719, 3.9810341E-02
3864.647, 3.9977528E-02
3866.576, 4.0020831E-02
3868.504, 3.9721590E-02
3870.433, 3.8482338E-02
3872.361, 3.8028799E-02
3874.290, 3.8726490E-02
3876.218, 3.9224580E-02
3878.146, 3.9087880E-02
3880.075, 3.9551850E-02
3882.003, 4.0085372E-02
3883.932, 3.9739419E-02
3885.860, 3.8391478E-02
3887.789, 3.8196679E-02
3889.717, 3.8487520E-02
3891.646, 3.8709611E-02
3893.574, 3.8587779E-02
3895.503, 3.9047129E-02
3897.431, 3.9591890E-02
3899.360, 3.8762901E-02
3901.288, 3.8799420E-02
3903.217, 3.9358269E-02
3905.145, 3.8943209E-02
3907.073, 3.9190158E-02
3909.002, 3.9114740E-02
3910.930, 3.8635980E-02
3912.859, 3.9206810E-02
3914.787, 3.9190419E-02
3916.716, 3.8297340E-02
3918.644, 3.8584881E-02
3920.573, 3.8956869E-02
3922.501, 3.9997689E-02
3924.430, 4.0253859E-02
3926.358, 3.9260119E-02
3928.287, 3.9117500E-02
3930.215, 3.9319459E-02
3932.144, 3.9607279E-02
3934.072, 4.0237799E-02
3936.000, 4.0503640E-02
3937.929, 4.0203221E-02
3939.857, 3.9700650E-02
3941.786, 4.0109131E-02
3943.714, 4.0158190E-02
3945.643, 4.0373910E-02
3947.571, 4.0786851E-02
3949.500, 4.0370710E-02
3951.428, 3.9406560E-02
3953.357, 3.8329910E-02
3955.285, 3.8138788E-02
3957.214, 3.9335851E-02
3959.142, 4.0400311E-02
3961.071, 4.0106770E-02
3962.999, 4.0436201E-02
3964.927, 4.0031921E-02
3966.856, 3.9904479E-02
3968.784, 4.0008921E-02
3970.713, 4.0035550E-02
3972.641, 4.0213618E-02
3974.570, 3.9489031E-02
3976.498, 3.8873740E-02
3978.427, 3.9257221E-02
3980.355, 3.9181530E-02
3982.284, 3.9056301E-02
3984.212, 4.0156052E-02
3986.141, 4.0583368E-02
3988.069, 3.9955661E-02
3989.998, 3.8673360E-02
3991.926, 3.8408451E-02
3993.854, 3.9119419E-02
3995.783, 3.9390091E-02
3997.711, 3.9071672E-02
3999.640, 3.9071672E-02
##END=



