##NAMES=Cassiterite
##RRUFFID=R040072
##IDEAL CHEMISTRY=SnO_2_
##LOCALITY=Bolivia
##OWNER=RRUFF
##SOURCE=University of Arizona Mineral Museum
##DESCRIPTION=Black fragment
##STATUS=The identification of this mineral has been confirmed by X-ray diffraction and chemical analysis
##URL=rruff.info/R040072
##MEASURED CHEMISTRY=Sn_0.99_O_2_
3.991926e+002, 0.000000e+000
4.011211e+002, 1.296476e-001
4.030496e+002, 1.302763e-001
4.049780e+002, 1.353975e-001
4.069065e+002, 1.460444e-001
4.088350e+002, 1.521476e-001
4.107634e+002, 1.494411e-001
4.126919e+002, 1.538776e-001
4.146204e+002, 1.621877e-001
4.165488e+002, 1.661592e-001
4.184773e+002, 1.690819e-001
4.204058e+002, 1.776538e-001
4.223342e+002, 1.846198e-001
4.242627e+002, 1.883433e-001
4.261912e+002, 1.919185e-001
4.281196e+002, 1.958485e-001
4.300481e+002, 2.024619e-001
4.319766e+002, 2.114834e-001
4.339050e+002, 2.152891e-001
4.358335e+002, 2.172828e-001
4.377620e+002, 2.220108e-001
4.396904e+002, 2.278252e-001
4.416189e+002, 2.315425e-001
4.435474e+002, 2.350218e-001
4.454758e+002, 2.392469e-001
4.474043e+002, 2.452334e-001
4.493328e+002, 2.508043e-001
4.512612e+002, 2.535430e-001
4.531897e+002, 2.575881e-001
4.551182e+002, 2.651389e-001
4.570466e+002, 2.694231e-001
4.589751e+002, 2.731946e-001
4.609036e+002, 2.756484e-001
4.628320e+002, 2.771668e-001
4.647605e+002, 2.823189e-001
4.666890e+002, 2.870303e-001
4.686174e+002, 2.884928e-001
4.705459e+002, 2.895651e-001
4.724744e+002, 2.913514e-001
4.744028e+002, 2.931700e-001
4.763313e+002, 2.944968e-001
4.782598e+002, 2.950364e-001
4.801882e+002, 2.951664e-001
4.821167e+002, 2.974914e-001
4.840452e+002, 2.996108e-001
4.859736e+002, 2.996586e-001
4.879021e+002, 3.006945e-001
4.898306e+002, 3.014030e-001
4.917590e+002, 3.009885e-001
4.936875e+002, 3.014342e-001
4.956160e+002, 3.031654e-001
4.975444e+002, 3.045415e-001
4.994729e+002, 3.050938e-001
5.014014e+002, 3.062186e-001
5.033298e+002, 3.067777e-001
5.052583e+002, 3.072557e-001
5.071868e+002, 3.075656e-001
5.091152e+002, 3.077737e-001
5.110437e+002, 3.075061e-001
5.129722e+002, 3.082342e-001
5.149006e+002, 3.085023e-001
5.168291e+002, 3.082582e-001
5.187576e+002, 3.076994e-001
5.206860e+002, 3.070255e-001
5.226145e+002, 3.072039e-001
5.245430e+002, 3.055850e-001
5.264714e+002, 3.037009e-001
5.283999e+002, 3.023630e-001
5.303284e+002, 3.004899e-001
5.322568e+002, 3.003254e-001
5.341853e+002, 2.998367e-001
5.361138e+002, 2.978646e-001
5.380422e+002, 2.956543e-001
5.399707e+002, 2.939292e-001
5.418992e+002, 2.927634e-001
5.438276e+002, 2.933024e-001
5.457561e+002, 2.918927e-001
5.476846e+002, 2.892423e-001
5.496130e+002, 2.881052e-001
5.515415e+002, 2.879635e-001
5.534700e+002, 2.880615e-001
5.553984e+002, 2.866424e-001
5.573269e+002, 2.851646e-001
5.592554e+002, 2.845570e-001
5.611838e+002, 2.841043e-001
5.631123e+002, 2.845753e-001
5.650408e+002, 2.851946e-001
5.669692e+002, 2.855307e-001
5.688977e+002, 2.859669e-001
5.708262e+002, 2.861618e-001
5.727546e+002, 2.858427e-001
5.746831e+002, 2.859651e-001
5.766116e+002, 2.865664e-001
5.785400e+002, 2.867332e-001
5.804685e+002, 2.868623e-001
5.823970e+002, 2.871744e-001
5.843254e+002, 2.875880e-001
5.862539e+002, 2.881297e-001
5.881824e+002, 2.885329e-001
5.901108e+002, 2.884039e-001
5.920393e+002, 2.880723e-001
5.939678e+002, 2.876287e-001
5.958962e+002, 2.873774e-001
5.978247e+002, 2.870940e-001
5.997532e+002, 2.862056e-001
6.016816e+002, 2.844400e-001
6.036101e+002, 2.833516e-001
6.055386e+002, 2.824981e-001
6.074670e+002, 2.807193e-001
6.093955e+002, 2.783334e-001
6.113240e+002, 2.754502e-001
6.132524e+002, 2.730147e-001
6.151809e+002, 2.697749e-001
6.171094e+002, 2.668259e-001
6.190378e+002, 2.636881e-001
6.209663e+002, 2.601715e-001
6.228948e+002, 2.570207e-001
6.248232e+002, 2.528563e-001
6.267517e+002, 2.484579e-001
6.286802e+002, 2.440804e-001
6.306086e+002, 2.393746e-001
6.325371e+002, 2.357118e-001
6.344656e+002, 2.321320e-001
6.363940e+002, 2.277054e-001
6.383225e+002, 2.226039e-001
6.402510e+002, 2.180561e-001
6.421794e+002, 2.135536e-001
6.441079e+002, 2.086355e-001
6.460364e+002, 2.040886e-001
6.479648e+002, 1.999844e-001
6.498933e+002, 1.960191e-001
6.518218e+002, 1.920556e-001
6.537502e+002, 1.879213e-001
6.556787e+002, 1.843067e-001
6.576072e+002, 1.807129e-001
6.595356e+002, 1.765765e-001
6.614641e+002, 1.729080e-001
6.633926e+002, 1.696264e-001
6.653210e+002, 1.660258e-001
6.672495e+002, 1.618874e-001
6.691780e+002, 1.580723e-001
6.711064e+002, 1.549486e-001
6.730349e+002, 1.515100e-001
6.749634e+002, 1.479308e-001
6.768918e+002, 1.443612e-001
6.788203e+002, 1.406084e-001
6.807488e+002, 1.366376e-001
6.826772e+002, 1.328851e-001
6.846057e+002, 1.293062e-001
6.865342e+002, 1.261310e-001
6.884626e+002, 1.227097e-001
6.903911e+002, 1.197121e-001
6.923196e+002, 1.168927e-001
6.942480e+002, 1.138677e-001
6.961765e+002, 1.103553e-001
6.981050e+002, 1.073526e-001
7.000334e+002, 1.046546e-001
7.019619e+002, 1.018742e-001
7.038904e+002, 9.912644e-002
7.058188e+002, 9.614819e-002
7.077473e+002, 9.343181e-002
7.096758e+002, 9.133159e-002
7.116042e+002, 8.925854e-002
7.135327e+002, 8.696913e-002
7.154612e+002, 8.467132e-002
7.173896e+002, 8.257598e-002
7.193181e+002, 8.049325e-002
7.212466e+002, 7.830214e-002
7.231750e+002, 7.619145e-002
7.251035e+002, 7.398649e-002
7.270320e+002, 7.131233e-002
7.289604e+002, 6.865390e-002
7.308889e+002, 6.619471e-002
7.328174e+002, 6.370997e-002
7.347458e+002, 6.099216e-002
7.366743e+002, 5.800763e-002
7.386028e+002, 5.509403e-002
7.405313e+002, 5.240085e-002
7.424597e+002, 4.976168e-002
7.443882e+002, 4.703537e-002
7.463167e+002, 4.447715e-002
7.482451e+002, 4.220903e-002
7.501736e+002, 3.974523e-002
7.521021e+002, 3.743736e-002
7.540305e+002, 3.564423e-002
7.559590e+002, 3.374190e-002
7.578875e+002, 3.193460e-002
7.598159e+002, 3.064561e-002
7.617444e+002, 2.953202e-002
7.636729e+002, 2.850887e-002
7.656013e+002, 2.778114e-002
7.675298e+002, 2.714934e-002
7.694583e+002, 2.684435e-002
7.713867e+002, 2.659360e-002
7.733152e+002, 2.596058e-002
7.752437e+002, 2.566591e-002
7.771721e+002, 2.564409e-002
7.791006e+002, 2.550834e-002
7.810291e+002, 2.535312e-002
7.829575e+002, 2.513485e-002
7.848860e+002, 2.471002e-002
7.868145e+002, 2.458483e-002
7.887429e+002, 2.498043e-002
7.906714e+002, 2.516908e-002
7.925999e+002, 2.481224e-002
7.945283e+002, 2.469455e-002
7.964568e+002, 2.485400e-002
7.983853e+002, 2.498829e-002
8.003137e+002, 2.498975e-002
8.022422e+002, 2.522302e-002
8.041707e+002, 2.565114e-002
8.060991e+002, 2.598653e-002
8.080276e+002, 2.633004e-002
8.099561e+002, 2.630566e-002
8.118845e+002, 2.615256e-002
8.138130e+002, 2.616543e-002
8.157415e+002, 2.620878e-002
8.176699e+002, 2.650676e-002
8.195984e+002, 2.663665e-002
8.215269e+002, 2.660691e-002
8.234553e+002, 2.677968e-002
8.253838e+002, 2.683405e-002
8.273123e+002, 2.677984e-002
8.292407e+002, 2.665310e-002
8.311692e+002, 2.679573e-002
8.330977e+002, 2.704255e-002
8.350261e+002, 2.709039e-002
8.369546e+002, 2.714315e-002
8.388831e+002, 2.724586e-002
8.408115e+002, 2.746027e-002
8.427400e+002, 2.752849e-002
8.446685e+002, 2.752158e-002
8.465969e+002, 2.751349e-002
8.485254e+002, 2.748531e-002
8.504539e+002, 2.746189e-002
8.523823e+002, 2.750683e-002
8.543108e+002, 2.741423e-002
8.562393e+002, 2.764061e-002
8.581677e+002, 2.794283e-002
8.600962e+002, 2.813115e-002
8.620247e+002, 2.829249e-002
8.639531e+002, 2.854113e-002
8.658816e+002, 2.849378e-002
8.678101e+002, 2.870243e-002
8.697385e+002, 2.884935e-002
8.716670e+002, 2.903024e-002
8.735955e+002, 2.943662e-002
8.755239e+002, 2.980375e-002
8.774524e+002, 3.000623e-002
8.793809e+002, 3.041273e-002
8.813093e+002, 3.104623e-002
8.832378e+002, 3.161681e-002
8.851663e+002, 3.216824e-002
8.870947e+002, 3.291880e-002
8.890232e+002, 3.346059e-002
8.909517e+002, 3.387490e-002
8.928801e+002, 3.413653e-002
8.948085e+002, 3.451183e-002
8.967370e+002, 3.496567e-002
8.986655e+002, 3.520457e-002
9.005939e+002, 3.539470e-002
9.025224e+002, 3.560562e-002
9.044509e+002, 3.542876e-002
9.063793e+002, 3.525519e-002
9.083078e+002, 3.519195e-002
9.102363e+002, 3.536366e-002
9.121647e+002, 3.549910e-002
9.140932e+002, 3.562472e-002
9.160217e+002, 3.576770e-002
9.179501e+002, 3.562045e-002
9.198786e+002, 3.545979e-002
9.218071e+002, 3.519266e-002
9.237355e+002, 3.502881e-002
9.256640e+002, 3.489750e-002
9.275925e+002, 3.469612e-002
9.295209e+002, 3.413869e-002
9.314494e+002, 3.389166e-002
9.333779e+002, 3.396676e-002
9.353063e+002, 3.397728e-002
9.372348e+002, 3.405521e-002
9.391633e+002, 3.422550e-002
9.410917e+002, 3.416321e-002
9.430202e+002, 3.429016e-002
9.449487e+002, 3.473511e-002
9.468771e+002, 3.497338e-002
9.488056e+002, 3.499440e-002
9.507341e+002, 3.518142e-002
9.526625e+002, 3.545759e-002
9.545910e+002, 3.547940e-002
9.565195e+002, 3.543196e-002
9.584479e+002, 3.542528e-002
9.603764e+002, 3.540783e-002
9.623049e+002, 3.542812e-002
9.642333e+002, 3.519383e-002
9.661618e+002, 3.502140e-002
9.680903e+002, 3.494802e-002
9.700187e+002, 3.504669e-002
9.719472e+002, 3.523927e-002
9.738757e+002, 3.553658e-002
9.758041e+002, 3.571472e-002
9.777326e+002, 3.568339e-002
9.796611e+002, 3.578873e-002
9.815895e+002, 3.605670e-002
9.835180e+002, 3.625363e-002
9.854465e+002, 3.640947e-002
9.873749e+002, 3.670084e-002
9.893034e+002, 3.697987e-002
9.912319e+002, 3.729493e-002
9.931603e+002, 3.762027e-002
9.950888e+002, 3.789051e-002
9.970173e+002, 3.827863e-002
9.989457e+002, 3.871527e-002
1.000874e+003, 3.890104e-002
1.002803e+003, 3.897316e-002
1.004731e+003, 3.923449e-002
1.006660e+003, 3.950811e-002
1.008588e+003, 3.963007e-002
1.010517e+003, 3.978561e-002
1.012445e+003, 4.007193e-002
1.014373e+003, 4.000621e-002
1.016302e+003, 3.978001e-002
1.018230e+003, 3.963911e-002
1.020159e+003, 3.943884e-002
1.022087e+003, 3.911440e-002
1.024016e+003, 3.896442e-002
1.025944e+003, 3.902963e-002
1.027873e+003, 3.882052e-002
1.029801e+003, 3.844424e-002
1.031730e+003, 3.816101e-002
1.033658e+003, 3.796984e-002
1.035587e+003, 3.798803e-002
1.037515e+003, 3.791253e-002
1.039444e+003, 3.743292e-002
1.041372e+003, 3.724883e-002
1.043301e+003, 3.735933e-002
1.045229e+003, 3.739515e-002
1.047157e+003, 3.736123e-002
1.049086e+003, 3.733804e-002
1.051014e+003, 3.734476e-002
1.052943e+003, 3.748005e-002
1.054871e+003, 3.759863e-002
1.056800e+003, 3.757736e-002
1.058728e+003, 3.757323e-002
1.060657e+003, 3.768800e-002
1.062585e+003, 3.776986e-002
1.064514e+003, 3.774464e-002
1.066442e+003, 3.766482e-002
1.068371e+003, 3.748586e-002
1.070299e+003, 3.747010e-002
1.072228e+003, 3.768455e-002
1.074156e+003, 3.756505e-002
1.076084e+003, 3.736870e-002
1.078013e+003, 3.738147e-002
1.079941e+003, 3.745943e-002
1.081870e+003, 3.747748e-002
1.083798e+003, 3.741433e-002
1.085727e+003, 3.749552e-002
1.087655e+003, 3.761912e-002
1.089584e+003, 3.750860e-002
1.091512e+003, 3.743497e-002
1.093441e+003, 3.745940e-002
1.095369e+003, 3.732663e-002
1.097298e+003, 3.727388e-002
1.099226e+003, 3.729221e-002
1.101155e+003, 3.752320e-002
1.103083e+003, 3.733312e-002
1.105011e+003, 3.733689e-002
1.106940e+003, 3.750117e-002
1.108868e+003, 3.735888e-002
1.110797e+003, 3.742553e-002
1.112725e+003, 3.747002e-002
1.114654e+003, 3.753238e-002
1.116582e+003, 3.751996e-002
1.118511e+003, 3.739992e-002
1.120439e+003, 3.739997e-002
1.122368e+003, 3.767486e-002
1.124296e+003, 3.774351e-002
1.126225e+003, 3.771299e-002
1.128153e+003, 3.770950e-002
1.130082e+003, 3.777125e-002
1.132010e+003, 3.780241e-002
1.133938e+003, 3.789534e-002
1.135867e+003, 3.802926e-002
1.137795e+003, 3.797392e-002
1.139724e+003, 3.796990e-002
1.141652e+003, 3.804199e-002
1.143581e+003, 3.805180e-002
1.145509e+003, 3.786357e-002
1.147438e+003, 3.778761e-002
1.149366e+003, 3.793662e-002
1.151295e+003, 3.803633e-002
1.153223e+003, 3.801927e-002
1.155152e+003, 3.822588e-002
1.157080e+003, 3.850422e-002
1.159009e+003, 3.844838e-002
1.160937e+003, 3.845597e-002
1.162865e+003, 3.843889e-002
1.164794e+003, 3.835104e-002
1.166722e+003, 3.831287e-002
1.168651e+003, 3.838163e-002
1.170579e+003, 3.851170e-002
1.172508e+003, 3.864044e-002
1.174436e+003, 3.875462e-002
1.176365e+003, 3.896960e-002
1.178293e+003, 3.911254e-002
1.180222e+003, 3.908871e-002
1.182150e+003, 3.922513e-002
1.184079e+003, 3.930052e-002
1.186007e+003, 3.929552e-002
1.187936e+003, 3.939489e-002
1.189864e+003, 3.945731e-002
1.191792e+003, 3.942707e-002
1.193721e+003, 3.941319e-002
1.195649e+003, 3.954886e-002
1.197578e+003, 3.963235e-002
1.199506e+003, 3.974678e-002
1.201435e+003, 3.996070e-002
1.203363e+003, 3.998760e-002
1.205292e+003, 4.008778e-002
1.207220e+003, 4.017558e-002
1.209149e+003, 4.015088e-002
1.211077e+003, 4.028211e-002
1.213006e+003, 4.037814e-002
1.214934e+003, 4.047076e-002
1.216863e+003, 4.055238e-002
1.218791e+003, 4.065144e-002
1.220719e+003, 4.069222e-002
1.222648e+003, 4.076740e-002
1.224576e+003, 4.101483e-002
1.226505e+003, 4.101007e-002
1.228433e+003, 4.086415e-002
1.230362e+003, 4.085160e-002
1.232290e+003, 4.102715e-002
1.234219e+003, 4.096236e-002
1.236147e+003, 4.102867e-002
1.238076e+003, 4.136950e-002
1.240004e+003, 4.141699e-002
1.241933e+003, 4.141586e-002
1.243861e+003, 4.162477e-002
1.245790e+003, 4.171795e-002
1.247718e+003, 4.177159e-002
1.249646e+003, 4.188086e-002
1.251575e+003, 4.193034e-002
1.253503e+003, 4.202896e-002
1.255432e+003, 4.200159e-002
1.257360e+003, 4.221398e-002
1.259289e+003, 4.224769e-002
1.261217e+003, 4.223111e-002
1.263146e+003, 4.220778e-002
1.265074e+003, 4.223989e-002
1.267003e+003, 4.242180e-002
1.268931e+003, 4.257173e-002
1.270860e+003, 4.270158e-002
1.272788e+003, 4.284965e-002
1.274717e+003, 4.287890e-002
1.276645e+003, 4.291521e-002
1.278573e+003, 4.289235e-002
1.280502e+003, 4.290065e-002
1.282430e+003, 4.299453e-002
1.284359e+003, 4.330073e-002
1.286287e+003, 4.349947e-002
1.288216e+003, 4.325679e-002
1.290144e+003, 4.331346e-002
1.292073e+003, 4.368066e-002
1.294001e+003, 4.392076e-002
1.295930e+003, 4.387675e-002
1.297858e+003, 4.376407e-002
1.299787e+003, 4.394575e-002
1.301715e+003, 4.408894e-002
1.303644e+003, 4.419095e-002
1.305572e+003, 4.432767e-002
1.307500e+003, 4.445737e-002
1.309429e+003, 4.436362e-002
1.311357e+003, 4.437891e-002
1.313286e+003, 4.452068e-002
1.315214e+003, 4.461763e-002
1.317143e+003, 4.463638e-002
1.319071e+003, 4.494535e-002
1.321000e+003, 4.518871e-002
1.322928e+003, 4.510196e-002
1.324857e+003, 4.509744e-002
1.326785e+003, 4.521892e-002
1.328714e+003, 4.546236e-002
1.330642e+003, 4.576822e-002
1.332571e+003, 4.588275e-002
1.334499e+003, 4.606251e-002
1.336427e+003, 4.624904e-002
1.338356e+003, 4.616667e-002
1.340284e+003, 4.634292e-002
1.342213e+003, 4.659540e-002
1.344141e+003, 4.664769e-002
1.346070e+003, 4.672479e-002
1.347998e+003, 4.673164e-002
1.349927e+003, 4.689138e-002
1.351855e+003, 4.720011e-002
1.353784e+003, 4.747194e-002
1.355712e+003, 4.763867e-002
1.357641e+003, 4.775762e-002
1.359569e+003, 4.766056e-002
1.361498e+003, 4.763936e-002
1.363426e+003, 4.783225e-002
1.365354e+003, 4.797035e-002
1.367283e+003, 4.809671e-002
1.369211e+003, 4.820294e-002
1.371140e+003, 4.832677e-002
1.373068e+003, 4.849022e-002
1.374997e+003, 4.859376e-002
1.376925e+003, 4.861448e-002
1.378854e+003, 4.871433e-002
1.380782e+003, 4.875747e-002
1.382711e+003, 4.860454e-002
1.384639e+003, 4.877966e-002
1.386568e+003, 4.906497e-002
1.388496e+003, 4.930481e-002
1.390424e+003, 4.931934e-002
1.392353e+003, 4.929247e-002
1.394281e+003, 4.922600e-002
1.396210e+003, 4.965842e-002
1.398138e+003, 5.001140e-002
1.400067e+003, 5.009852e-002
1.401995e+003, 4.997813e-002
1.403924e+003, 4.993523e-002
1.405852e+003, 5.018514e-002
1.407781e+003, 5.054347e-002
1.409709e+003, 5.067093e-002
1.411638e+003, 5.043160e-002
1.413566e+003, 5.028431e-002
1.415495e+003, 5.021737e-002
1.417423e+003, 5.023121e-002
1.419351e+003, 5.055756e-002
1.421280e+003, 5.074373e-002
1.423208e+003, 5.068728e-002
1.425137e+003, 5.069697e-002
1.427065e+003, 5.059959e-002
1.428994e+003, 5.054221e-002
1.430922e+003, 5.081945e-002
1.432851e+003, 5.095640e-002
1.434779e+003, 5.099405e-002
1.436708e+003, 5.104142e-002
1.438636e+003, 5.129183e-002
1.440565e+003, 5.153724e-002
1.442493e+003, 5.148581e-002
1.444422e+003, 5.130104e-002
1.446350e+003, 5.122472e-002
1.448278e+003, 5.116952e-002
1.450207e+003, 5.116972e-002
1.452135e+003, 5.118440e-002
1.454064e+003, 5.107604e-002
1.455992e+003, 5.073536e-002
1.457921e+003, 5.116313e-002
1.459849e+003, 5.139099e-002
1.461778e+003, 5.139644e-002
1.463706e+003, 5.119819e-002
1.465635e+003, 5.120000e-002
1.467563e+003, 5.101006e-002
1.469492e+003, 5.076776e-002
1.471420e+003, 5.051794e-002
1.473349e+003, 5.051722e-002
1.475277e+003, 5.059579e-002
1.477205e+003, 5.079443e-002
1.479134e+003, 5.062471e-002
1.481062e+003, 5.051264e-002
1.482991e+003, 5.062628e-002
1.484919e+003, 5.077308e-002
1.486848e+003, 5.070374e-002
1.488776e+003, 5.058039e-002
1.490705e+003, 5.062314e-002
1.492633e+003, 5.067986e-002
1.494562e+003, 5.070362e-002
1.496490e+003, 5.078141e-002
1.498419e+003, 5.084278e-002
1.500347e+003, 5.084248e-002
1.502276e+003, 5.095164e-002
1.504204e+003, 5.084746e-002
1.506132e+003, 5.076004e-002
1.508061e+003, 5.097920e-002
1.509989e+003, 5.111951e-002
1.511918e+003, 5.128251e-002
1.513846e+003, 5.126642e-002
1.515775e+003, 5.102260e-002
1.517703e+003, 5.117480e-002
1.519632e+003, 5.105444e-002
1.521560e+003, 5.124139e-002
1.523489e+003, 5.171355e-002
1.525417e+003, 5.185798e-002
1.527346e+003, 5.186335e-002
1.529274e+003, 5.212761e-002
1.531203e+003, 5.230784e-002
1.533131e+003, 5.235444e-002
1.535059e+003, 5.268488e-002
1.536988e+003, 5.257123e-002
1.538916e+003, 5.221606e-002
1.540845e+003, 5.221044e-002
1.542773e+003, 5.255061e-002
1.544702e+003, 5.291170e-002
1.546630e+003, 5.337839e-002
1.548559e+003, 5.339607e-002
1.550487e+003, 5.348920e-002
1.552416e+003, 5.361068e-002
1.554344e+003, 5.393305e-002
1.556273e+003, 5.389375e-002
1.558201e+003, 5.360591e-002
1.560130e+003, 5.386086e-002
1.562058e+003, 5.422053e-002
1.563986e+003, 5.452072e-002
1.565915e+003, 5.495914e-002
1.567843e+003, 5.512174e-002
1.569772e+003, 5.532231e-002
1.571700e+003, 5.536068e-002
1.573629e+003, 5.527138e-002
1.575557e+003, 5.511616e-002
1.577486e+003, 5.567551e-002
1.579414e+003, 5.593366e-002
1.581343e+003, 5.589746e-002
1.583271e+003, 5.581751e-002
1.585200e+003, 5.575105e-002
1.587128e+003, 5.603694e-002
1.589057e+003, 5.626813e-002
1.590985e+003, 5.628888e-002
1.592913e+003, 5.645868e-002
1.594842e+003, 5.657396e-002
1.596770e+003, 5.652231e-002
1.598699e+003, 5.648564e-002
1.600627e+003, 5.645572e-002
1.602556e+003, 5.656973e-002
1.604484e+003, 5.665829e-002
1.606413e+003, 5.663306e-002
1.608341e+003, 5.654790e-002
1.610270e+003, 5.658755e-002
1.612198e+003, 5.645594e-002
1.614127e+003, 5.620015e-002
1.616055e+003, 5.591826e-002
1.617984e+003, 5.614039e-002
1.619912e+003, 5.625217e-002
1.621840e+003, 5.619915e-002
1.623769e+003, 5.611102e-002
1.625697e+003, 5.604396e-002
1.627626e+003, 5.619352e-002
1.629554e+003, 5.610820e-002
1.631483e+003, 5.588067e-002
1.633411e+003, 5.567591e-002
1.635340e+003, 5.549563e-002
1.637268e+003, 5.568582e-002
1.639197e+003, 5.585389e-002
1.641125e+003, 5.595852e-002
1.643054e+003, 5.566289e-002
1.644982e+003, 5.528381e-002
1.646911e+003, 5.570912e-002
1.648839e+003, 5.582970e-002
1.650767e+003, 5.524483e-002
1.652696e+003, 5.456138e-002
1.654624e+003, 5.514739e-002
1.656553e+003, 5.522043e-002
1.658481e+003, 5.506527e-002
1.660410e+003, 5.494729e-002
1.662338e+003, 5.490332e-002
1.664267e+003, 5.515271e-002
1.666195e+003, 5.519959e-002
1.668124e+003, 5.506874e-002
1.670052e+003, 5.529099e-002
1.671981e+003, 5.516693e-002
1.673909e+003, 5.482076e-002
1.675838e+003, 5.475019e-002
1.677766e+003, 5.458543e-002
1.679694e+003, 5.499159e-002
1.681623e+003, 5.517174e-002
1.683551e+003, 5.449057e-002
1.685480e+003, 5.495021e-002
1.687408e+003, 5.535426e-002
1.689337e+003, 5.553007e-002
1.691265e+003, 5.525358e-002
1.693194e+003, 5.494074e-002
1.695122e+003, 5.463347e-002
1.697051e+003, 5.518039e-002
1.698979e+003, 5.476142e-002
1.700908e+003, 5.495727e-002
1.702836e+003, 5.504064e-002
1.704765e+003, 5.524866e-002
1.706693e+003, 5.544056e-002
1.708621e+003, 5.537337e-002
1.710550e+003, 5.519335e-002
1.712478e+003, 5.480278e-002
1.714407e+003, 5.470867e-002
1.716335e+003, 5.492472e-002
1.718264e+003, 5.525397e-002
1.720192e+003, 5.527687e-002
1.722121e+003, 5.506009e-002
1.724049e+003, 5.538294e-002
1.725978e+003, 5.591322e-002
1.727906e+003, 5.595635e-002
1.729835e+003, 5.586007e-002
1.731763e+003, 5.555020e-002
1.733692e+003, 5.507397e-002
1.735620e+003, 5.533769e-002
1.737548e+003, 5.528063e-002
1.739477e+003, 5.520007e-002
1.741405e+003, 5.522995e-002
1.743334e+003, 5.547803e-002
1.745262e+003, 5.563495e-002
1.747191e+003, 5.548219e-002
1.749119e+003, 5.561725e-002
1.751048e+003, 5.578149e-002
1.752976e+003, 5.594391e-002
1.754905e+003, 5.597670e-002
1.756833e+003, 5.579930e-002
1.758762e+003, 5.588163e-002
1.760690e+003, 5.606810e-002
1.762619e+003, 5.617827e-002
1.764547e+003, 5.623240e-002
1.766475e+003, 5.637015e-002
1.768404e+003, 5.644250e-002
1.770332e+003, 5.641332e-002
1.772261e+003, 5.629500e-002
1.774189e+003, 5.633431e-002
1.776118e+003, 5.617614e-002
1.778046e+003, 5.645755e-002
1.779975e+003, 5.648778e-002
1.781903e+003, 5.616471e-002
1.783832e+003, 5.630913e-002
1.785760e+003, 5.664965e-002
1.787689e+003, 5.661881e-002
1.789617e+003, 5.656350e-002
1.791546e+003, 5.690037e-002
1.793474e+003, 5.694942e-002
1.795402e+003, 5.634890e-002
1.797331e+003, 5.621437e-002
1.799259e+003, 5.672730e-002
1.801188e+003, 5.698232e-002
1.803116e+003, 5.689592e-002
1.805045e+003, 5.690332e-002
1.806973e+003, 5.708437e-002
1.808902e+003, 5.727748e-002
1.810830e+003, 5.743280e-002
1.812759e+003, 5.722375e-002
1.814687e+003, 5.719902e-002
1.816616e+003, 5.720547e-002
1.818544e+003, 5.702499e-002
1.820473e+003, 5.716278e-002
1.822401e+003, 5.698365e-002
1.824329e+003, 5.696874e-002
1.826258e+003, 5.760483e-002
1.828186e+003, 5.732788e-002
1.830115e+003, 5.701122e-002
1.832043e+003, 5.705626e-002
1.833972e+003, 5.736959e-002
1.835900e+003, 5.775338e-002
1.837829e+003, 5.810772e-002
1.839757e+003, 5.820934e-002
1.841686e+003, 5.847171e-002
1.843614e+003, 5.842998e-002
1.845543e+003, 5.796909e-002
1.847471e+003, 5.767215e-002
1.849400e+003, 5.782089e-002
1.851328e+003, 5.770161e-002
1.853256e+003, 5.813010e-002
1.855185e+003, 5.757811e-002
1.857113e+003, 5.692564e-002
1.859042e+003, 5.781878e-002
1.860970e+003, 5.865999e-002
1.862899e+003, 5.833441e-002
1.864827e+003, 5.754495e-002
1.866756e+003, 5.740773e-002
1.868684e+003, 5.770598e-002
1.870613e+003, 5.756440e-002
1.872541e+003, 5.789096e-002
1.874470e+003, 5.786386e-002
1.876398e+003, 5.790998e-002
1.878327e+003, 5.856019e-002
1.880255e+003, 5.877894e-002
1.882183e+003, 5.820191e-002
1.884112e+003, 5.778000e-002
1.886040e+003, 5.815675e-002
1.887969e+003, 5.892587e-002
1.889897e+003, 5.892873e-002
1.891826e+003, 5.843382e-002
1.893754e+003, 5.848676e-002
1.895683e+003, 5.854269e-002
1.897611e+003, 5.905207e-002
1.899540e+003, 5.896898e-002
1.901468e+003, 5.852901e-002
1.903397e+003, 5.854831e-002
1.905325e+003, 5.857270e-002
1.907254e+003, 5.941501e-002
1.909182e+003, 6.020242e-002
1.911110e+003, 5.950934e-002
1.913039e+003, 5.854897e-002
1.914967e+003, 5.847012e-002
1.916896e+003, 5.798081e-002
1.918824e+003, 5.779612e-002
1.920753e+003, 5.785654e-002
1.922681e+003, 5.768768e-002
1.924610e+003, 5.797487e-002
1.926538e+003, 5.818477e-002
1.928467e+003, 5.836737e-002
1.930395e+003, 5.851668e-002
1.932324e+003, 5.847021e-002
1.934252e+003, 5.848332e-002
1.936181e+003, 5.790030e-002
1.938109e+003, 5.727694e-002
1.940037e+003, 5.703118e-002
1.941966e+003, 5.805196e-002
1.943894e+003, 5.914504e-002
1.945823e+003, 5.948503e-002
1.947751e+003, 5.964060e-002
1.949680e+003, 5.986058e-002
1.951608e+003, 5.955582e-002
1.953537e+003, 5.932103e-002
1.955465e+003, 5.922413e-002
1.957394e+003, 5.736543e-002
1.959322e+003, 5.745954e-002
1.961251e+003, 5.794664e-002
1.963179e+003, 5.807667e-002
1.965108e+003, 5.852623e-002
1.967036e+003, 5.893658e-002
1.968964e+003, 5.864446e-002
1.970893e+003, 5.813201e-002
1.972821e+003, 5.841633e-002
1.974750e+003, 5.780917e-002
1.976678e+003, 5.775361e-002
1.978607e+003, 5.987482e-002
1.980535e+003, 5.928535e-002
1.982464e+003, 5.850085e-002
1.984392e+003, 5.960507e-002
1.986321e+003, 6.010104e-002
1.988249e+003, 6.055882e-002
1.990178e+003, 6.100020e-002
1.992106e+003, 6.170030e-002
1.994035e+003, 6.235790e-002
1.995963e+003, 6.079368e-002
1.997891e+003, 5.937469e-002
1.999820e+003, 5.824908e-002
2.001748e+003, 5.795470e-002
2.003677e+003, 5.841822e-002
2.005605e+003, 5.916772e-002
2.007534e+003, 6.019635e-002
2.009462e+003, 6.028146e-002
2.011391e+003, 5.900166e-002
2.013319e+003, 5.973744e-002
2.015248e+003, 6.081787e-002
2.017176e+003, 5.961509e-002
2.019105e+003, 5.893992e-002
2.021033e+003, 5.834787e-002
2.022962e+003, 5.717001e-002
2.024890e+003, 5.968644e-002
2.026818e+003, 6.044684e-002
2.028747e+003, 5.842537e-002
2.030675e+003, 5.734699e-002
2.032604e+003, 5.916269e-002
2.034532e+003, 6.227995e-002
2.036461e+003, 6.204814e-002
2.038389e+003, 6.145192e-002
2.040318e+003, 6.152955e-002
2.042246e+003, 6.030562e-002
2.044175e+003, 6.112429e-002
2.046103e+003, 6.233961e-002
2.048032e+003, 6.354704e-002
2.049960e+003, 6.474864e-002
2.051889e+003, 6.386947e-002
2.053817e+003, 6.274427e-002
2.055746e+003, 6.322397e-002
2.057674e+003, 6.292313e-002
2.059603e+003, 6.253643e-002
2.061531e+003, 6.111567e-002
2.063459e+003, 6.096456e-002
2.065388e+003, 6.228884e-002
2.067316e+003, 6.171717e-002
2.069245e+003, 6.174030e-002
2.071173e+003, 6.249959e-002
2.073102e+003, 6.266366e-002
2.075030e+003, 6.196314e-002
2.076959e+003, 6.179960e-002
2.078887e+003, 6.199331e-002
2.080816e+003, 6.296808e-002
2.082744e+003, 6.331578e-002
2.084673e+003, 6.397934e-002
2.086601e+003, 6.325441e-002
2.088530e+003, 6.245295e-002
2.090458e+003, 6.274291e-002
2.092386e+003, 6.401578e-002
2.094315e+003, 6.463384e-002
2.096243e+003, 6.449880e-002
2.098172e+003, 6.398810e-002
2.100100e+003, 6.325579e-002
2.102029e+003, 6.306650e-002
2.103957e+003, 6.368559e-002
2.105886e+003, 6.455605e-002
2.107814e+003, 6.394792e-002
2.109743e+003, 6.395126e-002
2.111671e+003, 6.476329e-002
2.113600e+003, 6.422189e-002
2.115528e+003, 6.262241e-002
2.117457e+003, 6.234742e-002
2.119385e+003, 6.253393e-002
2.121313e+003, 6.245745e-002
2.123242e+003, 6.254983e-002
2.125170e+003, 6.299346e-002
2.127099e+003, 6.309906e-002
2.129027e+003, 6.299737e-002
2.130956e+003, 6.150495e-002
2.132884e+003, 5.887302e-002
2.134813e+003, 5.882126e-002
2.136741e+003, 6.029208e-002
2.138670e+003, 6.154175e-002
2.140598e+003, 6.235957e-002
2.142527e+003, 6.137037e-002
2.144455e+003, 6.164293e-002
2.146384e+003, 6.396119e-002
2.148312e+003, 6.325704e-002
2.150240e+003, 6.142352e-002
2.152169e+003, 6.032788e-002
2.154097e+003, 5.843027e-002
2.156026e+003, 5.864973e-002
2.157954e+003, 6.200604e-002
2.159883e+003, 6.484836e-002
2.161811e+003, 6.368786e-002
2.163740e+003, 6.242584e-002
2.165668e+003, 6.371240e-002
2.167597e+003, 6.418046e-002
2.169525e+003, 6.530764e-002
2.171454e+003, 6.410312e-002
2.173382e+003, 6.279252e-002
2.175311e+003, 6.512998e-002
2.177239e+003, 6.615300e-002
2.179167e+003, 6.422210e-002
2.181096e+003, 6.264099e-002
2.183024e+003, 6.184887e-002
2.184953e+003, 6.251326e-002
2.186881e+003, 6.386497e-002
2.188810e+003, 6.256109e-002
2.190738e+003, 6.273848e-002
2.192667e+003, 6.311651e-002
2.194595e+003, 6.397833e-002
2.196524e+003, 6.376209e-002
2.198452e+003, 6.286430e-002
2.200381e+003, 6.355420e-002
2.202309e+003, 6.416755e-002
2.204238e+003, 6.462868e-002
2.206166e+003, 6.566820e-002
2.208094e+003, 6.581660e-002
2.210023e+003, 6.554995e-002
2.211951e+003, 6.505588e-002
2.213880e+003, 6.538677e-002
2.215808e+003, 6.456850e-002
2.217737e+003, 6.431901e-002
2.219665e+003, 6.465347e-002
2.221594e+003, 6.546389e-002
2.223522e+003, 6.606429e-002
2.225451e+003, 6.629743e-002
2.227379e+003, 6.531900e-002
2.229308e+003, 6.460441e-002
2.231236e+003, 6.540991e-002
2.233165e+003, 6.633584e-002
2.235093e+003, 6.636484e-002
2.237021e+003, 6.702203e-002
2.238950e+003, 6.683277e-002
2.240878e+003, 6.625071e-002
2.242807e+003, 6.648301e-002
2.244735e+003, 6.671039e-002
2.246664e+003, 6.596629e-002
2.248592e+003, 6.494056e-002
2.250521e+003, 6.485154e-002
2.252449e+003, 6.546305e-002
2.254378e+003, 6.542036e-002
2.256306e+003, 6.592064e-002
2.258235e+003, 6.680708e-002
2.260163e+003, 6.677091e-002
2.262092e+003, 6.583529e-002
2.264020e+003, 6.630129e-002
2.265948e+003, 6.673864e-002
2.267877e+003, 6.681655e-002
2.269805e+003, 6.715849e-002
2.271734e+003, 6.824764e-002
2.273662e+003, 6.828775e-002
2.275591e+003, 6.777607e-002
2.277519e+003, 6.745414e-002
2.279448e+003, 6.723967e-002
2.281376e+003, 6.730543e-002
2.283305e+003, 6.839984e-002
2.285233e+003, 6.896523e-002
2.287162e+003, 6.829230e-002
2.289090e+003, 6.735597e-002
2.291019e+003, 6.744326e-002
2.292947e+003, 6.744748e-002
2.294875e+003, 6.780476e-002
2.296804e+003, 6.811752e-002
2.298732e+003, 6.790817e-002
2.300661e+003, 6.801026e-002
2.302589e+003, 6.871581e-002
2.304518e+003, 6.933766e-002
2.306446e+003, 6.874093e-002
2.308375e+003, 6.835394e-002
2.310303e+003, 6.832970e-002
2.312232e+003, 6.830763e-002
2.314160e+003, 6.853478e-002
2.316089e+003, 6.866092e-002
2.318017e+003, 6.920280e-002
2.319946e+003, 6.932036e-002
2.321874e+003, 6.945556e-002
2.323802e+003, 6.970313e-002
2.325731e+003, 6.877530e-002
2.327659e+003, 6.806932e-002
2.329588e+003, 6.795165e-002
2.331516e+003, 6.802732e-002
2.333445e+003, 6.822333e-002
2.335373e+003, 6.891984e-002
2.337302e+003, 6.891120e-002
2.339230e+003, 6.886888e-002
2.341159e+003, 6.874464e-002
2.343087e+003, 6.828466e-002
2.345016e+003, 6.852847e-002
2.346944e+003, 6.855143e-002
2.348873e+003, 6.845443e-002
2.350801e+003, 6.847133e-002
2.352729e+003, 6.881684e-002
2.354658e+003, 6.876277e-002
2.356586e+003, 6.867337e-002
2.358515e+003, 6.822762e-002
2.360443e+003, 6.773537e-002
2.362372e+003, 6.783476e-002
2.364300e+003, 6.816806e-002
2.366229e+003, 6.825664e-002
2.368157e+003, 6.840060e-002
2.370086e+003, 6.872276e-002
2.372014e+003, 6.886947e-002
2.373942e+003, 6.847484e-002
2.375871e+003, 6.871419e-002
2.377799e+003, 6.857224e-002
2.379728e+003, 6.889245e-002
2.381656e+003, 6.879117e-002
2.383585e+003, 6.816164e-002
2.385513e+003, 6.812593e-002
2.387442e+003, 6.864034e-002
2.389370e+003, 6.879190e-002
2.391299e+003, 6.920880e-002
2.393227e+003, 6.909388e-002
2.395156e+003, 6.826774e-002
2.397084e+003, 6.825821e-002
2.399012e+003, 6.822238e-002
2.400941e+003, 6.803384e-002
2.402869e+003, 6.861637e-002
2.404798e+003, 6.815897e-002
2.406726e+003, 6.834727e-002
2.408655e+003, 6.904116e-002
2.410583e+003, 6.900719e-002
2.412512e+003, 6.875975e-002
2.414440e+003, 6.897379e-002
2.416369e+003, 6.940886e-002
2.418297e+003, 6.978472e-002
2.420226e+003, 6.948718e-002
2.422154e+003, 6.922981e-002
2.424083e+003, 6.909563e-002
2.426011e+003, 6.889423e-002
2.427939e+003, 6.858009e-002
2.429868e+003, 6.817748e-002
2.431796e+003, 6.875061e-002
2.433725e+003, 6.929097e-002
2.435653e+003, 6.934708e-002
2.437582e+003, 6.871893e-002
2.439510e+003, 6.883515e-002
2.441439e+003, 6.937241e-002
2.443367e+003, 6.994963e-002
2.445296e+003, 6.979715e-002
2.447224e+003, 6.958838e-002
2.449153e+003, 7.024354e-002
2.451081e+003, 7.056818e-002
2.453010e+003, 7.041389e-002
2.454938e+003, 7.011059e-002
2.456866e+003, 6.997867e-002
2.458795e+003, 6.983650e-002
2.460723e+003, 6.999877e-002
2.462652e+003, 7.008839e-002
2.464580e+003, 7.002443e-002
2.466509e+003, 6.971379e-002
2.468437e+003, 7.000724e-002
2.470366e+003, 7.027890e-002
2.472294e+003, 7.027481e-002
2.474223e+003, 6.967478e-002
2.476151e+003, 6.971263e-002
2.478080e+003, 7.059128e-002
2.480008e+003, 7.060243e-002
2.481937e+003, 7.007005e-002
2.483865e+003, 7.052822e-002
2.485793e+003, 7.093924e-002
2.487722e+003, 7.032425e-002
2.489650e+003, 7.010359e-002
2.491579e+003, 7.067815e-002
2.493507e+003, 7.089920e-002
2.495436e+003, 7.097267e-002
2.497364e+003, 7.171482e-002
2.499293e+003, 7.151702e-002
2.501221e+003, 7.088356e-002
2.503150e+003, 7.069928e-002
2.505078e+003, 7.002559e-002
2.507007e+003, 6.988470e-002
2.508935e+003, 7.062406e-002
2.510864e+003, 7.047553e-002
2.512792e+003, 7.076532e-002
2.514720e+003, 7.182221e-002
2.516649e+003, 7.227062e-002
2.518577e+003, 7.162413e-002
2.520506e+003, 7.074607e-002
2.522434e+003, 7.123440e-002
2.524363e+003, 7.113363e-002
2.526291e+003, 7.114547e-002
2.528220e+003, 7.079896e-002
2.530148e+003, 7.020220e-002
2.532077e+003, 6.996903e-002
2.534005e+003, 7.057166e-002
2.535934e+003, 7.036424e-002
2.537862e+003, 7.130919e-002
2.539791e+003, 7.203862e-002
2.541719e+003, 7.142348e-002
2.543647e+003, 7.113372e-002
2.545576e+003, 7.115346e-002
2.547504e+003, 7.176131e-002
2.549433e+003, 7.213781e-002
2.551361e+003, 7.216377e-002
2.553290e+003, 7.237247e-002
2.555218e+003, 7.145981e-002
2.557147e+003, 7.131395e-002
2.559075e+003, 7.251146e-002
2.561004e+003, 7.231450e-002
2.562932e+003, 7.146127e-002
2.564861e+003, 7.183614e-002
2.566789e+003, 7.273638e-002
2.568718e+003, 7.215797e-002
2.570646e+003, 7.181504e-002
2.572574e+003, 7.209592e-002
2.574503e+003, 7.201248e-002
2.576431e+003, 7.188436e-002
2.578360e+003, 7.252043e-002
2.580288e+003, 7.270247e-002
2.582217e+003, 7.241213e-002
2.584145e+003, 7.249763e-002
2.586074e+003, 7.283311e-002
2.588002e+003, 7.315920e-002
2.589931e+003, 7.317276e-002
2.591859e+003, 7.239747e-002
2.593788e+003, 7.195854e-002
2.595716e+003, 7.223146e-002
2.597645e+003, 7.286651e-002
2.599573e+003, 7.324380e-002
2.601501e+003, 7.278382e-002
2.603430e+003, 7.317980e-002
2.605358e+003, 7.404733e-002
2.607287e+003, 7.441375e-002
2.609215e+003, 7.404113e-002
2.611144e+003, 7.307287e-002
2.613072e+003, 7.387266e-002
2.615001e+003, 7.464334e-002
2.616929e+003, 7.408693e-002
2.618858e+003, 7.411595e-002
2.620786e+003, 7.462691e-002
2.622715e+003, 7.476263e-002
2.624643e+003, 7.408189e-002
2.626572e+003, 7.318886e-002
2.628500e+003, 7.295783e-002
2.630428e+003, 7.386987e-002
2.632357e+003, 7.482990e-002
2.634285e+003, 7.471513e-002
2.636214e+003, 7.440446e-002
2.638142e+003, 7.449854e-002
2.640071e+003, 7.397398e-002
2.641999e+003, 7.422850e-002
2.643928e+003, 7.464153e-002
2.645856e+003, 7.434013e-002
2.647785e+003, 7.411590e-002
2.649713e+003, 7.432000e-002
2.651642e+003, 7.444148e-002
2.653570e+003, 7.406791e-002
2.655499e+003, 7.358544e-002
2.657427e+003, 7.432148e-002
2.659355e+003, 7.481211e-002
2.661284e+003, 7.478131e-002
2.663212e+003, 7.450182e-002
2.665141e+003, 7.435564e-002
2.667069e+003, 7.343680e-002
2.668998e+003, 7.330334e-002
2.670926e+003, 7.414029e-002
2.672855e+003, 7.437358e-002
2.674783e+003, 7.440692e-002
2.676712e+003, 7.437519e-002
2.678640e+003, 7.401592e-002
2.680569e+003, 7.389412e-002
2.682497e+003, 7.368375e-002
2.684426e+003, 7.384474e-002
2.686354e+003, 7.404564e-002
2.688282e+003, 7.411008e-002
2.690211e+003, 7.448839e-002
2.692139e+003, 7.493584e-002
2.694068e+003, 7.512658e-002
2.695996e+003, 7.517969e-002
2.697925e+003, 7.487129e-002
2.699853e+003, 7.458357e-002
2.701782e+003, 7.482021e-002
2.703710e+003, 7.500558e-002
2.705639e+003, 7.460706e-002
2.707567e+003, 7.448800e-002
2.709496e+003, 7.443344e-002
2.711424e+003, 7.425550e-002
2.713353e+003, 7.453394e-002
2.715281e+003, 7.508347e-002
2.717209e+003, 7.587788e-002
2.719138e+003, 7.611562e-002
2.721066e+003, 7.586779e-002
2.722995e+003, 7.617297e-002
2.724923e+003, 7.623424e-002
2.726852e+003, 7.548422e-002
2.728780e+003, 7.524130e-002
2.730709e+003, 7.615506e-002
2.732637e+003, 7.622680e-002
2.734566e+003, 7.545277e-002
2.736494e+003, 7.503834e-002
2.738423e+003, 7.498202e-002
2.740351e+003, 7.547434e-002
2.742280e+003, 7.626518e-002
2.744208e+003, 7.618476e-002
2.746136e+003, 7.591669e-002
2.748065e+003, 7.638122e-002
2.749993e+003, 7.656102e-002
2.751922e+003, 7.596935e-002
2.753850e+003, 7.555614e-002
2.755779e+003, 7.551034e-002
2.757707e+003, 7.567130e-002
2.759636e+003, 7.594232e-002
2.761564e+003, 7.634084e-002
2.763493e+003, 7.609138e-002
2.765421e+003, 7.594758e-002
2.767350e+003, 7.617296e-002
2.769278e+003, 7.624862e-002
2.771207e+003, 7.660669e-002
2.773135e+003, 7.659214e-002
2.775063e+003, 7.629721e-002
2.776992e+003, 7.604021e-002
2.778920e+003, 7.574560e-002
2.780849e+003, 7.651281e-002
2.782777e+003, 7.684232e-002
2.784706e+003, 7.690394e-002
2.786634e+003, 7.655266e-002
2.788563e+003, 7.628087e-002
2.790491e+003, 7.648990e-002
2.792420e+003, 7.672697e-002
2.794348e+003, 7.665066e-002
2.796277e+003, 7.624856e-002
2.798205e+003, 7.697917e-002
2.800134e+003, 7.769813e-002
2.802062e+003, 7.778846e-002
2.803990e+003, 7.744788e-002
2.805919e+003, 7.748658e-002
2.807847e+003, 7.764235e-002
2.809776e+003, 7.714117e-002
2.811704e+003, 7.760048e-002
2.813633e+003, 7.772107e-002
2.815561e+003, 7.711825e-002
2.817490e+003, 7.710982e-002
2.819418e+003, 7.743275e-002
2.821347e+003, 7.737737e-002
2.823275e+003, 7.748517e-002
2.825204e+003, 7.761358e-002
2.827132e+003, 7.757805e-002
2.829061e+003, 7.709587e-002
2.830989e+003, 7.669757e-002
2.832917e+003, 7.700919e-002
2.834846e+003, 7.777100e-002
2.836774e+003, 7.788899e-002
2.838703e+003, 7.750705e-002
2.840631e+003, 7.755651e-002
2.842560e+003, 7.788369e-002
2.844488e+003, 7.755543e-002
2.846417e+003, 7.716932e-002
2.848345e+003, 7.722091e-002
2.850274e+003, 7.713235e-002
2.852202e+003, 7.717679e-002
2.854131e+003, 7.758693e-002
2.856059e+003, 7.743607e-002
2.857988e+003, 7.768936e-002
2.859916e+003, 7.753316e-002
2.861844e+003, 7.687368e-002
2.863773e+003, 7.745564e-002
2.865701e+003, 7.801811e-002
2.867630e+003, 7.781269e-002
2.869558e+003, 7.786926e-002
2.871487e+003, 7.785393e-002
2.873415e+003, 7.798122e-002
2.875344e+003, 7.848442e-002
2.877272e+003, 7.843646e-002
2.879201e+003, 7.797575e-002
2.881129e+003, 7.809118e-002
2.883058e+003, 7.828265e-002
2.884986e+003, 7.837521e-002
2.886915e+003, 7.847372e-002
2.888843e+003, 7.857169e-002
2.890771e+003, 7.892766e-002
2.892700e+003, 7.892549e-002
2.894628e+003, 7.964294e-002
2.896557e+003, 7.990082e-002
2.898485e+003, 7.914859e-002
2.900414e+003, 7.916747e-002
2.902342e+003, 7.931864e-002
2.904271e+003, 7.885227e-002
2.906199e+003, 7.861047e-002
2.908128e+003, 7.972837e-002
2.910056e+003, 7.947151e-002
2.911985e+003, 7.874909e-002
2.913913e+003, 7.888950e-002
2.915842e+003, 7.918081e-002
2.917770e+003, 7.839707e-002
2.919698e+003, 7.859523e-002
2.921627e+003, 7.852016e-002
2.923555e+003, 7.800275e-002
2.925484e+003, 7.825159e-002
2.927412e+003, 7.833535e-002
2.929341e+003, 7.846749e-002
2.931269e+003, 7.945491e-002
2.933198e+003, 7.928985e-002
2.935126e+003, 7.932987e-002
2.937055e+003, 7.942455e-002
2.938983e+003, 7.879712e-002
2.940912e+003, 7.918491e-002
2.942840e+003, 7.972774e-002
2.944769e+003, 7.908124e-002
2.946697e+003, 7.835896e-002
2.948625e+003, 7.891846e-002
2.950554e+003, 7.989457e-002
2.952482e+003, 8.005831e-002
2.954411e+003, 8.033746e-002
2.956339e+003, 8.011398e-002
2.958268e+003, 7.913525e-002
2.960196e+003, 7.959738e-002
2.962125e+003, 8.034629e-002
2.964053e+003, 8.074102e-002
2.965982e+003, 8.059789e-002
2.967910e+003, 8.027579e-002
2.969839e+003, 8.059376e-002
2.971767e+003, 8.079672e-002
2.973696e+003, 8.171378e-002
2.975624e+003, 8.253659e-002
2.977552e+003, 8.203323e-002
2.979481e+003, 8.127225e-002
2.981409e+003, 8.108085e-002
2.983338e+003, 8.104836e-002
2.985266e+003, 8.145545e-002
2.987195e+003, 8.098288e-002
2.989123e+003, 8.071072e-002
2.991052e+003, 8.118987e-002
2.992980e+003, 8.144903e-002
2.994909e+003, 8.109821e-002
2.996837e+003, 8.182075e-002
2.998766e+003, 8.209011e-002
3.000694e+003, 8.171632e-002
3.002623e+003, 8.127626e-002
3.004551e+003, 8.152746e-002
3.006479e+003, 8.221596e-002
3.008408e+003, 8.246958e-002
3.010336e+003, 8.196010e-002
3.012265e+003, 8.168725e-002
3.014193e+003, 8.152653e-002
3.016122e+003, 8.184833e-002
3.018050e+003, 8.177197e-002
3.019979e+003, 8.267644e-002
3.021907e+003, 8.332177e-002
3.023836e+003, 8.303707e-002
3.025764e+003, 8.184129e-002
3.027693e+003, 8.134254e-002
3.029621e+003, 8.206367e-002
3.031550e+003, 8.258127e-002
3.033478e+003, 8.198286e-002
3.035406e+003, 8.267026e-002
3.037335e+003, 8.349718e-002
3.039263e+003, 8.231401e-002
3.041192e+003, 8.111898e-002
3.043120e+003, 8.070024e-002
3.045049e+003, 8.151369e-002
3.046977e+003, 8.238722e-002
3.048906e+003, 8.319690e-002
3.050834e+003, 8.389154e-002
3.052763e+003, 8.391515e-002
3.054691e+003, 8.348001e-002
3.056620e+003, 8.294157e-002
3.058548e+003, 8.272370e-002
3.060477e+003, 8.336028e-002
3.062405e+003, 8.435921e-002
3.064333e+003, 8.449013e-002
3.066262e+003, 8.464646e-002
3.068190e+003, 8.463047e-002
3.070119e+003, 8.354449e-002
3.072047e+003, 8.347331e-002
3.073976e+003, 8.426420e-002
3.075904e+003, 8.417542e-002
3.077833e+003, 8.495414e-002
3.079761e+003, 8.433540e-002
3.081690e+003, 8.326460e-002
3.083618e+003, 8.315329e-002
3.085547e+003, 8.365216e-002
3.087475e+003, 8.411282e-002
3.089404e+003, 8.540101e-002
3.091332e+003, 8.537935e-002
3.093260e+003, 8.474904e-002
3.095189e+003, 8.468479e-002
3.097117e+003, 8.400964e-002
3.099046e+003, 8.358624e-002
3.100974e+003, 8.408756e-002
3.102903e+003, 8.474310e-002
3.104831e+003, 8.489688e-002
3.106760e+003, 8.520232e-002
3.108688e+003, 8.571677e-002
3.110617e+003, 8.574840e-002
3.112545e+003, 8.590475e-002
3.114474e+003, 8.588156e-002
3.116402e+003, 8.552725e-002
3.118331e+003, 8.523903e-002
3.120259e+003, 8.505944e-002
3.122188e+003, 8.539248e-002
3.124116e+003, 8.535373e-002
3.126044e+003, 8.503442e-002
3.127973e+003, 8.490505e-002
3.129901e+003, 8.505630e-002
3.131830e+003, 8.592810e-002
3.133758e+003, 8.602636e-002
3.135687e+003, 8.530731e-002
3.137615e+003, 8.513367e-002
3.139544e+003, 8.487953e-002
3.141472e+003, 8.543455e-002
3.143401e+003, 8.653604e-002
3.145329e+003, 8.532489e-002
3.147258e+003, 8.433451e-002
3.149186e+003, 8.567767e-002
3.151115e+003, 8.664060e-002
3.153043e+003, 8.564090e-002
3.154971e+003, 8.629946e-002
3.156900e+003, 8.704261e-002
3.158828e+003, 8.815837e-002
3.160757e+003, 8.808912e-002
3.162685e+003, 8.707406e-002
3.164614e+003, 8.673742e-002
3.166542e+003, 8.654846e-002
3.168471e+003, 8.693784e-002
3.170399e+003, 8.705612e-002
3.172328e+003, 8.610225e-002
3.174256e+003, 8.621335e-002
3.176185e+003, 8.635021e-002
3.178113e+003, 8.676019e-002
3.180042e+003, 8.721368e-002
3.181970e+003, 8.754939e-002
3.183898e+003, 8.740959e-002
3.185827e+003, 8.731263e-002
3.187755e+003, 8.563291e-002
3.189684e+003, 8.602867e-002
3.191612e+003, 8.678933e-002
3.193541e+003, 8.688537e-002
3.195469e+003, 8.735000e-002
3.197398e+003, 8.780939e-002
3.199326e+003, 8.724412e-002
3.201255e+003, 8.776493e-002
3.203183e+003, 8.862884e-002
3.205112e+003, 8.872884e-002
3.207040e+003, 8.708848e-002
3.208969e+003, 8.681209e-002
3.210897e+003, 8.700534e-002
3.212825e+003, 8.789462e-002
3.214754e+003, 8.833303e-002
3.216682e+003, 8.781876e-002
3.218611e+003, 8.719994e-002
3.220539e+003, 8.827760e-002
3.222468e+003, 8.943748e-002
3.224396e+003, 8.836010e-002
3.226325e+003, 8.749995e-002
3.228253e+003, 8.771531e-002
3.230182e+003, 8.885702e-002
3.232110e+003, 8.972530e-002
3.234039e+003, 8.845736e-002
3.235967e+003, 8.875107e-002
3.237896e+003, 8.864318e-002
3.239824e+003, 8.815962e-002
3.241752e+003, 8.872074e-002
3.243681e+003, 8.893068e-002
3.245609e+003, 8.814143e-002
3.247538e+003, 8.766319e-002
3.249466e+003, 8.940551e-002
3.251395e+003, 8.984771e-002
3.253323e+003, 8.868406e-002
3.255252e+003, 8.954791e-002
3.257180e+003, 9.011835e-002
3.259109e+003, 9.027275e-002
3.261037e+003, 9.074762e-002
3.262966e+003, 9.164392e-002
3.264894e+003, 9.098113e-002
3.266823e+003, 8.965368e-002
3.268751e+003, 8.957808e-002
3.270679e+003, 8.946161e-002
3.272608e+003, 8.972605e-002
3.274536e+003, 8.975533e-002
3.276465e+003, 8.900651e-002
3.278393e+003, 8.915070e-002
3.280322e+003, 8.914702e-002
3.282250e+003, 9.096484e-002
3.284179e+003, 9.212119e-002
3.286107e+003, 9.156042e-002
3.288036e+003, 9.037011e-002
3.289964e+003, 8.899622e-002
3.291893e+003, 8.979918e-002
3.293821e+003, 8.997963e-002
3.295750e+003, 8.864504e-002
3.297678e+003, 9.009952e-002
3.299606e+003, 9.024303e-002
3.301535e+003, 8.956014e-002
3.303463e+003, 8.968200e-002
3.305392e+003, 8.953080e-002
3.307320e+003, 8.991211e-002
3.309249e+003, 9.158766e-002
3.311177e+003, 9.124504e-002
3.313106e+003, 9.016674e-002
3.315034e+003, 9.033733e-002
3.316963e+003, 8.977249e-002
3.318891e+003, 8.915199e-002
3.320820e+003, 9.010022e-002
3.322748e+003, 9.082364e-002
3.324677e+003, 9.221400e-002
3.326605e+003, 9.099632e-002
3.328533e+003, 9.022509e-002
3.330462e+003, 8.998810e-002
3.332390e+003, 9.040499e-002
3.334319e+003, 9.060808e-002
3.336247e+003, 9.145255e-002
3.338176e+003, 9.186044e-002
3.340104e+003, 9.224251e-002
3.342033e+003, 9.197259e-002
3.343961e+003, 9.118164e-002
3.345890e+003, 9.096593e-002
3.347818e+003, 9.135246e-002
3.349747e+003, 9.084464e-002
3.351675e+003, 9.266201e-002
3.353604e+003, 9.313975e-002
3.355532e+003, 9.298337e-002
3.357460e+003, 9.386564e-002
3.359389e+003, 9.294273e-002
3.361317e+003, 9.167264e-002
3.363246e+003, 9.238655e-002
3.365174e+003, 9.241219e-002
3.367103e+003, 9.269038e-002
3.369031e+003, 9.177021e-002
3.370960e+003, 9.079933e-002
3.372888e+003, 9.098773e-002
3.374817e+003, 9.074039e-002
3.376745e+003, 9.135175e-002
3.378674e+003, 9.313663e-002
3.380602e+003, 9.301708e-002
3.382531e+003, 9.099973e-002
3.384459e+003, 8.982557e-002
3.386387e+003, 9.144276e-002
3.388316e+003, 9.377137e-002
3.390244e+003, 9.479844e-002
3.392173e+003, 9.378016e-002
3.394101e+003, 9.255508e-002
3.396030e+003, 9.282791e-002
3.397958e+003, 9.356605e-002
3.399887e+003, 9.331278e-002
3.401815e+003, 9.223103e-002
3.403744e+003, 9.148896e-002
3.405672e+003, 9.157485e-002
3.407601e+003, 9.262957e-002
3.409529e+003, 9.306860e-002
3.411458e+003, 9.201133e-002
3.413386e+003, 9.332365e-002
3.415314e+003, 9.486058e-002
3.417243e+003, 9.297168e-002
3.419171e+003, 9.076437e-002
3.421100e+003, 9.112997e-002
3.423028e+003, 9.252779e-002
3.424957e+003, 9.324912e-002
3.426885e+003, 9.173005e-002
3.428814e+003, 9.127837e-002
3.430742e+003, 9.209965e-002
3.432671e+003, 9.276967e-002
3.434599e+003, 9.108543e-002
3.436528e+003, 9.179030e-002
3.438456e+003, 9.332034e-002
3.440385e+003, 9.272228e-002
3.442313e+003, 9.240838e-002
3.444241e+003, 9.296258e-002
3.446170e+003, 9.273446e-002
3.448098e+003, 9.299693e-002
3.450027e+003, 9.363268e-002
3.451955e+003, 9.444260e-002
3.453884e+003, 9.529520e-002
3.455812e+003, 9.545940e-002
3.457741e+003, 9.439969e-002
3.459669e+003, 9.452085e-002
3.461598e+003, 9.383855e-002
3.463526e+003, 9.383699e-002
3.465455e+003, 9.352949e-002
3.467383e+003, 9.366421e-002
3.469312e+003, 9.363285e-002
3.471240e+003, 9.359299e-002
3.473168e+003, 9.268499e-002
3.475097e+003, 9.186399e-002
3.477025e+003, 9.300778e-002
3.478954e+003, 9.458154e-002
3.480882e+003, 9.327371e-002
3.482811e+003, 9.199318e-002
3.484739e+003, 9.265966e-002
3.486668e+003, 9.361500e-002
3.488596e+003, 9.273819e-002
3.490525e+003, 9.209802e-002
3.492453e+003, 9.251755e-002
3.494382e+003, 9.320193e-002
3.496310e+003, 9.333984e-002
3.498239e+003, 9.285130e-002
3.500167e+003, 9.155789e-002
3.502095e+003, 9.306064e-002
3.504024e+003, 9.519421e-002
3.505952e+003, 9.647037e-002
3.507881e+003, 9.511239e-002
3.509809e+003, 9.232659e-002
3.511738e+003, 9.137367e-002
3.513666e+003, 9.370381e-002
3.515595e+003, 9.525421e-002
3.517523e+003, 9.574832e-002
3.519452e+003, 9.617218e-002
3.521380e+003, 9.566873e-002
3.523309e+003, 9.423216e-002
3.525237e+003, 9.358213e-002
3.527166e+003, 9.423403e-002
3.529094e+003, 9.459179e-002
3.531022e+003, 9.420797e-002
3.532951e+003, 9.485558e-002
3.534879e+003, 9.323114e-002
3.536808e+003, 9.372405e-002
3.538736e+003, 9.485823e-002
3.540665e+003, 9.495287e-002
3.542593e+003, 9.435398e-002
3.544522e+003, 9.436214e-002
3.546450e+003, 9.519697e-002
3.548379e+003, 9.538553e-002
3.550307e+003, 9.513052e-002
3.552236e+003, 9.465692e-002
3.554164e+003, 9.327289e-002
3.556093e+003, 9.379616e-002
3.558021e+003, 9.463079e-002
3.559949e+003, 9.519396e-002
3.561878e+003, 9.691057e-002
3.563806e+003, 9.613730e-002
3.565735e+003, 9.404141e-002
3.567663e+003, 9.583981e-002
3.569592e+003, 9.704900e-002
3.571520e+003, 9.695582e-002
3.573449e+003, 9.673979e-002
3.575377e+003, 9.508660e-002
3.577306e+003, 9.429898e-002
3.579234e+003, 9.464143e-002
3.581163e+003, 9.410163e-002
3.583091e+003, 9.436938e-002
3.585020e+003, 9.520575e-002
3.586948e+003, 9.593040e-002
3.588876e+003, 9.649678e-002
3.590805e+003, 9.568200e-002
3.592733e+003, 9.523454e-002
3.594662e+003, 9.529554e-002
3.596590e+003, 9.354511e-002
3.598519e+003, 9.394470e-002
3.600447e+003, 9.466717e-002
3.602376e+003, 9.488799e-002
3.604304e+003, 9.535378e-002
3.606233e+003, 9.490025e-002
3.608161e+003, 9.372457e-002
3.610090e+003, 9.414195e-002
3.612018e+003, 9.538807e-002
3.613947e+003, 9.498837e-002
3.615875e+003, 9.496806e-002
3.617803e+003, 9.592980e-002
3.619732e+003, 9.501766e-002
3.621660e+003, 9.454462e-002
3.623589e+003, 9.447537e-002
3.625517e+003, 9.512239e-002
3.627446e+003, 9.378672e-002
3.629374e+003, 9.345239e-002
3.631303e+003, 9.566094e-002
3.633231e+003, 9.661103e-002
3.635160e+003, 9.539355e-002
3.637088e+003, 9.528770e-002
3.639017e+003, 9.426274e-002
3.640945e+003, 9.287013e-002
3.642874e+003, 9.344994e-002
3.644802e+003, 9.515743e-002
3.646730e+003, 9.493737e-002
3.648659e+003, 9.332404e-002
3.650587e+003, 9.501828e-002
3.652516e+003, 9.688109e-002
3.654444e+003, 9.597395e-002
3.656373e+003, 9.428205e-002
3.658301e+003, 9.425889e-002
3.660230e+003, 9.640697e-002
3.662158e+003, 9.768897e-002
3.664087e+003, 9.740727e-002
3.666015e+003, 9.768782e-002
3.667944e+003, 9.767217e-002
3.669872e+003, 9.645376e-002
3.671801e+003, 9.620246e-002
3.673729e+003, 9.683715e-002
3.675657e+003, 9.588039e-002
3.677586e+003, 9.358685e-002
3.679514e+003, 9.358980e-002
3.681443e+003, 9.565768e-002
3.683371e+003, 9.551520e-002
3.685300e+003, 9.481614e-002
3.687228e+003, 9.369417e-002
3.689157e+003, 9.324878e-002
3.691085e+003, 9.509615e-002
3.693014e+003, 9.741085e-002
3.694942e+003, 9.810725e-002
3.696871e+003, 9.618780e-002
3.698799e+003, 9.751614e-002
3.700728e+003, 9.872031e-002
3.702656e+003, 9.847071e-002
3.704584e+003, 9.879265e-002
3.706513e+003, 9.795683e-002
3.708441e+003, 9.802353e-002
3.710370e+003, 1.005029e-001
3.712298e+003, 9.993904e-002
3.714227e+003, 9.773408e-002
3.716155e+003, 9.801622e-002
3.718084e+003, 9.839696e-002
3.720012e+003, 9.687636e-002
3.721941e+003, 9.765103e-002
3.723869e+003, 9.856690e-002
3.725798e+003, 9.914230e-002
3.727726e+003, 9.944648e-002
3.729655e+003, 9.828757e-002
3.731583e+003, 9.712350e-002
3.733511e+003, 9.609617e-002
3.735440e+003, 9.593839e-002
3.737368e+003, 9.904018e-002
3.739297e+003, 9.926099e-002
3.741225e+003, 9.754525e-002
3.743154e+003, 9.697058e-002
3.745082e+003, 9.780346e-002
3.747011e+003, 9.842825e-002
3.748939e+003, 9.794821e-002
3.750868e+003, 9.766538e-002
3.752796e+003, 9.905049e-002
3.754725e+003, 1.023397e-001
3.756653e+003, 1.022985e-001
3.758582e+003, 1.003670e-001
3.760510e+003, 9.947374e-002
3.762438e+003, 9.927446e-002
3.764367e+003, 1.013410e-001
3.766295e+003, 1.019170e-001
3.768224e+003, 1.017775e-001
3.770152e+003, 1.012903e-001
3.772081e+003, 1.009211e-001
3.774009e+003, 1.006086e-001
3.775938e+003, 1.010444e-001
3.777866e+003, 9.979264e-002
3.779795e+003, 9.961881e-002
3.781723e+003, 1.019835e-001
3.783652e+003, 1.025533e-001
3.785580e+003, 1.001101e-001
3.787509e+003, 1.001079e-001
3.789437e+003, 1.011395e-001
3.791365e+003, 1.024162e-001
3.793294e+003, 1.031741e-001
3.795222e+003, 1.022914e-001
3.797151e+003, 1.011624e-001
3.799079e+003, 1.018895e-001
3.801008e+003, 1.011344e-001
3.802936e+003, 1.015051e-001
3.804865e+003, 1.018793e-001
3.806793e+003, 1.000811e-001
3.808722e+003, 9.921400e-002
3.810650e+003, 1.022236e-001
3.812579e+003, 1.031915e-001
3.814507e+003, 1.023657e-001
3.816436e+003, 1.005414e-001
3.818364e+003, 1.008283e-001
3.820292e+003, 1.022100e-001
3.822221e+003, 1.018705e-001
3.824149e+003, 1.018128e-001
3.826078e+003, 1.015788e-001
3.828006e+003, 1.019896e-001
3.829935e+003, 1.019178e-001
3.831863e+003, 1.018768e-001
3.833792e+003, 1.021522e-001
3.835720e+003, 1.023434e-001
3.837649e+003, 1.037306e-001
3.839577e+003, 1.041658e-001
3.841506e+003, 1.032902e-001
3.843434e+003, 1.013824e-001
3.845363e+003, 1.005903e-001
3.847291e+003, 9.947402e-002
3.849219e+003, 1.002158e-001
3.851148e+003, 1.023364e-001
3.853076e+003, 1.022713e-001
3.855005e+003, 1.020919e-001
3.856933e+003, 1.033170e-001
3.858862e+003, 1.018563e-001
3.860790e+003, 1.012832e-001
3.862719e+003, 1.037019e-001
3.864647e+003, 1.045205e-001
3.866576e+003, 1.034849e-001
3.868504e+003, 1.046008e-001
3.870433e+003, 1.039074e-001
3.872361e+003, 1.038937e-001
3.874290e+003, 1.039498e-001
3.876218e+003, 1.039215e-001
3.878146e+003, 1.020917e-001
3.880075e+003, 1.020001e-001
3.882003e+003, 1.027158e-001
3.883932e+003, 1.039253e-001
3.885860e+003, 1.036814e-001
3.887789e+003, 1.034353e-001
3.889717e+003, 1.033988e-001
3.891646e+003, 1.048896e-001
3.893574e+003, 1.050751e-001
3.895503e+003, 1.023270e-001
3.897431e+003, 1.007646e-001
3.899360e+003, 1.016522e-001
3.901288e+003, 1.034342e-001
3.903217e+003, 1.044737e-001
3.905145e+003, 1.035032e-001
3.907073e+003, 1.042850e-001
3.909002e+003, 1.045100e-001
3.910930e+003, 1.046155e-001
3.912859e+003, 1.028464e-001
3.914787e+003, 1.026541e-001
3.916716e+003, 1.043934e-001
3.918644e+003, 1.069816e-001
3.920573e+003, 1.060099e-001
3.922501e+003, 1.056838e-001
3.924430e+003, 1.045081e-001
3.926358e+003, 1.048743e-001
3.928287e+003, 1.043061e-001
3.930215e+003, 1.043136e-001
3.932144e+003, 1.036682e-001
3.934072e+003, 1.043275e-001
3.936000e+003, 1.063661e-001
3.937929e+003, 1.073055e-001
3.939857e+003, 1.053059e-001
3.941786e+003, 1.045062e-001
3.943714e+003, 1.047332e-001
3.945643e+003, 1.034376e-001
3.947571e+003, 1.045731e-001
3.949500e+003, 1.072953e-001
3.951428e+003, 1.070586e-001
3.953357e+003, 1.068865e-001
3.955285e+003, 1.057902e-001
3.957214e+003, 1.051036e-001
3.959142e+003, 1.058972e-001
3.961071e+003, 1.066279e-001
3.962999e+003, 1.063542e-001
3.964927e+003, 1.070174e-001
3.966856e+003, 1.082474e-001
3.968784e+003, 1.093918e-001
3.970713e+003, 1.072743e-001
3.972641e+003, 1.070543e-001
3.974570e+003, 1.082708e-001
3.976498e+003, 1.086650e-001
3.978427e+003, 1.084032e-001
3.980355e+003, 1.067800e-001
3.982284e+003, 1.057394e-001
3.984212e+003, 1.065406e-001
3.986141e+003, 1.074701e-001
3.988069e+003, 1.059940e-001
3.989998e+003, 1.056437e-001
3.991926e+003, 1.082006e-001
3.993854e+003, 1.080824e-001
3.995783e+003, 1.075304e-001
3.997711e+003, 1.048992e-001
3.999640e+003, 1.049513e-001
##END=



