##NAMES=Cerussite
##RRUFFID=R050298
##IDEAL CHEMISTRY=Pb^2+^CO_3_
##LOCALITY=Bunker Hill mine, Shoshone County, Idaho, USA
##OWNER=RRUFF
##SOURCE=Eugene Schlepp
##DESCRIPTION=Group of colorless tabular crystals
##STATUS=The identification of this mineral has been confirmed by X-ray diffraction and chemical analysis
##URL=rruff.info/R050298
##MEASURED CHEMISTRY=Pb_1.00_CO_3_
399.1926, 1.5492980E-02
401.1211, 1.5072880E-02
403.0496, 1.5145340E-02
404.9780, 1.3952850E-02
406.9065, 1.5855771E-02
408.8350, 1.3927460E-02
410.7634, 1.2645400E-02
412.6919, 1.2644450E-02
414.6204, 1.0596360E-02
416.5488, 1.0030410E-02
418.4773, 1.0072190E-02
420.4058, 1.1442770E-02
422.3342, 1.1882900E-02
424.2627, 1.1390570E-02
426.1912, 1.1613520E-02
428.1196, 1.1809990E-02
430.0481, 1.1193360E-02
431.9766, 1.3986920E-02
433.9050, 1.5927089E-02
435.8335, 1.5240170E-02
437.7620, 1.4935040E-02
439.6904, 1.4568880E-02
441.6189, 1.4190770E-02
443.5474, 1.4423400E-02
445.4758, 1.4248150E-02
447.4043, 1.4701000E-02
449.3328, 1.5549620E-02
451.2612, 1.6771410E-02
453.1897, 1.7218741E-02
455.1182, 1.6757499E-02
457.0466, 1.6218331E-02
458.9751, 1.5816201E-02
460.9036, 1.6214989E-02
462.8320, 1.7196700E-02
464.7605, 1.7305210E-02
466.6890, 1.7327450E-02
468.6174, 1.7050620E-02
470.5459, 1.7192680E-02
472.4744, 1.7530261E-02
474.4028, 1.7442411E-02
476.3313, 1.7386639E-02
478.2598, 1.7003611E-02
480.1882, 1.6922260E-02
482.1167, 1.7320620E-02
484.0452, 1.7954510E-02
485.9736, 1.8229671E-02
487.9021, 1.8094970E-02
489.8306, 1.8777611E-02
491.7590, 1.8512711E-02
493.6875, 1.8061871E-02
495.6160, 1.8734179E-02
497.5444, 1.8692950E-02
499.4729, 1.9089170E-02
501.4014, 1.9658471E-02
503.3298, 1.9923370E-02
505.2583, 2.0350590E-02
507.1868, 2.0229630E-02
509.1152, 2.0245129E-02
511.0437, 2.0751180E-02
512.9722, 2.1214720E-02
514.9006, 2.1561490E-02
516.8291, 2.2541011E-02
518.7576, 2.2715351E-02
520.6860, 2.2549680E-02
522.6145, 2.2435689E-02
524.5430, 2.2314601E-02
526.4714, 2.2865299E-02
528.3999, 2.3566211E-02
530.3284, 2.4081750E-02
532.2568, 2.4606731E-02
534.1853, 2.4901560E-02
536.1138, 2.5454709E-02
538.0422, 2.5820971E-02
539.9707, 2.6478110E-02
541.8992, 2.7390130E-02
543.8276, 2.7918950E-02
545.7561, 2.8285660E-02
547.6846, 2.8919520E-02
549.6130, 3.0095140E-02
551.5415, 3.0866120E-02
553.4700, 3.0619390E-02
555.3984, 3.0590899E-02
557.3269, 3.1198420E-02
559.2554, 3.0729640E-02
561.1838, 3.1320758E-02
563.1123, 3.2604359E-02
565.0408, 3.3161201E-02
566.9692, 3.3805449E-02
568.8977, 3.3882640E-02
570.8262, 3.3966970E-02
572.7546, 3.4467209E-02
574.6831, 3.5161749E-02
576.6116, 3.5464521E-02
578.5400, 3.7063360E-02
580.4685, 3.8849350E-02
582.3970, 3.9848872E-02
584.3254, 4.0499639E-02
586.2539, 4.1284081E-02
588.1824, 4.2462289E-02
590.1108, 4.3343619E-02
592.0393, 4.4078112E-02
593.9678, 4.5443829E-02
595.8962, 4.6396881E-02
597.8247, 4.6805222E-02
599.7532, 4.7819540E-02
601.6816, 4.8726670E-02
603.6101, 4.9049459E-02
605.5386, 4.9188469E-02
607.4670, 4.9532142E-02
609.3955, 5.0008912E-02
611.3240, 5.0205611E-02
613.2524, 5.0484870E-02
615.1809, 5.1371351E-02
617.1094, 5.2641239E-02
619.0378, 5.3897951E-02
620.9663, 5.5468500E-02
622.8948, 5.6917232E-02
624.8232, 5.8028731E-02
626.7517, 5.9364591E-02
628.6802, 6.0843851E-02
630.6086, 6.2353551E-02
632.5371, 6.3469097E-02
634.4656, 6.4511307E-02
636.3940, 6.5690130E-02
638.3225, 6.6748559E-02
640.2510, 6.8286873E-02
642.1794, 7.0397019E-02
644.1079, 7.3389493E-02
646.0364, 7.6667354E-02
647.9648, 8.0157131E-02
649.8933, 8.3981730E-02
651.8218, 8.8529482E-02
653.7502, 9.3782097E-02
655.6787, 9.9986091E-02
657.6072, 0.1085793
659.5356, 0.1198854
661.4641, 0.1338413
663.3926, 0.1526259
665.3210, 0.1775194
667.2495, 0.2080282
669.1780, 0.2493611
671.1064, 0.3047088
673.0349, 0.3715489
674.9634, 0.4237540
676.8918, 0.3871538
678.8203, 0.2820658
680.7488, 0.1736159
682.6772, 8.7653384E-02
684.6057, 4.2293619E-02
686.5342, 2.6624020E-02
688.4626, 2.1926571E-02
690.3911, 2.0166360E-02
692.3196, 1.9861650E-02
694.2480, 2.0804660E-02
696.1765, 2.2938600E-02
698.1050, 2.6960310E-02
700.0334, 2.6812870E-02
701.9619, 2.4259949E-02
703.8904, 2.4379181E-02
705.8188, 2.5534630E-02
707.7473, 2.7022200E-02
709.6758, 2.8225631E-02
711.6042, 2.9400580E-02
713.5327, 3.0560590E-02
715.4612, 3.1865411E-02
717.3896, 3.3583991E-02
719.3181, 3.5621479E-02
721.2466, 3.7527621E-02
723.1750, 3.9255921E-02
725.1035, 4.0393390E-02
727.0320, 4.1360021E-02
728.9604, 4.2559180E-02
730.8889, 4.3693330E-02
732.8174, 4.4772260E-02
734.7458, 4.5045279E-02
736.6743, 4.5228109E-02
738.6028, 4.5678150E-02
740.5313, 4.5635719E-02
742.4597, 4.5731630E-02
744.3882, 4.5815252E-02
746.3167, 4.6072990E-02
748.2451, 4.6575628E-02
750.1736, 4.7297169E-02
752.1021, 4.8049659E-02
754.0305, 4.8840221E-02
755.9590, 4.9672369E-02
757.8875, 5.0503209E-02
759.8159, 5.1262170E-02
761.7444, 5.2540570E-02
763.6729, 5.4051101E-02
765.6013, 5.5174589E-02
767.5298, 5.6301702E-02
769.4583, 5.7712089E-02
771.3867, 5.9040651E-02
773.3152, 6.0556430E-02
775.2437, 6.1936062E-02
777.1721, 6.3097499E-02
779.1006, 6.4432837E-02
781.0291, 6.5843843E-02
782.9575, 6.7047887E-02
784.8860, 6.7903228E-02
786.8145, 6.9060020E-02
788.7429, 7.0147820E-02
790.6714, 7.1205594E-02
792.5999, 7.2555937E-02
794.5283, 7.4000917E-02
796.4568, 7.5463459E-02
798.3853, 7.7181600E-02
800.3137, 7.9549357E-02
802.2422, 8.2162671E-02
804.1707, 8.5036106E-02
806.0991, 8.8214643E-02
808.0276, 9.1873340E-02
809.9561, 9.5663972E-02
811.8845, 0.1002160
813.8130, 0.1063213
815.7415, 0.1143924
817.6699, 0.1254331
819.5984, 0.1417814
821.5269, 0.1666756
823.4553, 0.1829034
825.3838, 0.1809452
827.3123, 0.1968101
829.2407, 0.2385612
831.1692, 0.2945825
833.0977, 0.3582012
835.0261, 0.4169587
836.9546, 0.4322108
838.8831, 0.3729757
840.8115, 0.2716634
842.7400, 0.1794919
844.6685, 0.1212773
846.5969, 9.2842206E-02
848.5254, 8.0140740E-02
850.4539, 7.3565587E-02
852.3823, 6.9567569E-02
854.3108, 6.7190893E-02
856.2393, 6.5710627E-02
858.1677, 6.4829923E-02
860.0962, 6.4307913E-02
862.0247, 6.4402297E-02
863.9531, 6.4763740E-02
865.8816, 6.5319918E-02
867.8101, 6.5979868E-02
869.7385, 6.7271531E-02
871.6670, 6.8265639E-02
873.5955, 6.7755267E-02
875.5239, 6.7417867E-02
877.4524, 6.8002753E-02
879.3809, 6.8644457E-02
881.3093, 6.9259830E-02
883.2378, 6.9934838E-02
885.1663, 7.0735209E-02
887.0947, 7.1109533E-02
889.0232, 7.1622103E-02
890.9517, 7.2334468E-02
892.8801, 7.3066637E-02
894.8085, 7.3476613E-02
896.7370, 7.3869117E-02
898.6655, 7.4608982E-02
900.5939, 7.5370938E-02
902.5224, 7.6055966E-02
904.4509, 7.6692529E-02
906.3793, 7.7319823E-02
908.3078, 7.7981830E-02
910.2363, 7.8703180E-02
912.1647, 7.9786539E-02
914.0932, 8.1003517E-02
916.0217, 8.2360052E-02
917.9501, 8.3361983E-02
919.8786, 8.4367253E-02
921.8071, 8.5725181E-02
923.7355, 8.6651087E-02
925.6640, 8.7348193E-02
927.5925, 8.8477999E-02
929.5209, 8.9579180E-02
931.4494, 9.0961553E-02
933.3779, 9.2068680E-02
935.3063, 9.3077667E-02
937.2348, 9.3933173E-02
939.1633, 9.4748877E-02
941.0917, 9.5809430E-02
943.0202, 9.6751504E-02
944.9487, 9.7677611E-02
946.8771, 9.8699823E-02
948.8056, 9.9559121E-02
950.7341, 0.1004108
952.6625, 0.1012279
954.5910, 0.1021464
956.5195, 0.1032688
958.4479, 0.1043054
960.3764, 0.1047944
962.3049, 0.1050599
964.2333, 0.1058289
966.1618, 0.1066882
968.0903, 0.1075187
970.0187, 0.1085714
971.9472, 0.1086590
973.8757, 0.1092733
975.8041, 0.1110575
977.7326, 0.1129169
979.6611, 0.1147881
981.5895, 0.1168445
983.5180, 0.1191277
985.4465, 0.1218061
987.3749, 0.1238319
989.3034, 0.1249350
991.2319, 0.1255977
993.1603, 0.1266032
995.0888, 0.1276697
997.0173, 0.1276353
998.9457, 0.1268855
1000.874, 0.1268422
1002.803, 0.1271613
1004.731, 0.1271292
1006.660, 0.1273175
1008.588, 0.1280999
1010.517, 0.1290411
1012.445, 0.1301355
1014.373, 0.1312497
1016.302, 0.1326847
1018.230, 0.1342317
1020.159, 0.1360549
1022.087, 0.1378286
1024.016, 0.1402381
1025.944, 0.1426342
1027.873, 0.1459605
1029.801, 0.1503173
1031.730, 0.1530409
1033.658, 0.1549129
1035.587, 0.1587669
1037.515, 0.1635194
1039.444, 0.1693407
1041.372, 0.1764528
1043.301, 0.1874323
1045.229, 0.2056358
1047.157, 0.2442463
1049.086, 0.3239584
1051.014, 0.3623492
1052.943, 0.2455124
1054.871, 0.1541673
1056.800, 0.1360476
1058.728, 0.1371980
1060.657, 0.1405578
1062.585, 0.1439341
1064.514, 0.1473922
1066.442, 0.1502279
1068.371, 0.1530197
1070.299, 0.1550974
1072.228, 0.1573020
1074.156, 0.1595615
1076.084, 0.1617187
1078.013, 0.1636204
1079.941, 0.1655006
1081.870, 0.1674373
1083.798, 0.1696917
1085.727, 0.1722191
1087.655, 0.1749830
1089.584, 0.1776445
1091.512, 0.1811502
1093.441, 0.1850085
1095.369, 0.1883409
1097.298, 0.1911725
1099.226, 0.1937774
1101.155, 0.1958658
1103.083, 0.1979093
1105.011, 0.1990339
1106.940, 0.1981849
1108.868, 0.1960126
1110.797, 0.1942356
1112.725, 0.1919793
1114.654, 0.1889572
1116.582, 0.1868405
1118.511, 0.1865038
1120.439, 0.1874927
1122.368, 0.1891104
1124.296, 0.1907935
1126.225, 0.1927575
1128.153, 0.1945600
1130.082, 0.1966230
1132.010, 0.1986973
1133.938, 0.2005316
1135.867, 0.2023977
1137.795, 0.2044288
1139.724, 0.2060650
1141.652, 0.2073570
1143.581, 0.2090459
1145.509, 0.2111984
1147.438, 0.2132083
1149.366, 0.2151589
1151.295, 0.2172550
1153.223, 0.2196029
1155.152, 0.2219534
1157.080, 0.2241825
1159.009, 0.2261721
1160.937, 0.2280710
1162.865, 0.2300558
1164.794, 0.2321054
1166.722, 0.2346213
1168.651, 0.2372832
1170.579, 0.2396796
1172.508, 0.2420985
1174.436, 0.2445202
1176.365, 0.2468312
1178.293, 0.2493272
1180.222, 0.2520812
1182.150, 0.2546902
1184.079, 0.2574918
1186.007, 0.2603665
1187.936, 0.2631785
1189.864, 0.2660467
1191.792, 0.2691419
1193.721, 0.2722651
1195.649, 0.2753235
1197.578, 0.2786236
1199.506, 0.2820356
1201.435, 0.2852994
1203.363, 0.2886758
1205.292, 0.2922645
1207.220, 0.2956838
1209.149, 0.2993414
1211.077, 0.3029649
1213.006, 0.3066427
1214.934, 0.3108269
1216.863, 0.3153091
1218.791, 0.3191133
1220.719, 0.3226821
1222.648, 0.3268494
1224.576, 0.3313769
1226.505, 0.3359254
1228.433, 0.3405128
1230.362, 0.3453487
1232.290, 0.3501460
1234.219, 0.3551906
1236.147, 0.3604760
1238.076, 0.3653415
1240.004, 0.3703650
1241.933, 0.3763345
1243.861, 0.3824971
1245.790, 0.3880721
1247.718, 0.3941196
1249.646, 0.4004667
1251.575, 0.4067770
1253.503, 0.4130304
1255.432, 0.4194064
1257.360, 0.4258490
1259.289, 0.4324370
1261.217, 0.4393677
1263.146, 0.4465027
1265.074, 0.4534785
1267.003, 0.4606778
1268.931, 0.4679232
1270.860, 0.4753374
1272.788, 0.4828281
1274.717, 0.4903901
1276.645, 0.4976860
1278.573, 0.5047200
1280.502, 0.5112204
1282.430, 0.5177333
1284.359, 0.5243459
1286.287, 0.5316536
1288.216, 0.5390418
1290.144, 0.5459079
1292.073, 0.5523797
1294.001, 0.5584981
1295.930, 0.5642583
1297.858, 0.5699790
1299.787, 0.5753710
1301.715, 0.5806476
1303.644, 0.5854397
1305.572, 0.5902314
1307.500, 0.5946733
1309.429, 0.5988066
1311.357, 0.6031893
1313.286, 0.6083894
1315.214, 0.6140740
1317.143, 0.6200060
1319.071, 0.6263691
1321.000, 0.6326726
1322.928, 0.6391740
1324.857, 0.6469615
1326.785, 0.6552471
1328.714, 0.6630116
1330.642, 0.6704736
1332.571, 0.6785095
1334.499, 0.6863487
1336.427, 0.6944345
1338.356, 0.7021433
1340.284, 0.7098426
1342.213, 0.7191707
1344.141, 0.7291437
1346.070, 0.7384081
1347.998, 0.7482107
1349.927, 0.7582245
1351.855, 0.7673472
1353.784, 0.7760144
1355.712, 0.7845824
1357.641, 0.7934038
1359.569, 0.8019368
1361.498, 0.8090168
1363.426, 0.8154381
1365.354, 0.8207681
1367.283, 0.8239464
1369.211, 0.8254966
1371.140, 0.8261726
1373.068, 0.8238634
1374.997, 0.8188713
1376.925, 0.8118463
1378.854, 0.8016919
1380.782, 0.7885844
1382.711, 0.7732723
1384.639, 0.7555269
1386.568, 0.7356830
1388.496, 0.7148609
1390.424, 0.6942518
1392.353, 0.6735551
1394.281, 0.6528656
1396.210, 0.6314117
1398.138, 0.6098459
1400.067, 0.5893006
1401.995, 0.5699954
1403.924, 0.5527879
1405.852, 0.5371861
1407.781, 0.5231600
1409.709, 0.5117211
1411.638, 0.5022371
1413.566, 0.4947217
1415.495, 0.4893307
1417.423, 0.4855602
1419.351, 0.4825981
1421.280, 0.4809818
1423.208, 0.4797151
1425.137, 0.4774677
1427.065, 0.4737304
1428.994, 0.4675377
1430.922, 0.4591342
1432.851, 0.4494062
1434.779, 0.4375268
1436.708, 0.4245575
1438.636, 0.4113557
1440.565, 0.3975012
1442.493, 0.3838977
1444.422, 0.3705468
1446.350, 0.3571927
1448.278, 0.3443081
1450.207, 0.3317022
1452.135, 0.3199055
1454.064, 0.3089317
1455.992, 0.2983469
1457.921, 0.2875093
1459.849, 0.2770065
1461.778, 0.2673139
1463.706, 0.2576461
1465.635, 0.2477760
1467.563, 0.2381301
1469.492, 0.2286022
1471.420, 0.2193853
1473.349, 0.2101781
1475.277, 0.2006824
1477.205, 0.1910999
1479.134, 0.1817663
1481.062, 0.1720695
1482.991, 0.1626542
1484.919, 0.1533135
1486.848, 0.1440554
1488.776, 0.1351669
1490.705, 0.1268262
1492.633, 0.1187310
1494.562, 0.1113298
1496.490, 0.1046803
1498.419, 9.8040387E-02
1500.347, 9.1807634E-02
1502.276, 8.6578697E-02
1504.204, 8.1930667E-02
1506.132, 7.7517927E-02
1508.061, 7.3483743E-02
1509.989, 6.9927111E-02
1511.918, 6.6697843E-02
1513.846, 6.3807420E-02
1515.775, 6.1312191E-02
1517.703, 5.9156049E-02
1519.632, 5.7178460E-02
1521.560, 5.5291269E-02
1523.489, 5.3192180E-02
1525.417, 5.1342711E-02
1527.346, 4.9631640E-02
1529.274, 4.7864631E-02
1531.203, 4.6195760E-02
1533.131, 4.4508770E-02
1535.059, 4.3207530E-02
1536.988, 4.2068619E-02
1538.916, 4.1028220E-02
1540.845, 3.9930008E-02
1542.773, 3.8212631E-02
1544.702, 3.7110690E-02
1546.630, 3.6348399E-02
1548.559, 3.5117179E-02
1550.487, 3.3871789E-02
1552.416, 3.2707620E-02
1554.344, 3.1754568E-02
1556.273, 3.1305920E-02
1558.201, 3.0654719E-02
1560.130, 3.0042229E-02
1562.058, 2.9301310E-02
1563.986, 2.8309921E-02
1565.915, 2.7659390E-02
1567.843, 2.7034489E-02
1569.772, 2.6280539E-02
1571.700, 2.5617160E-02
1573.629, 2.5111349E-02
1575.557, 2.4543289E-02
1577.486, 2.4008650E-02
1579.414, 2.3357870E-02
1581.343, 2.2732969E-02
1583.271, 2.2125350E-02
1585.200, 2.1733681E-02
1587.128, 2.1363219E-02
1589.057, 2.0925749E-02
1590.985, 2.0401400E-02
1592.913, 2.0072380E-02
1594.842, 1.9891409E-02
1596.770, 1.9293450E-02
1598.699, 1.8436430E-02
1600.627, 1.8356619E-02
1602.556, 1.8244080E-02
1604.484, 1.8065879E-02
1606.413, 1.7973499E-02
1608.341, 1.7676570E-02
1610.270, 1.7287521E-02
1612.198, 1.7092850E-02
1614.127, 1.7083980E-02
1616.055, 1.6790120E-02
1617.984, 1.6382391E-02
1619.912, 1.5888250E-02
1621.840, 1.5882749E-02
1623.769, 1.5953369E-02
1625.697, 1.5779391E-02
1627.626, 1.5666479E-02
1629.554, 1.5426130E-02
1631.483, 1.5052890E-02
1633.411, 1.4710160E-02
1635.340, 1.4823070E-02
1637.268, 1.5210290E-02
1639.197, 1.5143870E-02
1641.125, 1.5005120E-02
1643.054, 1.4839350E-02
1644.982, 1.4470930E-02
1646.911, 1.4566370E-02
1648.839, 1.4921000E-02
1650.767, 1.4902650E-02
1652.696, 1.4485090E-02
1654.624, 1.4037040E-02
1656.553, 1.3952830E-02
1658.481, 1.3789030E-02
1660.410, 1.3478800E-02
1662.338, 1.3325730E-02
1664.267, 1.3148490E-02
1666.195, 1.3095870E-02
1668.124, 1.3208850E-02
1670.052, 1.3474770E-02
1671.981, 1.3821920E-02
1673.909, 1.3590250E-02
1675.838, 1.3426310E-02
1677.766, 1.3429020E-02
1679.694, 1.3092940E-02
1681.623, 1.2959140E-02
1683.551, 1.3243650E-02
1685.480, 1.3825610E-02
1687.408, 1.3988550E-02
1689.337, 1.3795180E-02
1691.265, 1.4164020E-02
1693.194, 1.4526680E-02
1695.122, 1.4556230E-02
1697.051, 1.4769710E-02
1698.979, 1.5142840E-02
1700.908, 1.5098250E-02
1702.836, 1.5161500E-02
1704.765, 1.4925310E-02
1706.693, 1.5140140E-02
1708.621, 1.5848350E-02
1710.550, 1.6073260E-02
1712.478, 1.6281180E-02
1714.407, 1.7319620E-02
1716.335, 1.8645201E-02
1718.264, 2.1173069E-02
1720.192, 2.5931580E-02
1722.121, 3.4257680E-02
1724.049, 4.6816450E-02
1725.978, 5.9766561E-02
1727.906, 6.6052847E-02
1729.835, 6.4089209E-02
1731.763, 5.5985291E-02
1733.692, 4.6182770E-02
1735.620, 4.1739952E-02
1737.548, 4.2618670E-02
1739.477, 4.3365732E-02
1741.405, 4.0336769E-02
1743.334, 3.4129459E-02
1745.262, 2.7557321E-02
1747.191, 2.1719590E-02
1749.119, 1.7466510E-02
1751.048, 1.5906770E-02
1752.976, 1.5980581E-02
1754.905, 1.6340259E-02
1756.833, 1.6304821E-02
1758.762, 1.6395230E-02
1760.690, 1.6489560E-02
1762.619, 1.6234711E-02
1764.547, 1.6135139E-02
1766.475, 1.6789529E-02
1768.404, 1.7484199E-02
1770.332, 1.7241320E-02
1772.261, 1.6846800E-02
1774.189, 1.6685130E-02
1776.118, 1.6440330E-02
1778.046, 1.6643740E-02
1779.975, 1.7203320E-02
1781.903, 1.8177250E-02
1783.832, 1.8753510E-02
1785.760, 1.8358961E-02
1787.689, 1.8310610E-02
1789.617, 1.8354289E-02
1791.546, 1.8069800E-02
1793.474, 1.8497109E-02
1795.402, 1.8987371E-02
1797.331, 1.9329960E-02
1799.259, 1.9472441E-02
1801.188, 1.9533090E-02
1803.116, 1.9482819E-02
1805.045, 1.9360010E-02
1806.973, 1.9662980E-02
1808.902, 2.0120369E-02
1810.830, 2.0295801E-02
1812.759, 2.0472741E-02
1814.687, 2.0878149E-02
1816.616, 2.1069400E-02
1818.544, 2.0967010E-02
1820.473, 2.0802701E-02
1822.401, 2.0996731E-02
1824.329, 2.1797409E-02
1826.258, 2.2039359E-02
1828.186, 2.1612020E-02
1830.115, 2.1934230E-02
1832.043, 2.2482309E-02
1833.972, 2.2745790E-02
1835.900, 2.3046291E-02
1837.829, 2.3211420E-02
1839.757, 2.2775400E-02
1841.686, 2.2174411E-02
1843.614, 2.2503600E-02
1845.543, 2.3117989E-02
1847.471, 2.3902601E-02
1849.400, 2.4263671E-02
1851.328, 2.4741471E-02
1853.256, 2.4800990E-02
1855.185, 2.4825400E-02
1857.113, 2.5167551E-02
1859.042, 2.4588469E-02
1860.970, 2.4200570E-02
1862.899, 2.4827041E-02
1864.827, 2.5052629E-02
1866.756, 2.5495300E-02
1868.684, 2.5039120E-02
1870.613, 2.5179390E-02
1872.541, 2.5739720E-02
1874.470, 2.5950549E-02
1876.398, 2.5613330E-02
1878.327, 2.5771450E-02
1880.255, 2.5798170E-02
1882.183, 2.6268870E-02
1884.112, 2.7782850E-02
1886.040, 2.7832100E-02
1887.969, 2.6306730E-02
1889.897, 2.5892589E-02
1891.826, 2.6369341E-02
1893.754, 2.6689660E-02
1895.683, 2.6081219E-02
1897.611, 2.5661759E-02
1899.540, 2.6515720E-02
1901.468, 2.7919119E-02
1903.397, 2.7614210E-02
1905.325, 2.7216960E-02
1907.254, 2.7352270E-02
1909.182, 2.7770750E-02
1911.110, 2.8883990E-02
1913.039, 2.9489901E-02
1914.967, 2.8571891E-02
1916.896, 2.8693160E-02
1918.824, 2.7928950E-02
1920.753, 2.7539890E-02
1922.681, 2.8650129E-02
1924.610, 2.8746709E-02
1926.538, 2.7980110E-02
1928.467, 2.7181709E-02
1930.395, 2.6491130E-02
1932.324, 2.7097600E-02
1934.252, 2.8661450E-02
1936.181, 2.8827781E-02
1938.109, 2.8968550E-02
1940.037, 3.0239839E-02
1941.966, 3.1051420E-02
1943.894, 3.0669309E-02
1945.823, 3.0314520E-02
1947.751, 2.9648010E-02
1949.680, 2.9829990E-02
1951.608, 3.0788530E-02
1953.537, 3.1153290E-02
1955.465, 3.0665230E-02
1957.394, 3.0320009E-02
1959.322, 3.0296469E-02
1961.251, 3.1888861E-02
1963.179, 3.2051839E-02
1965.108, 3.0978000E-02
1967.036, 3.1095039E-02
1968.964, 3.1359661E-02
1970.893, 3.0634560E-02
1972.821, 2.9841639E-02
1974.750, 2.9737350E-02
1976.678, 3.2201979E-02
1978.607, 3.4254450E-02
1980.535, 3.4944579E-02
1982.464, 3.5345841E-02
1984.392, 3.4918830E-02
1986.321, 3.4711070E-02
1988.249, 3.7026878E-02
1990.178, 3.7213270E-02
1992.106, 3.5822410E-02
1994.035, 3.5308689E-02
1995.963, 3.5319559E-02
1997.891, 3.5315901E-02
1999.820, 3.3920418E-02
2001.748, 3.1741261E-02
2003.677, 3.0228630E-02
2005.605, 2.9714560E-02
2007.534, 3.2130599E-02
2009.462, 3.3940181E-02
2011.391, 3.4562040E-02
2013.319, 3.5285860E-02
2015.248, 3.7007429E-02
2017.176, 3.7549261E-02
2019.105, 3.6443811E-02
2021.033, 3.5821430E-02
2022.962, 3.5922918E-02
2024.890, 3.5586320E-02
2026.818, 3.4616452E-02
2028.747, 3.5788711E-02
2030.675, 3.5449110E-02
2032.604, 3.5437912E-02
2034.532, 3.5644460E-02
2036.461, 3.7402891E-02
2038.389, 4.0613819E-02
2040.318, 3.9848931E-02
2042.246, 3.7532661E-02
2044.175, 3.8187928E-02
2046.103, 3.9746732E-02
2048.032, 4.2006709E-02
2049.960, 4.2558830E-02
2051.889, 4.1249301E-02
2053.817, 4.0208042E-02
2055.746, 3.9462399E-02
2057.674, 3.8780410E-02
2059.603, 4.0746111E-02
2061.531, 4.1338619E-02
2063.459, 4.0788628E-02
2065.388, 4.1611560E-02
2067.316, 4.2517811E-02
2069.245, 4.3498460E-02
2071.173, 4.3406259E-02
2073.102, 4.2388279E-02
2075.030, 4.2140421E-02
2076.959, 4.2285230E-02
2078.887, 4.2543400E-02
2080.816, 4.3178290E-02
2082.744, 4.3920010E-02
2084.673, 4.2860929E-02
2086.601, 4.1262500E-02
2088.530, 4.1616969E-02
2090.458, 4.2274259E-02
2092.386, 4.1525159E-02
2094.315, 4.0703371E-02
2096.243, 4.1270081E-02
2098.172, 4.1072819E-02
2100.100, 3.9978251E-02
2102.029, 3.9497718E-02
2103.957, 3.8611371E-02
2105.886, 3.9995801E-02
2107.814, 4.3159898E-02
2109.743, 4.5873731E-02
2111.671, 4.5641761E-02
2113.600, 4.4859719E-02
2115.528, 4.5160592E-02
2117.457, 4.5171250E-02
2119.385, 4.5143720E-02
2121.313, 4.4398200E-02
2123.242, 4.3910868E-02
2125.170, 4.4104230E-02
2127.099, 4.4248492E-02
2129.027, 4.3584801E-02
2130.956, 4.5054980E-02
2132.884, 4.6204031E-02
2134.813, 4.4674210E-02
2136.741, 4.3235142E-02
2138.670, 4.2385980E-02
2140.598, 4.3818250E-02
2142.527, 4.7071669E-02
2144.455, 4.6621699E-02
2146.384, 4.1282799E-02
2148.312, 3.9468508E-02
2150.240, 4.2312279E-02
2152.169, 4.4014219E-02
2154.097, 4.2447411E-02
2156.026, 4.2796660E-02
2157.954, 4.4778518E-02
2159.883, 4.8669241E-02
2161.811, 4.7231160E-02
2163.740, 4.6769951E-02
2165.668, 5.0150331E-02
2167.597, 5.0686691E-02
2169.525, 4.9403168E-02
2171.454, 4.8875179E-02
2173.382, 4.7566880E-02
2175.311, 4.8472419E-02
2177.239, 4.8989661E-02
2179.167, 4.8372701E-02
2181.096, 4.8276860E-02
2183.024, 4.8857439E-02
2184.953, 4.6940230E-02
2186.881, 4.5429319E-02
2188.810, 4.8946299E-02
2190.738, 4.9469952E-02
2192.667, 4.9051370E-02
2194.595, 4.7347501E-02
2196.524, 4.5551520E-02
2198.452, 4.8261900E-02
2200.381, 4.9341381E-02
2202.309, 4.7227070E-02
2204.238, 4.6610899E-02
2206.166, 4.6598040E-02
2208.094, 4.7937959E-02
2210.023, 4.7320329E-02
2211.951, 4.8284542E-02
2213.880, 5.0803341E-02
2215.808, 5.2564830E-02
2217.737, 5.1601741E-02
2219.665, 5.0862290E-02
2221.594, 5.0974920E-02
2223.522, 5.0994549E-02
2225.451, 5.1776402E-02
2227.379, 5.1632471E-02
2229.308, 5.0560419E-02
2231.236, 5.1053312E-02
2233.165, 5.0587241E-02
2235.093, 5.0206270E-02
2237.021, 5.1377680E-02
2238.950, 5.3281490E-02
2240.878, 5.5020072E-02
2242.807, 5.5384610E-02
2244.735, 5.4618761E-02
2246.664, 5.2335989E-02
2248.592, 5.0915379E-02
2250.521, 5.3579450E-02
2252.449, 5.4302111E-02
2254.378, 5.3623151E-02
2256.306, 5.4441091E-02
2258.235, 5.3878359E-02
2260.163, 5.4752681E-02
2262.092, 5.5952080E-02
2264.020, 5.5603430E-02
2265.948, 5.5896949E-02
2267.877, 5.5990499E-02
2269.805, 5.6788530E-02
2271.734, 5.7515729E-02
2273.662, 5.6878880E-02
2275.591, 5.6137290E-02
2277.519, 5.6103710E-02
2279.448, 5.7575490E-02
2281.376, 5.8619440E-02
2283.305, 5.8070868E-02
2285.233, 5.8192659E-02
2287.162, 5.9071980E-02
2289.090, 5.9755798E-02
2291.019, 6.0082849E-02
2292.947, 5.9747010E-02
2294.875, 6.0271081E-02
2296.804, 6.0691342E-02
2298.732, 6.0845830E-02
2300.661, 6.0730550E-02
2302.589, 6.0356721E-02
2304.518, 6.0972020E-02
2306.446, 6.1257649E-02
2308.375, 6.1906829E-02
2310.303, 6.2305480E-02
2312.232, 6.2636331E-02
2314.160, 6.2543564E-02
2316.089, 6.2706023E-02
2318.017, 6.2480740E-02
2319.946, 6.2770508E-02
2321.874, 6.3703679E-02
2323.802, 6.3792840E-02
2325.731, 6.3079856E-02
2327.659, 6.3330017E-02
2329.588, 6.4203143E-02
2331.516, 6.4840391E-02
2333.445, 6.5197162E-02
2335.373, 6.5886334E-02
2337.302, 6.6553131E-02
2339.230, 6.6525869E-02
2341.159, 6.6184819E-02
2343.087, 6.6437893E-02
2345.016, 6.6830367E-02
2346.944, 6.6219077E-02
2348.873, 6.5754801E-02
2350.801, 6.6594407E-02
2352.729, 6.7183152E-02
2354.658, 6.7394041E-02
2356.586, 6.8114594E-02
2358.515, 6.8254441E-02
2360.443, 6.9490530E-02
2362.372, 6.9501229E-02
2364.300, 6.8930186E-02
2366.229, 6.8896621E-02
2368.157, 6.8944544E-02
2370.086, 6.9034949E-02
2372.014, 6.9651283E-02
2373.942, 6.9917053E-02
2375.871, 6.9617473E-02
2377.799, 7.0169017E-02
2379.728, 7.0756398E-02
2381.656, 7.1159258E-02
2383.585, 7.2508372E-02
2385.513, 7.4384801E-02
2387.442, 7.5701483E-02
2389.370, 7.6232433E-02
2391.299, 7.8097694E-02
2393.227, 8.0697097E-02
2395.156, 8.2503296E-02
2397.084, 8.4253751E-02
2399.012, 8.5578419E-02
2400.941, 8.7164588E-02
2402.869, 8.9157984E-02
2404.798, 9.1000967E-02
2406.726, 9.1468073E-02
2408.655, 9.1709763E-02
2410.583, 9.1389060E-02
2412.512, 9.0326652E-02
2414.440, 8.8490836E-02
2416.369, 8.6222500E-02
2418.297, 8.4097289E-02
2420.226, 8.2143366E-02
2422.154, 7.9955153E-02
2424.083, 7.8291483E-02
2426.011, 7.6233067E-02
2427.939, 7.4354492E-02
2429.868, 7.3261008E-02
2431.796, 7.1986042E-02
2433.725, 7.2454467E-02
2435.653, 7.2267048E-02
2437.582, 7.1434617E-02
2439.510, 7.0581391E-02
2441.439, 6.9968313E-02
2443.367, 6.9543891E-02
2445.296, 6.8859890E-02
2447.224, 6.7595609E-02
2449.153, 6.7386791E-02
2451.081, 6.9411099E-02
2453.010, 7.0596293E-02
2454.938, 7.0354924E-02
2456.866, 6.8359487E-02
2458.795, 6.7781433E-02
2460.723, 6.8564087E-02
2462.652, 6.8804897E-02
2464.580, 6.8414889E-02
2466.509, 6.7921370E-02
2468.437, 6.8697661E-02
2470.366, 6.9180869E-02
2472.294, 6.9044508E-02
2474.223, 6.8282813E-02
2476.151, 6.9635473E-02
2478.080, 7.0410997E-02
2480.008, 6.9023967E-02
2481.937, 6.7311741E-02
2483.865, 6.7210220E-02
2485.793, 6.8324476E-02
2487.722, 6.9155440E-02
2489.650, 6.9200337E-02
2491.579, 6.9486141E-02
2493.507, 6.8901218E-02
2495.436, 6.8725698E-02
2497.364, 6.8893857E-02
2499.293, 6.8387307E-02
2501.221, 6.8532318E-02
2503.150, 6.8737477E-02
2505.078, 6.8782203E-02
2507.007, 6.9134198E-02
2508.935, 6.8640530E-02
2510.864, 6.7071348E-02
2512.792, 6.7557253E-02
2514.720, 6.9046237E-02
2516.649, 6.9850408E-02
2518.577, 6.9910347E-02
2520.506, 6.8626620E-02
2522.434, 6.7508787E-02
2524.363, 6.7758612E-02
2526.291, 6.7820363E-02
2528.220, 6.7192137E-02
2530.148, 6.7252047E-02
2532.077, 6.7775063E-02
2534.005, 6.7654073E-02
2535.934, 6.8138741E-02
2537.862, 6.8402767E-02
2539.791, 6.8057969E-02
2541.719, 6.7361213E-02
2543.647, 6.7282967E-02
2545.576, 6.7649737E-02
2547.504, 6.7515433E-02
2549.433, 6.7006230E-02
2551.361, 6.7787848E-02
2553.290, 6.7836210E-02
2555.218, 6.8396643E-02
2557.147, 6.9432393E-02
2559.075, 6.8644717E-02
2561.004, 6.8308748E-02
2562.932, 6.8277299E-02
2564.861, 6.7489453E-02
2566.789, 6.7444406E-02
2568.718, 6.8006903E-02
2570.646, 6.7909762E-02
2572.574, 6.8326823E-02
2574.503, 6.8965644E-02
2576.431, 6.9610924E-02
2578.360, 6.9416679E-02
2580.288, 6.9030873E-02
2582.217, 6.8665139E-02
2584.145, 6.8667822E-02
2586.074, 6.9791749E-02
2588.002, 6.9252647E-02
2589.931, 6.8700589E-02
2591.859, 6.9222972E-02
2593.788, 6.9909848E-02
2595.716, 7.0560947E-02
2597.645, 7.0724882E-02
2599.573, 7.1262717E-02
2601.501, 7.1641661E-02
2603.430, 7.2436079E-02
2605.358, 7.2144367E-02
2607.287, 7.2213881E-02
2609.215, 7.2352260E-02
2611.144, 7.2372437E-02
2613.072, 7.3153250E-02
2615.001, 7.3135898E-02
2616.929, 7.2359137E-02
2618.858, 7.2766073E-02
2620.786, 7.4430749E-02
2622.715, 7.4792452E-02
2624.643, 7.4127771E-02
2626.572, 7.3647581E-02
2628.500, 7.3416203E-02
2630.428, 7.3994592E-02
2632.357, 7.4262142E-02
2634.285, 7.3984541E-02
2636.214, 7.4500613E-02
2638.142, 7.5013071E-02
2640.071, 7.5993359E-02
2641.999, 7.6467998E-02
2643.928, 7.6267362E-02
2645.856, 7.6129451E-02
2647.785, 7.6596528E-02
2649.713, 7.6907143E-02
2651.642, 7.7085689E-02
2653.570, 7.6784752E-02
2655.499, 7.7200823E-02
2657.427, 7.7207841E-02
2659.355, 7.7462293E-02
2661.284, 7.8427650E-02
2663.212, 7.8315258E-02
2665.141, 7.7489167E-02
2667.069, 7.7535138E-02
2668.998, 7.8141458E-02
2670.926, 7.8211740E-02
2672.855, 7.7469923E-02
2674.783, 7.8545891E-02
2676.712, 7.9232126E-02
2678.640, 7.9092257E-02
2680.569, 7.9063073E-02
2682.497, 7.8867421E-02
2684.426, 7.9348490E-02
2686.354, 7.9587780E-02
2688.282, 7.9372957E-02
2690.211, 7.9171292E-02
2692.139, 7.9571538E-02
2694.068, 7.9556592E-02
2695.996, 8.0546439E-02
2697.925, 8.2158871E-02
2699.853, 8.1878737E-02
2701.782, 8.1524134E-02
2703.710, 8.1555054E-02
2705.639, 8.2588904E-02
2707.567, 8.3606087E-02
2709.496, 8.3519697E-02
2711.424, 8.3169989E-02
2713.353, 8.3585419E-02
2715.281, 8.4749170E-02
2717.209, 8.5481711E-02
2719.138, 8.5409202E-02
2721.066, 8.5979603E-02
2722.995, 8.6551517E-02
2724.923, 8.6297527E-02
2726.852, 8.6779296E-02
2728.780, 8.7955654E-02
2730.709, 8.8110693E-02
2732.637, 8.8244893E-02
2734.566, 8.8904627E-02
2736.494, 8.9504808E-02
2738.423, 9.0257414E-02
2740.351, 9.0434223E-02
2742.280, 9.0455018E-02
2744.208, 8.9778878E-02
2746.136, 8.8982753E-02
2748.065, 8.9166597E-02
2749.993, 9.0457723E-02
2751.922, 8.9283086E-02
2753.850, 8.7525398E-02
2755.779, 8.8018261E-02
2757.707, 8.9205563E-02
2759.636, 8.9158706E-02
2761.564, 8.9480773E-02
2763.493, 8.9850217E-02
2765.421, 8.9373663E-02
2767.350, 8.8972509E-02
2769.278, 8.8569120E-02
2771.207, 9.0048477E-02
2773.135, 9.1156103E-02
2775.063, 9.1282956E-02
2776.992, 9.0893097E-02
2778.920, 8.9582309E-02
2780.849, 8.8587627E-02
2782.777, 8.9527696E-02
2784.706, 8.9889370E-02
2786.634, 9.0156317E-02
2788.563, 9.1265447E-02
2790.491, 9.0324923E-02
2792.420, 8.9610361E-02
2794.348, 9.0464540E-02
2796.277, 9.0904757E-02
2798.205, 9.0098031E-02
2800.134, 9.0884350E-02
2802.062, 9.1632172E-02
2803.990, 9.1310732E-02
2805.919, 9.1162212E-02
2807.847, 9.0557091E-02
2809.776, 9.0917148E-02
2811.704, 9.1811903E-02
2813.633, 9.0732537E-02
2815.561, 9.0510793E-02
2817.490, 9.1262698E-02
2819.418, 9.1523767E-02
2821.347, 9.1221161E-02
2823.275, 9.0201147E-02
2825.204, 9.0484329E-02
2827.132, 9.0937227E-02
2829.061, 9.0748154E-02
2830.989, 9.0684980E-02
2832.917, 8.9861147E-02
2834.846, 8.8935390E-02
2836.774, 8.9468017E-02
2838.703, 9.0998396E-02
2840.631, 9.0556808E-02
2842.560, 8.9951023E-02
2844.488, 8.9124531E-02
2846.417, 8.8721693E-02
2848.345, 8.8413060E-02
2850.274, 8.8283442E-02
2852.202, 8.7750100E-02
2854.131, 8.8225603E-02
2856.059, 8.7724216E-02
2857.988, 8.7881342E-02
2859.916, 8.8684380E-02
2861.844, 8.8175833E-02
2863.773, 8.7465592E-02
2865.701, 8.7241523E-02
2867.630, 8.7253347E-02
2869.558, 8.8214070E-02
2871.487, 8.9208543E-02
2873.415, 8.8771433E-02
2875.344, 8.8550940E-02
2877.272, 8.8767640E-02
2879.201, 8.8367857E-02
2881.129, 8.8599078E-02
2883.058, 8.9321561E-02
2884.986, 8.9974307E-02
2886.915, 8.9388043E-02
2888.843, 8.9480437E-02
2890.771, 9.0640590E-02
2892.700, 9.1223478E-02
2894.628, 9.1603637E-02
2896.557, 9.0847664E-02
2898.485, 9.0470329E-02
2900.414, 9.0494163E-02
2902.342, 9.0939917E-02
2904.271, 9.2349790E-02
2906.199, 9.2856303E-02
2908.128, 9.2807151E-02
2910.056, 9.2778087E-02
2911.985, 9.3324900E-02
2913.913, 9.3613736E-02
2915.842, 9.4386108E-02
2917.770, 9.4667919E-02
2919.698, 9.4488658E-02
2921.627, 9.3787968E-02
2923.555, 9.2120081E-02
2925.484, 9.0675756E-02
2927.412, 9.2453547E-02
2929.341, 9.3765363E-02
2931.269, 9.2904329E-02
2933.198, 9.3080141E-02
2935.126, 9.3295246E-02
2937.055, 9.2403971E-02
2938.983, 9.2998192E-02
2940.912, 9.4310299E-02
2942.840, 9.3889743E-02
2944.769, 9.3118817E-02
2946.697, 9.3332268E-02
2948.625, 9.5076770E-02
2950.554, 9.5120102E-02
2952.482, 9.4828710E-02
2954.411, 9.4994582E-02
2956.339, 9.5393233E-02
2958.268, 9.5803604E-02
2960.196, 9.5608547E-02
2962.125, 9.6233942E-02
2964.053, 9.6383393E-02
2965.982, 9.5546223E-02
2967.910, 9.6578106E-02
2969.839, 9.7590327E-02
2971.767, 9.8410122E-02
2973.696, 9.8037861E-02
2975.624, 9.7285300E-02
2977.552, 9.8436669E-02
2979.481, 9.8795339E-02
2981.409, 9.7917818E-02
2983.338, 9.7984470E-02
2985.266, 9.9252187E-02
2987.195, 9.9716946E-02
2989.123, 0.1007007
2991.052, 0.1010925
2992.980, 0.1003779
2994.909, 9.9239007E-02
2996.837, 9.9295080E-02
2998.766, 9.9734791E-02
3000.694, 9.9838547E-02
3002.623, 9.9618644E-02
3004.551, 0.1000846
3006.479, 0.1018425
3008.408, 0.1008263
3010.336, 0.1002529
3012.265, 0.1015520
3014.193, 0.1037327
3016.122, 0.1044503
3018.050, 0.1033821
3019.979, 0.1030778
3021.907, 0.1030456
3023.836, 0.1021977
3025.764, 0.1031217
3027.693, 0.1042359
3029.621, 0.1043441
3031.550, 0.1055182
3033.478, 0.1045356
3035.406, 0.1031940
3037.335, 0.1035126
3039.263, 0.1033146
3041.192, 0.1049284
3043.120, 0.1048694
3045.049, 0.1046641
3046.977, 0.1051698
3048.906, 0.1043671
3050.834, 0.1045177
3052.763, 0.1051988
3054.691, 0.1056116
3056.620, 0.1065420
3058.548, 0.1071605
3060.477, 0.1068332
3062.405, 0.1069392
3064.333, 0.1074117
3066.262, 0.1068593
3068.190, 0.1062240
3070.119, 0.1071538
3072.047, 0.1096051
3073.976, 0.1106159
3075.904, 0.1103516
3077.833, 0.1108927
3079.761, 0.1098697
3081.690, 0.1079649
3083.618, 0.1090548
3085.547, 0.1109842
3087.475, 0.1098414
3089.404, 0.1082463
3091.332, 0.1091535
3093.260, 0.1103259
3095.189, 0.1096507
3097.117, 0.1108116
3099.046, 0.1120425
3100.974, 0.1114541
3102.903, 0.1110398
3104.831, 0.1092368
3106.760, 0.1091642
3108.688, 0.1105721
3110.617, 0.1107615
3112.545, 0.1106605
3114.474, 0.1114151
3116.402, 0.1119430
3118.331, 0.1123640
3120.259, 0.1120121
3122.188, 0.1112075
3124.116, 0.1124316
3126.044, 0.1138646
3127.973, 0.1146390
3129.901, 0.1142881
3131.830, 0.1130235
3133.758, 0.1131176
3135.687, 0.1127726
3137.615, 0.1132511
3139.544, 0.1152400
3141.472, 0.1155483
3143.401, 0.1143477
3145.329, 0.1146849
3147.258, 0.1153399
3149.186, 0.1156149
3151.115, 0.1156758
3153.043, 0.1154406
3154.971, 0.1143087
3156.900, 0.1149317
3158.828, 0.1166299
3160.757, 0.1166082
3162.685, 0.1167237
3164.614, 0.1162581
3166.542, 0.1158251
3168.471, 0.1168776
3170.399, 0.1167905
3172.328, 0.1158093
3174.256, 0.1153068
3176.185, 0.1153868
3178.113, 0.1151772
3180.042, 0.1148721
3181.970, 0.1158277
3183.898, 0.1163029
3185.827, 0.1184701
3187.755, 0.1191254
3189.684, 0.1178077
3191.612, 0.1174443
3193.541, 0.1183256
3195.469, 0.1185425
3197.398, 0.1178360
3199.326, 0.1170617
3201.255, 0.1180438
3203.183, 0.1195066
3205.112, 0.1193451
3207.040, 0.1194871
3208.969, 0.1208141
3210.897, 0.1193672
3212.825, 0.1192006
3214.754, 0.1207485
3216.682, 0.1216822
3218.611, 0.1230396
3220.539, 0.1225595
3222.468, 0.1208345
3224.396, 0.1209364
3226.325, 0.1211366
3228.253, 0.1185842
3230.182, 0.1182740
3232.110, 0.1185262
3234.039, 0.1181556
3235.967, 0.1203084
3237.896, 0.1226993
3239.824, 0.1241728
3241.752, 0.1240521
3243.681, 0.1233387
3245.609, 0.1232326
3247.538, 0.1223379
3249.466, 0.1224438
3251.395, 0.1222205
3253.323, 0.1210783
3255.252, 0.1219337
3257.180, 0.1238499
3259.109, 0.1234128
3261.037, 0.1224601
3262.966, 0.1239272
3264.894, 0.1251768
3266.823, 0.1235573
3268.751, 0.1235815
3270.679, 0.1243562
3272.608, 0.1232633
3274.536, 0.1226466
3276.465, 0.1235301
3278.393, 0.1237751
3280.322, 0.1244280
3282.250, 0.1267951
3284.179, 0.1266627
3286.107, 0.1254664
3288.036, 0.1266790
3289.964, 0.1268837
3291.893, 0.1257273
3293.821, 0.1265095
3295.750, 0.1269441
3297.678, 0.1265995
3299.606, 0.1273713
3301.535, 0.1266815
3303.463, 0.1242617
3305.392, 0.1236244
3307.320, 0.1252044
3309.249, 0.1280948
3311.177, 0.1280979
3313.106, 0.1265065
3315.034, 0.1284333
3316.963, 0.1321092
3318.891, 0.1315448
3320.820, 0.1290750
3322.748, 0.1272180
3324.677, 0.1266772
3326.605, 0.1284420
3328.533, 0.1303484
3330.462, 0.1281052
3332.390, 0.1262689
3334.319, 0.1267542
3336.247, 0.1264494
3338.176, 0.1273443
3340.104, 0.1296604
3342.033, 0.1307503
3343.961, 0.1295758
3345.890, 0.1286210
3347.818, 0.1281971
3349.747, 0.1288077
3351.675, 0.1296225
3353.604, 0.1296491
3355.532, 0.1284118
3357.460, 0.1294955
3359.389, 0.1325852
3361.317, 0.1325563
3363.246, 0.1309301
3365.174, 0.1301404
3367.103, 0.1304768
3369.031, 0.1318375
3370.960, 0.1314712
3372.888, 0.1307478
3374.817, 0.1296977
3376.745, 0.1305277
3378.674, 0.1297992
3380.602, 0.1284883
3382.531, 0.1295075
3384.459, 0.1307875
3386.387, 0.1314488
3388.316, 0.1339394
3390.244, 0.1357063
3392.173, 0.1344308
3394.101, 0.1320140
3396.030, 0.1314922
3397.958, 0.1339015
3399.887, 0.1349510
3401.815, 0.1326724
3403.744, 0.1329877
3405.672, 0.1349136
3407.601, 0.1356691
3409.529, 0.1329839
3411.458, 0.1304477
3413.386, 0.1304668
3415.314, 0.1320625
3417.243, 0.1333492
3419.171, 0.1318444
3421.100, 0.1339220
3423.028, 0.1360965
3424.957, 0.1357793
3426.885, 0.1338148
3428.814, 0.1340801
3430.742, 0.1337687
3432.671, 0.1319050
3434.599, 0.1327935
3436.528, 0.1337722
3438.456, 0.1343756
3440.385, 0.1355505
3442.313, 0.1357909
3444.241, 0.1342334
3446.170, 0.1341979
3448.098, 0.1366518
3450.027, 0.1370929
3451.955, 0.1378658
3453.884, 0.1375280
3455.812, 0.1361102
3457.741, 0.1343426
3459.669, 0.1342821
3461.598, 0.1345726
3463.526, 0.1332115
3465.455, 0.1329090
3467.383, 0.1344219
3469.312, 0.1373522
3471.240, 0.1373580
3473.168, 0.1352986
3475.097, 0.1361313
3477.025, 0.1367472
3478.954, 0.1382354
3480.882, 0.1386640
3482.811, 0.1354617
3484.739, 0.1333288
3486.668, 0.1355078
3488.596, 0.1367441
3490.525, 0.1361832
3492.453, 0.1363579
3494.382, 0.1360979
3496.310, 0.1359686
3498.239, 0.1360691
3500.167, 0.1362901
3502.095, 0.1371792
3504.024, 0.1352852
3505.952, 0.1362274
3507.881, 0.1394179
3509.809, 0.1410401
3511.738, 0.1401298
3513.666, 0.1406819
3515.595, 0.1397434
3517.523, 0.1383977
3519.452, 0.1382531
3521.380, 0.1393782
3523.309, 0.1406643
3525.237, 0.1393033
3527.166, 0.1394513
3529.094, 0.1401182
3531.022, 0.1416255
3532.951, 0.1430316
3534.879, 0.1406095
3536.808, 0.1390525
3538.736, 0.1366376
3540.665, 0.1343879
3542.593, 0.1369709
3544.522, 0.1413384
3546.450, 0.1417982
3548.379, 0.1395888
3550.307, 0.1394845
3552.236, 0.1424656
3554.164, 0.1414344
3556.093, 0.1378402
3558.021, 0.1391375
3559.949, 0.1401922
3561.878, 0.1393520
3563.806, 0.1397271
3565.735, 0.1402333
3567.663, 0.1377912
3569.592, 0.1365398
3571.520, 0.1374708
3573.449, 0.1376153
3575.377, 0.1389449
3577.306, 0.1410746
3579.234, 0.1403251
3581.163, 0.1404132
3583.091, 0.1406018
3585.020, 0.1391084
3586.948, 0.1399847
3588.876, 0.1408819
3590.805, 0.1399399
3592.733, 0.1388265
3594.662, 0.1381326
3596.590, 0.1400513
3598.519, 0.1419728
3600.447, 0.1418981
3602.376, 0.1408267
3604.304, 0.1417009
3606.233, 0.1426644
3608.161, 0.1435006
3610.090, 0.1432773
3612.018, 0.1428483
3613.947, 0.1447540
3615.875, 0.1464686
3617.803, 0.1454319
3619.732, 0.1442086
3621.660, 0.1428859
3623.589, 0.1443301
3625.517, 0.1454177
3627.446, 0.1450177
3629.374, 0.1434176
3631.303, 0.1428628
3633.231, 0.1447295
3635.160, 0.1417085
3637.088, 0.1402563
3639.017, 0.1416990
3640.945, 0.1427621
3642.874, 0.1438795
3644.802, 0.1436685
3646.730, 0.1462392
3648.659, 0.1435878
3650.587, 0.1413552
3652.516, 0.1446805
3654.444, 0.1446852
3656.373, 0.1433259
3658.301, 0.1451154
3660.230, 0.1481349
3662.158, 0.1507234
3664.087, 0.1471901
3666.015, 0.1446928
3667.944, 0.1478385
3669.872, 0.1486223
3671.801, 0.1469161
3673.729, 0.1475788
3675.657, 0.1462024
3677.586, 0.1455931
3679.514, 0.1467771
3681.443, 0.1454890
3683.371, 0.1437321
3685.300, 0.1435656
3687.228, 0.1468906
3689.157, 0.1494879
3691.085, 0.1488962
3693.014, 0.1465546
3694.942, 0.1473360
3696.871, 0.1494652
3698.799, 0.1476063
3700.728, 0.1473679
3702.656, 0.1459737
3704.584, 0.1435649
3706.513, 0.1449866
3708.441, 0.1466876
3710.370, 0.1488529
3712.298, 0.1516689
3714.227, 0.1500927
3716.155, 0.1456110
3718.084, 0.1461301
3720.012, 0.1474064
3721.941, 0.1485541
3723.869, 0.1505099
3725.798, 0.1494699
3727.726, 0.1490562
3729.655, 0.1509472
3731.583, 0.1518592
3733.511, 0.1510665
3735.440, 0.1481189
3737.368, 0.1475752
3739.297, 0.1488844
3741.225, 0.1501091
3743.154, 0.1518285
3745.082, 0.1504434
3747.011, 0.1497595
3748.939, 0.1498795
3750.868, 0.1512755
3752.796, 0.1525922
3754.725, 0.1534415
3756.653, 0.1529570
3758.582, 0.1538915
3760.510, 0.1519664
3762.438, 0.1496666
3764.367, 0.1520813
3766.295, 0.1546926
3768.224, 0.1521922
3770.152, 0.1488377
3772.081, 0.1502188
3774.009, 0.1521506
3775.938, 0.1540548
3777.866, 0.1535935
3779.795, 0.1547149
3781.723, 0.1556190
3783.652, 0.1545245
3785.580, 0.1541165
3787.509, 0.1538397
3789.437, 0.1535434
3791.365, 0.1546222
3793.294, 0.1550058
3795.222, 0.1530675
3797.151, 0.1538280
3799.079, 0.1550973
3801.008, 0.1555138
3802.936, 0.1538903
3804.865, 0.1525653
3806.793, 0.1524646
3808.722, 0.1546933
3810.650, 0.1555016
3812.579, 0.1548150
3814.507, 0.1552825
3816.436, 0.1551425
3818.364, 0.1545382
3820.292, 0.1543584
3822.221, 0.1537450
3824.149, 0.1530041
3826.078, 0.1535156
3828.006, 0.1552448
3829.935, 0.1586815
3831.863, 0.1566102
3833.792, 0.1519368
3835.720, 0.1524211
3837.649, 0.1553480
3839.577, 0.1546960
3841.506, 0.1549387
3843.434, 0.1560430
3845.363, 0.1539736
3847.291, 0.1517586
3849.219, 0.1557665
3851.148, 0.1592299
3853.076, 0.1595297
3855.005, 0.1569650
3856.933, 0.1547152
3858.862, 0.1539207
3860.790, 0.1550847
3862.719, 0.1536535
3864.647, 0.1540410
3866.576, 0.1562109
3868.504, 0.1567476
3870.433, 0.1565185
3872.361, 0.1586268
3874.290, 0.1603316
3876.218, 0.1587144
3878.146, 0.1582621
3880.075, 0.1581572
3882.003, 0.1574654
3883.932, 0.1579416
3885.860, 0.1593098
3887.789, 0.1618005
3889.717, 0.1618235
3891.646, 0.1581424
3893.574, 0.1606248
3895.503, 0.1615156
3897.431, 0.1584754
3899.360, 0.1581065
3901.288, 0.1568262
3903.217, 0.1569253
3905.145, 0.1616758
3907.073, 0.1648267
3909.002, 0.1621203
3910.930, 0.1580128
3912.859, 0.1563244
3914.787, 0.1614544
3916.716, 0.1655494
3918.644, 0.1628347
3920.573, 0.1581236
3922.501, 0.1573080
3924.430, 0.1591328
3926.358, 0.1587546
3928.287, 0.1581027
3930.215, 0.1575844
3932.144, 0.1581765
3934.072, 0.1616566
3936.000, 0.1622778
3937.929, 0.1613132
3939.857, 0.1618856
3941.786, 0.1648042
3943.714, 0.1678811
3945.643, 0.1650141
3947.571, 0.1605533
3949.500, 0.1615705
3951.428, 0.1650840
3953.357, 0.1646175
3955.285, 0.1664401
3957.214, 0.1677752
3959.142, 0.1644485
3961.071, 0.1635066
3962.999, 0.1598829
3964.927, 0.1600041
3966.856, 0.1649821
3968.784, 0.1668320
3970.713, 0.1670797
3972.641, 0.1666966
3974.570, 0.1669591
3976.498, 0.1636385
3978.427, 0.1614574
3980.355, 0.1670474
3982.284, 0.1672052
3984.212, 0.1639739
3986.141, 0.1634290
3988.069, 0.1676905
3989.998, 0.1703400
3991.926, 0.1701114
3993.854, 0.1670243
3995.783, 0.1667602
3997.711, 0.1701175
3999.640, 0.1701995
##END=



