##NAMES=Chabazite-Ca
##RRUFFID=R050014
##IDEAL CHEMISTRY=Ca_2_Al_4_Si_8_O_24_&#183;13H_2_O
##LOCALITY=Tablo Mountain, Baja California, Mexico
##OWNER=RRUFF
##SOURCE=University of Arizona Mineral Museum
##DESCRIPTION=Light tan colored rhombohedral single crystals
##STATUS=The identification of this mineral has been confirmed by X-ray diffraction and chemical analysis
##URL=rruff.info/R050014
##MEASURED CHEMISTRY=(Ca_0.72_Mg_0.11_K_0.09_Sr_0.06_Na_0.01_)_Σ=1_(Si_4.12_Al_1.88_)O_12_·6H_2_O
3.991926e+002, 0.000000e+000
4.011211e+002, 1.844137e-001
4.030496e+002, 1.853396e-001
4.049780e+002, 1.869198e-001
4.069065e+002, 1.867581e-001
4.088350e+002, 1.819052e-001
4.107634e+002, 1.756053e-001
4.126919e+002, 1.708798e-001
4.146204e+002, 1.662484e-001
4.165488e+002, 1.632846e-001
4.184773e+002, 1.581707e-001
4.204058e+002, 1.542783e-001
4.223342e+002, 1.532213e-001
4.242627e+002, 1.491708e-001
4.261912e+002, 1.460223e-001
4.281196e+002, 1.425587e-001
4.300481e+002, 1.401438e-001
4.319766e+002, 1.400341e-001
4.339050e+002, 1.407613e-001
4.358335e+002, 1.410816e-001
4.377620e+002, 1.423576e-001
4.396904e+002, 1.435888e-001
4.416189e+002, 1.443755e-001
4.435474e+002, 1.451471e-001
4.454758e+002, 1.461263e-001
4.474043e+002, 1.465603e-001
4.493328e+002, 1.468683e-001
4.512612e+002, 1.478037e-001
4.531897e+002, 1.486218e-001
4.551182e+002, 1.492284e-001
4.570466e+002, 1.489140e-001
4.589751e+002, 1.481205e-001
4.609036e+002, 1.462517e-001
4.628320e+002, 1.435840e-001
4.647605e+002, 1.404608e-001
4.666890e+002, 1.372672e-001
4.686174e+002, 1.357295e-001
4.705459e+002, 1.334255e-001
4.724744e+002, 1.298771e-001
4.744028e+002, 1.267727e-001
4.763313e+002, 1.237269e-001
4.782598e+002, 1.209810e-001
4.801882e+002, 1.182729e-001
4.821167e+002, 1.156951e-001
4.840452e+002, 1.138621e-001
4.859736e+002, 1.126880e-001
4.879021e+002, 1.120107e-001
4.898306e+002, 1.114797e-001
4.917590e+002, 1.111445e-001
4.936875e+002, 1.116339e-001
4.956160e+002, 1.126165e-001
4.975444e+002, 1.137006e-001
4.994729e+002, 1.149397e-001
5.014014e+002, 1.162899e-001
5.033298e+002, 1.177373e-001
5.052583e+002, 1.189494e-001
5.071868e+002, 1.203624e-001
5.091152e+002, 1.222376e-001
5.110437e+002, 1.234596e-001
5.129722e+002, 1.231480e-001
5.149006e+002, 1.220926e-001
5.168291e+002, 1.208727e-001
5.187576e+002, 1.189053e-001
5.206860e+002, 1.155985e-001
5.226145e+002, 1.115604e-001
5.245430e+002, 1.078571e-001
5.264714e+002, 1.044646e-001
5.283999e+002, 1.010323e-001
5.303284e+002, 9.739043e-002
5.322568e+002, 9.405766e-002
5.341853e+002, 9.175838e-002
5.361138e+002, 8.972307e-002
5.380422e+002, 8.786076e-002
5.399707e+002, 8.667300e-002
5.418992e+002, 8.597621e-002
5.438276e+002, 8.585127e-002
5.457561e+002, 8.642601e-002
5.476846e+002, 8.705186e-002
5.496130e+002, 8.760880e-002
5.515415e+002, 8.794631e-002
5.534700e+002, 8.816203e-002
5.553984e+002, 8.913498e-002
5.573269e+002, 9.008987e-002
5.592554e+002, 9.141706e-002
5.611838e+002, 9.281489e-002
5.631123e+002, 9.341001e-002
5.650408e+002, 9.430348e-002
5.669692e+002, 9.578031e-002
5.688977e+002, 9.698075e-002
5.708262e+002, 9.823736e-002
5.727546e+002, 9.928846e-002
5.746831e+002, 1.001400e-001
5.766116e+002, 1.016909e-001
5.785400e+002, 1.035554e-001
5.804685e+002, 1.048054e-001
5.823970e+002, 1.057594e-001
5.843254e+002, 1.067786e-001
5.862539e+002, 1.081700e-001
5.881824e+002, 1.097158e-001
5.901108e+002, 1.110510e-001
5.920393e+002, 1.122892e-001
5.939678e+002, 1.137909e-001
5.958962e+002, 1.155242e-001
5.978247e+002, 1.165633e-001
5.997532e+002, 1.173546e-001
6.016816e+002, 1.183404e-001
6.036101e+002, 1.196482e-001
6.055386e+002, 1.206009e-001
6.074670e+002, 1.215774e-001
6.093955e+002, 1.220832e-001
6.113240e+002, 1.222309e-001
6.132524e+002, 1.221207e-001
6.151809e+002, 1.218611e-001
6.171094e+002, 1.212085e-001
6.190378e+002, 1.205872e-001
6.209663e+002, 1.201131e-001
6.228948e+002, 1.189751e-001
6.248232e+002, 1.176227e-001
6.267517e+002, 1.166502e-001
6.286802e+002, 1.154331e-001
6.306086e+002, 1.136948e-001
6.325371e+002, 1.119377e-001
6.344656e+002, 1.099291e-001
6.363940e+002, 1.079279e-001
6.383225e+002, 1.053938e-001
6.402510e+002, 1.024999e-001
6.421794e+002, 9.996897e-002
6.441079e+002, 9.731918e-002
6.460364e+002, 9.444246e-002
6.479648e+002, 9.177512e-002
6.498933e+002, 8.895808e-002
6.518218e+002, 8.599415e-002
6.537502e+002, 8.317821e-002
6.556787e+002, 8.073564e-002
6.576072e+002, 7.853687e-002
6.595356e+002, 7.669023e-002
6.614641e+002, 7.536443e-002
6.633926e+002, 7.409769e-002
6.653210e+002, 7.272946e-002
6.672495e+002, 7.196881e-002
6.691780e+002, 7.101604e-002
6.711064e+002, 7.022375e-002
6.730349e+002, 6.990685e-002
6.749634e+002, 6.999129e-002
6.768918e+002, 7.022697e-002
6.788203e+002, 7.014706e-002
6.807488e+002, 6.984466e-002
6.826772e+002, 6.934228e-002
6.846057e+002, 6.912865e-002
6.865342e+002, 6.928156e-002
6.884626e+002, 6.924396e-002
6.903911e+002, 6.912032e-002
6.923196e+002, 6.908480e-002
6.942480e+002, 6.914560e-002
6.961765e+002, 6.916225e-002
6.981050e+002, 6.911287e-002
7.000334e+002, 6.902952e-002
7.019619e+002, 6.877373e-002
7.038904e+002, 6.855707e-002
7.058188e+002, 6.849263e-002
7.077473e+002, 6.836244e-002
7.096758e+002, 6.811287e-002
7.116042e+002, 6.764356e-002
7.135327e+002, 6.713484e-002
7.154612e+002, 6.688886e-002
7.173896e+002, 6.657455e-002
7.193181e+002, 6.626932e-002
7.212466e+002, 6.574875e-002
7.231750e+002, 6.504232e-002
7.251035e+002, 6.428859e-002
7.270320e+002, 6.360433e-002
7.289604e+002, 6.322128e-002
7.308889e+002, 6.259635e-002
7.328174e+002, 6.165768e-002
7.347458e+002, 6.051265e-002
7.366743e+002, 5.950727e-002
7.386028e+002, 5.867525e-002
7.405313e+002, 5.743766e-002
7.424597e+002, 5.639954e-002
7.443882e+002, 5.577824e-002
7.463167e+002, 5.496808e-002
7.482451e+002, 5.402121e-002
7.501736e+002, 5.292808e-002
7.521021e+002, 5.212257e-002
7.540305e+002, 5.168586e-002
7.559590e+002, 5.107352e-002
7.578875e+002, 5.050557e-002
7.598159e+002, 4.989605e-002
7.617444e+002, 4.912334e-002
7.636729e+002, 4.841720e-002
7.656013e+002, 4.787718e-002
7.675298e+002, 4.717013e-002
7.694583e+002, 4.611792e-002
7.713867e+002, 4.511726e-002
7.733152e+002, 4.417101e-002
7.752437e+002, 4.321034e-002
7.771721e+002, 4.222664e-002
7.791006e+002, 4.104614e-002
7.810291e+002, 3.995802e-002
7.829575e+002, 3.901133e-002
7.848860e+002, 3.805817e-002
7.868145e+002, 3.687935e-002
7.887429e+002, 3.568787e-002
7.906714e+002, 3.483214e-002
7.925999e+002, 3.432667e-002
7.945283e+002, 3.359305e-002
7.964568e+002, 3.279122e-002
7.983853e+002, 3.216665e-002
8.003137e+002, 3.176737e-002
8.022422e+002, 3.129303e-002
8.041707e+002, 3.056245e-002
8.060991e+002, 3.011206e-002
8.080276e+002, 3.002581e-002
8.099561e+002, 2.994840e-002
8.118845e+002, 2.976790e-002
8.138130e+002, 2.949315e-002
8.157415e+002, 2.917680e-002
8.176699e+002, 2.905685e-002
8.195984e+002, 2.918679e-002
8.215269e+002, 2.927960e-002
8.234553e+002, 2.922660e-002
8.253838e+002, 2.921181e-002
8.273123e+002, 2.914244e-002
8.292407e+002, 2.924026e-002
8.311692e+002, 2.961704e-002
8.330977e+002, 2.978483e-002
8.350261e+002, 3.032912e-002
8.369546e+002, 3.106549e-002
8.388831e+002, 3.196138e-002
8.408115e+002, 3.231790e-002
8.427400e+002, 3.209226e-002
8.446685e+002, 3.203389e-002
8.465969e+002, 3.228247e-002
8.485254e+002, 3.231319e-002
8.504539e+002, 3.256561e-002
8.523823e+002, 3.325246e-002
8.543108e+002, 3.393012e-002
8.562393e+002, 3.455644e-002
8.581677e+002, 3.506880e-002
8.600962e+002, 3.578883e-002
8.620247e+002, 3.643414e-002
8.639531e+002, 3.703632e-002
8.658816e+002, 3.765374e-002
8.678101e+002, 3.837331e-002
8.697385e+002, 3.908297e-002
8.716670e+002, 3.963446e-002
8.735955e+002, 4.053868e-002
8.755239e+002, 4.172620e-002
8.774524e+002, 4.250583e-002
8.793809e+002, 4.309838e-002
8.813093e+002, 4.400314e-002
8.832378e+002, 4.532670e-002
8.851663e+002, 4.657070e-002
8.870947e+002, 4.754148e-002
8.890232e+002, 4.869725e-002
8.909517e+002, 5.029146e-002
8.928801e+002, 5.184637e-002
8.948085e+002, 5.327221e-002
8.967370e+002, 5.488354e-002
8.986655e+002, 5.686932e-002
9.005939e+002, 5.916754e-002
9.025224e+002, 6.141092e-002
9.044509e+002, 6.352659e-002
9.063793e+002, 6.617411e-002
9.083078e+002, 6.927962e-002
9.102363e+002, 7.265431e-002
9.121647e+002, 7.605036e-002
9.140932e+002, 7.977896e-002
9.160217e+002, 8.424144e-002
9.179501e+002, 8.886495e-002
9.198786e+002, 9.380241e-002
9.218071e+002, 9.919611e-002
9.237355e+002, 1.054201e-001
9.256640e+002, 1.124178e-001
9.275925e+002, 1.197311e-001
9.295209e+002, 1.277778e-001
9.314494e+002, 1.362345e-001
9.333779e+002, 1.453948e-001
9.353063e+002, 1.556045e-001
9.372348e+002, 1.663350e-001
9.391633e+002, 1.774881e-001
9.410917e+002, 1.893049e-001
9.430202e+002, 2.011148e-001
9.449487e+002, 2.131079e-001
9.468771e+002, 2.246740e-001
9.488056e+002, 2.356614e-001
9.507341e+002, 2.464176e-001
9.526625e+002, 2.562095e-001
9.545910e+002, 2.654401e-001
9.565195e+002, 2.739671e-001
9.584479e+002, 2.815214e-001
9.603764e+002, 2.885358e-001
9.623049e+002, 2.946910e-001
9.642333e+002, 3.002335e-001
9.661618e+002, 3.054518e-001
9.680903e+002, 3.102326e-001
9.700187e+002, 3.146952e-001
9.719472e+002, 3.188028e-001
9.738757e+002, 3.223858e-001
9.758041e+002, 3.254445e-001
9.777326e+002, 3.282040e-001
9.796611e+002, 3.305506e-001
9.815895e+002, 3.323855e-001
9.835180e+002, 3.334461e-001
9.854465e+002, 3.339794e-001
9.873749e+002, 3.341921e-001
9.893034e+002, 3.337155e-001
9.912319e+002, 3.321552e-001
9.931603e+002, 3.304381e-001
9.950888e+002, 3.283284e-001
9.970173e+002, 3.259404e-001
9.989457e+002, 3.231340e-001
1.000874e+003, 3.199520e-001
1.002803e+003, 3.168196e-001
1.004731e+003, 3.129463e-001
1.006660e+003, 3.086700e-001
1.008588e+003, 3.044949e-001
1.010517e+003, 3.002378e-001
1.012445e+003, 2.957788e-001
1.014373e+003, 2.907959e-001
1.016302e+003, 2.856177e-001
1.018230e+003, 2.802478e-001
1.020159e+003, 2.743877e-001
1.022087e+003, 2.683415e-001
1.024016e+003, 2.622413e-001
1.025944e+003, 2.560241e-001
1.027873e+003, 2.495487e-001
1.029801e+003, 2.427935e-001
1.031730e+003, 2.358382e-001
1.033658e+003, 2.290266e-001
1.035587e+003, 2.218225e-001
1.037515e+003, 2.145133e-001
1.039444e+003, 2.074366e-001
1.041372e+003, 2.002122e-001
1.043301e+003, 1.930473e-001
1.045229e+003, 1.861504e-001
1.047157e+003, 1.794309e-001
1.049086e+003, 1.728460e-001
1.051014e+003, 1.663805e-001
1.052943e+003, 1.606157e-001
1.054871e+003, 1.554721e-001
1.056800e+003, 1.502830e-001
1.058728e+003, 1.456378e-001
1.060657e+003, 1.416519e-001
1.062585e+003, 1.382391e-001
1.064514e+003, 1.353605e-001
1.066442e+003, 1.325924e-001
1.068371e+003, 1.301125e-001
1.070299e+003, 1.279216e-001
1.072228e+003, 1.259851e-001
1.074156e+003, 1.243154e-001
1.076084e+003, 1.228601e-001
1.078013e+003, 1.216431e-001
1.079941e+003, 1.204334e-001
1.081870e+003, 1.191975e-001
1.083798e+003, 1.181876e-001
1.085727e+003, 1.173965e-001
1.087655e+003, 1.164189e-001
1.089584e+003, 1.152612e-001
1.091512e+003, 1.140707e-001
1.093441e+003, 1.130390e-001
1.095369e+003, 1.122146e-001
1.097298e+003, 1.112961e-001
1.099226e+003, 1.101327e-001
1.101155e+003, 1.090875e-001
1.103083e+003, 1.083556e-001
1.105011e+003, 1.074750e-001
1.106940e+003, 1.064331e-001
1.108868e+003, 1.054689e-001
1.110797e+003, 1.044638e-001
1.112725e+003, 1.032820e-001
1.114654e+003, 1.020702e-001
1.116582e+003, 1.008257e-001
1.118511e+003, 9.952410e-002
1.120439e+003, 9.845024e-002
1.122368e+003, 9.756362e-002
1.124296e+003, 9.655449e-002
1.126225e+003, 9.522400e-002
1.128153e+003, 9.393436e-002
1.130082e+003, 9.262244e-002
1.132010e+003, 9.116847e-002
1.133938e+003, 8.988385e-002
1.135867e+003, 8.866594e-002
1.137795e+003, 8.747400e-002
1.139724e+003, 8.606724e-002
1.141652e+003, 8.450893e-002
1.143581e+003, 8.311310e-002
1.145509e+003, 8.143828e-002
1.147438e+003, 7.962359e-002
1.149366e+003, 7.806861e-002
1.151295e+003, 7.641499e-002
1.153223e+003, 7.471100e-002
1.155152e+003, 7.291646e-002
1.157080e+003, 7.106876e-002
1.159009e+003, 6.911973e-002
1.160937e+003, 6.706960e-002
1.162865e+003, 6.508805e-002
1.164794e+003, 6.317130e-002
1.166722e+003, 6.111323e-002
1.168651e+003, 5.876993e-002
1.170579e+003, 5.623021e-002
1.172508e+003, 5.397084e-002
1.174436e+003, 5.186066e-002
1.176365e+003, 4.958474e-002
1.178293e+003, 4.715392e-002
1.180222e+003, 4.463054e-002
1.182150e+003, 4.222331e-002
1.184079e+003, 3.985864e-002
1.186007e+003, 3.756521e-002
1.187936e+003, 3.554763e-002
1.189864e+003, 3.383942e-002
1.191792e+003, 3.195919e-002
1.193721e+003, 2.992165e-002
1.195649e+003, 2.811133e-002
1.197578e+003, 2.641228e-002
1.199506e+003, 2.476365e-002
1.201435e+003, 2.352772e-002
1.203363e+003, 2.228468e-002
1.205292e+003, 2.106108e-002
1.207220e+003, 1.998056e-002
1.209149e+003, 1.894753e-002
1.211077e+003, 1.808780e-002
1.213006e+003, 1.715899e-002
1.214934e+003, 1.638007e-002
1.216863e+003, 1.579544e-002
1.218791e+003, 1.516188e-002
1.220719e+003, 1.462514e-002
1.222648e+003, 1.396639e-002
1.224576e+003, 1.338715e-002
1.226505e+003, 1.283112e-002
1.228433e+003, 1.241216e-002
1.230362e+003, 1.194191e-002
1.232290e+003, 1.157682e-002
1.234219e+003, 1.137338e-002
1.236147e+003, 1.103760e-002
1.238076e+003, 1.063267e-002
1.240004e+003, 1.025540e-002
1.241933e+003, 9.970325e-003
1.243861e+003, 9.638709e-003
1.245790e+003, 9.351685e-003
1.247718e+003, 9.302310e-003
1.249646e+003, 9.301893e-003
1.251575e+003, 9.104262e-003
1.253503e+003, 8.829281e-003
1.255432e+003, 8.634535e-003
1.257360e+003, 8.449013e-003
1.259289e+003, 8.100241e-003
1.261217e+003, 7.935024e-003
1.263146e+003, 7.840871e-003
1.265074e+003, 7.603490e-003
1.267003e+003, 7.564077e-003
1.268931e+003, 7.613399e-003
1.270860e+003, 7.649331e-003
1.272788e+003, 7.603345e-003
1.274717e+003, 7.452669e-003
1.276645e+003, 7.457970e-003
1.278573e+003, 7.367277e-003
1.280502e+003, 7.272620e-003
1.282430e+003, 7.334728e-003
1.284359e+003, 7.327648e-003
1.286287e+003, 7.291969e-003
1.288216e+003, 7.181501e-003
1.290144e+003, 7.053887e-003
1.292073e+003, 7.103028e-003
1.294001e+003, 7.073164e-003
1.295930e+003, 7.118992e-003
1.297858e+003, 7.092948e-003
1.299787e+003, 7.029831e-003
1.301715e+003, 7.083625e-003
1.303644e+003, 7.147969e-003
1.305572e+003, 7.177118e-003
1.307500e+003, 7.193801e-003
1.309429e+003, 7.106560e-003
1.311357e+003, 6.956841e-003
1.313286e+003, 7.050925e-003
1.315214e+003, 7.090480e-003
1.317143e+003, 6.918536e-003
1.319071e+003, 6.853411e-003
1.321000e+003, 6.914932e-003
1.322928e+003, 6.954079e-003
1.324857e+003, 6.998895e-003
1.326785e+003, 7.059132e-003
1.328714e+003, 6.908453e-003
1.330642e+003, 6.910369e-003
1.332571e+003, 7.036286e-003
1.334499e+003, 7.115207e-003
1.336427e+003, 7.190570e-003
1.338356e+003, 7.134329e-003
1.340284e+003, 6.874037e-003
1.342213e+003, 6.842042e-003
1.344141e+003, 6.991445e-003
1.346070e+003, 7.110958e-003
1.347998e+003, 7.168035e-003
1.349927e+003, 7.052143e-003
1.351855e+003, 7.025853e-003
1.353784e+003, 7.318777e-003
1.355712e+003, 7.602624e-003
1.357641e+003, 7.759713e-003
1.359569e+003, 7.776338e-003
1.361498e+003, 7.684998e-003
1.363426e+003, 7.719531e-003
1.365354e+003, 7.902295e-003
1.367283e+003, 7.952717e-003
1.369211e+003, 8.281922e-003
1.371140e+003, 8.555887e-003
1.373068e+003, 8.395049e-003
1.374997e+003, 8.329816e-003
1.376925e+003, 8.613876e-003
1.378854e+003, 8.869503e-003
1.380782e+003, 9.161798e-003
1.382711e+003, 9.413602e-003
1.384639e+003, 9.726852e-003
1.386568e+003, 9.863987e-003
1.388496e+003, 9.827116e-003
1.390424e+003, 1.007671e-002
1.392353e+003, 1.047873e-002
1.394281e+003, 1.073919e-002
1.396210e+003, 1.096498e-002
1.398138e+003, 1.109891e-002
1.400067e+003, 1.113548e-002
1.401995e+003, 1.149305e-002
1.403924e+003, 1.188808e-002
1.405852e+003, 1.208852e-002
1.407781e+003, 1.216563e-002
1.409709e+003, 1.200428e-002
1.411638e+003, 1.197645e-002
1.413566e+003, 1.193461e-002
1.415495e+003, 1.182355e-002
1.417423e+003, 1.183937e-002
1.419351e+003, 1.185668e-002
1.421280e+003, 1.197803e-002
1.423208e+003, 1.225736e-002
1.425137e+003, 1.227673e-002
1.427065e+003, 1.222964e-002
1.428994e+003, 1.244166e-002
1.430922e+003, 1.263479e-002
1.432851e+003, 1.279635e-002
1.434779e+003, 1.298325e-002
1.436708e+003, 1.306781e-002
1.438636e+003, 1.320013e-002
1.440565e+003, 1.329866e-002
1.442493e+003, 1.302508e-002
1.444422e+003, 1.284740e-002
1.446350e+003, 1.291391e-002
1.448278e+003, 1.305471e-002
1.450207e+003, 1.303372e-002
1.452135e+003, 1.287544e-002
1.454064e+003, 1.274061e-002
1.455992e+003, 1.241575e-002
1.457921e+003, 1.218710e-002
1.459849e+003, 1.232897e-002
1.461778e+003, 1.212459e-002
1.463706e+003, 1.184125e-002
1.465635e+003, 1.162619e-002
1.467563e+003, 1.153928e-002
1.469492e+003, 1.131953e-002
1.471420e+003, 1.093487e-002
1.473349e+003, 1.062474e-002
1.475277e+003, 1.074199e-002
1.477205e+003, 1.060188e-002
1.479134e+003, 1.067114e-002
1.481062e+003, 1.069923e-002
1.482991e+003, 1.038721e-002
1.484919e+003, 1.009401e-002
1.486848e+003, 9.893871e-003
1.488776e+003, 9.693967e-003
1.490705e+003, 9.699326e-003
1.492633e+003, 9.754991e-003
1.494562e+003, 9.587115e-003
1.496490e+003, 9.384953e-003
1.498419e+003, 9.141032e-003
1.500347e+003, 8.976033e-003
1.502276e+003, 9.026266e-003
1.504204e+003, 8.853733e-003
1.506132e+003, 8.528119e-003
1.508061e+003, 8.525572e-003
1.509989e+003, 8.604569e-003
1.511918e+003, 8.545577e-003
1.513846e+003, 8.517797e-003
1.515775e+003, 8.531143e-003
1.517703e+003, 8.361067e-003
1.519632e+003, 8.455295e-003
1.521560e+003, 8.498535e-003
1.523489e+003, 8.852617e-003
1.525417e+003, 8.885930e-003
1.527346e+003, 8.888602e-003
1.529274e+003, 8.969153e-003
1.531203e+003, 8.892256e-003
1.533131e+003, 8.914239e-003
1.535059e+003, 9.083224e-003
1.536988e+003, 9.271533e-003
1.538916e+003, 9.070244e-003
1.540845e+003, 8.991356e-003
1.542773e+003, 9.410912e-003
1.544702e+003, 9.786750e-003
1.546630e+003, 1.003699e-002
1.548559e+003, 1.033505e-002
1.550487e+003, 1.019248e-002
1.552416e+003, 1.022082e-002
1.554344e+003, 1.049130e-002
1.556273e+003, 1.106677e-002
1.558201e+003, 1.120139e-002
1.560130e+003, 1.115516e-002
1.562058e+003, 1.148144e-002
1.563986e+003, 1.174290e-002
1.565915e+003, 1.218668e-002
1.567843e+003, 1.258631e-002
1.569772e+003, 1.249328e-002
1.571700e+003, 1.257995e-002
1.573629e+003, 1.265009e-002
1.575557e+003, 1.307038e-002
1.577486e+003, 1.332697e-002
1.579414e+003, 1.365228e-002
1.581343e+003, 1.394811e-002
1.583271e+003, 1.433732e-002
1.585200e+003, 1.481784e-002
1.587128e+003, 1.520495e-002
1.589057e+003, 1.559172e-002
1.590985e+003, 1.594759e-002
1.592913e+003, 1.644257e-002
1.594842e+003, 1.686597e-002
1.596770e+003, 1.734063e-002
1.598699e+003, 1.791818e-002
1.600627e+003, 1.837457e-002
1.602556e+003, 1.903873e-002
1.604484e+003, 1.994668e-002
1.606413e+003, 2.092388e-002
1.608341e+003, 2.196359e-002
1.610270e+003, 2.311131e-002
1.612198e+003, 2.453452e-002
1.614127e+003, 2.597140e-002
1.616055e+003, 2.738493e-002
1.617984e+003, 2.874131e-002
1.619912e+003, 3.031011e-002
1.621840e+003, 3.192468e-002
1.623769e+003, 3.364966e-002
1.625697e+003, 3.553468e-002
1.627626e+003, 3.741338e-002
1.629554e+003, 3.895883e-002
1.631483e+003, 4.050774e-002
1.633411e+003, 4.162385e-002
1.635340e+003, 4.226189e-002
1.637268e+003, 4.310767e-002
1.639197e+003, 4.400592e-002
1.641125e+003, 4.431462e-002
1.643054e+003, 4.434061e-002
1.644982e+003, 4.436019e-002
1.646911e+003, 4.406649e-002
1.648839e+003, 4.376430e-002
1.650767e+003, 4.320491e-002
1.652696e+003, 4.225307e-002
1.654624e+003, 4.143497e-002
1.656553e+003, 4.097283e-002
1.658481e+003, 3.988326e-002
1.660410e+003, 3.867318e-002
1.662338e+003, 3.731637e-002
1.664267e+003, 3.606414e-002
1.666195e+003, 3.488496e-002
1.668124e+003, 3.328332e-002
1.670052e+003, 3.147563e-002
1.671981e+003, 3.009697e-002
1.673909e+003, 2.848663e-002
1.675838e+003, 2.659050e-002
1.677766e+003, 2.515142e-002
1.679694e+003, 2.389019e-002
1.681623e+003, 2.278480e-002
1.683551e+003, 2.138386e-002
1.685480e+003, 1.964946e-002
1.687408e+003, 1.844437e-002
1.689337e+003, 1.733858e-002
1.691265e+003, 1.663405e-002
1.693194e+003, 1.577246e-002
1.695122e+003, 1.461318e-002
1.697051e+003, 1.352917e-002
1.698979e+003, 1.290329e-002
1.700908e+003, 1.162849e-002
1.702836e+003, 1.133753e-002
1.704765e+003, 1.102510e-002
1.706693e+003, 1.072900e-002
1.708621e+003, 1.062036e-002
1.710550e+003, 1.027990e-002
1.712478e+003, 9.408060e-003
1.714407e+003, 8.623935e-003
1.716335e+003, 8.277125e-003
1.718264e+003, 8.012088e-003
1.720192e+003, 8.002131e-003
1.722121e+003, 7.990296e-003
1.724049e+003, 7.947493e-003
1.725978e+003, 7.734005e-003
1.727906e+003, 7.275866e-003
1.729835e+003, 6.835375e-003
1.731763e+003, 6.684963e-003
1.733692e+003, 6.438802e-003
1.735620e+003, 5.944437e-003
1.737548e+003, 5.593637e-003
1.739477e+003, 5.098611e-003
1.741405e+003, 4.872581e-003
1.743334e+003, 4.714699e-003
1.745262e+003, 4.750759e-003
1.747191e+003, 4.832320e-003
1.749119e+003, 4.759706e-003
1.751048e+003, 4.859440e-003
1.752976e+003, 5.035743e-003
1.754905e+003, 5.225400e-003
1.756833e+003, 5.151635e-003
1.758762e+003, 5.093582e-003
1.760690e+003, 5.118379e-003
1.762619e+003, 4.779155e-003
1.764547e+003, 4.876687e-003
1.766475e+003, 5.151974e-003
1.768404e+003, 4.990015e-003
1.770332e+003, 4.823299e-003
1.772261e+003, 4.519840e-003
1.774189e+003, 4.627258e-003
1.776118e+003, 4.843588e-003
1.778046e+003, 4.797998e-003
1.779975e+003, 4.749477e-003
1.781903e+003, 4.877560e-003
1.783832e+003, 5.065232e-003
1.785760e+003, 5.055676e-003
1.787689e+003, 4.832115e-003
1.789617e+003, 4.595041e-003
1.791546e+003, 4.447687e-003
1.793474e+003, 4.206618e-003
1.795402e+003, 4.307587e-003
1.797331e+003, 4.402160e-003
1.799259e+003, 4.388696e-003
1.801188e+003, 4.284069e-003
1.803116e+003, 4.231681e-003
1.805045e+003, 4.342036e-003
1.806973e+003, 4.246639e-003
1.808902e+003, 4.005384e-003
1.810830e+003, 3.919745e-003
1.812759e+003, 4.138428e-003
1.814687e+003, 3.939443e-003
1.816616e+003, 3.914059e-003
1.818544e+003, 4.415032e-003
1.820473e+003, 4.250751e-003
1.822401e+003, 3.600285e-003
1.824329e+003, 3.382779e-003
1.826258e+003, 3.442597e-003
1.828186e+003, 3.823921e-003
1.830115e+003, 3.660935e-003
1.832043e+003, 3.546866e-003
1.833972e+003, 3.473168e-003
1.835900e+003, 3.799468e-003
1.837829e+003, 3.791525e-003
1.839757e+003, 3.458357e-003
1.841686e+003, 3.401571e-003
1.843614e+003, 3.022173e-003
1.845543e+003, 2.961888e-003
1.847471e+003, 3.229181e-003
1.849400e+003, 2.799163e-003
1.851328e+003, 2.640621e-003
1.853256e+003, 2.903544e-003
1.855185e+003, 3.305044e-003
1.857113e+003, 3.309205e-003
1.859042e+003, 3.013822e-003
1.860970e+003, 2.891642e-003
1.862899e+003, 3.055959e-003
1.864827e+003, 3.028005e-003
1.866756e+003, 2.801392e-003
1.868684e+003, 2.658864e-003
1.870613e+003, 2.680328e-003
1.872541e+003, 2.549696e-003
1.874470e+003, 2.371837e-003
1.876398e+003, 2.031948e-003
1.878327e+003, 1.978512e-003
1.880255e+003, 1.921019e-003
1.882183e+003, 1.770939e-003
1.884112e+003, 1.586922e-003
1.886040e+003, 1.879170e-003
1.887969e+003, 2.070580e-003
1.889897e+003, 1.844652e-003
1.891826e+003, 1.264013e-003
1.893754e+003, 1.292674e-003
1.895683e+003, 1.112524e-003
1.897611e+003, 1.177559e-003
1.899540e+003, 1.574676e-003
1.901468e+003, 1.323011e-003
1.903397e+003, 9.282190e-004
1.905325e+003, 4.349350e-004
1.907254e+003, 7.766925e-004
1.909182e+003, 1.402231e-003
1.911110e+003, 1.389426e-003
1.913039e+003, 8.221639e-004
1.914967e+003, 6.871481e-005
1.916896e+003, 6.057016e-004
1.918824e+003, 1.163550e-003
1.920753e+003, 3.752194e-004
1.922681e+003, -2.510941e-004
1.924610e+003, -1.398936e-004
1.926538e+003, -8.970079e-004
1.928467e+003, -1.638535e-003
1.930395e+003, -1.490593e-003
1.932324e+003, -1.803853e-003
1.934252e+003, -1.598575e-003
1.936181e+003, -1.072296e-003
1.938109e+003, -1.208390e-003
1.940037e+003, -1.406051e-003
1.941966e+003, -2.164898e-003
1.943894e+003, -2.140190e-003
1.945823e+003, -1.818110e-003
1.947751e+003, -1.847279e-003
1.949680e+003, -1.587788e-003
1.951608e+003, -2.088333e-003
1.953537e+003, -2.816899e-003
1.955465e+003, -3.855907e-003
1.957394e+003, -4.640870e-003
1.959322e+003, -4.902073e-003
1.961251e+003, -4.831319e-003
1.963179e+003, -4.375191e-003
1.965108e+003, -3.222483e-003
1.967036e+003, -3.742123e-003
1.968964e+003, -5.142396e-003
1.970893e+003, -5.468098e-003
1.972821e+003, -6.105468e-003
1.974750e+003, -6.833653e-003
1.976678e+003, -5.856841e-003
1.978607e+003, -2.270576e-003
1.980535e+003, -2.498867e-004
1.982464e+003, -4.723967e-004
1.984392e+003, -2.243633e-003
1.986321e+003, -3.687445e-003
1.988249e+003, -4.352640e-003
1.990178e+003, -4.310873e-003
1.992106e+003, -4.414270e-003
1.994035e+003, -4.643602e-003
1.995963e+003, -4.054048e-003
1.997891e+003, -3.251100e-003
1.999820e+003, -3.533239e-003
2.001748e+003, -4.847395e-003
2.003677e+003, -5.778435e-003
2.005605e+003, -5.643065e-003
2.007534e+003, -5.928859e-003
2.009462e+003, -6.775529e-003
2.011391e+003, -7.143813e-003
2.013319e+003, -7.206234e-003
2.015248e+003, -6.085789e-003
2.017176e+003, -4.818851e-003
2.019105e+003, -4.295657e-003
2.021033e+003, -3.680183e-003
2.022962e+003, -4.394780e-003
2.024890e+003, -5.140421e-003
2.026818e+003, -5.228668e-003
2.028747e+003, -5.581134e-003
2.030675e+003, -6.310085e-003
2.032604e+003, -5.205057e-003
2.034532e+003, -3.003620e-003
2.036461e+003, -2.006839e-003
2.038389e+003, -1.781182e-003
2.040318e+003, -1.320710e-003
2.042246e+003, -7.272156e-005
2.044175e+003, -3.476034e-004
2.046103e+003, -1.138626e-003
2.048032e+003, -6.591796e-004
2.049960e+003, 1.031997e-004
2.051889e+003, 5.115694e-004
2.053817e+003, -1.845378e-004
2.055746e+003, -7.109895e-004
2.057674e+003, -1.014836e-003
2.059603e+003, 4.525213e-004
2.061531e+003, 6.593381e-004
2.063459e+003, -7.364192e-005
2.065388e+003, -7.982680e-004
2.067316e+003, -1.898994e-005
2.069245e+003, 1.068038e-003
2.071173e+003, 1.621394e-003
2.073102e+003, 2.457434e-003
2.075030e+003, 3.245675e-003
2.076959e+003, 2.403379e-003
2.078887e+003, 2.436232e-003
2.080816e+003, 2.715672e-003
2.082744e+003, 1.703016e-003
2.084673e+003, 1.905338e-003
2.086601e+003, 2.661691e-003
2.088530e+003, 2.593483e-003
2.090458e+003, 2.292220e-003
2.092386e+003, 1.404552e-003
2.094315e+003, 1.001699e-003
2.096243e+003, 1.737571e-003
2.098172e+003, 2.505654e-003
2.100100e+003, 2.383099e-003
2.102029e+003, 2.683463e-003
2.103957e+003, 3.873967e-003
2.105886e+003, 3.672474e-003
2.107814e+003, 2.247795e-003
2.109743e+003, 1.688541e-003
2.111671e+003, 1.846855e-003
2.113600e+003, 3.077791e-003
2.115528e+003, 3.629155e-003
2.117457e+003, 3.564633e-003
2.119385e+003, 3.621759e-003
2.121313e+003, 3.363363e-003
2.123242e+003, 2.333414e-003
2.125170e+003, 1.966633e-003
2.127099e+003, 1.762736e-003
2.129027e+003, 1.393840e-003
2.130956e+003, -5.353650e-004
2.132884e+003, -1.958154e-003
2.134813e+003, -1.593723e-003
2.136741e+003, -1.093400e-003
2.138670e+003, -5.804585e-004
2.140598e+003, 3.181383e-004
2.142527e+003, 1.627931e-003
2.144455e+003, 7.005917e-004
2.146384e+003, -7.657303e-004
2.148312e+003, -6.278764e-004
2.150240e+003, -1.795245e-003
2.152169e+003, -3.001058e-003
2.154097e+003, -3.990252e-003
2.156026e+003, -4.912741e-003
2.157954e+003, -4.339253e-003
2.159883e+003, -1.401917e-003
2.161811e+003, 8.274731e-004
2.163740e+003, 3.091317e-003
2.165668e+003, 3.459175e-003
2.167597e+003, 2.254564e-003
2.169525e+003, -2.294156e-004
2.171454e+003, -1.205074e-003
2.173382e+003, 5.081011e-004
2.175311e+003, 2.113185e-003
2.177239e+003, 2.471282e-003
2.179167e+003, 1.013205e-003
2.181096e+003, -3.062573e-004
2.183024e+003, -6.398484e-004
2.184953e+003, 2.549417e-004
2.186881e+003, 1.763984e-003
2.188810e+003, 2.317466e-003
2.190738e+003, 3.251054e-003
2.192667e+003, 2.815854e-003
2.194595e+003, 1.639004e-003
2.196524e+003, 8.065192e-004
2.198452e+003, 1.250559e-003
2.200381e+003, 2.833559e-003
2.202309e+003, 3.847050e-003
2.204238e+003, 3.660023e-003
2.206166e+003, 2.863612e-003
2.208094e+003, 2.031367e-003
2.210023e+003, 1.235392e-003
2.211951e+003, 9.020126e-004
2.213880e+003, 2.275431e-003
2.215808e+003, 2.652733e-003
2.217737e+003, 1.681267e-003
2.219665e+003, 3.306046e-003
2.221594e+003, 3.932041e-003
2.223522e+003, 3.347649e-003
2.225451e+003, 4.202608e-003
2.227379e+003, 4.433787e-003
2.229308e+003, 3.713446e-003
2.231236e+003, 4.134031e-003
2.233165e+003, 5.527322e-003
2.235093e+003, 4.913003e-003
2.237021e+003, 3.228344e-003
2.238950e+003, 3.498046e-003
2.240878e+003, 4.986727e-003
2.242807e+003, 4.210227e-003
2.244735e+003, 4.639445e-003
2.246664e+003, 5.007295e-003
2.248592e+003, 4.636540e-003
2.250521e+003, 4.972796e-003
2.252449e+003, 4.465860e-003
2.254378e+003, 3.996889e-003
2.256306e+003, 4.662384e-003
2.258235e+003, 5.031322e-003
2.260163e+003, 4.544743e-003
2.262092e+003, 4.699656e-003
2.264020e+003, 5.408588e-003
2.265948e+003, 4.924010e-003
2.267877e+003, 5.643879e-003
2.269805e+003, 6.168749e-003
2.271734e+003, 6.099596e-003
2.273662e+003, 5.787067e-003
2.275591e+003, 6.730580e-003
2.277519e+003, 7.412554e-003
2.279448e+003, 6.692342e-003
2.281376e+003, 6.395671e-003
2.283305e+003, 7.292524e-003
2.285233e+003, 7.738597e-003
2.287162e+003, 7.584373e-003
2.289090e+003, 7.310635e-003
2.291019e+003, 7.333348e-003
2.292947e+003, 7.670013e-003
2.294875e+003, 7.548660e-003
2.296804e+003, 7.017032e-003
2.298732e+003, 6.932352e-003
2.300661e+003, 6.724133e-003
2.302589e+003, 6.635967e-003
2.304518e+003, 7.135644e-003
2.306446e+003, 7.899653e-003
2.308375e+003, 7.651689e-003
2.310303e+003, 7.167215e-003
2.312232e+003, 7.665052e-003
2.314160e+003, 8.289346e-003
2.316089e+003, 8.467253e-003
2.318017e+003, 8.585202e-003
2.319946e+003, 8.625998e-003
2.321874e+003, 8.803803e-003
2.323802e+003, 8.898411e-003
2.325731e+003, 8.125777e-003
2.327659e+003, 7.418859e-003
2.329588e+003, 7.273087e-003
2.331516e+003, 7.319300e-003
2.333445e+003, 7.232196e-003
2.335373e+003, 7.232918e-003
2.337302e+003, 7.591083e-003
2.339230e+003, 7.710258e-003
2.341159e+003, 7.480344e-003
2.343087e+003, 7.368039e-003
2.345016e+003, 7.142449e-003
2.346944e+003, 6.792967e-003
2.348873e+003, 6.896324e-003
2.350801e+003, 7.015172e-003
2.352729e+003, 6.993222e-003
2.354658e+003, 6.751629e-003
2.356586e+003, 6.958845e-003
2.358515e+003, 7.225052e-003
2.360443e+003, 7.341138e-003
2.362372e+003, 6.950413e-003
2.364300e+003, 6.287478e-003
2.366229e+003, 6.494497e-003
2.368157e+003, 6.670864e-003
2.370086e+003, 6.522234e-003
2.372014e+003, 6.134961e-003
2.373942e+003, 6.418874e-003
2.375871e+003, 7.137021e-003
2.377799e+003, 6.980432e-003
2.379728e+003, 6.567283e-003
2.381656e+003, 6.955206e-003
2.383585e+003, 7.503249e-003
2.385513e+003, 7.663404e-003
2.387442e+003, 7.270114e-003
2.389370e+003, 6.830306e-003
2.391299e+003, 7.339638e-003
2.393227e+003, 7.493758e-003
2.395156e+003, 7.408490e-003
2.397084e+003, 7.595178e-003
2.399012e+003, 7.710889e-003
2.400941e+003, 7.505074e-003
2.402869e+003, 7.231685e-003
2.404798e+003, 7.269784e-003
2.406726e+003, 7.459855e-003
2.408655e+003, 7.902657e-003
2.410583e+003, 8.202475e-003
2.412512e+003, 8.421315e-003
2.414440e+003, 8.395897e-003
2.416369e+003, 8.401128e-003
2.418297e+003, 7.798013e-003
2.420226e+003, 7.410551e-003
2.422154e+003, 7.681247e-003
2.424083e+003, 8.131035e-003
2.426011e+003, 8.032194e-003
2.427939e+003, 8.318129e-003
2.429868e+003, 7.917224e-003
2.431796e+003, 6.851132e-003
2.433725e+003, 6.998062e-003
2.435653e+003, 7.635377e-003
2.437582e+003, 7.936902e-003
2.439510e+003, 7.745803e-003
2.441439e+003, 7.727656e-003
2.443367e+003, 7.918239e-003
2.445296e+003, 7.940876e-003
2.447224e+003, 8.322690e-003
2.449153e+003, 8.349181e-003
2.451081e+003, 8.051432e-003
2.453010e+003, 7.843573e-003
2.454938e+003, 8.338297e-003
2.456866e+003, 8.256678e-003
2.458795e+003, 7.282796e-003
2.460723e+003, 7.882427e-003
2.462652e+003, 8.653937e-003
2.464580e+003, 8.283137e-003
2.466509e+003, 8.061435e-003
2.468437e+003, 7.915939e-003
2.470366e+003, 7.735792e-003
2.472294e+003, 8.083531e-003
2.474223e+003, 7.764840e-003
2.476151e+003, 7.806933e-003
2.478080e+003, 7.522073e-003
2.480008e+003, 8.032535e-003
2.481937e+003, 8.554501e-003
2.483865e+003, 8.107525e-003
2.485793e+003, 8.078981e-003
2.487722e+003, 8.795084e-003
2.489650e+003, 8.731367e-003
2.491579e+003, 8.271908e-003
2.493507e+003, 7.680463e-003
2.495436e+003, 7.678208e-003
2.497364e+003, 7.938597e-003
2.499293e+003, 7.819735e-003
2.501221e+003, 7.682956e-003
2.503150e+003, 7.224105e-003
2.505078e+003, 7.483213e-003
2.507007e+003, 7.873664e-003
2.508935e+003, 7.749632e-003
2.510864e+003, 7.895759e-003
2.512792e+003, 8.000279e-003
2.514720e+003, 8.243264e-003
2.516649e+003, 8.385403e-003
2.518577e+003, 8.359031e-003
2.520506e+003, 8.216751e-003
2.522434e+003, 7.754812e-003
2.524363e+003, 8.338338e-003
2.526291e+003, 8.946191e-003
2.528220e+003, 9.069078e-003
2.530148e+003, 8.865671e-003
2.532077e+003, 8.888155e-003
2.534005e+003, 8.861871e-003
2.535934e+003, 8.274619e-003
2.537862e+003, 7.624448e-003
2.539791e+003, 7.834863e-003
2.541719e+003, 8.736797e-003
2.543647e+003, 9.186450e-003
2.545576e+003, 9.640196e-003
2.547504e+003, 9.058170e-003
2.549433e+003, 8.866468e-003
2.551361e+003, 8.979379e-003
2.553290e+003, 8.504859e-003
2.555218e+003, 8.552487e-003
2.557147e+003, 9.595910e-003
2.559075e+003, 9.977815e-003
2.561004e+003, 1.002560e-002
2.562932e+003, 1.014165e-002
2.564861e+003, 9.233741e-003
2.566789e+003, 9.621337e-003
2.568718e+003, 1.036508e-002
2.570646e+003, 9.824653e-003
2.572574e+003, 9.005413e-003
2.574503e+003, 8.923206e-003
2.576431e+003, 9.067408e-003
2.578360e+003, 8.931891e-003
2.580288e+003, 9.280469e-003
2.582217e+003, 8.693110e-003
2.584145e+003, 8.212993e-003
2.586074e+003, 9.009901e-003
2.588002e+003, 9.647405e-003
2.589931e+003, 9.597979e-003
2.591859e+003, 9.272904e-003
2.593788e+003, 9.792899e-003
2.595716e+003, 9.855374e-003
2.597645e+003, 9.798841e-003
2.599573e+003, 9.829008e-003
2.601501e+003, 1.002579e-002
2.603430e+003, 1.053992e-002
2.605358e+003, 1.019341e-002
2.607287e+003, 1.003178e-002
2.609215e+003, 1.030300e-002
2.611144e+003, 1.015435e-002
2.613072e+003, 1.042362e-002
2.615001e+003, 1.065141e-002
2.616929e+003, 1.044002e-002
2.618858e+003, 1.045793e-002
2.620786e+003, 1.098214e-002
2.622715e+003, 1.028091e-002
2.624643e+003, 1.004336e-002
2.626572e+003, 1.070266e-002
2.628500e+003, 1.081173e-002
2.630428e+003, 1.011507e-002
2.632357e+003, 1.039371e-002
2.634285e+003, 1.125495e-002
2.636214e+003, 1.093640e-002
2.638142e+003, 1.092129e-002
2.640071e+003, 1.157157e-002
2.641999e+003, 1.162953e-002
2.643928e+003, 1.131679e-002
2.645856e+003, 1.110407e-002
2.647785e+003, 1.080332e-002
2.649713e+003, 1.106173e-002
2.651642e+003, 1.137237e-002
2.653570e+003, 1.127638e-002
2.655499e+003, 1.074409e-002
2.657427e+003, 1.056730e-002
2.659355e+003, 1.105401e-002
2.661284e+003, 1.113873e-002
2.663212e+003, 1.076073e-002
2.665141e+003, 1.014845e-002
2.667069e+003, 9.992462e-003
2.668998e+003, 1.034131e-002
2.670926e+003, 1.030562e-002
2.672855e+003, 1.011772e-002
2.674783e+003, 9.945302e-003
2.676712e+003, 9.854196e-003
2.678640e+003, 1.033842e-002
2.680569e+003, 1.082928e-002
2.682497e+003, 1.061243e-002
2.684426e+003, 1.029364e-002
2.686354e+003, 1.042058e-002
2.688282e+003, 1.131306e-002
2.690211e+003, 1.158387e-002
2.692139e+003, 1.112007e-002
2.694068e+003, 1.055607e-002
2.695996e+003, 1.070486e-002
2.697925e+003, 1.093577e-002
2.699853e+003, 1.111612e-002
2.701782e+003, 1.127820e-002
2.703710e+003, 1.117981e-002
2.705639e+003, 1.108815e-002
2.707567e+003, 1.128443e-002
2.709496e+003, 1.116567e-002
2.711424e+003, 1.087812e-002
2.713353e+003, 1.109394e-002
2.715281e+003, 1.163241e-002
2.717209e+003, 1.176960e-002
2.719138e+003, 1.153783e-002
2.721066e+003, 1.132533e-002
2.722995e+003, 1.115511e-002
2.724923e+003, 1.158823e-002
2.726852e+003, 1.219019e-002
2.728780e+003, 1.176519e-002
2.730709e+003, 1.147412e-002
2.732637e+003, 1.172002e-002
2.734566e+003, 1.165165e-002
2.736494e+003, 1.172587e-002
2.738423e+003, 1.175836e-002
2.740351e+003, 1.167889e-002
2.742280e+003, 1.152911e-002
2.744208e+003, 1.173353e-002
2.746136e+003, 1.185516e-002
2.748065e+003, 1.164844e-002
2.749993e+003, 1.125130e-002
2.751922e+003, 1.122934e-002
2.753850e+003, 1.175454e-002
2.755779e+003, 1.184409e-002
2.757707e+003, 1.190271e-002
2.759636e+003, 1.223913e-002
2.761564e+003, 1.243119e-002
2.763493e+003, 1.233873e-002
2.765421e+003, 1.218639e-002
2.767350e+003, 1.202949e-002
2.769278e+003, 1.228293e-002
2.771207e+003, 1.278251e-002
2.773135e+003, 1.288751e-002
2.775063e+003, 1.277389e-002
2.776992e+003, 1.282505e-002
2.778920e+003, 1.255358e-002
2.780849e+003, 1.219763e-002
2.782777e+003, 1.216386e-002
2.784706e+003, 1.287598e-002
2.786634e+003, 1.349962e-002
2.788563e+003, 1.303241e-002
2.790491e+003, 1.238062e-002
2.792420e+003, 1.262700e-002
2.794348e+003, 1.289801e-002
2.796277e+003, 1.289578e-002
2.798205e+003, 1.297665e-002
2.800134e+003, 1.323237e-002
2.802062e+003, 1.294675e-002
2.803990e+003, 1.285781e-002
2.805919e+003, 1.352213e-002
2.807847e+003, 1.337968e-002
2.809776e+003, 1.337388e-002
2.811704e+003, 1.349461e-002
2.813633e+003, 1.323463e-002
2.815561e+003, 1.333767e-002
2.817490e+003, 1.366691e-002
2.819418e+003, 1.354857e-002
2.821347e+003, 1.366474e-002
2.823275e+003, 1.408517e-002
2.825204e+003, 1.408459e-002
2.827132e+003, 1.365848e-002
2.829061e+003, 1.378383e-002
2.830989e+003, 1.452052e-002
2.832917e+003, 1.482295e-002
2.834846e+003, 1.449257e-002
2.836774e+003, 1.384942e-002
2.838703e+003, 1.422487e-002
2.840631e+003, 1.520235e-002
2.842560e+003, 1.543263e-002
2.844488e+003, 1.437309e-002
2.846417e+003, 1.355762e-002
2.848345e+003, 1.427405e-002
2.850274e+003, 1.490261e-002
2.852202e+003, 1.373377e-002
2.854131e+003, 1.312005e-002
2.856059e+003, 1.413565e-002
2.857988e+003, 1.473863e-002
2.859916e+003, 1.475949e-002
2.861844e+003, 1.458210e-002
2.863773e+003, 1.459916e-002
2.865701e+003, 1.493695e-002
2.867630e+003, 1.530406e-002
2.869558e+003, 1.555683e-002
2.871487e+003, 1.501815e-002
2.873415e+003, 1.435456e-002
2.875344e+003, 1.497715e-002
2.877272e+003, 1.625667e-002
2.879201e+003, 1.690673e-002
2.881129e+003, 1.664392e-002
2.883058e+003, 1.648895e-002
2.884986e+003, 1.652605e-002
2.886915e+003, 1.625594e-002
2.888843e+003, 1.639565e-002
2.890771e+003, 1.716508e-002
2.892700e+003, 1.725428e-002
2.894628e+003, 1.707667e-002
2.896557e+003, 1.648832e-002
2.898485e+003, 1.642283e-002
2.900414e+003, 1.636632e-002
2.902342e+003, 1.683807e-002
2.904271e+003, 1.726601e-002
2.906199e+003, 1.740643e-002
2.908128e+003, 1.755089e-002
2.910056e+003, 1.762344e-002
2.911985e+003, 1.784765e-002
2.913913e+003, 1.744082e-002
2.915842e+003, 1.700832e-002
2.917770e+003, 1.687694e-002
2.919698e+003, 1.726342e-002
2.921627e+003, 1.729446e-002
2.923555e+003, 1.711752e-002
2.925484e+003, 1.787881e-002
2.927412e+003, 1.836528e-002
2.929341e+003, 1.845823e-002
2.931269e+003, 1.844663e-002
2.933198e+003, 1.846090e-002
2.935126e+003, 1.839164e-002
2.937055e+003, 1.869310e-002
2.938983e+003, 1.862003e-002
2.940912e+003, 1.933968e-002
2.942840e+003, 2.004277e-002
2.944769e+003, 2.006174e-002
2.946697e+003, 1.989701e-002
2.948625e+003, 1.948434e-002
2.950554e+003, 1.883415e-002
2.952482e+003, 1.800396e-002
2.954411e+003, 1.820015e-002
2.956339e+003, 1.928447e-002
2.958268e+003, 1.939284e-002
2.960196e+003, 1.945186e-002
2.962125e+003, 2.021093e-002
2.964053e+003, 2.087682e-002
2.965982e+003, 2.185969e-002
2.967910e+003, 2.219015e-002
2.969839e+003, 2.164094e-002
2.971767e+003, 2.155505e-002
2.973696e+003, 2.138241e-002
2.975624e+003, 2.147987e-002
2.977552e+003, 2.222607e-002
2.979481e+003, 2.272946e-002
2.981409e+003, 2.283012e-002
2.983338e+003, 2.283424e-002
2.985266e+003, 2.332773e-002
2.987195e+003, 2.357615e-002
2.989123e+003, 2.379153e-002
2.991052e+003, 2.412650e-002
2.992980e+003, 2.409661e-002
2.994909e+003, 2.379553e-002
2.996837e+003, 2.400224e-002
2.998766e+003, 2.470474e-002
3.000694e+003, 2.580760e-002
3.002623e+003, 2.592013e-002
3.004551e+003, 2.552236e-002
3.006479e+003, 2.553743e-002
3.008408e+003, 2.579124e-002
3.010336e+003, 2.628957e-002
3.012265e+003, 2.624324e-002
3.014193e+003, 2.599258e-002
3.016122e+003, 2.599754e-002
3.018050e+003, 2.609883e-002
3.019979e+003, 2.669681e-002
3.021907e+003, 2.698284e-002
3.023836e+003, 2.697312e-002
3.025764e+003, 2.654832e-002
3.027693e+003, 2.712351e-002
3.029621e+003, 2.753962e-002
3.031550e+003, 2.821839e-002
3.033478e+003, 2.867034e-002
3.035406e+003, 2.871083e-002
3.037335e+003, 2.907724e-002
3.039263e+003, 2.932735e-002
3.041192e+003, 2.952045e-002
3.043120e+003, 2.940253e-002
3.045049e+003, 2.947878e-002
3.046977e+003, 3.010773e-002
3.048906e+003, 3.041512e-002
3.050834e+003, 3.041794e-002
3.052763e+003, 3.074723e-002
3.054691e+003, 3.153068e-002
3.056620e+003, 3.213426e-002
3.058548e+003, 3.243509e-002
3.060477e+003, 3.270122e-002
3.062405e+003, 3.298284e-002
3.064333e+003, 3.287791e-002
3.066262e+003, 3.242661e-002
3.068190e+003, 3.296523e-002
3.070119e+003, 3.341463e-002
3.072047e+003, 3.286602e-002
3.073976e+003, 3.319295e-002
3.075904e+003, 3.421984e-002
3.077833e+003, 3.490394e-002
3.079761e+003, 3.512065e-002
3.081690e+003, 3.478434e-002
3.083618e+003, 3.501310e-002
3.085547e+003, 3.606217e-002
3.087475e+003, 3.642098e-002
3.089404e+003, 3.619567e-002
3.091332e+003, 3.585172e-002
3.093260e+003, 3.707507e-002
3.095189e+003, 3.805389e-002
3.097117e+003, 3.812666e-002
3.099046e+003, 3.896023e-002
3.100974e+003, 3.979854e-002
3.102903e+003, 3.924742e-002
3.104831e+003, 3.829570e-002
3.106760e+003, 3.830045e-002
3.108688e+003, 3.897678e-002
3.110617e+003, 3.958698e-002
3.112545e+003, 3.945851e-002
3.114474e+003, 4.039216e-002
3.116402e+003, 4.080169e-002
3.118331e+003, 4.049880e-002
3.120259e+003, 4.136644e-002
3.122188e+003, 4.172191e-002
3.124116e+003, 4.211481e-002
3.126044e+003, 4.216677e-002
3.127973e+003, 4.268214e-002
3.129901e+003, 4.349544e-002
3.131830e+003, 4.390984e-002
3.133758e+003, 4.400948e-002
3.135687e+003, 4.393996e-002
3.137615e+003, 4.498952e-002
3.139544e+003, 4.598474e-002
3.141472e+003, 4.639407e-002
3.143401e+003, 4.727953e-002
3.145329e+003, 4.751693e-002
3.147258e+003, 4.787967e-002
3.149186e+003, 4.716117e-002
3.151115e+003, 4.740977e-002
3.153043e+003, 4.897543e-002
3.154971e+003, 4.894374e-002
3.156900e+003, 4.814043e-002
3.158828e+003, 4.854795e-002
3.160757e+003, 4.948628e-002
3.162685e+003, 4.995307e-002
3.164614e+003, 5.050948e-002
3.166542e+003, 5.014623e-002
3.168471e+003, 5.027179e-002
3.170399e+003, 5.124954e-002
3.172328e+003, 5.168514e-002
3.174256e+003, 5.177215e-002
3.176185e+003, 5.197038e-002
3.178113e+003, 5.228967e-002
3.180042e+003, 5.352118e-002
3.181970e+003, 5.453475e-002
3.183898e+003, 5.458677e-002
3.185827e+003, 5.486821e-002
3.187755e+003, 5.559516e-002
3.189684e+003, 5.664974e-002
3.191612e+003, 5.701912e-002
3.193541e+003, 5.715939e-002
3.195469e+003, 5.698038e-002
3.197398e+003, 5.699624e-002
3.199326e+003, 5.717997e-002
3.201255e+003, 5.764801e-002
3.203183e+003, 5.774920e-002
3.205112e+003, 5.831323e-002
3.207040e+003, 5.906132e-002
3.208969e+003, 5.940920e-002
3.210897e+003, 5.944918e-002
3.212825e+003, 6.065805e-002
3.214754e+003, 6.117803e-002
3.216682e+003, 6.036512e-002
3.218611e+003, 6.029351e-002
3.220539e+003, 6.171628e-002
3.222468e+003, 6.196756e-002
3.224396e+003, 6.058580e-002
3.226325e+003, 6.164568e-002
3.228253e+003, 6.354777e-002
3.230182e+003, 6.443269e-002
3.232110e+003, 6.375154e-002
3.234039e+003, 6.303944e-002
3.235967e+003, 6.310964e-002
3.237896e+003, 6.376960e-002
3.239824e+003, 6.408756e-002
3.241752e+003, 6.382726e-002
3.243681e+003, 6.365764e-002
3.245609e+003, 6.373245e-002
3.247538e+003, 6.400163e-002
3.249466e+003, 6.503733e-002
3.251395e+003, 6.569473e-002
3.253323e+003, 6.495883e-002
3.255252e+003, 6.528506e-002
3.257180e+003, 6.599294e-002
3.259109e+003, 6.466941e-002
3.261037e+003, 6.357749e-002
3.262966e+003, 6.522505e-002
3.264894e+003, 6.600948e-002
3.266823e+003, 6.514638e-002
3.268751e+003, 6.566934e-002
3.270679e+003, 6.680989e-002
3.272608e+003, 6.668374e-002
3.274536e+003, 6.677318e-002
3.276465e+003, 6.658479e-002
3.278393e+003, 6.684202e-002
3.280322e+003, 6.676155e-002
3.282250e+003, 6.620058e-002
3.284179e+003, 6.607574e-002
3.286107e+003, 6.653324e-002
3.288036e+003, 6.754083e-002
3.289964e+003, 6.806514e-002
3.291893e+003, 6.744728e-002
3.293821e+003, 6.627309e-002
3.295750e+003, 6.669490e-002
3.297678e+003, 6.694918e-002
3.299606e+003, 6.731166e-002
3.301535e+003, 6.703538e-002
3.303463e+003, 6.681347e-002
3.305392e+003, 6.626119e-002
3.307320e+003, 6.694569e-002
3.309249e+003, 6.830233e-002
3.311177e+003, 6.876797e-002
3.313106e+003, 6.911199e-002
3.315034e+003, 6.865593e-002
3.316963e+003, 6.809494e-002
3.318891e+003, 6.953450e-002
3.320820e+003, 7.033163e-002
3.322748e+003, 7.039537e-002
3.324677e+003, 6.979244e-002
3.326605e+003, 6.887373e-002
3.328533e+003, 6.908561e-002
3.330462e+003, 6.920699e-002
3.332390e+003, 7.049888e-002
3.334319e+003, 7.213701e-002
3.336247e+003, 7.229893e-002
3.338176e+003, 7.255100e-002
3.340104e+003, 7.236387e-002
3.342033e+003, 7.251298e-002
3.343961e+003, 7.378193e-002
3.345890e+003, 7.543442e-002
3.347818e+003, 7.561224e-002
3.349747e+003, 7.493121e-002
3.351675e+003, 7.503612e-002
3.353604e+003, 7.478733e-002
3.355532e+003, 7.381377e-002
3.357460e+003, 7.419606e-002
3.359389e+003, 7.540336e-002
3.361317e+003, 7.533331e-002
3.363246e+003, 7.587886e-002
3.365174e+003, 7.706327e-002
3.367103e+003, 7.716366e-002
3.369031e+003, 7.706778e-002
3.370960e+003, 7.691825e-002
3.372888e+003, 7.632220e-002
3.374817e+003, 7.747672e-002
3.376745e+003, 7.801502e-002
3.378674e+003, 7.679408e-002
3.380602e+003, 7.606407e-002
3.382531e+003, 7.593431e-002
3.384459e+003, 7.688628e-002
3.386387e+003, 7.707001e-002
3.388316e+003, 7.700430e-002
3.390244e+003, 7.732797e-002
3.392173e+003, 7.756358e-002
3.394101e+003, 7.791594e-002
3.396030e+003, 7.751231e-002
3.397958e+003, 7.720943e-002
3.399887e+003, 7.810412e-002
3.401815e+003, 7.779367e-002
3.403744e+003, 7.726240e-002
3.405672e+003, 7.710981e-002
3.407601e+003, 7.629365e-002
3.409529e+003, 7.616975e-002
3.411458e+003, 7.585350e-002
3.413386e+003, 7.491927e-002
3.415314e+003, 7.531779e-002
3.417243e+003, 7.550411e-002
3.419171e+003, 7.537251e-002
3.421100e+003, 7.496905e-002
3.423028e+003, 7.478517e-002
3.424957e+003, 7.559530e-002
3.426885e+003, 7.506955e-002
3.428814e+003, 7.413597e-002
3.430742e+003, 7.293563e-002
3.432671e+003, 7.228303e-002
3.434599e+003, 7.319044e-002
3.436528e+003, 7.425407e-002
3.438456e+003, 7.479217e-002
3.440385e+003, 7.420607e-002
3.442313e+003, 7.344916e-002
3.444241e+003, 7.269219e-002
3.446170e+003, 7.220343e-002
3.448098e+003, 7.224895e-002
3.450027e+003, 7.163790e-002
3.451955e+003, 7.131812e-002
3.453884e+003, 7.109325e-002
3.455812e+003, 7.017231e-002
3.457741e+003, 6.996336e-002
3.459669e+003, 6.987870e-002
3.461598e+003, 7.077692e-002
3.463526e+003, 7.149566e-002
3.465455e+003, 7.074869e-002
3.467383e+003, 6.969830e-002
3.469312e+003, 6.929479e-002
3.471240e+003, 6.850237e-002
3.473168e+003, 6.771241e-002
3.475097e+003, 6.751158e-002
3.477025e+003, 6.799224e-002
3.478954e+003, 6.748567e-002
3.480882e+003, 6.686851e-002
3.482811e+003, 6.738855e-002
3.484739e+003, 6.708807e-002
3.486668e+003, 6.674162e-002
3.488596e+003, 6.685343e-002
3.490525e+003, 6.636470e-002
3.492453e+003, 6.513826e-002
3.494382e+003, 6.523095e-002
3.496310e+003, 6.670367e-002
3.498239e+003, 6.627138e-002
3.500167e+003, 6.527339e-002
3.502095e+003, 6.535249e-002
3.504024e+003, 6.469355e-002
3.505952e+003, 6.414060e-002
3.507881e+003, 6.486315e-002
3.509809e+003, 6.517512e-002
3.511738e+003, 6.455576e-002
3.513666e+003, 6.406458e-002
3.515595e+003, 6.443449e-002
3.517523e+003, 6.461095e-002
3.519452e+003, 6.378475e-002
3.521380e+003, 6.262726e-002
3.523309e+003, 6.209026e-002
3.525237e+003, 6.234799e-002
3.527166e+003, 6.133220e-002
3.529094e+003, 6.041701e-002
3.531022e+003, 6.084884e-002
3.532951e+003, 6.056413e-002
3.534879e+003, 6.021176e-002
3.536808e+003, 6.091994e-002
3.538736e+003, 6.208049e-002
3.540665e+003, 6.180046e-002
3.542593e+003, 6.025323e-002
3.544522e+003, 5.894300e-002
3.546450e+003, 5.891164e-002
3.548379e+003, 5.952442e-002
3.550307e+003, 5.935662e-002
3.552236e+003, 5.729573e-002
3.554164e+003, 5.596213e-002
3.556093e+003, 5.526766e-002
3.558021e+003, 5.547240e-002
3.559949e+003, 5.587476e-002
3.561878e+003, 5.528286e-002
3.563806e+003, 5.477491e-002
3.565735e+003, 5.407038e-002
3.567663e+003, 5.323210e-002
3.569592e+003, 5.360861e-002
3.571520e+003, 5.286220e-002
3.573449e+003, 5.215077e-002
3.575377e+003, 5.212895e-002
3.577306e+003, 5.211164e-002
3.579234e+003, 5.095509e-002
3.581163e+003, 4.879527e-002
3.583091e+003, 4.783720e-002
3.585020e+003, 4.785948e-002
3.586948e+003, 4.885032e-002
3.588876e+003, 4.755379e-002
3.590805e+003, 4.537365e-002
3.592733e+003, 4.554248e-002
3.594662e+003, 4.534677e-002
3.596590e+003, 4.410079e-002
3.598519e+003, 4.344673e-002
3.600447e+003, 4.334442e-002
3.602376e+003, 4.293144e-002
3.604304e+003, 4.148051e-002
3.606233e+003, 4.023987e-002
3.608161e+003, 3.959666e-002
3.610090e+003, 3.868103e-002
3.612018e+003, 3.717514e-002
3.613947e+003, 3.471719e-002
3.615875e+003, 3.193901e-002
3.617803e+003, 3.134093e-002
3.619732e+003, 3.139576e-002
3.621660e+003, 3.174188e-002
3.623589e+003, 3.165214e-002
3.625517e+003, 3.046040e-002
3.627446e+003, 2.957033e-002
3.629374e+003, 2.956255e-002
3.631303e+003, 2.940026e-002
3.633231e+003, 2.745619e-002
3.635160e+003, 2.623244e-002
3.637088e+003, 2.508094e-002
3.639017e+003, 2.301273e-002
3.640945e+003, 2.218347e-002
3.642874e+003, 2.222101e-002
3.644802e+003, 2.203876e-002
3.646730e+003, 2.026484e-002
3.648659e+003, 1.990215e-002
3.650587e+003, 1.930586e-002
3.652516e+003, 1.732613e-002
3.654444e+003, 1.777106e-002
3.656373e+003, 1.816973e-002
3.658301e+003, 1.636592e-002
3.660230e+003, 1.604898e-002
3.662158e+003, 1.483934e-002
3.664087e+003, 1.340814e-002
3.666015e+003, 1.376167e-002
3.667944e+003, 1.353760e-002
3.669872e+003, 1.347500e-002
3.671801e+003, 1.333601e-002
3.673729e+003, 1.283167e-002
3.675657e+003, 1.302313e-002
3.677586e+003, 1.258583e-002
3.679514e+003, 1.153123e-002
3.681443e+003, 1.195850e-002
3.683371e+003, 1.277298e-002
3.685300e+003, 1.319569e-002
3.687228e+003, 1.123446e-002
3.689157e+003, 9.805119e-003
3.691085e+003, 9.654670e-003
3.693014e+003, 1.084930e-002
3.694942e+003, 1.191571e-002
3.696871e+003, 1.179939e-002
3.698799e+003, 1.056197e-002
3.700728e+003, 9.904293e-003
3.702656e+003, 1.057209e-002
3.704584e+003, 1.283076e-002
3.706513e+003, 1.347634e-002
3.708441e+003, 1.365093e-002
3.710370e+003, 1.254641e-002
3.712298e+003, 1.170586e-002
3.714227e+003, 1.128781e-002
3.716155e+003, 1.019963e-002
3.718084e+003, 1.095118e-002
3.720012e+003, 1.259569e-002
3.721941e+003, 1.150312e-002
3.723869e+003, 1.044448e-002
3.725798e+003, 1.035884e-002
3.727726e+003, 1.121814e-002
3.729655e+003, 1.048807e-002
3.731583e+003, 1.122108e-002
3.733511e+003, 1.329597e-002
3.735440e+003, 1.252977e-002
3.737368e+003, 1.082872e-002
3.739297e+003, 1.160886e-002
3.741225e+003, 1.204338e-002
3.743154e+003, 1.154123e-002
3.745082e+003, 1.178480e-002
3.747011e+003, 1.187008e-002
3.748939e+003, 1.235833e-002
3.750868e+003, 1.284385e-002
3.752796e+003, 1.295170e-002
3.754725e+003, 1.329475e-002
3.756653e+003, 1.314071e-002
3.758582e+003, 1.177176e-002
3.760510e+003, 1.130695e-002
3.762438e+003, 1.118593e-002
3.764367e+003, 1.148919e-002
3.766295e+003, 1.232241e-002
3.768224e+003, 1.082882e-002
3.770152e+003, 1.066767e-002
3.772081e+003, 1.083173e-002
3.774009e+003, 1.145201e-002
3.775938e+003, 1.135835e-002
3.777866e+003, 1.063876e-002
3.779795e+003, 1.171582e-002
3.781723e+003, 1.252304e-002
3.783652e+003, 1.240011e-002
3.785580e+003, 1.281990e-002
3.787509e+003, 1.194011e-002
3.789437e+003, 1.141018e-002
3.791365e+003, 1.300415e-002
3.793294e+003, 1.323127e-002
3.795222e+003, 1.326065e-002
3.797151e+003, 1.312940e-002
3.799079e+003, 1.313712e-002
3.801008e+003, 1.366743e-002
3.802936e+003, 1.446784e-002
3.804865e+003, 1.337212e-002
3.806793e+003, 1.122926e-002
3.808722e+003, 1.067427e-002
3.810650e+003, 1.181681e-002
3.812579e+003, 1.232716e-002
3.814507e+003, 1.190569e-002
3.816436e+003, 1.347975e-002
3.818364e+003, 1.510947e-002
3.820292e+003, 1.395878e-002
3.822221e+003, 1.212199e-002
3.824149e+003, 1.275041e-002
3.826078e+003, 1.208488e-002
3.828006e+003, 1.135959e-002
3.829935e+003, 1.134248e-002
3.831863e+003, 1.051649e-002
3.833792e+003, 1.148335e-002
3.835720e+003, 1.299215e-002
3.837649e+003, 1.323785e-002
3.839577e+003, 1.196559e-002
3.841506e+003, 1.033501e-002
3.843434e+003, 1.012630e-002
3.845363e+003, 1.143601e-002
3.847291e+003, 1.251484e-002
3.849219e+003, 1.214095e-002
3.851148e+003, 1.141996e-002
3.853076e+003, 1.065111e-002
3.855005e+003, 1.122610e-002
3.856933e+003, 1.136604e-002
3.858862e+003, 1.120915e-002
3.860790e+003, 1.010591e-002
3.862719e+003, 9.872036e-003
3.864647e+003, 1.107809e-002
3.866576e+003, 1.142481e-002
3.868504e+003, 1.101016e-002
3.870433e+003, 9.913725e-003
3.872361e+003, 1.100849e-002
3.874290e+003, 1.136708e-002
3.876218e+003, 1.197097e-002
3.878146e+003, 1.331629e-002
3.880075e+003, 1.175366e-002
3.882003e+003, 1.228547e-002
3.883932e+003, 1.390152e-002
3.885860e+003, 1.387270e-002
3.887789e+003, 1.338657e-002
3.889717e+003, 1.233126e-002
3.891646e+003, 1.225353e-002
3.893574e+003, 1.337008e-002
3.895503e+003, 1.289810e-002
3.897431e+003, 1.312873e-002
3.899360e+003, 1.224659e-002
3.901288e+003, 1.110516e-002
3.903217e+003, 1.275569e-002
3.905145e+003, 1.306152e-002
3.907073e+003, 1.309040e-002
3.909002e+003, 1.196998e-002
3.910930e+003, 1.131907e-002
3.912859e+003, 1.142204e-002
3.914787e+003, 1.341312e-002
3.916716e+003, 1.495143e-002
3.918644e+003, 1.418934e-002
3.920573e+003, 1.257277e-002
3.922501e+003, 1.153188e-002
3.924430e+003, 1.312261e-002
3.926358e+003, 1.256084e-002
3.928287e+003, 1.088876e-002
3.930215e+003, 1.059563e-002
3.932144e+003, 1.033186e-002
3.934072e+003, 1.081033e-002
3.936000e+003, 1.118185e-002
3.937929e+003, 1.193377e-002
3.939857e+003, 1.158762e-002
3.941786e+003, 1.207016e-002
3.943714e+003, 1.328913e-002
3.945643e+003, 1.293147e-002
3.947571e+003, 1.259385e-002
3.949500e+003, 1.228934e-002
3.951428e+003, 1.145916e-002
3.953357e+003, 1.179320e-002
3.955285e+003, 1.205721e-002
3.957214e+003, 1.277071e-002
3.959142e+003, 1.355807e-002
3.961071e+003, 1.321084e-002
3.962999e+003, 1.223800e-002
3.964927e+003, 1.216213e-002
3.966856e+003, 1.286232e-002
3.968784e+003, 1.410775e-002
3.970713e+003, 1.491576e-002
3.972641e+003, 1.448972e-002
3.974570e+003, 1.238500e-002
3.976498e+003, 1.178656e-002
3.978427e+003, 1.141108e-002
3.980355e+003, 1.171517e-002
3.982284e+003, 1.272519e-002
3.984212e+003, 1.335947e-002
3.986141e+003, 1.335133e-002
3.988069e+003, 1.226806e-002
3.989998e+003, 1.148767e-002
3.991926e+003, 1.222149e-002
3.993854e+003, 1.358378e-002
3.995783e+003, 1.300523e-002
3.997711e+003, 1.327126e-002
3.999640e+003, 1.327766e-002
4.001568e+003, 0.000000e+000
##END=



