##NAMES=Chalcanthite
##RRUFFID=R050293
##IDEAL CHEMISTRY=Cu^2+^S^6+^O_4_&#183;5H_2_O
##LOCALITY=79 mine, 4th level, Hayden, Gila County, Arizona, USA
##OWNER=RRUFF
##SOURCE=George Godas, John Callahan
##DESCRIPTION=Blue fibrous crust
##STATUS=The identification of this mineral has been confirmed by X-ray diffraction and chemical analysis
##URL=rruff.info/R050293
##MEASURED CHEMISTRY=Cu_1.00_S_1.00_O_4_Â·5H_2_O
3.991926e+002, 1.922784e-001
4.011211e+002, 2.034212e-001
4.030496e+002, 2.043992e-001
4.049780e+002, 2.081312e-001
4.069065e+002, 2.136465e-001
4.088350e+002, 2.136513e-001
4.107634e+002, 2.106385e-001
4.126919e+002, 2.175854e-001
4.146204e+002, 2.240452e-001
4.165488e+002, 2.253772e-001
4.184773e+002, 2.269561e-001
4.204058e+002, 2.289789e-001
4.223342e+002, 2.299315e-001
4.242627e+002, 2.343794e-001
4.261912e+002, 2.385053e-001
4.281196e+002, 2.413106e-001
4.300481e+002, 2.455681e-001
4.319766e+002, 2.486673e-001
4.339050e+002, 2.479858e-001
4.358335e+002, 2.413920e-001
4.377620e+002, 2.346705e-001
4.396904e+002, 2.322571e-001
4.416189e+002, 2.335047e-001
4.435474e+002, 2.336455e-001
4.454758e+002, 2.300481e-001
4.474043e+002, 2.247425e-001
4.493328e+002, 2.218716e-001
4.512612e+002, 2.234876e-001
4.531897e+002, 2.235932e-001
4.551182e+002, 2.234572e-001
4.570466e+002, 2.243885e-001
4.589751e+002, 2.253836e-001
4.609036e+002, 2.283044e-001
4.628320e+002, 2.302603e-001
4.647605e+002, 2.324853e-001
4.666890e+002, 2.334434e-001
4.686174e+002, 2.316343e-001
4.705459e+002, 2.284236e-001
4.724744e+002, 2.238592e-001
4.744028e+002, 2.189129e-001
4.763313e+002, 2.138823e-001
4.782598e+002, 2.093112e-001
4.801882e+002, 2.041703e-001
4.821167e+002, 1.987998e-001
4.840452e+002, 1.949094e-001
4.859736e+002, 1.927216e-001
4.879021e+002, 1.911131e-001
4.898306e+002, 1.903713e-001
4.917590e+002, 1.907260e-001
4.936875e+002, 1.910472e-001
4.956160e+002, 1.921228e-001
4.975444e+002, 1.942312e-001
4.994729e+002, 1.956274e-001
5.014014e+002, 1.983871e-001
5.033298e+002, 2.022045e-001
5.052583e+002, 2.047606e-001
5.071868e+002, 2.066690e-001
5.091152e+002, 2.110209e-001
5.110437e+002, 2.155644e-001
5.129722e+002, 2.184291e-001
5.149006e+002, 2.214448e-001
5.168291e+002, 2.248117e-001
5.187576e+002, 2.275049e-001
5.206860e+002, 2.305853e-001
5.226145e+002, 2.345473e-001
5.245430e+002, 2.378256e-001
5.264714e+002, 2.416159e-001
5.283999e+002, 2.426370e-001
5.303284e+002, 2.427101e-001
5.322568e+002, 2.436203e-001
5.341853e+002, 2.437516e-001
5.361138e+002, 2.433383e-001
5.380422e+002, 2.400811e-001
5.399707e+002, 2.371815e-001
5.418992e+002, 2.350158e-001
5.438276e+002, 2.323730e-001
5.457561e+002, 2.290324e-001
5.476846e+002, 2.269134e-001
5.496130e+002, 2.255287e-001
5.515415e+002, 2.243333e-001
5.534700e+002, 2.231825e-001
5.553984e+002, 2.223765e-001
5.573269e+002, 2.206696e-001
5.592554e+002, 2.184416e-001
5.611838e+002, 2.181792e-001
5.631123e+002, 2.181199e-001
5.650408e+002, 2.167976e-001
5.669692e+002, 2.151522e-001
5.688977e+002, 2.147078e-001
5.708262e+002, 2.156827e-001
5.727546e+002, 2.164272e-001
5.746831e+002, 2.165196e-001
5.766116e+002, 2.165184e-001
5.785400e+002, 2.183488e-001
5.804685e+002, 2.197843e-001
5.823970e+002, 2.202009e-001
5.843254e+002, 2.214159e-001
5.862539e+002, 2.237649e-001
5.881824e+002, 2.261133e-001
5.901108e+002, 2.288303e-001
5.920393e+002, 2.322756e-001
5.939678e+002, 2.367660e-001
5.958962e+002, 2.409036e-001
5.978247e+002, 2.444803e-001
5.997532e+002, 2.494684e-001
6.016816e+002, 2.553432e-001
6.036101e+002, 2.597784e-001
6.055386e+002, 2.622404e-001
6.074670e+002, 2.640010e-001
6.093955e+002, 2.640201e-001
6.113240e+002, 2.619739e-001
6.132524e+002, 2.589153e-001
6.151809e+002, 2.557411e-001
6.171094e+002, 2.524395e-001
6.190378e+002, 2.467339e-001
6.209663e+002, 2.387739e-001
6.228948e+002, 2.295279e-001
6.248232e+002, 2.190229e-001
6.267517e+002, 2.080319e-001
6.286802e+002, 1.972533e-001
6.306086e+002, 1.877763e-001
6.325371e+002, 1.794003e-001
6.344656e+002, 1.728663e-001
6.363940e+002, 1.681006e-001
6.383225e+002, 1.640398e-001
6.402510e+002, 1.610572e-001
6.421794e+002, 1.582108e-001
6.441079e+002, 1.552962e-001
6.460364e+002, 1.525373e-001
6.479648e+002, 1.500703e-001
6.498933e+002, 1.482084e-001
6.518218e+002, 1.469952e-001
6.537502e+002, 1.450233e-001
6.556787e+002, 1.431909e-001
6.576072e+002, 1.421249e-001
6.595356e+002, 1.413426e-001
6.614641e+002, 1.404770e-001
6.633926e+002, 1.394346e-001
6.653210e+002, 1.388007e-001
6.672495e+002, 1.383556e-001
6.691780e+002, 1.376572e-001
6.711064e+002, 1.370675e-001
6.730349e+002, 1.362733e-001
6.749634e+002, 1.354320e-001
6.768918e+002, 1.344795e-001
6.788203e+002, 1.335558e-001
6.807488e+002, 1.327474e-001
6.826772e+002, 1.319081e-001
6.846057e+002, 1.309756e-001
6.865342e+002, 1.298786e-001
6.884626e+002, 1.287396e-001
6.903911e+002, 1.267175e-001
6.923196e+002, 1.249660e-001
6.942480e+002, 1.240384e-001
6.961765e+002, 1.225495e-001
6.981050e+002, 1.203423e-001
7.000334e+002, 1.185286e-001
7.019619e+002, 1.159945e-001
7.038904e+002, 1.130043e-001
7.058188e+002, 1.106605e-001
7.077473e+002, 1.085207e-001
7.096758e+002, 1.061158e-001
7.116042e+002, 1.036451e-001
7.135327e+002, 1.013718e-001
7.154612e+002, 9.926041e-002
7.173896e+002, 9.736453e-002
7.193181e+002, 9.594857e-002
7.212466e+002, 9.488787e-002
7.231750e+002, 9.383001e-002
7.251035e+002, 9.235235e-002
7.270320e+002, 9.084714e-002
7.289604e+002, 9.023380e-002
7.308889e+002, 8.995612e-002
7.328174e+002, 8.930983e-002
7.347458e+002, 8.840615e-002
7.366743e+002, 8.759662e-002
7.386028e+002, 8.714079e-002
7.405313e+002, 8.690982e-002
7.424597e+002, 8.689477e-002
7.443882e+002, 8.649222e-002
7.463167e+002, 8.620401e-002
7.482451e+002, 8.627974e-002
7.501736e+002, 8.585473e-002
7.521021e+002, 8.512229e-002
7.540305e+002, 8.467755e-002
7.559590e+002, 8.447582e-002
7.578875e+002, 8.446726e-002
7.598159e+002, 8.401927e-002
7.617444e+002, 8.341526e-002
7.636729e+002, 8.324114e-002
7.656013e+002, 8.295404e-002
7.675298e+002, 8.227848e-002
7.694583e+002, 8.218128e-002
7.713867e+002, 8.241229e-002
7.733152e+002, 8.242898e-002
7.752437e+002, 8.258415e-002
7.771721e+002, 8.283230e-002
7.791006e+002, 8.308109e-002
7.810291e+002, 8.350550e-002
7.829575e+002, 8.398290e-002
7.848860e+002, 8.433257e-002
7.868145e+002, 8.470762e-002
7.887429e+002, 8.505805e-002
7.906714e+002, 8.537133e-002
7.925999e+002, 8.568598e-002
7.945283e+002, 8.610513e-002
7.964568e+002, 8.657786e-002
7.983853e+002, 8.686567e-002
8.003137e+002, 8.725888e-002
8.022422e+002, 8.757049e-002
8.041707e+002, 8.752910e-002
8.060991e+002, 8.730451e-002
8.080276e+002, 8.710953e-002
8.099561e+002, 8.723027e-002
8.118845e+002, 8.753862e-002
8.138130e+002, 8.793849e-002
8.157415e+002, 8.848773e-002
8.176699e+002, 8.911782e-002
8.195984e+002, 8.992916e-002
8.215269e+002, 9.083087e-002
8.234553e+002, 9.176148e-002
8.253838e+002, 9.249374e-002
8.273123e+002, 9.313013e-002
8.292407e+002, 9.411594e-002
8.311692e+002, 9.540799e-002
8.330977e+002, 9.658939e-002
8.350261e+002, 9.778780e-002
8.369546e+002, 9.914260e-002
8.388831e+002, 1.003338e-001
8.408115e+002, 1.019934e-001
8.427400e+002, 1.039262e-001
8.446685e+002, 1.065494e-001
8.465969e+002, 1.087468e-001
8.485254e+002, 1.107228e-001
8.504539e+002, 1.127447e-001
8.523823e+002, 1.145491e-001
8.543108e+002, 1.164358e-001
8.562393e+002, 1.181981e-001
8.581677e+002, 1.196489e-001
8.600962e+002, 1.207823e-001
8.620247e+002, 1.220052e-001
8.639531e+002, 1.233184e-001
8.658816e+002, 1.246186e-001
8.678101e+002, 1.254787e-001
8.697385e+002, 1.261933e-001
8.716670e+002, 1.267141e-001
8.735955e+002, 1.269590e-001
8.755239e+002, 1.270436e-001
8.774524e+002, 1.267529e-001
8.793809e+002, 1.256156e-001
8.813093e+002, 1.247766e-001
8.832378e+002, 1.240466e-001
8.851663e+002, 1.228451e-001
8.870947e+002, 1.212490e-001
8.890232e+002, 1.199029e-001
8.909517e+002, 1.183609e-001
8.928801e+002, 1.166661e-001
8.948085e+002, 1.154434e-001
8.967370e+002, 1.146908e-001
8.986655e+002, 1.140086e-001
9.005939e+002, 1.136562e-001
9.025224e+002, 1.137699e-001
9.044509e+002, 1.140963e-001
9.063793e+002, 1.149211e-001
9.083078e+002, 1.157831e-001
9.102363e+002, 1.159354e-001
9.121647e+002, 1.152790e-001
9.140932e+002, 1.134938e-001
9.160217e+002, 1.111088e-001
9.179501e+002, 1.085680e-001
9.198786e+002, 1.060607e-001
9.218071e+002, 1.041516e-001
9.237355e+002, 1.027708e-001
9.256640e+002, 1.012163e-001
9.275925e+002, 1.003245e-001
9.295209e+002, 9.997801e-002
9.314494e+002, 9.981495e-002
9.333779e+002, 1.000066e-001
9.353063e+002, 1.003077e-001
9.372348e+002, 1.003490e-001
9.391633e+002, 1.003056e-001
9.410917e+002, 1.003265e-001
9.430202e+002, 1.001815e-001
9.449487e+002, 9.987792e-002
9.468771e+002, 9.981322e-002
9.488056e+002, 1.000251e-001
9.507341e+002, 1.007894e-001
9.526625e+002, 1.019692e-001
9.545910e+002, 1.038262e-001
9.565195e+002, 1.056965e-001
9.584479e+002, 1.079589e-001
9.603764e+002, 1.107401e-001
9.623049e+002, 1.136277e-001
9.642333e+002, 1.167270e-001
9.661618e+002, 1.204822e-001
9.680903e+002, 1.253385e-001
9.700187e+002, 1.305856e-001
9.719472e+002, 1.355771e-001
9.738757e+002, 1.414821e-001
9.758041e+002, 1.484775e-001
9.777326e+002, 1.563615e-001
9.796611e+002, 1.650068e-001
9.815895e+002, 1.705292e-001
9.835180e+002, 1.682838e-001
9.854465e+002, 1.654214e-001
9.873749e+002, 1.686952e-001
9.893034e+002, 1.750691e-001
9.912319e+002, 1.820966e-001
9.931603e+002, 1.895683e-001
9.950888e+002, 1.974277e-001
9.970173e+002, 2.055530e-001
9.989457e+002, 2.140886e-001
1.000874e+003, 2.230360e-001
1.002803e+003, 2.322015e-001
1.004731e+003, 2.403724e-001
1.006660e+003, 2.473423e-001
1.008588e+003, 2.528440e-001
1.010517e+003, 2.567992e-001
1.012445e+003, 2.597264e-001
1.014373e+003, 2.629477e-001
1.016302e+003, 2.674915e-001
1.018230e+003, 2.732036e-001
1.020159e+003, 2.797911e-001
1.022087e+003, 2.875787e-001
1.024016e+003, 2.967188e-001
1.025944e+003, 3.062645e-001
1.027873e+003, 3.156447e-001
1.029801e+003, 3.236805e-001
1.031730e+003, 3.296698e-001
1.033658e+003, 3.339166e-001
1.035587e+003, 3.368796e-001
1.037515e+003, 3.399185e-001
1.039444e+003, 3.433886e-001
1.041372e+003, 3.473734e-001
1.043301e+003, 3.519677e-001
1.045229e+003, 3.572146e-001
1.047157e+003, 3.636586e-001
1.049086e+003, 3.706706e-001
1.051014e+003, 3.774657e-001
1.052943e+003, 3.844323e-001
1.054871e+003, 3.919294e-001
1.056800e+003, 3.994557e-001
1.058728e+003, 4.063295e-001
1.060657e+003, 4.128698e-001
1.062585e+003, 4.179378e-001
1.064514e+003, 4.220352e-001
1.066442e+003, 4.250998e-001
1.068371e+003, 4.263666e-001
1.070299e+003, 4.262152e-001
1.072228e+003, 4.250420e-001
1.074156e+003, 4.231840e-001
1.076084e+003, 4.205845e-001
1.078013e+003, 4.166149e-001
1.079941e+003, 4.118589e-001
1.081870e+003, 4.073853e-001
1.083798e+003, 4.026663e-001
1.085727e+003, 3.975764e-001
1.087655e+003, 3.924116e-001
1.089584e+003, 3.868001e-001
1.091512e+003, 3.813698e-001
1.093441e+003, 3.756373e-001
1.095369e+003, 3.687589e-001
1.097298e+003, 3.608063e-001
1.099226e+003, 3.513724e-001
1.101155e+003, 3.401812e-001
1.103083e+003, 3.269318e-001
1.105011e+003, 3.122231e-001
1.106940e+003, 2.962434e-001
1.108868e+003, 2.800827e-001
1.110797e+003, 2.642307e-001
1.112725e+003, 2.487388e-001
1.114654e+003, 2.334143e-001
1.116582e+003, 2.181579e-001
1.118511e+003, 2.037009e-001
1.120439e+003, 1.898143e-001
1.122368e+003, 1.765007e-001
1.124296e+003, 1.639470e-001
1.126225e+003, 1.526337e-001
1.128153e+003, 1.419740e-001
1.130082e+003, 1.317198e-001
1.132010e+003, 1.221020e-001
1.133938e+003, 1.131383e-001
1.135867e+003, 1.046728e-001
1.137795e+003, 9.667832e-002
1.139724e+003, 8.910390e-002
1.141652e+003, 8.208085e-002
1.143581e+003, 7.618923e-002
1.145509e+003, 7.076254e-002
1.147438e+003, 6.545685e-002
1.149366e+003, 6.054684e-002
1.151295e+003, 5.636919e-002
1.153223e+003, 5.294427e-002
1.155152e+003, 4.971879e-002
1.157080e+003, 4.676975e-002
1.159009e+003, 4.432710e-002
1.160937e+003, 4.217805e-002
1.162865e+003, 4.015582e-002
1.164794e+003, 3.849750e-002
1.166722e+003, 3.719067e-002
1.168651e+003, 3.600080e-002
1.170579e+003, 3.470842e-002
1.172508e+003, 3.329883e-002
1.174436e+003, 3.221864e-002
1.176365e+003, 3.136421e-002
1.178293e+003, 3.042259e-002
1.180222e+003, 2.963346e-002
1.182150e+003, 2.864222e-002
1.184079e+003, 2.780936e-002
1.186007e+003, 2.739181e-002
1.187936e+003, 2.703820e-002
1.189864e+003, 2.651833e-002
1.191792e+003, 2.604691e-002
1.193721e+003, 2.562732e-002
1.195649e+003, 2.521081e-002
1.197578e+003, 2.471182e-002
1.199506e+003, 2.435020e-002
1.201435e+003, 2.396229e-002
1.203363e+003, 2.355030e-002
1.205292e+003, 2.346669e-002
1.207220e+003, 2.315651e-002
1.209149e+003, 2.281748e-002
1.211077e+003, 2.259443e-002
1.213006e+003, 2.235973e-002
1.214934e+003, 2.226144e-002
1.216863e+003, 2.223896e-002
1.218791e+003, 2.205127e-002
1.220719e+003, 2.156779e-002
1.222648e+003, 2.118199e-002
1.224576e+003, 2.120868e-002
1.226505e+003, 2.138967e-002
1.228433e+003, 2.122059e-002
1.230362e+003, 2.109583e-002
1.232290e+003, 2.092140e-002
1.234219e+003, 2.049031e-002
1.236147e+003, 2.034435e-002
1.238076e+003, 2.037021e-002
1.240004e+003, 2.000429e-002
1.241933e+003, 1.988564e-002
1.243861e+003, 1.986316e-002
1.245790e+003, 1.961494e-002
1.247718e+003, 1.951264e-002
1.249646e+003, 1.967893e-002
1.251575e+003, 1.965628e-002
1.253503e+003, 1.938586e-002
1.255432e+003, 1.915245e-002
1.257360e+003, 1.918231e-002
1.259289e+003, 1.944485e-002
1.261217e+003, 1.931153e-002
1.263146e+003, 1.923602e-002
1.265074e+003, 1.931788e-002
1.267003e+003, 1.937681e-002
1.268931e+003, 1.922411e-002
1.270860e+003, 1.914790e-002
1.272788e+003, 1.924582e-002
1.274717e+003, 1.912840e-002
1.276645e+003, 1.918467e-002
1.278573e+003, 1.941823e-002
1.280502e+003, 1.932499e-002
1.282430e+003, 1.940543e-002
1.284359e+003, 1.927213e-002
1.286287e+003, 1.902059e-002
1.288216e+003, 1.920519e-002
1.290144e+003, 1.922935e-002
1.292073e+003, 1.926668e-002
1.294001e+003, 1.944042e-002
1.295930e+003, 1.951749e-002
1.297858e+003, 1.924001e-002
1.299787e+003, 1.939682e-002
1.301715e+003, 1.962838e-002
1.303644e+003, 1.956803e-002
1.305572e+003, 1.952537e-002
1.307500e+003, 1.970311e-002
1.309429e+003, 1.984142e-002
1.311357e+003, 1.971908e-002
1.313286e+003, 1.945656e-002
1.315214e+003, 1.959286e-002
1.317143e+003, 1.989667e-002
1.319071e+003, 2.012404e-002
1.321000e+003, 2.010854e-002
1.322928e+003, 1.994725e-002
1.324857e+003, 1.989567e-002
1.326785e+003, 2.025179e-002
1.328714e+003, 2.052684e-002
1.330642e+003, 2.032235e-002
1.332571e+003, 2.039237e-002
1.334499e+003, 2.059907e-002
1.336427e+003, 2.054552e-002
1.338356e+003, 2.026615e-002
1.340284e+003, 2.024252e-002
1.342213e+003, 2.055421e-002
1.344141e+003, 2.063592e-002
1.346070e+003, 2.073766e-002
1.347998e+003, 2.069759e-002
1.349927e+003, 2.075496e-002
1.351855e+003, 2.104993e-002
1.353784e+003, 2.135754e-002
1.355712e+003, 2.130519e-002
1.357641e+003, 2.135406e-002
1.359569e+003, 2.135142e-002
1.361498e+003, 2.144850e-002
1.363426e+003, 2.166994e-002
1.365354e+003, 2.159507e-002
1.367283e+003, 2.157755e-002
1.369211e+003, 2.148563e-002
1.371140e+003, 2.119884e-002
1.373068e+003, 2.129753e-002
1.374997e+003, 2.146797e-002
1.376925e+003, 2.164977e-002
1.378854e+003, 2.162856e-002
1.380782e+003, 2.185550e-002
1.382711e+003, 2.197712e-002
1.384639e+003, 2.177363e-002
1.386568e+003, 2.171974e-002
1.388496e+003, 2.172185e-002
1.390424e+003, 2.197496e-002
1.392353e+003, 2.234408e-002
1.394281e+003, 2.246612e-002
1.396210e+003, 2.261660e-002
1.398138e+003, 2.256182e-002
1.400067e+003, 2.239384e-002
1.401995e+003, 2.261861e-002
1.403924e+003, 2.286668e-002
1.405852e+003, 2.320318e-002
1.407781e+003, 2.341019e-002
1.409709e+003, 2.344725e-002
1.411638e+003, 2.363141e-002
1.413566e+003, 2.368195e-002
1.415495e+003, 2.372235e-002
1.417423e+003, 2.357297e-002
1.419351e+003, 2.329478e-002
1.421280e+003, 2.372559e-002
1.423208e+003, 2.417343e-002
1.425137e+003, 2.434138e-002
1.427065e+003, 2.442336e-002
1.428994e+003, 2.457349e-002
1.430922e+003, 2.470117e-002
1.432851e+003, 2.490433e-002
1.434779e+003, 2.487714e-002
1.436708e+003, 2.494481e-002
1.438636e+003, 2.531292e-002
1.440565e+003, 2.544651e-002
1.442493e+003, 2.579198e-002
1.444422e+003, 2.606414e-002
1.446350e+003, 2.613581e-002
1.448278e+003, 2.605571e-002
1.450207e+003, 2.606526e-002
1.452135e+003, 2.621632e-002
1.454064e+003, 2.626932e-002
1.455992e+003, 2.617608e-002
1.457921e+003, 2.630541e-002
1.459849e+003, 2.622112e-002
1.461778e+003, 2.648862e-002
1.463706e+003, 2.684660e-002
1.465635e+003, 2.675605e-002
1.467563e+003, 2.674176e-002
1.469492e+003, 2.654099e-002
1.471420e+003, 2.623330e-002
1.473349e+003, 2.641709e-002
1.475277e+003, 2.644545e-002
1.477205e+003, 2.640341e-002
1.479134e+003, 2.644498e-002
1.481062e+003, 2.620716e-002
1.482991e+003, 2.625025e-002
1.484919e+003, 2.646792e-002
1.486848e+003, 2.646991e-002
1.488776e+003, 2.652979e-002
1.490705e+003, 2.681585e-002
1.492633e+003, 2.703511e-002
1.494562e+003, 2.721606e-002
1.496490e+003, 2.725703e-002
1.498419e+003, 2.709502e-002
1.500347e+003, 2.713118e-002
1.502276e+003, 2.736525e-002
1.504204e+003, 2.755159e-002
1.506132e+003, 2.761597e-002
1.508061e+003, 2.769428e-002
1.509989e+003, 2.793844e-002
1.511918e+003, 2.835156e-002
1.513846e+003, 2.847645e-002
1.515775e+003, 2.846380e-002
1.517703e+003, 2.849067e-002
1.519632e+003, 2.866678e-002
1.521560e+003, 2.888258e-002
1.523489e+003, 2.907514e-002
1.525417e+003, 2.929497e-002
1.527346e+003, 2.968518e-002
1.529274e+003, 2.975901e-002
1.531203e+003, 2.991551e-002
1.533131e+003, 3.001998e-002
1.535059e+003, 3.043099e-002
1.536988e+003, 3.089575e-002
1.538916e+003, 3.109620e-002
1.540845e+003, 3.138103e-002
1.542773e+003, 3.143364e-002
1.544702e+003, 3.179298e-002
1.546630e+003, 3.246035e-002
1.548559e+003, 3.270818e-002
1.550487e+003, 3.275285e-002
1.552416e+003, 3.275368e-002
1.554344e+003, 3.298736e-002
1.556273e+003, 3.343360e-002
1.558201e+003, 3.372678e-002
1.560130e+003, 3.402302e-002
1.562058e+003, 3.426473e-002
1.563986e+003, 3.459581e-002
1.565915e+003, 3.499290e-002
1.567843e+003, 3.491600e-002
1.569772e+003, 3.501228e-002
1.571700e+003, 3.556427e-002
1.573629e+003, 3.623511e-002
1.575557e+003, 3.661010e-002
1.577486e+003, 3.674308e-002
1.579414e+003, 3.701680e-002
1.581343e+003, 3.735510e-002
1.583271e+003, 3.770356e-002
1.585200e+003, 3.795119e-002
1.587128e+003, 3.821145e-002
1.589057e+003, 3.850269e-002
1.590985e+003, 3.876588e-002
1.592913e+003, 3.956284e-002
1.594842e+003, 4.007134e-002
1.596770e+003, 4.014177e-002
1.598699e+003, 4.022960e-002
1.600627e+003, 4.089985e-002
1.602556e+003, 4.134796e-002
1.604484e+003, 4.189584e-002
1.606413e+003, 4.255564e-002
1.608341e+003, 4.327650e-002
1.610270e+003, 4.393996e-002
1.612198e+003, 4.483029e-002
1.614127e+003, 4.568211e-002
1.616055e+003, 4.648029e-002
1.617984e+003, 4.738294e-002
1.619912e+003, 4.810986e-002
1.621840e+003, 4.896143e-002
1.623769e+003, 4.979343e-002
1.625697e+003, 5.036388e-002
1.627626e+003, 5.139308e-002
1.629554e+003, 5.281954e-002
1.631483e+003, 5.369009e-002
1.633411e+003, 5.427493e-002
1.635340e+003, 5.523347e-002
1.637268e+003, 5.624129e-002
1.639197e+003, 5.697204e-002
1.641125e+003, 5.776818e-002
1.643054e+003, 5.855408e-002
1.644982e+003, 5.878156e-002
1.646911e+003, 5.898031e-002
1.648839e+003, 5.916537e-002
1.650767e+003, 5.933183e-002
1.652696e+003, 5.942743e-002
1.654624e+003, 5.953489e-002
1.656553e+003, 5.978294e-002
1.658481e+003, 6.029343e-002
1.660410e+003, 6.082238e-002
1.662338e+003, 6.167381e-002
1.664267e+003, 6.319918e-002
1.666195e+003, 6.461257e-002
1.668124e+003, 6.551475e-002
1.670052e+003, 6.639583e-002
1.671981e+003, 6.646904e-002
1.673909e+003, 6.484319e-002
1.675838e+003, 6.241969e-002
1.677766e+003, 5.961767e-002
1.679694e+003, 5.610187e-002
1.681623e+003, 5.261220e-002
1.683551e+003, 4.938940e-002
1.685480e+003, 4.691863e-002
1.687408e+003, 4.444901e-002
1.689337e+003, 4.171307e-002
1.691265e+003, 3.996428e-002
1.693194e+003, 3.872240e-002
1.695122e+003, 3.700465e-002
1.697051e+003, 3.535230e-002
1.698979e+003, 3.417236e-002
1.700908e+003, 3.303698e-002
1.702836e+003, 3.220867e-002
1.704765e+003, 3.096783e-002
1.706693e+003, 3.004259e-002
1.708621e+003, 2.956598e-002
1.710550e+003, 2.902351e-002
1.712478e+003, 2.856967e-002
1.714407e+003, 2.804016e-002
1.716335e+003, 2.731675e-002
1.718264e+003, 2.707872e-002
1.720192e+003, 2.685465e-002
1.722121e+003, 2.606044e-002
1.724049e+003, 2.532059e-002
1.725978e+003, 2.479554e-002
1.727906e+003, 2.442100e-002
1.729835e+003, 2.383376e-002
1.731763e+003, 2.330348e-002
1.733692e+003, 2.269665e-002
1.735620e+003, 2.203073e-002
1.737548e+003, 2.161009e-002
1.739477e+003, 2.103042e-002
1.741405e+003, 2.027184e-002
1.743334e+003, 2.009655e-002
1.745262e+003, 2.030052e-002
1.747191e+003, 1.998034e-002
1.749119e+003, 1.945785e-002
1.751048e+003, 1.930789e-002
1.752976e+003, 1.952656e-002
1.754905e+003, 2.019423e-002
1.756833e+003, 2.021804e-002
1.758762e+003, 2.024717e-002
1.760690e+003, 1.992703e-002
1.762619e+003, 1.943249e-002
1.764547e+003, 1.940097e-002
1.766475e+003, 1.930921e-002
1.768404e+003, 1.933774e-002
1.770332e+003, 1.909173e-002
1.772261e+003, 1.873770e-002
1.774189e+003, 1.851906e-002
1.776118e+003, 1.790847e-002
1.778046e+003, 1.793654e-002
1.779975e+003, 1.803773e-002
1.781903e+003, 1.801322e-002
1.783832e+003, 1.840740e-002
1.785760e+003, 1.824107e-002
1.787689e+003, 1.811978e-002
1.789617e+003, 1.748607e-002
1.791546e+003, 1.687699e-002
1.793474e+003, 1.730657e-002
1.795402e+003, 1.746388e-002
1.797331e+003, 1.734842e-002
1.799259e+003, 1.716517e-002
1.801188e+003, 1.696874e-002
1.803116e+003, 1.700754e-002
1.805045e+003, 1.665279e-002
1.806973e+003, 1.667872e-002
1.808902e+003, 1.657316e-002
1.810830e+003, 1.611986e-002
1.812759e+003, 1.607590e-002
1.814687e+003, 1.615536e-002
1.816616e+003, 1.590568e-002
1.818544e+003, 1.547952e-002
1.820473e+003, 1.508243e-002
1.822401e+003, 1.552855e-002
1.824329e+003, 1.622997e-002
1.826258e+003, 1.580533e-002
1.828186e+003, 1.541329e-002
1.830115e+003, 1.567690e-002
1.832043e+003, 1.577924e-002
1.833972e+003, 1.577663e-002
1.835900e+003, 1.610867e-002
1.837829e+003, 1.597169e-002
1.839757e+003, 1.547958e-002
1.841686e+003, 1.524456e-002
1.843614e+003, 1.574843e-002
1.845543e+003, 1.622660e-002
1.847471e+003, 1.647009e-002
1.849400e+003, 1.591085e-002
1.851328e+003, 1.586975e-002
1.853256e+003, 1.546533e-002
1.855185e+003, 1.516711e-002
1.857113e+003, 1.519491e-002
1.859042e+003, 1.510368e-002
1.860970e+003, 1.510823e-002
1.862899e+003, 1.559299e-002
1.864827e+003, 1.559345e-002
1.866756e+003, 1.541274e-002
1.868684e+003, 1.479526e-002
1.870613e+003, 1.540624e-002
1.872541e+003, 1.621006e-002
1.874470e+003, 1.555397e-002
1.876398e+003, 1.479682e-002
1.878327e+003, 1.527938e-002
1.880255e+003, 1.587464e-002
1.882183e+003, 1.515839e-002
1.884112e+003, 1.580670e-002
1.886040e+003, 1.563298e-002
1.887969e+003, 1.444654e-002
1.889897e+003, 1.490933e-002
1.891826e+003, 1.503307e-002
1.893754e+003, 1.451597e-002
1.895683e+003, 1.325659e-002
1.897611e+003, 1.249040e-002
1.899540e+003, 1.383451e-002
1.901468e+003, 1.515878e-002
1.903397e+003, 1.495488e-002
1.905325e+003, 1.474334e-002
1.907254e+003, 1.446509e-002
1.909182e+003, 1.419343e-002
1.911110e+003, 1.579999e-002
1.913039e+003, 1.634476e-002
1.914967e+003, 1.517870e-002
1.916896e+003, 1.464856e-002
1.918824e+003, 1.290977e-002
1.920753e+003, 1.272117e-002
1.922681e+003, 1.398660e-002
1.924610e+003, 1.423878e-002
1.926538e+003, 1.391094e-002
1.928467e+003, 1.365340e-002
1.930395e+003, 1.259626e-002
1.932324e+003, 1.244149e-002
1.934252e+003, 1.348046e-002
1.936181e+003, 1.404840e-002
1.938109e+003, 1.448917e-002
1.940037e+003, 1.473584e-002
1.941966e+003, 1.435371e-002
1.943894e+003, 1.311618e-002
1.945823e+003, 1.278306e-002
1.947751e+003, 1.295024e-002
1.949680e+003, 1.202416e-002
1.951608e+003, 1.201927e-002
1.953537e+003, 1.208741e-002
1.955465e+003, 1.231790e-002
1.957394e+003, 1.219608e-002
1.959322e+003, 1.227547e-002
1.961251e+003, 1.295481e-002
1.963179e+003, 1.232319e-002
1.965108e+003, 1.150467e-002
1.967036e+003, 1.362543e-002
1.968964e+003, 1.407852e-002
1.970893e+003, 1.205690e-002
1.972821e+003, 9.997169e-003
1.974750e+003, 1.060003e-002
1.976678e+003, 1.191024e-002
1.978607e+003, 1.144085e-002
1.980535e+003, 1.194572e-002
1.982464e+003, 1.498524e-002
1.984392e+003, 1.596855e-002
1.986321e+003, 1.499912e-002
1.988249e+003, 1.447028e-002
1.990178e+003, 1.369749e-002
1.992106e+003, 1.300376e-002
1.994035e+003, 1.448631e-002
1.995963e+003, 1.362369e-002
1.997891e+003, 1.153109e-002
1.999820e+003, 1.135161e-002
2.001748e+003, 1.124866e-002
2.003677e+003, 8.103390e-003
2.005605e+003, 6.300223e-003
2.007534e+003, 8.874305e-003
2.009462e+003, 1.065364e-002
2.011391e+003, 1.093059e-002
2.013319e+003, 1.091601e-002
2.015248e+003, 1.243985e-002
2.017176e+003, 1.359170e-002
2.019105e+003, 1.305620e-002
2.021033e+003, 1.210172e-002
2.022962e+003, 1.158260e-002
2.024890e+003, 1.133663e-002
2.026818e+003, 1.191660e-002
2.028747e+003, 1.330244e-002
2.030675e+003, 1.123722e-002
2.032604e+003, 1.066323e-002
2.034532e+003, 1.278744e-002
2.036461e+003, 1.294669e-002
2.038389e+003, 1.310220e-002
2.040318e+003, 1.250306e-002
2.042246e+003, 1.163987e-002
2.044175e+003, 1.386113e-002
2.046103e+003, 1.645347e-002
2.048032e+003, 1.778739e-002
2.049960e+003, 1.692141e-002
2.051889e+003, 1.606426e-002
2.053817e+003, 1.506547e-002
2.055746e+003, 1.329202e-002
2.057674e+003, 1.266322e-002
2.059603e+003, 1.505780e-002
2.061531e+003, 1.672645e-002
2.063459e+003, 1.645841e-002
2.065388e+003, 1.724239e-002
2.067316e+003, 1.782037e-002
2.069245e+003, 1.813868e-002
2.071173e+003, 1.779040e-002
2.073102e+003, 1.706552e-002
2.075030e+003, 1.690449e-002
2.076959e+003, 1.737266e-002
2.078887e+003, 1.898880e-002
2.080816e+003, 2.089506e-002
2.082744e+003, 2.133346e-002
2.084673e+003, 2.094750e-002
2.086601e+003, 1.934915e-002
2.088530e+003, 1.859354e-002
2.090458e+003, 1.938194e-002
2.092386e+003, 1.824568e-002
2.094315e+003, 1.750878e-002
2.096243e+003, 1.889201e-002
2.098172e+003, 1.908736e-002
2.100100e+003, 1.912543e-002
2.102029e+003, 1.862791e-002
2.103957e+003, 1.701421e-002
2.105886e+003, 1.753332e-002
2.107814e+003, 1.905476e-002
2.109743e+003, 1.953168e-002
2.111671e+003, 1.802986e-002
2.113600e+003, 1.668452e-002
2.115528e+003, 1.730855e-002
2.117457e+003, 1.822810e-002
2.119385e+003, 1.768015e-002
2.121313e+003, 1.621826e-002
2.123242e+003, 1.638323e-002
2.125170e+003, 1.720427e-002
2.127099e+003, 1.583335e-002
2.129027e+003, 1.361270e-002
2.130956e+003, 1.365921e-002
2.132884e+003, 1.382601e-002
2.134813e+003, 1.518808e-002
2.136741e+003, 1.643883e-002
2.138670e+003, 1.375512e-002
2.140598e+003, 1.212089e-002
2.142527e+003, 1.354212e-002
2.144455e+003, 1.380004e-002
2.146384e+003, 1.045370e-002
2.148312e+003, 1.127479e-002
2.150240e+003, 1.224818e-002
2.152169e+003, 1.292382e-002
2.154097e+003, 1.263874e-002
2.156026e+003, 1.105833e-002
2.157954e+003, 8.702140e-003
2.159883e+003, 1.131588e-002
2.161811e+003, 1.197776e-002
2.163740e+003, 1.201938e-002
2.165668e+003, 1.325440e-002
2.167597e+003, 1.275675e-002
2.169525e+003, 1.133955e-002
2.171454e+003, 1.266379e-002
2.173382e+003, 1.454717e-002
2.175311e+003, 1.733594e-002
2.177239e+003, 1.773023e-002
2.179167e+003, 1.454124e-002
2.181096e+003, 1.214712e-002
2.183024e+003, 1.345101e-002
2.184953e+003, 1.187928e-002
2.186881e+003, 1.198472e-002
2.188810e+003, 1.389346e-002
2.190738e+003, 1.465272e-002
2.192667e+003, 1.486610e-002
2.194595e+003, 1.383271e-002
2.196524e+003, 1.406849e-002
2.198452e+003, 1.604900e-002
2.200381e+003, 1.744359e-002
2.202309e+003, 1.617549e-002
2.204238e+003, 1.510265e-002
2.206166e+003, 1.537403e-002
2.208094e+003, 1.706262e-002
2.210023e+003, 1.747431e-002
2.211951e+003, 1.690250e-002
2.213880e+003, 1.591936e-002
2.215808e+003, 1.728233e-002
2.217737e+003, 1.986932e-002
2.219665e+003, 2.033080e-002
2.221594e+003, 1.926814e-002
2.223522e+003, 1.813499e-002
2.225451e+003, 1.961300e-002
2.227379e+003, 2.091452e-002
2.229308e+003, 2.107657e-002
2.231236e+003, 2.068786e-002
2.233165e+003, 1.963734e-002
2.235093e+003, 1.919364e-002
2.237021e+003, 1.951159e-002
2.238950e+003, 2.251049e-002
2.240878e+003, 2.436201e-002
2.242807e+003, 2.385134e-002
2.244735e+003, 2.297956e-002
2.246664e+003, 2.303375e-002
2.248592e+003, 2.356667e-002
2.250521e+003, 2.384061e-002
2.252449e+003, 2.340696e-002
2.254378e+003, 2.419970e-002
2.256306e+003, 2.550988e-002
2.258235e+003, 2.491719e-002
2.260163e+003, 2.421552e-002
2.262092e+003, 2.366316e-002
2.264020e+003, 2.393349e-002
2.265948e+003, 2.480987e-002
2.267877e+003, 2.602209e-002
2.269805e+003, 2.738267e-002
2.271734e+003, 2.792321e-002
2.273662e+003, 2.797512e-002
2.275591e+003, 2.702812e-002
2.277519e+003, 2.728131e-002
2.279448e+003, 2.838917e-002
2.281376e+003, 2.931191e-002
2.283305e+003, 2.967324e-002
2.285233e+003, 3.033615e-002
2.287162e+003, 3.003645e-002
2.289090e+003, 2.987668e-002
2.291019e+003, 2.963098e-002
2.292947e+003, 2.963988e-002
2.294875e+003, 2.986318e-002
2.296804e+003, 3.026600e-002
2.298732e+003, 3.051339e-002
2.300661e+003, 3.063433e-002
2.302589e+003, 3.057056e-002
2.304518e+003, 3.113505e-002
2.306446e+003, 3.176936e-002
2.308375e+003, 3.184669e-002
2.310303e+003, 3.154407e-002
2.312232e+003, 3.194609e-002
2.314160e+003, 3.230904e-002
2.316089e+003, 3.180276e-002
2.318017e+003, 3.238351e-002
2.319946e+003, 3.340560e-002
2.321874e+003, 3.362552e-002
2.323802e+003, 3.315961e-002
2.325731e+003, 3.255558e-002
2.327659e+003, 3.226203e-002
2.329588e+003, 3.281382e-002
2.331516e+003, 3.382723e-002
2.333445e+003, 3.418343e-002
2.335373e+003, 3.443612e-002
2.337302e+003, 3.460541e-002
2.339230e+003, 3.396864e-002
2.341159e+003, 3.360850e-002
2.343087e+003, 3.422447e-002
2.345016e+003, 3.462854e-002
2.346944e+003, 3.346009e-002
2.348873e+003, 3.320437e-002
2.350801e+003, 3.399774e-002
2.352729e+003, 3.451907e-002
2.354658e+003, 3.503184e-002
2.356586e+003, 3.606211e-002
2.358515e+003, 3.658886e-002
2.360443e+003, 3.721575e-002
2.362372e+003, 3.727766e-002
2.364300e+003, 3.753078e-002
2.366229e+003, 3.699848e-002
2.368157e+003, 3.557711e-002
2.370086e+003, 3.584845e-002
2.372014e+003, 3.590472e-002
2.373942e+003, 3.567029e-002
2.375871e+003, 3.556359e-002
2.377799e+003, 3.467666e-002
2.379728e+003, 3.450543e-002
2.381656e+003, 3.432854e-002
2.383585e+003, 3.447342e-002
2.385513e+003, 3.559585e-002
2.387442e+003, 3.557370e-002
2.389370e+003, 3.495471e-002
2.391299e+003, 3.554065e-002
2.393227e+003, 3.629093e-002
2.395156e+003, 3.635691e-002
2.397084e+003, 3.663280e-002
2.399012e+003, 3.650123e-002
2.400941e+003, 3.594042e-002
2.402869e+003, 3.708570e-002
2.404798e+003, 3.820455e-002
2.406726e+003, 3.768130e-002
2.408655e+003, 3.722643e-002
2.410583e+003, 3.662790e-002
2.412512e+003, 3.694533e-002
2.414440e+003, 3.752900e-002
2.416369e+003, 3.706353e-002
2.418297e+003, 3.664711e-002
2.420226e+003, 3.750598e-002
2.422154e+003, 3.788533e-002
2.424083e+003, 3.822320e-002
2.426011e+003, 3.818384e-002
2.427939e+003, 3.869845e-002
2.429868e+003, 3.882942e-002
2.431796e+003, 3.862971e-002
2.433725e+003, 3.861492e-002
2.435653e+003, 3.864318e-002
2.437582e+003, 3.988959e-002
2.439510e+003, 4.023569e-002
2.441439e+003, 3.978060e-002
2.443367e+003, 3.984926e-002
2.445296e+003, 4.037033e-002
2.447224e+003, 3.991603e-002
2.449153e+003, 3.912715e-002
2.451081e+003, 4.000163e-002
2.453010e+003, 4.062644e-002
2.454938e+003, 4.031172e-002
2.456866e+003, 3.886255e-002
2.458795e+003, 3.871868e-002
2.460723e+003, 4.004327e-002
2.462652e+003, 4.056635e-002
2.464580e+003, 3.975366e-002
2.466509e+003, 3.970199e-002
2.468437e+003, 3.980756e-002
2.470366e+003, 3.995224e-002
2.472294e+003, 3.978636e-002
2.474223e+003, 3.859028e-002
2.476151e+003, 3.907119e-002
2.478080e+003, 4.014756e-002
2.480008e+003, 3.948881e-002
2.481937e+003, 3.815231e-002
2.483865e+003, 3.919564e-002
2.485793e+003, 3.978806e-002
2.487722e+003, 4.056725e-002
2.489650e+003, 4.165629e-002
2.491579e+003, 4.101525e-002
2.493507e+003, 3.955096e-002
2.495436e+003, 3.917803e-002
2.497364e+003, 3.981942e-002
2.499293e+003, 4.022024e-002
2.501221e+003, 4.043560e-002
2.503150e+003, 4.006501e-002
2.505078e+003, 3.967956e-002
2.507007e+003, 3.877894e-002
2.508935e+003, 3.847578e-002
2.510864e+003, 3.864516e-002
2.512792e+003, 3.951458e-002
2.514720e+003, 4.099722e-002
2.516649e+003, 4.052923e-002
2.518577e+003, 3.993883e-002
2.520506e+003, 3.963069e-002
2.522434e+003, 3.852237e-002
2.524363e+003, 3.734877e-002
2.526291e+003, 3.759341e-002
2.528220e+003, 3.747144e-002
2.530148e+003, 3.737425e-002
2.532077e+003, 3.718776e-002
2.534005e+003, 3.699463e-002
2.535934e+003, 3.700932e-002
2.537862e+003, 3.689459e-002
2.539791e+003, 3.658879e-002
2.541719e+003, 3.554602e-002
2.543647e+003, 3.636254e-002
2.545576e+003, 3.570065e-002
2.547504e+003, 3.533564e-002
2.549433e+003, 3.644158e-002
2.551361e+003, 3.694801e-002
2.553290e+003, 3.691874e-002
2.555218e+003, 3.726799e-002
2.557147e+003, 3.786187e-002
2.559075e+003, 3.772646e-002
2.561004e+003, 3.775814e-002
2.562932e+003, 3.756924e-002
2.564861e+003, 3.644738e-002
2.566789e+003, 3.664722e-002
2.568718e+003, 3.615443e-002
2.570646e+003, 3.453850e-002
2.572574e+003, 3.450577e-002
2.574503e+003, 3.496581e-002
2.576431e+003, 3.459052e-002
2.578360e+003, 3.473670e-002
2.580288e+003, 3.530552e-002
2.582217e+003, 3.526277e-002
2.584145e+003, 3.569943e-002
2.586074e+003, 3.542165e-002
2.588002e+003, 3.435546e-002
2.589931e+003, 3.493976e-002
2.591859e+003, 3.542600e-002
2.593788e+003, 3.599048e-002
2.595716e+003, 3.582297e-002
2.597645e+003, 3.572671e-002
2.599573e+003, 3.616076e-002
2.601501e+003, 3.549037e-002
2.603430e+003, 3.548223e-002
2.605358e+003, 3.545881e-002
2.607287e+003, 3.589267e-002
2.609215e+003, 3.639755e-002
2.611144e+003, 3.600882e-002
2.613072e+003, 3.638546e-002
2.615001e+003, 3.676130e-002
2.616929e+003, 3.585117e-002
2.618858e+003, 3.579547e-002
2.620786e+003, 3.715552e-002
2.622715e+003, 3.740276e-002
2.624643e+003, 3.707076e-002
2.626572e+003, 3.687937e-002
2.628500e+003, 3.701935e-002
2.630428e+003, 3.690535e-002
2.632357e+003, 3.710655e-002
2.634285e+003, 3.722616e-002
2.636214e+003, 3.767065e-002
2.638142e+003, 3.780545e-002
2.640071e+003, 3.793254e-002
2.641999e+003, 3.741159e-002
2.643928e+003, 3.706326e-002
2.645856e+003, 3.780980e-002
2.647785e+003, 3.845387e-002
2.649713e+003, 3.843767e-002
2.651642e+003, 3.799308e-002
2.653570e+003, 3.794339e-002
2.655499e+003, 3.782938e-002
2.657427e+003, 3.800436e-002
2.659355e+003, 3.903382e-002
2.661284e+003, 3.919858e-002
2.663212e+003, 3.897935e-002
2.665141e+003, 3.892063e-002
2.667069e+003, 3.919878e-002
2.668998e+003, 3.912028e-002
2.670926e+003, 3.877349e-002
2.672855e+003, 3.927877e-002
2.674783e+003, 4.010451e-002
2.676712e+003, 4.031871e-002
2.678640e+003, 4.083237e-002
2.680569e+003, 4.064671e-002
2.682497e+003, 4.004086e-002
2.684426e+003, 4.106640e-002
2.686354e+003, 4.204291e-002
2.688282e+003, 4.186442e-002
2.690211e+003, 4.094644e-002
2.692139e+003, 4.061832e-002
2.694068e+003, 4.047811e-002
2.695996e+003, 4.111832e-002
2.697925e+003, 4.254460e-002
2.699853e+003, 4.296943e-002
2.701782e+003, 4.354015e-002
2.703710e+003, 4.409616e-002
2.705639e+003, 4.414530e-002
2.707567e+003, 4.460234e-002
2.709496e+003, 4.462412e-002
2.711424e+003, 4.377106e-002
2.713353e+003, 4.386798e-002
2.715281e+003, 4.521599e-002
2.717209e+003, 4.632894e-002
2.719138e+003, 4.585723e-002
2.721066e+003, 4.667895e-002
2.722995e+003, 4.764807e-002
2.724923e+003, 4.705031e-002
2.726852e+003, 4.662048e-002
2.728780e+003, 4.704456e-002
2.730709e+003, 4.775640e-002
2.732637e+003, 4.923541e-002
2.734566e+003, 5.009836e-002
2.736494e+003, 4.991608e-002
2.738423e+003, 5.039524e-002
2.740351e+003, 5.054952e-002
2.742280e+003, 5.089543e-002
2.744208e+003, 5.052447e-002
2.746136e+003, 5.041465e-002
2.748065e+003, 5.121379e-002
2.749993e+003, 5.189401e-002
2.751922e+003, 5.134754e-002
2.753850e+003, 5.142972e-002
2.755779e+003, 5.221606e-002
2.757707e+003, 5.301013e-002
2.759636e+003, 5.338492e-002
2.761564e+003, 5.470297e-002
2.763493e+003, 5.527090e-002
2.765421e+003, 5.535945e-002
2.767350e+003, 5.601850e-002
2.769278e+003, 5.627280e-002
2.771207e+003, 5.740631e-002
2.773135e+003, 5.723763e-002
2.775063e+003, 5.704362e-002
2.776992e+003, 5.734271e-002
2.778920e+003, 5.744984e-002
2.780849e+003, 5.816429e-002
2.782777e+003, 5.939025e-002
2.784706e+003, 6.007482e-002
2.786634e+003, 6.080440e-002
2.788563e+003, 6.195934e-002
2.790491e+003, 6.200248e-002
2.792420e+003, 6.220835e-002
2.794348e+003, 6.290770e-002
2.796277e+003, 6.452212e-002
2.798205e+003, 6.483289e-002
2.800134e+003, 6.520565e-002
2.802062e+003, 6.642231e-002
2.803990e+003, 6.655142e-002
2.805919e+003, 6.594940e-002
2.807847e+003, 6.654609e-002
2.809776e+003, 6.756369e-002
2.811704e+003, 6.880367e-002
2.813633e+003, 6.993253e-002
2.815561e+003, 7.084761e-002
2.817490e+003, 7.094916e-002
2.819418e+003, 7.220270e-002
2.821347e+003, 7.320142e-002
2.823275e+003, 7.276853e-002
2.825204e+003, 7.376307e-002
2.827132e+003, 7.511180e-002
2.829061e+003, 7.590596e-002
2.830989e+003, 7.684108e-002
2.832917e+003, 7.757156e-002
2.834846e+003, 7.764708e-002
2.836774e+003, 7.867689e-002
2.838703e+003, 7.965863e-002
2.840631e+003, 8.110946e-002
2.842560e+003, 8.314009e-002
2.844488e+003, 8.339139e-002
2.846417e+003, 8.459377e-002
2.848345e+003, 8.618808e-002
2.850274e+003, 8.679342e-002
2.852202e+003, 8.707935e-002
2.854131e+003, 8.746942e-002
2.856059e+003, 8.746454e-002
2.857988e+003, 8.895924e-002
2.859916e+003, 9.126602e-002
2.861844e+003, 9.227549e-002
2.863773e+003, 9.212951e-002
2.865701e+003, 9.299255e-002
2.867630e+003, 9.450723e-002
2.869558e+003, 9.644080e-002
2.871487e+003, 9.771235e-002
2.873415e+003, 9.731337e-002
2.875344e+003, 9.714901e-002
2.877272e+003, 9.861127e-002
2.879201e+003, 1.004742e-001
2.881129e+003, 1.018779e-001
2.883058e+003, 1.034317e-001
2.884986e+003, 1.054600e-001
2.886915e+003, 1.058098e-001
2.888843e+003, 1.066217e-001
2.890771e+003, 1.086748e-001
2.892700e+003, 1.099520e-001
2.894628e+003, 1.107264e-001
2.896557e+003, 1.118917e-001
2.898485e+003, 1.141599e-001
2.900414e+003, 1.170038e-001
2.902342e+003, 1.186313e-001
2.904271e+003, 1.191315e-001
2.906199e+003, 1.199745e-001
2.908128e+003, 1.213275e-001
2.910056e+003, 1.227255e-001
2.911985e+003, 1.248884e-001
2.913913e+003, 1.268577e-001
2.915842e+003, 1.279406e-001
2.917770e+003, 1.294693e-001
2.919698e+003, 1.309351e-001
2.921627e+003, 1.314325e-001
2.923555e+003, 1.319700e-001
2.925484e+003, 1.334762e-001
2.927412e+003, 1.353932e-001
2.929341e+003, 1.369956e-001
2.931269e+003, 1.371790e-001
2.933198e+003, 1.382764e-001
2.935126e+003, 1.395264e-001
2.937055e+003, 1.405400e-001
2.938983e+003, 1.425721e-001
2.940912e+003, 1.450863e-001
2.942840e+003, 1.451406e-001
2.944769e+003, 1.464577e-001
2.946697e+003, 1.487243e-001
2.948625e+003, 1.509833e-001
2.950554e+003, 1.530645e-001
2.952482e+003, 1.559107e-001
2.954411e+003, 1.578374e-001
2.956339e+003, 1.592345e-001
2.958268e+003, 1.609938e-001
2.960196e+003, 1.627873e-001
2.962125e+003, 1.643969e-001
2.964053e+003, 1.664614e-001
2.965982e+003, 1.694118e-001
2.967910e+003, 1.699308e-001
2.969839e+003, 1.705764e-001
2.971767e+003, 1.743080e-001
2.973696e+003, 1.771358e-001
2.975624e+003, 1.789268e-001
2.977552e+003, 1.814546e-001
2.979481e+003, 1.829394e-001
2.981409e+003, 1.831236e-001
2.983338e+003, 1.848564e-001
2.985266e+003, 1.888380e-001
2.987195e+003, 1.932137e-001
2.989123e+003, 1.969913e-001
2.991052e+003, 1.988898e-001
2.992980e+003, 2.012606e-001
2.994909e+003, 2.032052e-001
2.996837e+003, 2.058537e-001
2.998766e+003, 2.085668e-001
3.000694e+003, 2.123099e-001
3.002623e+003, 2.156029e-001
3.004551e+003, 2.184948e-001
3.006479e+003, 2.234501e-001
3.008408e+003, 2.269709e-001
3.010336e+003, 2.287726e-001
3.012265e+003, 2.321644e-001
3.014193e+003, 2.358427e-001
3.016122e+003, 2.391600e-001
3.018050e+003, 2.423622e-001
3.019979e+003, 2.456241e-001
3.021907e+003, 2.487325e-001
3.023836e+003, 2.510942e-001
3.025764e+003, 2.540323e-001
3.027693e+003, 2.586702e-001
3.029621e+003, 2.627399e-001
3.031550e+003, 2.661408e-001
3.033478e+003, 2.684349e-001
3.035406e+003, 2.716580e-001
3.037335e+003, 2.764353e-001
3.039263e+003, 2.795395e-001
3.041192e+003, 2.838032e-001
3.043120e+003, 2.868713e-001
3.045049e+003, 2.895708e-001
3.046977e+003, 2.929991e-001
3.048906e+003, 2.957840e-001
3.050834e+003, 2.994576e-001
3.052763e+003, 3.040000e-001
3.054691e+003, 3.087071e-001
3.056620e+003, 3.128965e-001
3.058548e+003, 3.160912e-001
3.060477e+003, 3.178553e-001
3.062405e+003, 3.213151e-001
3.064333e+003, 3.271553e-001
3.066262e+003, 3.314078e-001
3.068190e+003, 3.345759e-001
3.070119e+003, 3.376990e-001
3.072047e+003, 3.426265e-001
3.073976e+003, 3.464260e-001
3.075904e+003, 3.482228e-001
3.077833e+003, 3.519261e-001
3.079761e+003, 3.544373e-001
3.081690e+003, 3.565007e-001
3.083618e+003, 3.614317e-001
3.085547e+003, 3.658651e-001
3.087475e+003, 3.664086e-001
3.089404e+003, 3.656794e-001
3.091332e+003, 3.688870e-001
3.093260e+003, 3.741681e-001
3.095189e+003, 3.762969e-001
3.097117e+003, 3.789860e-001
3.099046e+003, 3.820965e-001
3.100974e+003, 3.855151e-001
3.102903e+003, 3.886464e-001
3.104831e+003, 3.901030e-001
3.106760e+003, 3.911666e-001
3.108688e+003, 3.931870e-001
3.110617e+003, 3.961323e-001
3.112545e+003, 3.980988e-001
3.114474e+003, 3.977273e-001
3.116402e+003, 3.987693e-001
3.118331e+003, 4.022607e-001
3.120259e+003, 4.038095e-001
3.122188e+003, 4.028681e-001
3.124116e+003, 4.024712e-001
3.126044e+003, 4.035133e-001
3.127973e+003, 4.039399e-001
3.129901e+003, 4.052488e-001
3.131830e+003, 4.060239e-001
3.133758e+003, 4.066753e-001
3.135687e+003, 4.055628e-001
3.137615e+003, 4.056878e-001
3.139544e+003, 4.072874e-001
3.141472e+003, 4.074214e-001
3.143401e+003, 4.072503e-001
3.145329e+003, 4.079227e-001
3.147258e+003, 4.077317e-001
3.149186e+003, 4.071197e-001
3.151115e+003, 4.071849e-001
3.153043e+003, 4.070902e-001
3.154971e+003, 4.048686e-001
3.156900e+003, 4.043703e-001
3.158828e+003, 4.083420e-001
3.160757e+003, 4.110772e-001
3.162685e+003, 4.110279e-001
3.164614e+003, 4.108062e-001
3.166542e+003, 4.095763e-001
3.168471e+003, 4.078287e-001
3.170399e+003, 4.065531e-001
3.172328e+003, 4.057111e-001
3.174256e+003, 4.055666e-001
3.176185e+003, 4.040662e-001
3.178113e+003, 4.025543e-001
3.180042e+003, 4.025698e-001
3.181970e+003, 4.015148e-001
3.183898e+003, 3.991877e-001
3.185827e+003, 4.001250e-001
3.187755e+003, 3.993065e-001
3.189684e+003, 3.974171e-001
3.191612e+003, 3.964528e-001
3.193541e+003, 3.935289e-001
3.195469e+003, 3.900360e-001
3.197398e+003, 3.881477e-001
3.199326e+003, 3.862244e-001
3.201255e+003, 3.839241e-001
3.203183e+003, 3.799115e-001
3.205112e+003, 3.779235e-001
3.207040e+003, 3.761752e-001
3.208969e+003, 3.743826e-001
3.210897e+003, 3.710054e-001
3.212825e+003, 3.680694e-001
3.214754e+003, 3.643220e-001
3.216682e+003, 3.614711e-001
3.218611e+003, 3.600039e-001
3.220539e+003, 3.564703e-001
3.222468e+003, 3.532370e-001
3.224396e+003, 3.497287e-001
3.226325e+003, 3.467035e-001
3.228253e+003, 3.433291e-001
3.230182e+003, 3.406173e-001
3.232110e+003, 3.376472e-001
3.234039e+003, 3.360761e-001
3.235967e+003, 3.366108e-001
3.237896e+003, 3.368272e-001
3.239824e+003, 3.355634e-001
3.241752e+003, 3.325215e-001
3.243681e+003, 3.283568e-001
3.245609e+003, 3.247804e-001
3.247538e+003, 3.227280e-001
3.249466e+003, 3.222837e-001
3.251395e+003, 3.206218e-001
3.253323e+003, 3.186221e-001
3.255252e+003, 3.173159e-001
3.257180e+003, 3.150961e-001
3.259109e+003, 3.106330e-001
3.261037e+003, 3.101372e-001
3.262966e+003, 3.097271e-001
3.264894e+003, 3.073469e-001
3.266823e+003, 3.056018e-001
3.268751e+003, 3.068563e-001
3.270679e+003, 3.072689e-001
3.272608e+003, 3.068426e-001
3.274536e+003, 3.050831e-001
3.276465e+003, 3.018207e-001
3.278393e+003, 2.990377e-001
3.280322e+003, 2.994862e-001
3.282250e+003, 2.998340e-001
3.284179e+003, 2.997082e-001
3.286107e+003, 2.984616e-001
3.288036e+003, 2.975301e-001
3.289964e+003, 2.970515e-001
3.291893e+003, 2.956607e-001
3.293821e+003, 2.955517e-001
3.295750e+003, 2.953452e-001
3.297678e+003, 2.938814e-001
3.299606e+003, 2.932056e-001
3.301535e+003, 2.921759e-001
3.303463e+003, 2.919799e-001
3.305392e+003, 2.917255e-001
3.307320e+003, 2.912952e-001
3.309249e+003, 2.909936e-001
3.311177e+003, 2.896199e-001
3.313106e+003, 2.871704e-001
3.315034e+003, 2.860368e-001
3.316963e+003, 2.877368e-001
3.318891e+003, 2.873114e-001
3.320820e+003, 2.853136e-001
3.322748e+003, 2.831528e-001
3.324677e+003, 2.816612e-001
3.326605e+003, 2.802809e-001
3.328533e+003, 2.776526e-001
3.330462e+003, 2.764427e-001
3.332390e+003, 2.754571e-001
3.334319e+003, 2.733782e-001
3.336247e+003, 2.712350e-001
3.338176e+003, 2.699425e-001
3.340104e+003, 2.696240e-001
3.342033e+003, 2.664268e-001
3.343961e+003, 2.634619e-001
3.345890e+003, 2.616097e-001
3.347818e+003, 2.594393e-001
3.349747e+003, 2.575989e-001
3.351675e+003, 2.558553e-001
3.353604e+003, 2.540709e-001
3.355532e+003, 2.523114e-001
3.357460e+003, 2.512712e-001
3.359389e+003, 2.505006e-001
3.361317e+003, 2.473413e-001
3.363246e+003, 2.433684e-001
3.365174e+003, 2.389395e-001
3.367103e+003, 2.356274e-001
3.369031e+003, 2.345415e-001
3.370960e+003, 2.341451e-001
3.372888e+003, 2.320257e-001
3.374817e+003, 2.267218e-001
3.376745e+003, 2.251085e-001
3.378674e+003, 2.230233e-001
3.380602e+003, 2.206513e-001
3.382531e+003, 2.205994e-001
3.384459e+003, 2.190481e-001
3.386387e+003, 2.157747e-001
3.388316e+003, 2.142424e-001
3.390244e+003, 2.132921e-001
3.392173e+003, 2.094756e-001
3.394101e+003, 2.057060e-001
3.396030e+003, 2.032026e-001
3.397958e+003, 2.027076e-001
3.399887e+003, 2.016187e-001
3.401815e+003, 1.982473e-001
3.403744e+003, 1.951218e-001
3.405672e+003, 1.946258e-001
3.407601e+003, 1.919539e-001
3.409529e+003, 1.873355e-001
3.411458e+003, 1.842051e-001
3.413386e+003, 1.801727e-001
3.415314e+003, 1.791266e-001
3.417243e+003, 1.788282e-001
3.419171e+003, 1.742093e-001
3.421100e+003, 1.710544e-001
3.423028e+003, 1.703387e-001
3.424957e+003, 1.706977e-001
3.426885e+003, 1.696915e-001
3.428814e+003, 1.689433e-001
3.430742e+003, 1.670456e-001
3.432671e+003, 1.637383e-001
3.434599e+003, 1.626265e-001
3.436528e+003, 1.614937e-001
3.438456e+003, 1.607947e-001
3.440385e+003, 1.598254e-001
3.442313e+003, 1.593917e-001
3.444241e+003, 1.576416e-001
3.446170e+003, 1.559568e-001
3.448098e+003, 1.542079e-001
3.450027e+003, 1.523519e-001
3.451955e+003, 1.534276e-001
3.453884e+003, 1.535452e-001
3.455812e+003, 1.535310e-001
3.457741e+003, 1.523332e-001
3.459669e+003, 1.534828e-001
3.461598e+003, 1.546170e-001
3.463526e+003, 1.519479e-001
3.465455e+003, 1.513493e-001
3.467383e+003, 1.535429e-001
3.469312e+003, 1.560171e-001
3.471240e+003, 1.542497e-001
3.473168e+003, 1.527978e-001
3.475097e+003, 1.528781e-001
3.477025e+003, 1.516226e-001
3.478954e+003, 1.527877e-001
3.480882e+003, 1.499235e-001
3.482811e+003, 1.443380e-001
3.484739e+003, 1.407258e-001
3.486668e+003, 1.379128e-001
3.488596e+003, 1.347584e-001
3.490525e+003, 1.328418e-001
3.492453e+003, 1.312174e-001
3.494382e+003, 1.260289e-001
3.496310e+003, 1.181821e-001
3.498239e+003, 1.140539e-001
3.500167e+003, 1.120157e-001
3.502095e+003, 1.081375e-001
3.504024e+003, 1.025839e-001
3.505952e+003, 9.950016e-002
3.507881e+003, 9.742829e-002
3.509809e+003, 9.434457e-002
3.511738e+003, 8.999889e-002
3.513666e+003, 8.788393e-002
3.515595e+003, 8.492511e-002
3.517523e+003, 8.236445e-002
3.519452e+003, 7.814724e-002
3.521380e+003, 7.441242e-002
3.523309e+003, 7.516211e-002
3.525237e+003, 7.421006e-002
3.527166e+003, 7.164704e-002
3.529094e+003, 7.036442e-002
3.531022e+003, 6.871644e-002
3.532951e+003, 6.724215e-002
3.534879e+003, 6.476409e-002
3.536808e+003, 5.865629e-002
3.538736e+003, 5.335405e-002
3.540665e+003, 5.242874e-002
3.542593e+003, 5.323235e-002
3.544522e+003, 5.642733e-002
3.546450e+003, 5.526636e-002
3.548379e+003, 4.857280e-002
3.550307e+003, 4.535630e-002
3.552236e+003, 4.750036e-002
3.554164e+003, 4.785943e-002
3.556093e+003, 4.484847e-002
3.558021e+003, 4.260420e-002
3.559949e+003, 3.979209e-002
3.561878e+003, 3.900723e-002
3.563806e+003, 3.942851e-002
3.565735e+003, 3.880304e-002
3.567663e+003, 3.642071e-002
3.569592e+003, 3.592174e-002
3.571520e+003, 3.551598e-002
3.573449e+003, 3.403030e-002
3.575377e+003, 3.342963e-002
3.577306e+003, 3.457003e-002
3.579234e+003, 3.388744e-002
3.581163e+003, 3.311823e-002
3.583091e+003, 3.165464e-002
3.585020e+003, 3.063419e-002
3.586948e+003, 3.109631e-002
3.588876e+003, 3.175453e-002
3.590805e+003, 3.154090e-002
3.592733e+003, 2.891256e-002
3.594662e+003, 2.689404e-002
3.596590e+003, 2.894518e-002
3.598519e+003, 2.856296e-002
3.600447e+003, 2.649584e-002
3.602376e+003, 2.600654e-002
3.604304e+003, 2.734191e-002
3.606233e+003, 2.700979e-002
3.608161e+003, 2.786360e-002
3.610090e+003, 2.694874e-002
3.612018e+003, 2.773111e-002
3.613947e+003, 2.964340e-002
3.615875e+003, 3.231515e-002
3.617803e+003, 3.486591e-002
3.619732e+003, 3.133403e-002
3.621660e+003, 3.025548e-002
3.623589e+003, 3.135737e-002
3.625517e+003, 2.953744e-002
3.627446e+003, 2.630742e-002
3.629374e+003, 2.370200e-002
3.631303e+003, 2.215036e-002
3.633231e+003, 2.022958e-002
3.635160e+003, 1.828206e-002
3.637088e+003, 1.815400e-002
3.639017e+003, 1.867732e-002
3.640945e+003, 1.936915e-002
3.642874e+003, 1.913737e-002
3.644802e+003, 1.828340e-002
3.646730e+003, 1.976412e-002
3.648659e+003, 1.814731e-002
3.650587e+003, 1.428308e-002
3.652516e+003, 1.476782e-002
3.654444e+003, 1.782081e-002
3.656373e+003, 2.059099e-002
3.658301e+003, 1.860680e-002
3.660230e+003, 1.618434e-002
3.662158e+003, 1.855767e-002
3.664087e+003, 1.624125e-002
3.666015e+003, 1.568479e-002
3.667944e+003, 1.734213e-002
3.669872e+003, 1.424578e-002
3.671801e+003, 1.282701e-002
3.673729e+003, 1.568891e-002
3.675657e+003, 1.537604e-002
3.677586e+003, 1.327697e-002
3.679514e+003, 1.254047e-002
3.681443e+003, 1.488736e-002
3.683371e+003, 1.742766e-002
3.685300e+003, 1.859587e-002
3.687228e+003, 2.179954e-002
3.689157e+003, 2.531615e-002
3.691085e+003, 2.812094e-002
3.693014e+003, 2.860107e-002
3.694942e+003, 2.969044e-002
3.696871e+003, 3.013174e-002
3.698799e+003, 2.593698e-002
3.700728e+003, 2.424193e-002
3.702656e+003, 2.351155e-002
3.704584e+003, 1.933347e-002
3.706513e+003, 1.563483e-002
3.708441e+003, 1.253033e-002
3.710370e+003, 1.074984e-002
3.712298e+003, 9.911269e-003
3.714227e+003, 9.151106e-003
3.716155e+003, 7.221155e-003
3.718084e+003, 6.235720e-003
3.720012e+003, 6.111758e-003
3.721941e+003, 7.037924e-003
3.723869e+003, 7.262792e-003
3.725798e+003, 6.288191e-003
3.727726e+003, 7.044398e-003
3.729655e+003, 9.563994e-003
3.731583e+003, 9.167755e-003
3.733511e+003, 7.416553e-003
3.735440e+003, 8.110357e-003
3.737368e+003, 8.106329e-003
3.739297e+003, 6.023183e-003
3.741225e+003, 4.818596e-003
3.743154e+003, 5.260499e-003
3.745082e+003, 4.178873e-003
3.747011e+003, 4.262806e-003
3.748939e+003, 3.821686e-003
3.750868e+003, 5.873427e-003
3.752796e+003, 7.388658e-003
3.754725e+003, 6.924492e-003
3.756653e+003, 7.172698e-003
3.758582e+003, 8.237702e-003
3.760510e+003, 5.381898e-003
3.762438e+003, 3.383912e-003
3.764367e+003, 4.839269e-003
3.766295e+003, 6.508635e-003
3.768224e+003, 6.348640e-003
3.770152e+003, 5.435303e-003
3.772081e+003, 6.498431e-003
3.774009e+003, 7.877930e-003
3.775938e+003, 7.729596e-003
3.777866e+003, 7.228288e-003
3.779795e+003, 9.990668e-003
3.781723e+003, 1.069560e-002
3.783652e+003, 1.040340e-002
3.785580e+003, 9.742102e-003
3.787509e+003, 7.106450e-003
3.789437e+003, 6.883981e-003
3.791365e+003, 9.081935e-003
3.793294e+003, 1.125113e-002
3.795222e+003, 9.611457e-003
3.797151e+003, 6.914166e-003
3.799079e+003, 8.854749e-003
3.801008e+003, 9.136566e-003
3.802936e+003, 8.401531e-003
3.804865e+003, 1.003816e-002
3.806793e+003, 1.057366e-002
3.808722e+003, 9.960985e-003
3.810650e+003, 8.967406e-003
3.812579e+003, 9.833694e-003
3.814507e+003, 8.684867e-003
3.816436e+003, 7.613801e-003
3.818364e+003, 7.732424e-003
3.820292e+003, 9.047369e-003
3.822221e+003, 1.054590e-002
3.824149e+003, 1.135643e-002
3.826078e+003, 7.151570e-003
3.828006e+003, 5.706809e-003
3.829935e+003, 8.870912e-003
3.831863e+003, 6.478801e-003
3.833792e+003, 3.549796e-003
3.835720e+003, 2.950531e-003
3.837649e+003, 7.526085e-003
3.839577e+003, 1.058111e-002
3.841506e+003, 1.022191e-002
3.843434e+003, 9.729711e-003
3.845363e+003, 6.919430e-003
3.847291e+003, 2.081326e-003
3.849219e+003, 3.920460e-003
3.851148e+003, 7.713306e-003
3.853076e+003, 8.973544e-003
3.855005e+003, 8.393190e-003
3.856933e+003, 9.970080e-003
3.858862e+003, 8.962208e-003
3.860790e+003, 6.856119e-003
3.862719e+003, 8.158788e-003
3.864647e+003, 7.529125e-003
3.866576e+003, 6.874497e-003
3.868504e+003, 8.437267e-003
3.870433e+003, 8.336947e-003
3.872361e+003, 9.159197e-003
3.874290e+003, 1.048171e-002
3.876218e+003, 1.151119e-002
3.878146e+003, 1.135235e-002
3.880075e+003, 9.121343e-003
3.882003e+003, 7.357127e-003
3.883932e+003, 8.902701e-003
3.885860e+003, 9.568538e-003
3.887789e+003, 8.772206e-003
3.889717e+003, 9.308976e-003
3.891646e+003, 7.468392e-003
3.893574e+003, 7.413005e-003
3.895503e+003, 8.665319e-003
3.897431e+003, 6.505786e-003
3.899360e+003, 4.391694e-003
3.901288e+003, 5.858473e-003
3.903217e+003, 9.631956e-003
3.905145e+003, 9.803160e-003
3.907073e+003, 9.004680e-003
3.909002e+003, 7.637654e-003
3.910930e+003, 8.741708e-003
3.912859e+003, 1.046735e-002
3.914787e+003, 1.120903e-002
3.916716e+003, 1.110965e-002
3.918644e+003, 9.962030e-003
3.920573e+003, 9.433110e-003
3.922501e+003, 1.012519e-002
3.924430e+003, 1.049254e-002
3.926358e+003, 6.679450e-003
3.928287e+003, 3.986770e-003
3.930215e+003, 3.264839e-003
3.932144e+003, 3.684341e-003
3.934072e+003, 7.150524e-003
3.936000e+003, 8.417106e-003
3.937929e+003, 9.443775e-003
3.939857e+003, 1.193849e-002
3.941786e+003, 1.306975e-002
3.943714e+003, 1.481405e-002
3.945643e+003, 1.268355e-002
3.947571e+003, 1.073012e-002
3.949500e+003, 1.210240e-002
3.951428e+003, 1.030641e-002
3.953357e+003, 7.294100e-003
3.955285e+003, 1.168173e-002
3.957214e+003, 1.607256e-002
3.959142e+003, 1.601259e-002
3.961071e+003, 1.584699e-002
3.962999e+003, 1.146273e-002
3.964927e+003, 4.894722e-003
3.966856e+003, 6.816169e-003
3.968784e+003, 1.164256e-002
3.970713e+003, 1.137299e-002
3.972641e+003, 1.034228e-002
3.974570e+003, 9.770288e-003
3.976498e+003, 9.975255e-003
3.978427e+003, 8.517108e-003
3.980355e+003, 1.198485e-002
3.982284e+003, 1.311175e-002
3.984212e+003, 7.326238e-003
3.986141e+003, 5.019325e-003
3.988069e+003, 9.449089e-003
3.989998e+003, 1.278471e-002
3.991926e+003, 1.006558e-002
3.993854e+003, 7.902080e-003
3.995783e+003, 9.225635e-003
3.997711e+003, 1.077444e-002
3.999640e+003, 1.077964e-002
4.001568e+003, 0.000000e+000
##END=



