##NAMES=Chalcopyrite
##RRUFFID=R050559
##IDEAL CHEMISTRY=Cu^1+^Fe^3+^S^2-^_2_
##LOCALITY=Recuerdo Vein, Haunzala mine, Huallanca District, Dos de Mayo Province, Huanuco Department, Peru
##OWNER=RRUFF
##SOURCE=Dave Bunk Minerals
##DESCRIPTION=Brass-yellow striated crystals
##STATUS=The identification of this mineral has been confirmed by X-ray diffraction and chemical analysis
##URL=rruff.info/R050559
##MEASURED CHEMISTRY=Cu^1+^_1.00_Fe^3+^_1.00_S_2.00_
399.1926, 0.2611128
401.1211, 0.2683506
403.0496, 0.2696407
404.9780, 0.2691324
406.9065, 0.2712009
408.8350, 0.2742574
410.7634, 0.2800801
412.6919, 0.2810721
414.6204, 0.2781925
416.5488, 0.2835197
418.4773, 0.2880472
420.4058, 0.2858043
422.3342, 0.2908716
424.2627, 0.2965211
426.1912, 0.3013778
428.1196, 0.3040705
430.0481, 0.3025091
431.9766, 0.3022983
433.9050, 0.2998029
435.8335, 0.3006590
437.7620, 0.3046844
439.6904, 0.3060642
441.6189, 0.3089504
443.5474, 0.3141288
445.4758, 0.3133941
447.4043, 0.3117417
449.3328, 0.3145606
451.2612, 0.3205640
453.1897, 0.3206537
455.1182, 0.3191717
457.0466, 0.3205158
458.9751, 0.3193096
460.9036, 0.3204529
462.8320, 0.3236403
464.7605, 0.3240584
466.6890, 0.3263829
468.6174, 0.3278298
470.5459, 0.3276503
472.4744, 0.3287657
474.4028, 0.3278780
476.3313, 0.3262524
478.2598, 0.3289955
480.1882, 0.3312519
482.1167, 0.3314768
484.0452, 0.3331407
485.9736, 0.3308691
487.9021, 0.3309065
489.8306, 0.3338746
491.7590, 0.3360988
493.6875, 0.3392897
495.6160, 0.3413105
497.5444, 0.3408501
499.4729, 0.3402711
501.4014, 0.3423401
503.3298, 0.3441317
505.2583, 0.3455882
507.1868, 0.3466702
509.1152, 0.3474097
511.0437, 0.3468714
512.9722, 0.3471762
514.9006, 0.3490046
516.8291, 0.3496101
518.7576, 0.3497834
520.6860, 0.3500312
522.6145, 0.3520075
524.5430, 0.3536074
526.4714, 0.3522624
528.3999, 0.3517150
530.3284, 0.3518854
532.2568, 0.3524409
534.1853, 0.3546973
536.1138, 0.3566869
538.0422, 0.3566886
539.9707, 0.3576827
541.8992, 0.3592411
543.8276, 0.3585945
545.7561, 0.3576431
547.6846, 0.3585890
549.6130, 0.3612587
551.5415, 0.3614884
553.4700, 0.3627405
555.3984, 0.3644707
557.3269, 0.3634410
559.2554, 0.3628606
561.1838, 0.3634924
563.1123, 0.3647054
565.0408, 0.3642554
566.9692, 0.3647088
568.8977, 0.3663185
570.8262, 0.3666848
572.7546, 0.3673953
574.6831, 0.3670660
576.6116, 0.3673838
578.5400, 0.3686465
580.4685, 0.3687603
582.3970, 0.3693318
584.3254, 0.3718146
586.2539, 0.3722294
588.1824, 0.3715989
590.1108, 0.3726617
592.0393, 0.3731967
593.9678, 0.3741492
595.8962, 0.3756825
597.8247, 0.3756512
599.7532, 0.3749769
601.6816, 0.3749200
603.6101, 0.3744678
605.5386, 0.3753899
607.4670, 0.3766869
609.3955, 0.3767071
611.3240, 0.3757066
613.2524, 0.3763829
615.1809, 0.3783531
617.1094, 0.3789375
619.0378, 0.3784209
620.9663, 0.3783523
622.8948, 0.3803652
624.8232, 0.3811961
626.7517, 0.3810269
628.6802, 0.3814833
630.6086, 0.3809171
632.5371, 0.3809775
634.4656, 0.3818933
636.3940, 0.3823830
638.3225, 0.3829034
640.2510, 0.3827810
642.1794, 0.3823682
644.1079, 0.3831261
646.0364, 0.3831393
647.9648, 0.3821414
649.8933, 0.3819723
651.8218, 0.3833094
653.7502, 0.3851227
655.6787, 0.3851396
657.6072, 0.3855032
659.5356, 0.3855506
661.4641, 0.3847104
663.3926, 0.3843884
665.3210, 0.3857163
667.2495, 0.3868938
669.1780, 0.3869069
671.1064, 0.3864926
673.0349, 0.3864023
674.9634, 0.3868661
676.8918, 0.3872692
678.8203, 0.3876892
680.7488, 0.3876882
682.6772, 0.3886022
684.6057, 0.3894923
686.5342, 0.3899303
688.4626, 0.3902117
690.3911, 0.3902930
692.3196, 0.3907049
694.2480, 0.3910650
696.1765, 0.3911264
698.1050, 0.3916119
700.0334, 0.3923269
701.9619, 0.3932086
703.8904, 0.3935278
705.8188, 0.3931823
707.7473, 0.3946602
709.6758, 0.3957876
711.6042, 0.3957154
713.5327, 0.3970381
715.4612, 0.3977250
717.3896, 0.3970684
719.3181, 0.3975688
721.2466, 0.3987854
723.1750, 0.4000371
725.1035, 0.3999166
727.0320, 0.3996100
728.9604, 0.4002484
730.8889, 0.4015808
732.8174, 0.4021704
734.7458, 0.4019274
736.6743, 0.4021989
738.6028, 0.4023899
740.5313, 0.4028273
742.4597, 0.4030026
744.3882, 0.4042406
746.3167, 0.4053165
748.2451, 0.4057586
750.1736, 0.4059965
752.1021, 0.4063584
754.0305, 0.4072637
755.9590, 0.4083519
757.8875, 0.4094705
759.8159, 0.4100324
761.7444, 0.4105129
763.6729, 0.4109307
765.6013, 0.4118153
767.5298, 0.4123151
769.4583, 0.4121618
771.3867, 0.4119536
773.3152, 0.4126652
775.2437, 0.4136114
777.1721, 0.4145930
779.1006, 0.4146339
781.0291, 0.4150447
782.9575, 0.4155819
784.8860, 0.4165725
786.8145, 0.4173212
788.7429, 0.4180835
790.6714, 0.4189020
792.5999, 0.4179047
794.5283, 0.4180867
796.4568, 0.4189813
798.3853, 0.4196425
800.3137, 0.4199102
802.2422, 0.4205896
804.1707, 0.4205320
806.0991, 0.4208278
808.0276, 0.4212745
809.9561, 0.4217638
811.8845, 0.4230438
813.8130, 0.4240178
815.7415, 0.4243809
817.6699, 0.4245742
819.5984, 0.4251446
821.5269, 0.4251056
823.4553, 0.4248869
825.3838, 0.4254728
827.3123, 0.4250197
829.2407, 0.4261210
831.1692, 0.4275647
833.0977, 0.4280000
835.0261, 0.4284176
836.9546, 0.4288442
838.8831, 0.4294418
840.8115, 0.4302706
842.7400, 0.4306910
844.6685, 0.4308916
846.5969, 0.4308872
848.5254, 0.4309593
850.4539, 0.4319400
852.3823, 0.4327089
854.3108, 0.4324001
856.2393, 0.4326054
858.1677, 0.4336761
860.0962, 0.4341684
862.0247, 0.4346481
863.9531, 0.4347163
865.8816, 0.4351625
867.8101, 0.4360202
869.7385, 0.4370854
871.6670, 0.4375367
873.5955, 0.4376142
875.5239, 0.4383739
877.4524, 0.4384820
879.3809, 0.4383849
881.3093, 0.4390162
883.2378, 0.4400377
885.1663, 0.4398195
887.0947, 0.4392912
889.0232, 0.4398347
890.9517, 0.4412765
892.8801, 0.4416432
894.8085, 0.4419165
896.7370, 0.4427117
898.6655, 0.4432433
900.5939, 0.4437422
902.5224, 0.4441749
904.4509, 0.4440505
906.3793, 0.4444235
908.3078, 0.4454880
910.2363, 0.4457982
912.1647, 0.4460929
914.0932, 0.4464358
916.0217, 0.4467498
917.9501, 0.4473243
919.8786, 0.4477915
921.8071, 0.4484267
923.7355, 0.4492050
925.6640, 0.4494064
927.5925, 0.4502952
929.5209, 0.4509756
931.4494, 0.4512210
933.3779, 0.4516989
935.3063, 0.4521612
937.2348, 0.4524530
939.1633, 0.4529736
941.0917, 0.4536623
943.0202, 0.4537063
944.9487, 0.4537857
946.8771, 0.4546610
948.8056, 0.4553495
950.7341, 0.4558472
952.6625, 0.4568094
954.5910, 0.4577886
956.5195, 0.4583360
958.4479, 0.4586357
960.3764, 0.4591295
962.3049, 0.4592003
964.2333, 0.4594455
966.1618, 0.4600622
968.0903, 0.4602227
970.0187, 0.4609091
971.9472, 0.4615843
973.8757, 0.4622100
975.8041, 0.4628187
977.7326, 0.4630650
979.6611, 0.4634786
981.5895, 0.4640943
983.5180, 0.4644050
985.4465, 0.4649193
987.3749, 0.4654086
989.3034, 0.4655882
991.2319, 0.4656132
993.1603, 0.4664511
995.0888, 0.4664750
997.0173, 0.4664855
998.9457, 0.4675284
1000.874, 0.4683226
1002.803, 0.4684945
1004.731, 0.4685406
1006.660, 0.4685543
1008.588, 0.4687400
1010.517, 0.4688838
1012.445, 0.4692156
1014.373, 0.4698737
1016.302, 0.4703961
1018.230, 0.4700279
1020.159, 0.4701728
1022.087, 0.4707939
1024.016, 0.4710372
1025.944, 0.4712460
1027.873, 0.4720204
1029.801, 0.4731361
1031.730, 0.4739822
1033.658, 0.4738789
1035.587, 0.4742655
1037.515, 0.4758512
1039.444, 0.4760195
1041.372, 0.4757751
1043.301, 0.4761831
1045.229, 0.4763020
1047.157, 0.4763780
1049.086, 0.4764256
1051.014, 0.4770112
1052.943, 0.4773780
1054.871, 0.4771713
1056.800, 0.4773721
1058.728, 0.4780953
1060.657, 0.4784018
1062.585, 0.4782034
1064.514, 0.4786988
1066.442, 0.4792296
1068.371, 0.4791337
1070.299, 0.4796277
1072.228, 0.4803145
1074.156, 0.4803806
1076.084, 0.4804806
1078.013, 0.4808166
1079.941, 0.4814811
1081.870, 0.4815687
1083.798, 0.4812547
1085.727, 0.4812461
1087.655, 0.4816895
1089.584, 0.4822395
1091.512, 0.4821954
1093.441, 0.4817477
1095.369, 0.4817251
1097.298, 0.4817490
1099.226, 0.4818402
1101.155, 0.4819805
1103.083, 0.4822063
1105.011, 0.4829380
1106.940, 0.4832782
1108.868, 0.4826737
1110.797, 0.4825321
1112.725, 0.4826428
1114.654, 0.4823759
1116.582, 0.4820769
1118.511, 0.4819521
1120.439, 0.4819996
1122.368, 0.4824374
1124.296, 0.4821554
1126.225, 0.4823819
1128.153, 0.4834627
1130.082, 0.4839933
1132.010, 0.4842454
1133.938, 0.4845488
1135.867, 0.4849847
1137.795, 0.4856026
1139.724, 0.4858864
1141.652, 0.4865330
1143.581, 0.4869291
1145.509, 0.4868930
1147.438, 0.4872845
1149.366, 0.4872850
1151.295, 0.4873609
1153.223, 0.4871961
1155.152, 0.4865253
1157.080, 0.4863736
1159.009, 0.4860533
1160.937, 0.4857037
1162.865, 0.4863252
1164.794, 0.4866574
1166.722, 0.4868749
1168.651, 0.4872474
1170.579, 0.4872739
1172.508, 0.4872406
1174.436, 0.4877027
1176.365, 0.4881772
1178.293, 0.4884918
1180.222, 0.4887741
1182.150, 0.4886785
1184.079, 0.4887511
1186.007, 0.4892470
1187.936, 0.4895129
1189.864, 0.4895583
1191.792, 0.4898784
1193.721, 0.4901014
1195.649, 0.4905151
1197.578, 0.4909602
1199.506, 0.4907641
1201.435, 0.4907965
1203.363, 0.4909241
1205.292, 0.4905676
1207.220, 0.4899671
1209.149, 0.4896475
1211.077, 0.4896273
1213.006, 0.4893339
1214.934, 0.4891064
1216.863, 0.4886614
1218.791, 0.4886138
1220.719, 0.4883401
1222.648, 0.4876916
1224.576, 0.4876227
1226.505, 0.4878061
1228.433, 0.4878312
1230.362, 0.4877805
1232.290, 0.4876890
1234.219, 0.4877231
1236.147, 0.4880802
1238.076, 0.4884876
1240.004, 0.4888992
1241.933, 0.4889105
1243.861, 0.4892567
1245.790, 0.4896872
1247.718, 0.4903033
1249.646, 0.4909447
1251.575, 0.4913552
1253.503, 0.4919383
1255.432, 0.4923193
1257.360, 0.4925748
1259.289, 0.4930171
1261.217, 0.4937654
1263.146, 0.4942383
1265.074, 0.4947826
1267.003, 0.4950748
1268.931, 0.4956524
1270.860, 0.4971002
1272.788, 0.4976814
1274.717, 0.4977627
1276.645, 0.4989045
1278.573, 0.4997350
1280.502, 0.4996552
1282.430, 0.4999026
1284.359, 0.5001944
1286.287, 0.5009667
1288.216, 0.5016613
1290.144, 0.5022791
1292.073, 0.5031372
1294.001, 0.5038334
1295.930, 0.5037552
1297.858, 0.5042048
1299.787, 0.5045757
1301.715, 0.5050232
1303.644, 0.5060564
1305.572, 0.5066402
1307.500, 0.5068746
1309.429, 0.5070458
1311.357, 0.5074798
1313.286, 0.5079354
1315.214, 0.5083028
1317.143, 0.5089767
1319.071, 0.5095605
1321.000, 0.5097891
1322.928, 0.5103833
1324.857, 0.5108092
1326.785, 0.5112924
1328.714, 0.5117730
1330.642, 0.5119866
1332.571, 0.5121489
1334.499, 0.5124716
1336.427, 0.5130320
1338.356, 0.5133213
1340.284, 0.5134825
1342.213, 0.5139784
1344.141, 0.5146842
1346.070, 0.5146751
1347.998, 0.5143927
1349.927, 0.5144139
1351.855, 0.5144915
1353.784, 0.5149408
1355.712, 0.5153269
1357.641, 0.5155540
1359.569, 0.5156206
1361.498, 0.5156356
1363.426, 0.5158011
1365.354, 0.5162755
1367.283, 0.5168205
1369.211, 0.5173970
1371.140, 0.5182189
1373.068, 0.5186707
1374.997, 0.5192979
1376.925, 0.5198935
1378.854, 0.5203624
1380.782, 0.5202269
1382.711, 0.5197964
1384.639, 0.5206726
1386.568, 0.5216396
1388.496, 0.5220535
1390.424, 0.5223820
1392.353, 0.5233194
1394.281, 0.5241891
1396.210, 0.5248949
1398.138, 0.5248224
1400.067, 0.5248972
1401.995, 0.5257390
1403.924, 0.5262949
1405.852, 0.5265437
1407.781, 0.5266814
1409.709, 0.5272040
1411.638, 0.5278724
1413.566, 0.5280078
1415.495, 0.5278786
1417.423, 0.5280205
1419.351, 0.5285975
1421.280, 0.5292447
1423.208, 0.5295957
1425.137, 0.5300860
1427.065, 0.5299333
1428.994, 0.5299482
1430.922, 0.5306704
1432.851, 0.5314102
1434.779, 0.5319462
1436.708, 0.5312944
1438.636, 0.5306170
1440.565, 0.5307400
1442.493, 0.5311972
1444.422, 0.5316249
1446.350, 0.5318531
1448.278, 0.5320728
1450.207, 0.5324972
1452.135, 0.5327187
1454.064, 0.5328422
1455.992, 0.5327555
1457.921, 0.5319145
1459.849, 0.5316928
1461.778, 0.5318854
1463.706, 0.5319337
1465.635, 0.5322685
1467.563, 0.5324828
1469.492, 0.5330850
1471.420, 0.5343528
1473.349, 0.5360817
1475.277, 0.5374104
1477.205, 0.5376626
1479.134, 0.5377505
1481.062, 0.5385048
1482.991, 0.5385574
1484.919, 0.5390449
1486.848, 0.5398323
1488.776, 0.5403078
1490.705, 0.5402627
1492.633, 0.5405802
1494.562, 0.5411063
1496.490, 0.5414622
1498.419, 0.5415836
1500.347, 0.5412393
1502.276, 0.5415834
1504.204, 0.5428002
1506.132, 0.5436240
1508.061, 0.5436547
1509.989, 0.5438330
1511.918, 0.5441957
1513.846, 0.5441942
1515.775, 0.5446178
1517.703, 0.5449527
1519.632, 0.5453077
1521.560, 0.5454054
1523.489, 0.5457067
1525.417, 0.5458357
1527.346, 0.5455806
1529.274, 0.5456892
1531.203, 0.5456328
1533.131, 0.5462127
1535.059, 0.5471870
1536.988, 0.5474024
1538.916, 0.5470707
1540.845, 0.5471551
1542.773, 0.5472740
1544.702, 0.5472848
1546.630, 0.5477903
1548.559, 0.5480679
1550.487, 0.5482624
1552.416, 0.5489491
1554.344, 0.5489825
1556.273, 0.5489254
1558.201, 0.5491647
1560.130, 0.5493540
1562.058, 0.5492488
1563.986, 0.5491033
1565.915, 0.5495080
1567.843, 0.5505092
1569.772, 0.5507232
1571.700, 0.5502635
1573.629, 0.5507651
1575.557, 0.5516709
1577.486, 0.5512172
1579.414, 0.5509972
1581.343, 0.5515360
1583.271, 0.5519995
1585.200, 0.5518337
1587.128, 0.5520009
1589.057, 0.5521207
1590.985, 0.5521038
1592.913, 0.5525146
1594.842, 0.5530932
1596.770, 0.5533857
1598.699, 0.5528831
1600.627, 0.5531940
1602.556, 0.5539172
1604.484, 0.5537366
1606.413, 0.5538000
1608.341, 0.5541811
1610.270, 0.5548654
1612.198, 0.5552754
1614.127, 0.5550928
1616.055, 0.5548512
1617.984, 0.5549867
1619.912, 0.5554248
1621.840, 0.5557429
1623.769, 0.5560791
1625.697, 0.5555084
1627.626, 0.5556304
1629.554, 0.5564302
1631.483, 0.5564907
1633.411, 0.5565928
1635.340, 0.5563471
1637.268, 0.5567799
1639.197, 0.5570962
1641.125, 0.5567254
1643.054, 0.5571700
1644.982, 0.5577559
1646.911, 0.5580318
1648.839, 0.5578763
1650.767, 0.5579709
1652.696, 0.5587664
1654.624, 0.5589589
1656.553, 0.5585210
1658.481, 0.5584062
1660.410, 0.5587847
1662.338, 0.5592773
1664.267, 0.5594673
1666.195, 0.5594393
1668.124, 0.5594552
1670.052, 0.5597470
1671.981, 0.5604255
1673.909, 0.5606509
1675.838, 0.5602211
1677.766, 0.5603738
1679.694, 0.5610051
1681.623, 0.5618045
1683.551, 0.5628298
1685.480, 0.5627770
1687.408, 0.5626745
1689.337, 0.5632907
1691.265, 0.5635298
1693.194, 0.5637717
1695.122, 0.5641127
1697.051, 0.5649779
1698.979, 0.5654365
1700.908, 0.5653046
1702.836, 0.5650308
1704.765, 0.5652045
1706.693, 0.5653819
1708.621, 0.5654001
1710.550, 0.5651385
1712.478, 0.5653759
1714.407, 0.5655509
1716.335, 0.5660825
1718.264, 0.5663953
1720.192, 0.5665032
1722.121, 0.5671043
1724.049, 0.5677809
1725.978, 0.5680825
1727.906, 0.5678938
1729.835, 0.5674604
1731.763, 0.5671759
1733.692, 0.5664409
1735.620, 0.5651119
1737.548, 0.5647650
1739.477, 0.5646218
1741.405, 0.5637043
1743.334, 0.5642673
1745.262, 0.5650305
1747.191, 0.5648718
1749.119, 0.5650467
1751.048, 0.5662209
1752.976, 0.5666285
1754.905, 0.5679588
1756.833, 0.5694195
1758.762, 0.5703962
1760.690, 0.5719399
1762.619, 0.5723675
1764.547, 0.5728620
1766.475, 0.5731816
1768.404, 0.5729882
1770.332, 0.5734856
1772.261, 0.5740851
1774.189, 0.5739661
1776.118, 0.5739714
1778.046, 0.5747272
1779.975, 0.5749729
1781.903, 0.5749027
1783.832, 0.5750964
1785.760, 0.5758880
1787.689, 0.5757124
1789.617, 0.5753557
1791.546, 0.5766949
1793.474, 0.5772468
1795.402, 0.5765742
1797.331, 0.5764558
1799.259, 0.5763039
1801.188, 0.5768115
1803.116, 0.5778777
1805.045, 0.5779073
1806.973, 0.5774636
1808.902, 0.5769007
1810.830, 0.5764346
1812.759, 0.5764521
1814.687, 0.5758321
1816.616, 0.5762250
1818.544, 0.5770497
1820.473, 0.5778831
1822.401, 0.5786332
1824.329, 0.5783302
1826.258, 0.5785358
1828.186, 0.5787633
1830.115, 0.5783811
1832.043, 0.5784150
1833.972, 0.5780960
1835.900, 0.5775407
1837.829, 0.5782651
1839.757, 0.5783584
1841.686, 0.5781755
1843.614, 0.5779905
1845.543, 0.5789878
1847.471, 0.5798601
1849.400, 0.5796646
1851.328, 0.5795959
1853.256, 0.5800013
1855.185, 0.5801264
1857.113, 0.5795352
1859.042, 0.5785640
1860.970, 0.5779416
1862.899, 0.5784570
1864.827, 0.5786262
1866.756, 0.5787174
1868.684, 0.5798402
1870.613, 0.5802870
1872.541, 0.5804798
1874.470, 0.5812454
1876.398, 0.5808380
1878.327, 0.5803733
1880.255, 0.5801760
1882.183, 0.5805675
1884.112, 0.5823497
1886.040, 0.5801203
1887.969, 0.5791656
1889.897, 0.5817780
1891.826, 0.5818459
1893.754, 0.5810950
1895.683, 0.5826498
1897.611, 0.5822796
1899.540, 0.5815926
1901.468, 0.5809339
1903.397, 0.5811973
1905.325, 0.5804381
1907.254, 0.5800192
1909.182, 0.5809045
1911.110, 0.5801350
1913.039, 0.5803911
1914.967, 0.5804861
1916.896, 0.5814778
1918.824, 0.5798785
1920.753, 0.5782519
1922.681, 0.5796931
1924.610, 0.5804943
1926.538, 0.5797584
1928.467, 0.5786119
1930.395, 0.5772633
1932.324, 0.5766976
1934.252, 0.5779668
1936.181, 0.5796007
1938.109, 0.5782570
1940.037, 0.5754883
1941.966, 0.5760524
1943.894, 0.5780087
1945.823, 0.5770460
1947.751, 0.5765588
1949.680, 0.5758504
1951.608, 0.5749089
1953.537, 0.5723755
1955.465, 0.5693875
1957.394, 0.5684961
1959.322, 0.5683886
1961.251, 0.5689157
1963.179, 0.5692255
1965.108, 0.5690104
1967.036, 0.5681675
1968.964, 0.5652064
1970.893, 0.5652442
1972.821, 0.5658540
1974.750, 0.5634068
1976.678, 0.5656394
1978.607, 0.5672726
1980.535, 0.5657340
1982.464, 0.5690103
1984.392, 0.5673109
1986.321, 0.5687006
1988.249, 0.5726220
1990.178, 0.5716718
1992.106, 0.5728010
1994.035, 0.5718669
1995.963, 0.5694551
1997.891, 0.5676412
1999.820, 0.5694665
2001.748, 0.5713544
2003.677, 0.5713552
2005.605, 0.5700404
2007.534, 0.5676352
2009.462, 0.5664657
2011.391, 0.5641125
2013.319, 0.5648714
2015.248, 0.5694318
2017.176, 0.5690902
2019.105, 0.5659722
2021.033, 0.5638472
2022.962, 0.5637485
2024.890, 0.5619208
2026.818, 0.5622548
2028.747, 0.5672037
2030.675, 0.5701160
2032.604, 0.5703933
2034.532, 0.5710001
2036.461, 0.5728485
2038.389, 0.5735306
2040.318, 0.5720664
2042.246, 0.5736701
2044.175, 0.5776351
2046.103, 0.5772530
2048.032, 0.5782721
2049.960, 0.5833995
2051.889, 0.5880874
2053.817, 0.5906529
2055.746, 0.5914823
2057.674, 0.5897573
2059.603, 0.5889845
2061.531, 0.5904239
2063.459, 0.5892804
2065.388, 0.5887635
2067.316, 0.5897143
2069.245, 0.5886900
2071.173, 0.5892489
2073.102, 0.5926389
2075.030, 0.5934781
2076.959, 0.5943621
2078.887, 0.5964380
2080.816, 0.5960410
2082.744, 0.5963790
2084.673, 0.5954794
2086.601, 0.5950947
2088.530, 0.5971354
2090.458, 0.5992579
2092.386, 0.5999036
2094.315, 0.6000814
2096.243, 0.5998852
2098.172, 0.5986014
2100.100, 0.5989677
2102.029, 0.5991159
2103.957, 0.5989596
2105.886, 0.5987661
2107.814, 0.5984598
2109.743, 0.5991819
2111.671, 0.6010597
2113.600, 0.6025915
2115.528, 0.6020190
2117.457, 0.6006733
2119.385, 0.6022503
2121.313, 0.6025043
2123.242, 0.5996010
2125.170, 0.5994525
2127.099, 0.5999696
2129.027, 0.6003094
2130.956, 0.5982519
2132.884, 0.5946329
2134.813, 0.5931153
2136.741, 0.5917841
2138.670, 0.5920471
2140.598, 0.5912444
2142.527, 0.5884904
2144.455, 0.5888708
2146.384, 0.5880294
2148.312, 0.5827657
2150.240, 0.5833371
2152.169, 0.5836052
2154.097, 0.5783380
2156.026, 0.5735086
2157.954, 0.5727588
2159.883, 0.5827739
2161.811, 0.5898397
2163.740, 0.5876799
2165.668, 0.5861415
2167.597, 0.5870085
2169.525, 0.5853605
2171.454, 0.5879996
2173.382, 0.5904112
2175.311, 0.5894970
2177.239, 0.5930591
2179.167, 0.5899484
2181.096, 0.5924877
2183.024, 0.5978347
2184.953, 0.5983705
2186.881, 0.5985053
2188.810, 0.5946159
2190.738, 0.5902553
2192.667, 0.5942689
2194.595, 0.5966557
2196.524, 0.5961763
2198.452, 0.5987376
2200.381, 0.6006051
2202.309, 0.6005235
2204.238, 0.6027271
2206.166, 0.6039472
2208.094, 0.6046422
2210.023, 0.6025541
2211.951, 0.6015613
2213.880, 0.6024014
2215.808, 0.6039345
2217.737, 0.6032699
2219.665, 0.6012618
2221.594, 0.6027150
2223.522, 0.6048155
2225.451, 0.6077991
2227.379, 0.6086235
2229.308, 0.6090539
2231.236, 0.6094828
2233.165, 0.6093314
2235.093, 0.6100836
2237.021, 0.6098428
2238.950, 0.6101664
2240.878, 0.6110034
2242.807, 0.6118305
2244.735, 0.6119548
2246.664, 0.6125425
2248.592, 0.6131570
2250.521, 0.6140288
2252.449, 0.6155923
2254.378, 0.6153817
2256.306, 0.6137205
2258.235, 0.6159416
2260.163, 0.6168817
2262.092, 0.6167896
2264.020, 0.6166545
2265.948, 0.6162595
2267.877, 0.6175154
2269.805, 0.6194289
2271.734, 0.6195678
2273.662, 0.6199602
2275.591, 0.6206768
2277.519, 0.6234696
2279.448, 0.6247630
2281.376, 0.6243064
2283.305, 0.6259681
2285.233, 0.6268708
2287.162, 0.6277750
2289.090, 0.6298456
2291.019, 0.6302192
2292.947, 0.6297652
2294.875, 0.6296353
2296.804, 0.6310266
2298.732, 0.6315758
2300.661, 0.6321799
2302.589, 0.6322846
2304.518, 0.6319810
2306.446, 0.6317376
2308.375, 0.6326192
2310.303, 0.6323277
2312.232, 0.6331144
2314.160, 0.6350718
2316.089, 0.6358304
2318.017, 0.6361178
2319.946, 0.6371890
2321.874, 0.6390606
2323.802, 0.6400023
2325.731, 0.6396551
2327.659, 0.6392927
2329.588, 0.6408780
2331.516, 0.6416888
2333.445, 0.6407756
2335.373, 0.6409244
2337.302, 0.6418673
2339.230, 0.6417853
2341.159, 0.6410381
2343.087, 0.6411615
2345.016, 0.6417202
2346.944, 0.6418753
2348.873, 0.6414382
2350.801, 0.6423615
2352.729, 0.6429468
2354.658, 0.6426470
2356.586, 0.6432296
2358.515, 0.6429275
2360.443, 0.6428064
2362.372, 0.6436108
2364.300, 0.6438297
2366.229, 0.6439003
2368.157, 0.6435589
2370.086, 0.6428928
2372.014, 0.6433058
2373.942, 0.6435041
2375.871, 0.6433546
2377.799, 0.6429594
2379.728, 0.6418862
2381.656, 0.6423343
2383.585, 0.6427156
2385.513, 0.6428501
2387.442, 0.6423057
2389.370, 0.6422218
2391.299, 0.6419242
2393.227, 0.6419893
2395.156, 0.6418385
2397.084, 0.6419432
2399.012, 0.6425686
2400.941, 0.6420379
2402.869, 0.6405590
2404.798, 0.6419482
2406.726, 0.6434693
2408.655, 0.6422875
2410.583, 0.6416543
2412.512, 0.6429506
2414.440, 0.6435467
2416.369, 0.6448213
2418.297, 0.6453939
2420.226, 0.6446215
2422.154, 0.6443853
2424.083, 0.6442078
2426.011, 0.6432258
2427.939, 0.6426919
2429.868, 0.6432925
2431.796, 0.6428688
2433.725, 0.6425124
2435.653, 0.6428465
2437.582, 0.6426474
2439.510, 0.6443310
2441.439, 0.6461319
2443.367, 0.6457536
2445.296, 0.6463364
2447.224, 0.6474029
2449.153, 0.6479159
2451.081, 0.6473467
2453.010, 0.6466084
2454.938, 0.6464769
2456.866, 0.6462004
2458.795, 0.6468734
2460.723, 0.6471659
2462.652, 0.6474382
2464.580, 0.6471170
2466.509, 0.6464220
2468.437, 0.6469283
2470.366, 0.6473855
2472.294, 0.6476880
2474.223, 0.6485320
2476.151, 0.6472362
2478.080, 0.6454430
2480.008, 0.6462648
2481.937, 0.6468340
2483.865, 0.6472327
2485.793, 0.6457425
2487.722, 0.6456988
2489.650, 0.6476787
2491.579, 0.6494722
2493.507, 0.6494590
2495.436, 0.6503388
2497.364, 0.6513178
2499.293, 0.6516503
2501.221, 0.6514889
2503.150, 0.6498053
2505.078, 0.6484644
2507.007, 0.6496178
2508.935, 0.6515870
2510.864, 0.6514484
2512.792, 0.6507874
2514.720, 0.6516436
2516.649, 0.6544824
2518.577, 0.6538858
2520.506, 0.6527263
2522.434, 0.6536564
2524.363, 0.6517193
2526.291, 0.6495090
2528.220, 0.6499617
2530.148, 0.6518884
2532.077, 0.6530257
2534.005, 0.6526883
2535.934, 0.6517090
2537.862, 0.6529222
2539.791, 0.6548588
2541.719, 0.6551347
2543.647, 0.6547980
2545.576, 0.6540028
2547.504, 0.6528143
2549.433, 0.6527318
2551.361, 0.6557013
2553.290, 0.6568230
2555.218, 0.6566008
2557.147, 0.6565648
2559.075, 0.6571601
2561.004, 0.6562685
2562.932, 0.6558095
2564.861, 0.6560860
2566.789, 0.6556583
2568.718, 0.6574649
2570.646, 0.6563049
2572.574, 0.6558284
2574.503, 0.6568241
2576.431, 0.6573306
2578.360, 0.6580623
2580.288, 0.6600425
2582.217, 0.6600252
2584.145, 0.6591645
2586.074, 0.6602870
2588.002, 0.6597687
2589.931, 0.6586059
2591.859, 0.6600469
2593.788, 0.6610723
2595.716, 0.6627319
2597.645, 0.6644054
2599.573, 0.6649315
2601.501, 0.6633025
2603.430, 0.6624923
2605.358, 0.6648489
2607.287, 0.6646568
2609.215, 0.6637039
2611.144, 0.6635954
2613.072, 0.6643437
2615.001, 0.6644710
2616.929, 0.6645947
2618.858, 0.6655573
2620.786, 0.6660855
2622.715, 0.6673048
2624.643, 0.6687747
2626.572, 0.6684628
2628.500, 0.6681458
2630.428, 0.6680673
2632.357, 0.6686107
2634.285, 0.6695655
2636.214, 0.6702858
2638.142, 0.6708241
2640.071, 0.6712934
2641.999, 0.6724413
2643.928, 0.6718489
2645.856, 0.6710911
2647.785, 0.6719810
2649.713, 0.6732482
2651.642, 0.6730142
2653.570, 0.6725174
2655.499, 0.6742013
2657.427, 0.6755148
2659.355, 0.6751978
2661.284, 0.6739089
2663.212, 0.6736844
2665.141, 0.6753769
2667.069, 0.6752117
2668.998, 0.6739964
2670.926, 0.6741366
2672.855, 0.6745426
2674.783, 0.6754837
2676.712, 0.6752592
2678.640, 0.6752247
2680.569, 0.6761676
2682.497, 0.6769522
2684.426, 0.6774617
2686.354, 0.6776350
2688.282, 0.6776996
2690.211, 0.6779219
2692.139, 0.6788459
2694.068, 0.6798134
2695.996, 0.6793732
2697.925, 0.6781999
2699.853, 0.6784817
2701.782, 0.6789846
2703.710, 0.6786884
2705.639, 0.6796580
2707.567, 0.6802554
2709.496, 0.6805106
2711.424, 0.6794903
2713.353, 0.6805251
2715.281, 0.6825286
2717.209, 0.6826122
2719.138, 0.6819125
2721.066, 0.6813322
2722.995, 0.6818649
2724.923, 0.6822087
2726.852, 0.6825272
2728.780, 0.6829913
2730.709, 0.6824194
2732.637, 0.6824621
2734.566, 0.6818225
2736.494, 0.6834449
2738.423, 0.6844895
2740.351, 0.6826637
2742.280, 0.6815578
2744.208, 0.6818963
2746.136, 0.6833442
2748.065, 0.6830187
2749.993, 0.6829760
2751.922, 0.6847341
2753.850, 0.6862695
2755.779, 0.6866906
2757.707, 0.6877000
2759.636, 0.6867725
2761.564, 0.6848430
2763.493, 0.6851508
2765.421, 0.6858610
2767.350, 0.6867729
2769.278, 0.6862241
2771.207, 0.6867982
2773.135, 0.6861772
2775.063, 0.6864052
2776.992, 0.6875132
2778.920, 0.6880175
2780.849, 0.6886336
2782.777, 0.6886371
2784.706, 0.6889911
2786.634, 0.6895059
2788.563, 0.6886955
2790.491, 0.6885824
2792.420, 0.6893173
2794.348, 0.6900852
2796.277, 0.6889483
2798.205, 0.6887885
2800.134, 0.6896341
2802.062, 0.6899898
2803.990, 0.6891185
2805.919, 0.6901467
2807.847, 0.6914959
2809.776, 0.6922210
2811.704, 0.6906466
2813.633, 0.6901119
2815.561, 0.6904343
2817.490, 0.6910973
2819.418, 0.6917905
2821.347, 0.6926045
2823.275, 0.6933337
2825.204, 0.6937299
2827.132, 0.6932057
2829.061, 0.6918216
2830.989, 0.6911500
2832.917, 0.6910974
2834.846, 0.6920598
2836.774, 0.6937230
2838.703, 0.6940346
2840.631, 0.6921379
2842.560, 0.6917245
2844.488, 0.6915126
2846.417, 0.6909150
2848.345, 0.6919488
2850.274, 0.6928893
2852.202, 0.6930386
2854.131, 0.6927331
2856.059, 0.6926771
2857.988, 0.6944171
2859.916, 0.6953924
2861.844, 0.6960996
2863.773, 0.6962637
2865.701, 0.6951596
2867.630, 0.6944543
2869.558, 0.6942095
2871.487, 0.6958988
2873.415, 0.6965937
2875.344, 0.6966464
2877.272, 0.6981114
2879.201, 0.6977801
2881.129, 0.6984457
2883.058, 0.6973041
2884.986, 0.6974006
2886.915, 0.6986359
2888.843, 0.6986387
2890.771, 0.6986333
2892.700, 0.6980535
2894.628, 0.6981485
2896.557, 0.6986117
2898.485, 0.6996827
2900.414, 0.7023684
2902.342, 0.7005031
2904.271, 0.6965526
2906.199, 0.6977971
2908.128, 0.7019066
2910.056, 0.7026235
2911.985, 0.6997648
2913.913, 0.6995793
2915.842, 0.7003030
2917.770, 0.6991072
2919.698, 0.6997948
2921.627, 0.6993068
2923.555, 0.6979862
2925.484, 0.6996343
2927.412, 0.7008996
2929.341, 0.7011191
2931.269, 0.7008148
2933.198, 0.7016922
2935.126, 0.7016698
2937.055, 0.6997186
2938.983, 0.6994632
2940.912, 0.7012986
2942.840, 0.7027626
2944.769, 0.7018361
2946.697, 0.7005143
2948.625, 0.7008526
2950.554, 0.7009411
2952.482, 0.7016190
2954.411, 0.7017624
2956.339, 0.7022130
2958.268, 0.7036018
2960.196, 0.7033573
2962.125, 0.7044008
2964.053, 0.7059368
2965.982, 0.7036937
2967.910, 0.7024965
2969.839, 0.7048203
2971.767, 0.7058819
2973.696, 0.7043796
2975.624, 0.7059851
2977.552, 0.7059715
2979.481, 0.7058766
2981.409, 0.7063096
2983.338, 0.7075480
2985.266, 0.7093388
2987.195, 0.7113730
2989.123, 0.7113020
2991.052, 0.7092453
2992.980, 0.7095819
2994.909, 0.7086170
2996.837, 0.7102006
2998.766, 0.7131575
3000.694, 0.7124135
3002.623, 0.7107098
3004.551, 0.7097062
3006.479, 0.7102804
3008.408, 0.7118079
3010.336, 0.7107127
3012.265, 0.7091258
3014.193, 0.7102992
3016.122, 0.7110289
3018.050, 0.7107665
3019.979, 0.7121829
3021.907, 0.7133331
3023.836, 0.7127278
3025.764, 0.7136050
3027.693, 0.7130107
3029.621, 0.7126300
3031.550, 0.7095932
3033.478, 0.7066006
3035.406, 0.7085367
3037.335, 0.7111734
3039.263, 0.7111263
3041.192, 0.7113243
3043.120, 0.7131206
3045.049, 0.7113912
3046.977, 0.7093265
3048.906, 0.7091163
3050.834, 0.7101406
3052.763, 0.7101421
3054.691, 0.7111282
3056.620, 0.7119411
3058.548, 0.7124898
3060.477, 0.7114945
3062.405, 0.7121259
3064.333, 0.7095540
3066.262, 0.7075306
3068.190, 0.7093144
3070.119, 0.7089540
3072.047, 0.7100832
3073.976, 0.7107162
3075.904, 0.7112517
3077.833, 0.7130427
3079.761, 0.7118475
3081.690, 0.7110027
3083.618, 0.7122741
3085.547, 0.7142060
3087.475, 0.7171373
3089.404, 0.7162135
3091.332, 0.7132851
3093.260, 0.7154752
3095.189, 0.7163585
3097.117, 0.7154099
3099.046, 0.7155253
3100.974, 0.7144389
3102.903, 0.7167829
3104.831, 0.7181990
3106.760, 0.7154572
3108.688, 0.7135719
3110.617, 0.7144783
3112.545, 0.7177820
3114.474, 0.7191465
3116.402, 0.7161942
3118.331, 0.7146145
3120.259, 0.7148161
3122.188, 0.7130125
3124.116, 0.7132244
3126.044, 0.7175567
3127.973, 0.7183880
3129.901, 0.7173804
3131.830, 0.7182380
3133.758, 0.7178532
3135.687, 0.7211176
3137.615, 0.7205396
3139.544, 0.7195993
3141.472, 0.7205163
3143.401, 0.7224012
3145.329, 0.7218375
3147.258, 0.7209875
3149.186, 0.7196949
3151.115, 0.7205047
3153.043, 0.7215589
3154.971, 0.7197827
3156.900, 0.7194895
3158.828, 0.7205201
3160.757, 0.7225009
3162.685, 0.7241121
3164.614, 0.7223060
3166.542, 0.7203832
3168.471, 0.7193679
3170.399, 0.7221178
3172.328, 0.7264970
3174.256, 0.7257285
3176.185, 0.7219934
3178.113, 0.7211038
3180.042, 0.7219825
3181.970, 0.7218204
3183.898, 0.7231694
3185.827, 0.7240938
3187.755, 0.7229253
3189.684, 0.7211538
3191.612, 0.7214130
3193.541, 0.7218798
3195.469, 0.7228274
3197.398, 0.7232804
3199.326, 0.7218136
3201.255, 0.7203952
3203.183, 0.7218185
3205.112, 0.7219258
3207.040, 0.7253687
3208.969, 0.7285079
3210.897, 0.7273887
3212.825, 0.7266504
3214.754, 0.7248656
3216.682, 0.7231133
3218.611, 0.7245330
3220.539, 0.7263528
3222.468, 0.7258555
3224.396, 0.7244376
3226.325, 0.7268479
3228.253, 0.7270545
3230.182, 0.7246251
3232.110, 0.7243886
3234.039, 0.7261299
3235.967, 0.7263248
3237.896, 0.7255975
3239.824, 0.7253530
3241.752, 0.7260693
3243.681, 0.7274646
3245.609, 0.7285860
3247.538, 0.7288823
3249.466, 0.7292259
3251.395, 0.7277627
3253.323, 0.7267824
3255.252, 0.7283378
3257.180, 0.7304333
3259.109, 0.7309474
3261.037, 0.7293037
3262.966, 0.7287719
3264.894, 0.7280162
3266.823, 0.7274626
3268.751, 0.7304284
3270.679, 0.7332759
3272.608, 0.7313504
3274.536, 0.7304352
3276.465, 0.7307532
3278.393, 0.7302148
3280.322, 0.7284879
3282.250, 0.7269700
3284.179, 0.7298929
3286.107, 0.7308556
3288.036, 0.7309294
3289.964, 0.7335111
3291.893, 0.7331579
3293.821, 0.7328139
3295.750, 0.7327883
3297.678, 0.7303829
3299.606, 0.7290828
3301.535, 0.7298554
3303.463, 0.7300904
3305.392, 0.7322224
3307.320, 0.7338024
3309.249, 0.7312335
3311.177, 0.7321295
3313.106, 0.7348690
3315.034, 0.7360865
3316.963, 0.7351803
3318.891, 0.7347408
3320.820, 0.7353257
3322.748, 0.7344705
3324.677, 0.7339115
3326.605, 0.7319669
3328.533, 0.7321807
3330.462, 0.7373878
3332.390, 0.7379138
3334.319, 0.7364264
3336.247, 0.7347227
3338.176, 0.7330479
3340.104, 0.7326325
3342.033, 0.7332151
3343.961, 0.7326620
3345.890, 0.7341898
3347.818, 0.7374732
3349.747, 0.7393487
3351.675, 0.7384606
3353.604, 0.7383027
3355.532, 0.7377619
3357.460, 0.7360467
3359.389, 0.7375564
3361.317, 0.7393374
3363.246, 0.7396807
3365.174, 0.7394694
3367.103, 0.7393589
3369.031, 0.7401729
3370.960, 0.7405881
3372.888, 0.7401249
3374.817, 0.7387819
3376.745, 0.7440335
3378.674, 0.7441294
3380.602, 0.7409257
3382.531, 0.7393261
3384.459, 0.7381260
3386.387, 0.7406269
3388.316, 0.7450888
3390.244, 0.7464139
3392.173, 0.7461503
3394.101, 0.7434239
3396.030, 0.7408977
3397.958, 0.7403843
3399.887, 0.7388182
3401.815, 0.7399976
3403.744, 0.7402406
3405.672, 0.7400576
3407.601, 0.7430210
3409.529, 0.7436206
3411.458, 0.7387691
3413.386, 0.7385825
3415.314, 0.7435752
3417.243, 0.7436717
3419.171, 0.7413232
3421.100, 0.7406334
3423.028, 0.7429786
3424.957, 0.7436407
3426.885, 0.7443495
3428.814, 0.7436174
3430.742, 0.7415851
3432.671, 0.7418362
3434.599, 0.7430461
3436.528, 0.7440901
3438.456, 0.7437612
3440.385, 0.7428151
3442.313, 0.7418991
3444.241, 0.7453536
3446.170, 0.7438942
3448.098, 0.7414325
3450.027, 0.7425444
3451.955, 0.7429428
3453.884, 0.7450863
3455.812, 0.7469777
3457.741, 0.7455010
3459.669, 0.7430757
3461.598, 0.7418580
3463.526, 0.7435158
3465.455, 0.7443852
3467.383, 0.7433025
3469.312, 0.7427925
3471.240, 0.7448319
3473.168, 0.7476450
3475.097, 0.7479958
3477.025, 0.7463297
3478.954, 0.7470912
3480.882, 0.7477585
3482.811, 0.7462406
3484.739, 0.7471842
3486.668, 0.7490842
3488.596, 0.7492313
3490.525, 0.7480721
3492.453, 0.7481379
3494.382, 0.7491924
3496.310, 0.7509379
3498.239, 0.7496542
3500.167, 0.7496616
3502.095, 0.7511981
3504.024, 0.7503090
3505.952, 0.7506120
3507.881, 0.7510766
3509.809, 0.7491404
3511.738, 0.7498016
3513.666, 0.7506505
3515.595, 0.7485441
3517.523, 0.7496181
3519.452, 0.7520106
3521.380, 0.7496471
3523.309, 0.7473655
3525.237, 0.7488661
3527.166, 0.7500599
3529.094, 0.7501875
3531.022, 0.7510870
3532.951, 0.7525867
3534.879, 0.7525430
3536.808, 0.7496725
3538.736, 0.7465109
3540.665, 0.7481038
3542.593, 0.7490585
3544.522, 0.7470915
3546.450, 0.7482884
3548.379, 0.7516948
3550.307, 0.7537028
3552.236, 0.7554131
3554.164, 0.7568982
3556.093, 0.7559495
3558.021, 0.7548994
3559.949, 0.7543871
3561.878, 0.7529209
3563.806, 0.7545688
3565.735, 0.7575344
3567.663, 0.7570074
3569.592, 0.7539509
3571.520, 0.7512949
3573.449, 0.7559726
3575.377, 0.7590234
3577.306, 0.7575084
3579.234, 0.7579160
3581.163, 0.7565200
3583.091, 0.7580171
3585.020, 0.7613660
3586.948, 0.7603498
3588.876, 0.7568340
3590.805, 0.7554201
3592.733, 0.7556895
3594.662, 0.7603520
3596.590, 0.7612814
3598.519, 0.7570128
3600.447, 0.7592925
3602.376, 0.7616274
3604.304, 0.7594727
3606.233, 0.7577584
3608.161, 0.7614319
3610.090, 0.7614298
3612.018, 0.7609146
3613.947, 0.7649847
3615.875, 0.7667794
3617.803, 0.7637642
3619.732, 0.7619430
3621.660, 0.7620270
3623.589, 0.7603612
3625.517, 0.7580267
3627.446, 0.7607486
3629.374, 0.7672352
3631.303, 0.7708231
3633.231, 0.7691951
3635.160, 0.7646858
3637.088, 0.7647967
3639.017, 0.7666274
3640.945, 0.7687905
3642.874, 0.7716283
3644.802, 0.7720600
3646.730, 0.7726290
3648.659, 0.7705879
3650.587, 0.7671966
3652.516, 0.7723532
3654.444, 0.7761715
3656.373, 0.7736315
3658.301, 0.7702801
3660.230, 0.7681445
3662.158, 0.7674269
3664.087, 0.7665907
3666.015, 0.7676445
3667.944, 0.7722808
3669.872, 0.7758301
3671.801, 0.7719016
3673.729, 0.7700014
3675.657, 0.7733374
3677.586, 0.7720029
3679.514, 0.7741708
3681.443, 0.7771300
3683.371, 0.7757097
3685.300, 0.7748320
3687.228, 0.7735507
3689.157, 0.7742039
3691.085, 0.7752460
3693.014, 0.7763276
3694.942, 0.7764366
3696.871, 0.7708436
3698.799, 0.7717395
3700.728, 0.7781501
3702.656, 0.7798962
3704.584, 0.7772204
3706.513, 0.7775742
3708.441, 0.7794453
3710.370, 0.7784377
3712.298, 0.7773418
3714.227, 0.7807997
3716.155, 0.7816796
3718.084, 0.7810056
3720.012, 0.7803283
3721.941, 0.7808507
3723.869, 0.7797400
3725.798, 0.7766152
3727.726, 0.7809658
3729.655, 0.7872503
3731.583, 0.7868906
3733.511, 0.7870325
3735.440, 0.7873625
3737.368, 0.7872197
3739.297, 0.7871141
3741.225, 0.7865902
3743.154, 0.7908694
3745.082, 0.7923166
3747.011, 0.7888573
3748.939, 0.7900279
3750.868, 0.7896485
3752.796, 0.7879834
3754.725, 0.7855545
3756.653, 0.7854447
3758.582, 0.7884481
3760.510, 0.7913694
3762.438, 0.7894334
3764.367, 0.7871204
3766.295, 0.7882997
3768.224, 0.7908590
3770.152, 0.7866338
3772.081, 0.7881473
3774.009, 0.7912049
3775.938, 0.7877709
3777.866, 0.7901533
3779.795, 0.7940341
3781.723, 0.7938567
3783.652, 0.7942383
3785.580, 0.7954784
3787.509, 0.7871230
3789.437, 0.7888648
3791.365, 0.7970606
3793.294, 0.7975015
3795.222, 0.7974003
3797.151, 0.7956811
3799.079, 0.7967622
3801.008, 0.7966994
3802.936, 0.7932106
3804.865, 0.7927553
3806.793, 0.7958127
3808.722, 0.7968318
3810.650, 0.7942508
3812.579, 0.7978171
3814.507, 0.8008970
3816.436, 0.8033069
3818.364, 0.8004935
3820.292, 0.7997376
3822.221, 0.7990402
3824.149, 0.7973759
3826.078, 0.7998333
3828.006, 0.7994117
3829.935, 0.7995610
3831.863, 0.8014864
3833.792, 0.8032176
3835.720, 0.8043861
3837.649, 0.8020793
3839.577, 0.7969042
3841.506, 0.7991087
3843.434, 0.8035626
3845.363, 0.8057048
3847.291, 0.8023814
3849.219, 0.7997615
3851.148, 0.8037345
3853.076, 0.8069460
3855.005, 0.8051834
3856.933, 0.8022328
3858.862, 0.8022187
3860.790, 0.8018675
3862.719, 0.8056424
3864.647, 0.8104199
3866.576, 0.8076254
3868.504, 0.8012860
3870.433, 0.8043262
3872.361, 0.8119503
3874.290, 0.8106524
3876.218, 0.8038182
3878.146, 0.8063007
3880.075, 0.8088638
3882.003, 0.8050634
3883.932, 0.8065587
3885.860, 0.8126916
3887.789, 0.8116755
3889.717, 0.8086892
3891.646, 0.8108951
3893.574, 0.8102075
3895.503, 0.8043377
3897.431, 0.8048426
3899.360, 0.8105882
3901.288, 0.8107543
3903.217, 0.8109733
3905.145, 0.8105522
3907.073, 0.8097706
3909.002, 0.8150135
3910.930, 0.8145100
3912.859, 0.8105630
3914.787, 0.8122332
3916.716, 0.8153887
3918.644, 0.8183171
3920.573, 0.8195066
3922.501, 0.8165916
3924.430, 0.8140790
3926.358, 0.8122519
3928.287, 0.8134784
3930.215, 0.8182315
3932.144, 0.8208326
3934.072, 0.8175659
3936.000, 0.8177958
3937.929, 0.8184836
3939.857, 0.8201312
3941.786, 0.8189960
3943.714, 0.8131751
3945.643, 0.8125441
3947.571, 0.8144225
3949.500, 0.8158957
3951.428, 0.8201629
3953.357, 0.8256717
3955.285, 0.8252667
3957.214, 0.8202850
3959.142, 0.8158736
3961.071, 0.8165426
3962.999, 0.8200244
3964.927, 0.8189275
3966.856, 0.8194801
3968.784, 0.8201315
3970.713, 0.8198217
3972.641, 0.8242139
3974.570, 0.8204467
3976.498, 0.8190447
3978.427, 0.8230056
3980.355, 0.8262081
3982.284, 0.8285288
3984.212, 0.8250962
3986.141, 0.8245652
3988.069, 0.8267751
3989.998, 0.8263779
3991.926, 0.8224437
3993.854, 0.8239189
3995.783, 0.8216437
3997.711, 0.8203968
3999.640, 0.8207926
##END=



