##NAMES=Chalcopyrite
##RRUFFID=R050208
##IDEAL CHEMISTRY=Cu^1+^Fe^3+^S^2-^_2_
##LOCALITY=Kidd Creek mine, Timmins, Ontario, Canada
##OWNER=RRUFF
##SOURCE=Lloyd Twaites
##DESCRIPTION=Brass yellow metallic fine-grained massive
##STATUS=The identification of this mineral has been confirmed by X-ray diffraction and chemical analysis
##URL=rruff.info/R050208
##MEASURED CHEMISTRY=Cu_1.00_Fe_1.00_S_2.00_
5.014013e+001, 2.241144e-002
5.206860e+001, 1.780680e-002
5.399707e+001, 1.362606e-002
5.592553e+001, 1.557858e-002
5.785400e+001, 1.756367e-002
5.978246e+001, 2.346083e-002
6.171093e+001, 2.864647e-002
6.363940e+001, 2.310147e-002
6.556786e+001, 1.799932e-002
6.749633e+001, 1.652424e-002
6.942480e+001, 1.898324e-002
7.135326e+001, 2.045025e-002
7.328172e+001, 2.217695e-002
7.521019e+001, 2.298751e-002
7.713866e+001, 2.461535e-002
7.906712e+001, 2.490111e-002
8.099559e+001, 2.467943e-002
8.292406e+001, 2.437571e-002
8.485252e+001, 2.320521e-002
8.678099e+001, 2.278952e-002
8.870946e+001, 2.468558e-002
9.063792e+001, 2.561781e-002
9.256638e+001, 2.467627e-002
9.449485e+001, 2.522706e-002
9.642332e+001, 2.767345e-002
9.835178e+001, 2.751972e-002
1.002803e+002, 2.695091e-002
1.022087e+002, 2.685662e-002
1.041372e+002, 2.710349e-002
1.060657e+002, 2.817228e-002
1.079941e+002, 2.896256e-002
1.099226e+002, 2.877226e-002
1.118510e+002, 2.825984e-002
1.137795e+002, 2.896618e-002
1.157080e+002, 3.062480e-002
1.176364e+002, 3.090756e-002
1.195649e+002, 3.148494e-002
1.214934e+002, 3.133528e-002
1.234218e+002, 3.149589e-002
1.253503e+002, 3.205168e-002
1.272788e+002, 3.226313e-002
1.292072e+002, 3.227995e-002
1.311357e+002, 3.328684e-002
1.330642e+002, 3.401331e-002
1.349926e+002, 3.481179e-002
1.369211e+002, 3.527753e-002
1.388496e+002, 3.614477e-002
1.407780e+002, 3.655689e-002
1.427065e+002, 3.625449e-002
1.446350e+002, 3.639356e-002
1.465634e+002, 3.713983e-002
1.484919e+002, 3.724066e-002
1.504204e+002, 3.768428e-002
1.523488e+002, 3.860586e-002
1.542773e+002, 3.886856e-002
1.562058e+002, 3.870009e-002
1.581342e+002, 3.958553e-002
1.600627e+002, 3.965638e-002
1.619912e+002, 3.961651e-002
1.639196e+002, 3.997771e-002
1.658481e+002, 4.061289e-002
1.677766e+002, 4.068533e-002
1.697050e+002, 4.100709e-002
1.716335e+002, 4.113426e-002
1.735620e+002, 4.142597e-002
1.754904e+002, 4.177148e-002
1.774189e+002, 4.186240e-002
1.793474e+002, 4.240473e-002
1.812758e+002, 4.271163e-002
1.832043e+002, 4.272154e-002
1.851328e+002, 4.302596e-002
1.870612e+002, 4.286276e-002
1.889897e+002, 4.300110e-002
1.909182e+002, 4.315406e-002
1.928466e+002, 4.387008e-002
1.947751e+002, 4.458942e-002
1.967036e+002, 4.485752e-002
1.986320e+002, 4.486847e-002
2.005605e+002, 4.554264e-002
2.024890e+002, 4.638103e-002
2.044174e+002, 4.686246e-002
2.063459e+002, 4.697015e-002
2.082744e+002, 4.730694e-002
2.102028e+002, 4.734879e-002
2.121313e+002, 4.765248e-002
2.140598e+002, 4.782798e-002
2.159882e+002, 4.802553e-002
2.179167e+002, 4.825575e-002
2.198452e+002, 4.856408e-002
2.217736e+002, 4.904058e-002
2.237021e+002, 4.970960e-002
2.256305e+002, 4.994869e-002
2.275590e+002, 5.047320e-002
2.294875e+002, 5.041653e-002
2.314159e+002, 5.066472e-002
2.333444e+002, 5.123633e-002
2.352729e+002, 5.160877e-002
2.372013e+002, 5.191109e-002
2.391298e+002, 5.254170e-002
2.410583e+002, 5.290353e-002
2.429867e+002, 5.339474e-002
2.449152e+002, 5.349559e-002
2.468437e+002, 5.369560e-002
2.487721e+002, 5.442831e-002
2.507006e+002, 5.508168e-002
2.526291e+002, 5.534238e-002
2.545575e+002, 5.579570e-002
2.564860e+002, 5.615878e-002
2.584145e+002, 5.707348e-002
2.603429e+002, 5.777869e-002
2.622714e+002, 5.822621e-002
2.641999e+002, 5.813032e-002
2.661283e+002, 5.828793e-002
2.680568e+002, 5.879119e-002
2.699853e+002, 5.916665e-002
2.719137e+002, 5.930550e-002
2.738422e+002, 5.952155e-002
2.757707e+002, 5.969097e-002
2.776991e+002, 6.026653e-002
2.796276e+002, 6.086683e-002
2.815561e+002, 6.145246e-002
2.834845e+002, 6.171942e-002
2.854130e+002, 6.216444e-002
2.873415e+002, 6.260909e-002
2.892699e+002, 6.335375e-002
2.911984e+002, 6.379817e-002
2.931269e+002, 6.428559e-002
2.950553e+002, 6.491832e-002
2.969838e+002, 6.535875e-002
2.989123e+002, 6.545255e-002
3.008407e+002, 6.610905e-002
3.027692e+002, 6.698162e-002
3.046977e+002, 6.769694e-002
3.066261e+002, 6.812413e-002
3.085546e+002, 6.842916e-002
3.104831e+002, 6.894968e-002
3.124115e+002, 6.953570e-002
3.143400e+002, 6.963382e-002
3.162685e+002, 7.013668e-002
3.181969e+002, 7.055052e-002
3.201254e+002, 7.086120e-002
3.220539e+002, 7.065183e-002
3.239823e+002, 7.021957e-002
3.259108e+002, 6.979152e-002
3.278392e+002, 6.907362e-002
3.297677e+002, 6.845873e-002
3.316962e+002, 6.864329e-002
3.336246e+002, 6.937034e-002
3.355531e+002, 7.022269e-002
3.374816e+002, 7.087756e-002
3.394100e+002, 7.170670e-002
3.413385e+002, 7.262293e-002
3.432670e+002, 7.335569e-002
3.451954e+002, 7.396752e-002
3.471239e+002, 7.447531e-002
3.490524e+002, 7.464794e-002
3.509808e+002, 7.439714e-002
3.529093e+002, 7.434452e-002
3.548378e+002, 7.507187e-002
3.567662e+002, 7.596991e-002
3.586947e+002, 7.634524e-002
3.606232e+002, 7.598687e-002
3.625516e+002, 7.519916e-002
3.644801e+002, 7.399712e-002
3.664086e+002, 7.295845e-002
3.683370e+002, 7.167723e-002
3.702655e+002, 7.093363e-002
3.721940e+002, 7.049090e-002
3.741224e+002, 7.015603e-002
3.760509e+002, 6.963057e-002
3.779794e+002, 6.879426e-002
3.799078e+002, 6.794546e-002
3.818363e+002, 6.740376e-002
3.837648e+002, 6.703140e-002
3.856932e+002, 6.697010e-002
3.876217e+002, 6.724294e-002
3.895502e+002, 6.764463e-002
3.914786e+002, 6.799690e-002
3.934071e+002, 6.843078e-002
3.953356e+002, 6.878164e-002
3.972640e+002, 6.922765e-002
3.991925e+002, 6.962844e-002
4.011210e+002, 6.997546e-002
4.030494e+002, 7.041425e-002
4.049779e+002, 7.077223e-002
4.069064e+002, 7.096306e-002
4.088348e+002, 7.151139e-002
4.107633e+002, 7.198180e-002
4.126917e+002, 7.239573e-002
4.146202e+002, 7.258109e-002
4.165487e+002, 7.302057e-002
4.184771e+002, 7.366236e-002
4.204056e+002, 7.426974e-002
4.223341e+002, 7.456372e-002
4.242625e+002, 7.478345e-002
4.261910e+002, 7.520470e-002
4.281195e+002, 7.570677e-002
4.300479e+002, 7.646616e-002
4.319764e+002, 7.710028e-002
4.339049e+002, 7.733198e-002
4.358333e+002, 7.758526e-002
4.377618e+002, 7.768298e-002
4.396903e+002, 7.773805e-002
4.416187e+002, 7.769919e-002
4.435472e+002, 7.821661e-002
4.454757e+002, 7.841290e-002
4.474041e+002, 7.847424e-002
4.493326e+002, 7.869705e-002
4.512611e+002, 7.902183e-002
4.531895e+002, 7.920764e-002
4.551180e+002, 7.959756e-002
4.570465e+002, 8.028924e-002
4.589749e+002, 8.050832e-002
4.609034e+002, 8.035090e-002
4.628319e+002, 8.062293e-002
4.647603e+002, 8.087020e-002
4.666888e+002, 8.119421e-002
4.686173e+002, 8.125820e-002
4.705457e+002, 8.141080e-002
4.724742e+002, 8.120348e-002
4.744027e+002, 8.108518e-002
4.763311e+002, 8.114663e-002
4.782596e+002, 8.160267e-002
4.801881e+002, 8.193456e-002
4.821165e+002, 8.205509e-002
4.840450e+002, 8.208212e-002
4.859735e+002, 8.266176e-002
4.879019e+002, 8.277962e-002
4.898304e+002, 8.293021e-002
4.917589e+002, 8.324701e-002
4.936873e+002, 8.337597e-002
4.956158e+002, 8.370660e-002
4.975443e+002, 8.427902e-002
4.994727e+002, 8.460855e-002
5.014012e+002, 8.517414e-002
5.033297e+002, 8.531967e-002
5.052581e+002, 8.517791e-002
5.071866e+002, 8.523738e-002
5.091151e+002, 8.535851e-002
5.110435e+002, 8.530731e-002
5.129720e+002, 8.552730e-002
5.149005e+002, 8.576935e-002
5.168289e+002, 8.635440e-002
5.187574e+002, 8.669958e-002
5.206859e+002, 8.665438e-002
5.226143e+002, 8.686810e-002
5.245428e+002, 8.737745e-002
5.264713e+002, 8.730918e-002
5.283997e+002, 8.743399e-002
5.303282e+002, 8.764506e-002
5.322567e+002, 8.788537e-002
5.341851e+002, 8.787668e-002
5.361136e+002, 8.768341e-002
5.380421e+002, 8.768854e-002
5.399705e+002, 8.813237e-002
5.418990e+002, 8.818964e-002
5.438275e+002, 8.828526e-002
5.457559e+002, 8.821307e-002
5.476844e+002, 8.839413e-002
5.496129e+002, 8.880427e-002
5.515413e+002, 8.935923e-002
5.534698e+002, 8.914477e-002
5.553983e+002, 8.906263e-002
5.573267e+002, 8.933603e-002
5.592552e+002, 8.984290e-002
5.611837e+002, 9.016419e-002
5.631121e+002, 9.028541e-002
5.650406e+002, 9.025026e-002
5.669691e+002, 9.038314e-002
5.688975e+002, 9.039468e-002
5.708260e+002, 9.054820e-002
5.727545e+002, 9.098309e-002
5.746829e+002, 9.149149e-002
5.766114e+002, 9.173331e-002
5.785399e+002, 9.204163e-002
5.804683e+002, 9.263668e-002
5.823968e+002, 9.351482e-002
5.843253e+002, 9.389907e-002
5.862537e+002, 9.419893e-002
5.881822e+002, 9.404177e-002
5.901107e+002, 9.423090e-002
5.920391e+002, 9.479718e-002
5.939676e+002, 9.534720e-002
5.958961e+002, 9.543996e-002
5.978245e+002, 9.580629e-002
5.997530e+002, 9.624850e-002
6.016815e+002, 9.660017e-002
6.036099e+002, 9.700657e-002
6.055384e+002, 9.747596e-002
6.074669e+002, 9.758693e-002
6.093953e+002, 9.818832e-002
6.113238e+002, 9.880773e-002
6.132523e+002, 9.920853e-002
6.151807e+002, 9.952628e-002
6.171091e+002, 1.000158e-001
6.190376e+002, 1.003260e-001
6.209661e+002, 1.003069e-001
6.228945e+002, 1.002246e-001
6.248230e+002, 1.002318e-001
6.267515e+002, 1.009265e-001
6.286799e+002, 1.020762e-001
6.306084e+002, 1.026173e-001
6.325369e+002, 1.028173e-001
6.344653e+002, 1.031036e-001
6.363938e+002, 1.036078e-001
6.383223e+002, 1.036425e-001
6.402507e+002, 1.035230e-001
6.421792e+002, 1.033847e-001
6.441077e+002, 1.037695e-001
6.460361e+002, 1.042345e-001
6.479646e+002, 1.042009e-001
6.498931e+002, 1.040627e-001
6.518215e+002, 1.044552e-001
6.537500e+002, 1.047716e-001
6.556785e+002, 1.049756e-001
6.576069e+002, 1.053436e-001
6.595354e+002, 1.058815e-001
6.614639e+002, 1.061340e-001
6.633923e+002, 1.061980e-001
6.653208e+002, 1.063215e-001
6.672493e+002, 1.070022e-001
6.691777e+002, 1.070872e-001
6.711062e+002, 1.072193e-001
6.730347e+002, 1.073622e-001
6.749631e+002, 1.073689e-001
6.768916e+002, 1.075306e-001
6.788201e+002, 1.084146e-001
6.807485e+002, 1.084383e-001
6.826770e+002, 1.084046e-001
6.846055e+002, 1.085483e-001
6.865339e+002, 1.094422e-001
6.884624e+002, 1.101483e-001
6.903909e+002, 1.109397e-001
6.923193e+002, 1.112919e-001
6.942478e+002, 1.120042e-001
6.961763e+002, 1.127054e-001
6.981047e+002, 1.118428e-001
7.000332e+002, 1.089198e-001
##END=



