##NAMES=Clinozoisite
##RRUFFID=R040085
##IDEAL CHEMISTRY=Ca_2_Al_3_(Si_2_O_7_)(SiO_4_)O(OH)
##LOCALITY=Alamos, Sonora, Mexico
##OWNER=RRUFF
##SOURCE=University of Arizona Mineral Museum
##DESCRIPTION=Divergent aggregate of red thin prismatic crystals
##STATUS=The identification of this mineral has been confirmed by X-ray diffraction and chemical analysis
##URL=rruff.info/R040085
##MEASURED CHEMISTRY=Ca_2.03_(Al_0.90_Fe_0.13_)_3_(Si_1.00_O_4_)(Si_2.00_O_7_)O(OH)
3.991926e+002, 0.000000e+000
4.011211e+002, 2.746247e-001
4.030496e+002, 2.758982e-001
4.049780e+002, 2.709622e-001
4.069065e+002, 2.708650e-001
4.088350e+002, 2.752043e-001
4.107634e+002, 2.739293e-001
4.126919e+002, 2.635234e-001
4.146204e+002, 2.530643e-001
4.165488e+002, 2.420984e-001
4.184773e+002, 2.354900e-001
4.204058e+002, 2.234736e-001
4.223342e+002, 2.168204e-001
4.242627e+002, 2.164440e-001
4.261912e+002, 2.174062e-001
4.281196e+002, 2.149946e-001
4.300481e+002, 2.131176e-001
4.319766e+002, 2.158842e-001
4.339050e+002, 2.174586e-001
4.358335e+002, 2.168807e-001
4.377620e+002, 2.196733e-001
4.396904e+002, 2.238175e-001
4.416189e+002, 2.256912e-001
4.435474e+002, 2.253463e-001
4.454758e+002, 2.305935e-001
4.474043e+002, 2.369001e-001
4.493328e+002, 2.397240e-001
4.512612e+002, 2.405987e-001
4.531897e+002, 2.411163e-001
4.551182e+002, 2.387900e-001
4.570466e+002, 2.357652e-001
4.589751e+002, 2.321662e-001
4.609036e+002, 2.289870e-001
4.628320e+002, 2.250071e-001
4.647605e+002, 2.221347e-001
4.666890e+002, 2.197430e-001
4.686174e+002, 2.188680e-001
4.705459e+002, 2.196805e-001
4.724744e+002, 2.202705e-001
4.744028e+002, 2.203081e-001
4.763313e+002, 2.181017e-001
4.782598e+002, 2.142150e-001
4.801882e+002, 2.098893e-001
4.821167e+002, 2.042967e-001
4.840452e+002, 1.995192e-001
4.859736e+002, 1.963083e-001
4.879021e+002, 1.942410e-001
4.898306e+002, 1.925791e-001
4.917590e+002, 1.918398e-001
4.936875e+002, 1.937456e-001
4.956160e+002, 1.961079e-001
4.975444e+002, 1.973446e-001
4.994729e+002, 1.996871e-001
5.014014e+002, 2.037528e-001
5.033298e+002, 2.077792e-001
5.052583e+002, 2.119173e-001
5.071868e+002, 2.167626e-001
5.091152e+002, 2.215573e-001
5.110437e+002, 2.252580e-001
5.129722e+002, 2.276588e-001
5.149006e+002, 2.290414e-001
5.168291e+002, 2.290430e-001
5.187576e+002, 2.279969e-001
5.206860e+002, 2.253499e-001
5.226145e+002, 2.232247e-001
5.245430e+002, 2.221300e-001
5.264714e+002, 2.195016e-001
5.283999e+002, 2.165418e-001
5.303284e+002, 2.146571e-001
5.322568e+002, 2.131479e-001
5.341853e+002, 2.118693e-001
5.361138e+002, 2.093796e-001
5.380422e+002, 2.070489e-001
5.399707e+002, 2.053492e-001
5.418992e+002, 2.037082e-001
5.438276e+002, 2.019892e-001
5.457561e+002, 1.995457e-001
5.476846e+002, 1.971511e-001
5.496130e+002, 1.956345e-001
5.515415e+002, 1.941570e-001
5.534700e+002, 1.922573e-001
5.553984e+002, 1.893899e-001
5.573269e+002, 1.849431e-001
5.592554e+002, 1.806230e-001
5.611838e+002, 1.766483e-001
5.631123e+002, 1.729503e-001
5.650408e+002, 1.689695e-001
5.669692e+002, 1.649954e-001
5.688977e+002, 1.619731e-001
5.708262e+002, 1.603495e-001
5.727546e+002, 1.581353e-001
5.746831e+002, 1.549002e-001
5.766116e+002, 1.510174e-001
5.785400e+002, 1.472104e-001
5.804685e+002, 1.428038e-001
5.823970e+002, 1.375372e-001
5.843254e+002, 1.319319e-001
5.862539e+002, 1.266219e-001
5.881824e+002, 1.212758e-001
5.901108e+002, 1.164274e-001
5.920393e+002, 1.128650e-001
5.939678e+002, 1.109849e-001
5.958962e+002, 1.108983e-001
5.978247e+002, 1.112585e-001
5.997532e+002, 1.106258e-001
6.016816e+002, 1.087287e-001
6.036101e+002, 1.047950e-001
6.055386e+002, 9.959019e-002
6.074670e+002, 9.400028e-002
6.093955e+002, 8.937223e-002
6.113240e+002, 8.645909e-002
6.132524e+002, 8.508153e-002
6.151809e+002, 8.487444e-002
6.171094e+002, 8.646239e-002
6.190378e+002, 8.980718e-002
6.209663e+002, 9.460421e-002
6.228948e+002, 1.003264e-001
6.248232e+002, 1.072803e-001
6.267517e+002, 1.152648e-001
6.286802e+002, 1.229311e-001
6.306086e+002, 1.301799e-001
6.325371e+002, 1.372509e-001
6.344656e+002, 1.435322e-001
6.363940e+002, 1.485309e-001
6.383225e+002, 1.533501e-001
6.402510e+002, 1.581425e-001
6.421794e+002, 1.617448e-001
6.441079e+002, 1.641732e-001
6.460364e+002, 1.646913e-001
6.479648e+002, 1.624983e-001
6.498933e+002, 1.579481e-001
6.518218e+002, 1.524918e-001
6.537502e+002, 1.468959e-001
6.556787e+002, 1.413234e-001
6.576072e+002, 1.366147e-001
6.595356e+002, 1.333334e-001
6.614641e+002, 1.310498e-001
6.633926e+002, 1.298066e-001
6.653210e+002, 1.292145e-001
6.672495e+002, 1.284805e-001
6.691780e+002, 1.268607e-001
6.711064e+002, 1.239522e-001
6.730349e+002, 1.195218e-001
6.749634e+002, 1.141718e-001
6.768918e+002, 1.086961e-001
6.788203e+002, 1.042430e-001
6.807488e+002, 1.005984e-001
6.826772e+002, 9.690090e-002
6.846057e+002, 9.314271e-002
6.865342e+002, 8.955908e-002
6.884626e+002, 8.530498e-002
6.903911e+002, 8.128164e-002
6.923196e+002, 7.784140e-002
6.942480e+002, 7.475751e-002
6.961765e+002, 7.167082e-002
6.981050e+002, 6.851766e-002
7.000334e+002, 6.542231e-002
7.019619e+002, 6.222261e-002
7.038904e+002, 5.879969e-002
7.058188e+002, 5.545866e-002
7.077473e+002, 5.237319e-002
7.096758e+002, 4.975713e-002
7.116042e+002, 4.797280e-002
7.135327e+002, 4.621863e-002
7.154612e+002, 4.380981e-002
7.173896e+002, 4.204514e-002
7.193181e+002, 4.134218e-002
7.212466e+002, 4.135490e-002
7.231750e+002, 4.201115e-002
7.251035e+002, 4.273251e-002
7.270320e+002, 4.367456e-002
7.289604e+002, 4.537622e-002
7.308889e+002, 4.689614e-002
7.328174e+002, 4.783849e-002
7.347458e+002, 4.784811e-002
7.366743e+002, 4.676481e-002
7.386028e+002, 4.508051e-002
7.405313e+002, 4.337636e-002
7.424597e+002, 4.218471e-002
7.443882e+002, 4.171594e-002
7.463167e+002, 4.145464e-002
7.482451e+002, 4.133022e-002
7.501736e+002, 4.127679e-002
7.521021e+002, 4.135120e-002
7.540305e+002, 4.137256e-002
7.559590e+002, 4.145475e-002
7.578875e+002, 4.131628e-002
7.598159e+002, 4.124384e-002
7.617444e+002, 4.135222e-002
7.636729e+002, 4.147611e-002
7.656013e+002, 4.156635e-002
7.675298e+002, 4.150808e-002
7.694583e+002, 4.161381e-002
7.713867e+002, 4.213917e-002
7.733152e+002, 4.301927e-002
7.752437e+002, 4.413452e-002
7.771721e+002, 4.535054e-002
7.791006e+002, 4.643618e-002
7.810291e+002, 4.716115e-002
7.829575e+002, 4.784474e-002
7.848860e+002, 4.887964e-002
7.868145e+002, 5.042199e-002
7.887429e+002, 5.222049e-002
7.906714e+002, 5.450976e-002
7.925999e+002, 5.705723e-002
7.945283e+002, 6.003571e-002
7.964568e+002, 6.311734e-002
7.983853e+002, 6.604058e-002
8.003137e+002, 6.875129e-002
8.022422e+002, 7.145361e-002
8.041707e+002, 7.396403e-002
8.060991e+002, 7.663283e-002
8.080276e+002, 7.975136e-002
8.099561e+002, 8.353510e-002
8.118845e+002, 8.757830e-002
8.138130e+002, 9.227825e-002
8.157415e+002, 9.794007e-002
8.176699e+002, 1.042056e-001
8.195984e+002, 1.107434e-001
8.215269e+002, 1.177140e-001
8.234553e+002, 1.248256e-001
8.253838e+002, 1.318392e-001
8.273123e+002, 1.385020e-001
8.292407e+002, 1.450529e-001
8.311692e+002, 1.513394e-001
8.330977e+002, 1.573163e-001
8.350261e+002, 1.631539e-001
8.369546e+002, 1.680887e-001
8.388831e+002, 1.717196e-001
8.408115e+002, 1.742057e-001
8.427400e+002, 1.749110e-001
8.446685e+002, 1.741879e-001
8.465969e+002, 1.727337e-001
8.485254e+002, 1.712931e-001
8.504539e+002, 1.710842e-001
8.523823e+002, 1.731972e-001
8.543108e+002, 1.773057e-001
8.562393e+002, 1.831713e-001
8.581677e+002, 1.899512e-001
8.600962e+002, 1.965483e-001
8.620247e+002, 2.028474e-001
8.639531e+002, 2.080470e-001
8.658816e+002, 2.119703e-001
8.678101e+002, 2.156507e-001
8.697385e+002, 2.213909e-001
8.716670e+002, 2.307995e-001
8.735955e+002, 2.418922e-001
8.755239e+002, 2.523859e-001
8.774524e+002, 2.605863e-001
8.793809e+002, 2.658688e-001
8.813093e+002, 2.694046e-001
8.832378e+002, 2.718338e-001
8.851663e+002, 2.725086e-001
8.870947e+002, 2.720725e-001
8.890232e+002, 2.707104e-001
8.909517e+002, 2.681270e-001
8.928801e+002, 2.641642e-001
8.948085e+002, 2.593488e-001
8.967370e+002, 2.543248e-001
8.986655e+002, 2.499156e-001
9.005939e+002, 2.460566e-001
9.025224e+002, 2.430119e-001
9.044509e+002, 2.402078e-001
9.063793e+002, 2.379357e-001
9.083078e+002, 2.361041e-001
9.102363e+002, 2.340091e-001
9.121647e+002, 2.319811e-001
9.140932e+002, 2.301681e-001
9.160217e+002, 2.275124e-001
9.179501e+002, 2.253559e-001
9.198786e+002, 2.247823e-001
9.218071e+002, 2.260208e-001
9.237355e+002, 2.293680e-001
9.256640e+002, 2.353205e-001
9.275925e+002, 2.433985e-001
9.295209e+002, 2.527999e-001
9.314494e+002, 2.627319e-001
9.333779e+002, 2.717340e-001
9.353063e+002, 2.782480e-001
9.372348e+002, 2.829541e-001
9.391633e+002, 2.857727e-001
9.410917e+002, 2.870261e-001
9.430202e+002, 2.871722e-001
9.449487e+002, 2.864384e-001
9.468771e+002, 2.844501e-001
9.488056e+002, 2.810733e-001
9.507341e+002, 2.767725e-001
9.526625e+002, 2.713667e-001
9.545910e+002, 2.643909e-001
9.565195e+002, 2.564977e-001
9.584479e+002, 2.480208e-001
9.603764e+002, 2.394807e-001
9.623049e+002, 2.314264e-001
9.642333e+002, 2.242611e-001
9.661618e+002, 2.179329e-001
9.680903e+002, 2.123819e-001
9.700187e+002, 2.071360e-001
9.719472e+002, 2.024315e-001
9.738757e+002, 1.985944e-001
9.758041e+002, 1.955570e-001
9.777326e+002, 1.929495e-001
9.796611e+002, 1.906182e-001
9.815895e+002, 1.888008e-001
9.835180e+002, 1.874191e-001
9.854465e+002, 1.857288e-001
9.873749e+002, 1.842122e-001
9.893034e+002, 1.826787e-001
9.912319e+002, 1.815373e-001
9.931603e+002, 1.805433e-001
9.950888e+002, 1.790173e-001
9.970173e+002, 1.775561e-001
9.989457e+002, 1.762549e-001
1.000874e+003, 1.749188e-001
1.002803e+003, 1.737132e-001
1.004731e+003, 1.727359e-001
1.006660e+003, 1.719092e-001
1.008588e+003, 1.711293e-001
1.010517e+003, 1.709184e-001
1.012445e+003, 1.714717e-001
1.014373e+003, 1.724767e-001
1.016302e+003, 1.735623e-001
1.018230e+003, 1.752722e-001
1.020159e+003, 1.770783e-001
1.022087e+003, 1.791278e-001
1.024016e+003, 1.817604e-001
1.025944e+003, 1.845189e-001
1.027873e+003, 1.875802e-001
1.029801e+003, 1.908077e-001
1.031730e+003, 1.933762e-001
1.033658e+003, 1.952999e-001
1.035587e+003, 1.956718e-001
1.037515e+003, 1.939771e-001
1.039444e+003, 1.899403e-001
1.041372e+003, 1.834991e-001
1.043301e+003, 1.754804e-001
1.045229e+003, 1.668282e-001
1.047157e+003, 1.582373e-001
1.049086e+003, 1.500596e-001
1.051014e+003, 1.428913e-001
1.052943e+003, 1.367275e-001
1.054871e+003, 1.313802e-001
1.056800e+003, 1.272865e-001
1.058728e+003, 1.242044e-001
1.060657e+003, 1.218543e-001
1.062585e+003, 1.200406e-001
1.064514e+003, 1.188909e-001
1.066442e+003, 1.183235e-001
1.068371e+003, 1.178929e-001
1.070299e+003, 1.178648e-001
1.072228e+003, 1.180918e-001
1.074156e+003, 1.183788e-001
1.076084e+003, 1.188271e-001
1.078013e+003, 1.190559e-001
1.079941e+003, 1.191932e-001
1.081870e+003, 1.189027e-001
1.083798e+003, 1.185059e-001
1.085727e+003, 1.185067e-001
1.087655e+003, 1.190384e-001
1.089584e+003, 1.196675e-001
1.091512e+003, 1.203684e-001
1.093441e+003, 1.210844e-001
1.095369e+003, 1.216480e-001
1.097298e+003, 1.220204e-001
1.099226e+003, 1.226009e-001
1.101155e+003, 1.231172e-001
1.103083e+003, 1.230736e-001
1.105011e+003, 1.223858e-001
1.106940e+003, 1.212812e-001
1.108868e+003, 1.200483e-001
1.110797e+003, 1.186179e-001
1.112725e+003, 1.166295e-001
1.114654e+003, 1.143178e-001
1.116582e+003, 1.117529e-001
1.118511e+003, 1.090119e-001
1.120439e+003, 1.062282e-001
1.122368e+003, 1.031048e-001
1.124296e+003, 9.968676e-002
1.126225e+003, 9.603637e-002
1.128153e+003, 9.210253e-002
1.130082e+003, 8.811467e-002
1.132010e+003, 8.385366e-002
1.133938e+003, 7.939292e-002
1.135867e+003, 7.489744e-002
1.137795e+003, 7.017591e-002
1.139724e+003, 6.538165e-002
1.141652e+003, 6.079311e-002
1.143581e+003, 5.601168e-002
1.145509e+003, 5.137682e-002
1.147438e+003, 4.714574e-002
1.149366e+003, 4.350745e-002
1.151295e+003, 4.004148e-002
1.153223e+003, 3.697652e-002
1.155152e+003, 3.407264e-002
1.157080e+003, 3.138484e-002
1.159009e+003, 2.931785e-002
1.160937e+003, 2.763801e-002
1.162865e+003, 2.610586e-002
1.164794e+003, 2.446885e-002
1.166722e+003, 2.295665e-002
1.168651e+003, 2.171017e-002
1.170579e+003, 2.060773e-002
1.172508e+003, 1.981856e-002
1.174436e+003, 1.905645e-002
1.176365e+003, 1.828340e-002
1.178293e+003, 1.755451e-002
1.180222e+003, 1.701451e-002
1.182150e+003, 1.640800e-002
1.184079e+003, 1.587130e-002
1.186007e+003, 1.528400e-002
1.187936e+003, 1.483018e-002
1.189864e+003, 1.451116e-002
1.191792e+003, 1.412388e-002
1.193721e+003, 1.362911e-002
1.195649e+003, 1.305372e-002
1.197578e+003, 1.257758e-002
1.199506e+003, 1.235123e-002
1.201435e+003, 1.202199e-002
1.203363e+003, 1.155753e-002
1.205292e+003, 1.121827e-002
1.207220e+003, 1.098145e-002
1.209149e+003, 1.053420e-002
1.211077e+003, 1.009946e-002
1.213006e+003, 9.765526e-003
1.214934e+003, 9.344782e-003
1.216863e+003, 9.067583e-003
1.218791e+003, 8.975735e-003
1.220719e+003, 8.715413e-003
1.222648e+003, 8.483716e-003
1.224576e+003, 8.415852e-003
1.226505e+003, 8.224371e-003
1.228433e+003, 7.953571e-003
1.230362e+003, 7.767772e-003
1.232290e+003, 7.532477e-003
1.234219e+003, 7.489409e-003
1.236147e+003, 7.531943e-003
1.238076e+003, 7.549280e-003
1.240004e+003, 7.380492e-003
1.241933e+003, 7.400200e-003
1.243861e+003, 7.483743e-003
1.245790e+003, 7.378337e-003
1.247718e+003, 7.250150e-003
1.249646e+003, 7.261275e-003
1.251575e+003, 7.146736e-003
1.253503e+003, 7.042915e-003
1.255432e+003, 6.978333e-003
1.257360e+003, 6.968679e-003
1.259289e+003, 7.037939e-003
1.261217e+003, 7.009635e-003
1.263146e+003, 7.007790e-003
1.265074e+003, 7.044985e-003
1.267003e+003, 7.030765e-003
1.268931e+003, 7.096756e-003
1.270860e+003, 7.087715e-003
1.272788e+003, 7.185803e-003
1.274717e+003, 7.185373e-003
1.276645e+003, 7.217532e-003
1.278573e+003, 7.198245e-003
1.280502e+003, 7.161180e-003
1.282430e+003, 7.181998e-003
1.284359e+003, 7.304561e-003
1.286287e+003, 7.416907e-003
1.288216e+003, 7.477842e-003
1.290144e+003, 7.410483e-003
1.292073e+003, 7.427196e-003
1.294001e+003, 7.562278e-003
1.295930e+003, 7.479249e-003
1.297858e+003, 7.461453e-003
1.299787e+003, 7.475803e-003
1.301715e+003, 7.400759e-003
1.303644e+003, 7.660019e-003
1.305572e+003, 7.860761e-003
1.307500e+003, 7.699791e-003
1.309429e+003, 7.502110e-003
1.311357e+003, 7.709549e-003
1.313286e+003, 7.777233e-003
1.315214e+003, 7.694235e-003
1.317143e+003, 7.820003e-003
1.319071e+003, 7.959408e-003
1.321000e+003, 8.048363e-003
1.322928e+003, 8.251716e-003
1.324857e+003, 8.317173e-003
1.326785e+003, 8.417765e-003
1.328714e+003, 8.561472e-003
1.330642e+003, 8.613762e-003
1.332571e+003, 8.812286e-003
1.334499e+003, 9.041380e-003
1.336427e+003, 9.017891e-003
1.338356e+003, 9.009513e-003
1.340284e+003, 9.276273e-003
1.342213e+003, 9.553826e-003
1.344141e+003, 9.600532e-003
1.346070e+003, 9.775288e-003
1.347998e+003, 9.929809e-003
1.349927e+003, 1.008241e-002
1.351855e+003, 1.024328e-002
1.353784e+003, 1.042408e-002
1.355712e+003, 1.062462e-002
1.357641e+003, 1.114538e-002
1.359569e+003, 1.152033e-002
1.361498e+003, 1.175091e-002
1.363426e+003, 1.205996e-002
1.365354e+003, 1.238880e-002
1.367283e+003, 1.263045e-002
1.369211e+003, 1.314062e-002
1.371140e+003, 1.363728e-002
1.373068e+003, 1.405605e-002
1.374997e+003, 1.459225e-002
1.376925e+003, 1.504937e-002
1.378854e+003, 1.541657e-002
1.380782e+003, 1.603950e-002
1.382711e+003, 1.664076e-002
1.384639e+003, 1.754745e-002
1.386568e+003, 1.829450e-002
1.388496e+003, 1.922777e-002
1.390424e+003, 2.038101e-002
1.392353e+003, 2.144608e-002
1.394281e+003, 2.245219e-002
1.396210e+003, 2.359807e-002
1.398138e+003, 2.482562e-002
1.400067e+003, 2.585567e-002
1.401995e+003, 2.667247e-002
1.403924e+003, 2.765441e-002
1.405852e+003, 2.880264e-002
1.407781e+003, 3.016808e-002
1.409709e+003, 3.150833e-002
1.411638e+003, 3.263846e-002
1.413566e+003, 3.368055e-002
1.415495e+003, 3.468812e-002
1.417423e+003, 3.550239e-002
1.419351e+003, 3.647440e-002
1.421280e+003, 3.740146e-002
1.423208e+003, 3.813485e-002
1.425137e+003, 3.873969e-002
1.427065e+003, 3.933932e-002
1.428994e+003, 3.979528e-002
1.430922e+003, 4.026375e-002
1.432851e+003, 4.051542e-002
1.434779e+003, 4.077116e-002
1.436708e+003, 4.101728e-002
1.438636e+003, 4.126108e-002
1.440565e+003, 4.126643e-002
1.442493e+003, 4.118116e-002
1.444422e+003, 4.133859e-002
1.446350e+003, 4.158281e-002
1.448278e+003, 4.155858e-002
1.450207e+003, 4.114820e-002
1.452135e+003, 4.063062e-002
1.454064e+003, 4.027634e-002
1.455992e+003, 3.966562e-002
1.457921e+003, 3.927631e-002
1.459849e+003, 3.888318e-002
1.461778e+003, 3.821360e-002
1.463706e+003, 3.751551e-002
1.465635e+003, 3.689128e-002
1.467563e+003, 3.618908e-002
1.469492e+003, 3.553730e-002
1.471420e+003, 3.472281e-002
1.473349e+003, 3.391708e-002
1.475277e+003, 3.298475e-002
1.477205e+003, 3.203433e-002
1.479134e+003, 3.125969e-002
1.481062e+003, 3.060612e-002
1.482991e+003, 2.982869e-002
1.484919e+003, 2.903542e-002
1.486848e+003, 2.815292e-002
1.488776e+003, 2.729149e-002
1.490705e+003, 2.668018e-002
1.492633e+003, 2.614305e-002
1.494562e+003, 2.525203e-002
1.496490e+003, 2.428875e-002
1.498419e+003, 2.343600e-002
1.500347e+003, 2.265949e-002
1.502276e+003, 2.189373e-002
1.504204e+003, 2.117510e-002
1.506132e+003, 2.051369e-002
1.508061e+003, 1.998949e-002
1.509989e+003, 1.933000e-002
1.511918e+003, 1.868975e-002
1.513846e+003, 1.816317e-002
1.515775e+003, 1.750869e-002
1.517703e+003, 1.671425e-002
1.519632e+003, 1.617871e-002
1.521560e+003, 1.574988e-002
1.523489e+003, 1.533644e-002
1.525417e+003, 1.496614e-002
1.527346e+003, 1.458271e-002
1.529274e+003, 1.415215e-002
1.531203e+003, 1.371309e-002
1.533131e+003, 1.343837e-002
1.535059e+003, 1.326446e-002
1.536988e+003, 1.292863e-002
1.538916e+003, 1.263228e-002
1.540845e+003, 1.246000e-002
1.542773e+003, 1.233166e-002
1.544702e+003, 1.221136e-002
1.546630e+003, 1.218115e-002
1.548559e+003, 1.214457e-002
1.550487e+003, 1.209644e-002
1.552416e+003, 1.173332e-002
1.554344e+003, 1.157883e-002
1.556273e+003, 1.176701e-002
1.558201e+003, 1.194646e-002
1.560130e+003, 1.189142e-002
1.562058e+003, 1.169549e-002
1.563986e+003, 1.135745e-002
1.565915e+003, 1.150863e-002
1.567843e+003, 1.148529e-002
1.569772e+003, 1.151760e-002
1.571700e+003, 1.164168e-002
1.573629e+003, 1.160944e-002
1.575557e+003, 1.163032e-002
1.577486e+003, 1.172827e-002
1.579414e+003, 1.176333e-002
1.581343e+003, 1.170783e-002
1.583271e+003, 1.184743e-002
1.585200e+003, 1.203231e-002
1.587128e+003, 1.178902e-002
1.589057e+003, 1.170630e-002
1.590985e+003, 1.184395e-002
1.592913e+003, 1.179303e-002
1.594842e+003, 1.160272e-002
1.596770e+003, 1.171275e-002
1.598699e+003, 1.163498e-002
1.600627e+003, 1.136090e-002
1.602556e+003, 1.110092e-002
1.604484e+003, 1.102567e-002
1.606413e+003, 1.122514e-002
1.608341e+003, 1.149892e-002
1.610270e+003, 1.154749e-002
1.612198e+003, 1.134979e-002
1.614127e+003, 1.121457e-002
1.616055e+003, 1.110787e-002
1.617984e+003, 1.100939e-002
1.619912e+003, 1.098019e-002
1.621840e+003, 1.118697e-002
1.623769e+003, 1.109832e-002
1.625697e+003, 1.085338e-002
1.627626e+003, 1.095302e-002
1.629554e+003, 1.095626e-002
1.631483e+003, 1.086500e-002
1.633411e+003, 1.083129e-002
1.635340e+003, 1.098426e-002
1.637268e+003, 1.109786e-002
1.639197e+003, 1.105693e-002
1.641125e+003, 1.093687e-002
1.643054e+003, 1.114307e-002
1.644982e+003, 1.118422e-002
1.646911e+003, 1.092971e-002
1.648839e+003, 1.062182e-002
1.650767e+003, 1.054323e-002
1.652696e+003, 1.042892e-002
1.654624e+003, 1.065972e-002
1.656553e+003, 1.061822e-002
1.658481e+003, 1.051774e-002
1.660410e+003, 1.060587e-002
1.662338e+003, 1.069162e-002
1.664267e+003, 1.042079e-002
1.666195e+003, 1.029657e-002
1.668124e+003, 1.016866e-002
1.670052e+003, 1.017725e-002
1.671981e+003, 1.004909e-002
1.673909e+003, 1.000205e-002
1.675838e+003, 1.012312e-002
1.677766e+003, 1.017581e-002
1.679694e+003, 1.030728e-002
1.681623e+003, 1.031367e-002
1.683551e+003, 9.933297e-003
1.685480e+003, 9.961572e-003
1.687408e+003, 1.025088e-002
1.689337e+003, 1.033001e-002
1.691265e+003, 1.015304e-002
1.693194e+003, 9.852169e-003
1.695122e+003, 9.666207e-003
1.697051e+003, 9.835622e-003
1.698979e+003, 9.895069e-003
1.700908e+003, 1.014049e-002
1.702836e+003, 1.009450e-002
1.704765e+003, 9.879988e-003
1.706693e+003, 9.840064e-003
1.708621e+003, 9.705797e-003
1.710550e+003, 9.627454e-003
1.712478e+003, 9.606676e-003
1.714407e+003, 9.521292e-003
1.716335e+003, 9.586362e-003
1.718264e+003, 9.487287e-003
1.720192e+003, 9.293270e-003
1.722121e+003, 8.972042e-003
1.724049e+003, 9.186220e-003
1.725978e+003, 9.206812e-003
1.727906e+003, 8.928641e-003
1.729835e+003, 8.853533e-003
1.731763e+003, 8.778702e-003
1.733692e+003, 8.514262e-003
1.735620e+003, 8.540397e-003
1.737548e+003, 8.355375e-003
1.739477e+003, 8.340674e-003
1.741405e+003, 8.344932e-003
1.743334e+003, 8.268009e-003
1.745262e+003, 8.180584e-003
1.747191e+003, 8.382530e-003
1.749119e+003, 8.430532e-003
1.751048e+003, 8.441716e-003
1.752976e+003, 8.570450e-003
1.754905e+003, 8.850484e-003
1.756833e+003, 9.003727e-003
1.758762e+003, 8.938978e-003
1.760690e+003, 8.765171e-003
1.762619e+003, 8.947791e-003
1.764547e+003, 9.152985e-003
1.766475e+003, 9.333270e-003
1.768404e+003, 9.053187e-003
1.770332e+003, 8.852399e-003
1.772261e+003, 9.031636e-003
1.774189e+003, 9.422449e-003
1.776118e+003, 9.179533e-003
1.778046e+003, 8.973639e-003
1.779975e+003, 8.772850e-003
1.781903e+003, 8.791319e-003
1.783832e+003, 9.098227e-003
1.785760e+003, 9.116832e-003
1.787689e+003, 9.188770e-003
1.789617e+003, 9.692227e-003
1.791546e+003, 9.940559e-003
1.793474e+003, 9.622264e-003
1.795402e+003, 9.490292e-003
1.797331e+003, 9.653023e-003
1.799259e+003, 9.658605e-003
1.801188e+003, 9.904807e-003
1.803116e+003, 9.673712e-003
1.805045e+003, 9.382030e-003
1.806973e+003, 9.123085e-003
1.808902e+003, 8.960174e-003
1.810830e+003, 8.964775e-003
1.812759e+003, 8.874030e-003
1.814687e+003, 8.609455e-003
1.816616e+003, 8.578422e-003
1.818544e+003, 8.811070e-003
1.820473e+003, 9.179542e-003
1.822401e+003, 9.447623e-003
1.824329e+003, 9.357243e-003
1.826258e+003, 9.253450e-003
1.828186e+003, 8.877790e-003
1.830115e+003, 9.170696e-003
1.832043e+003, 9.369738e-003
1.833972e+003, 9.323326e-003
1.835900e+003, 9.429693e-003
1.837829e+003, 9.071388e-003
1.839757e+003, 8.656569e-003
1.841686e+003, 8.275489e-003
1.843614e+003, 8.468064e-003
1.845543e+003, 8.797500e-003
1.847471e+003, 8.832053e-003
1.849400e+003, 8.634478e-003
1.851328e+003, 8.305541e-003
1.853256e+003, 8.268847e-003
1.855185e+003, 8.361334e-003
1.857113e+003, 8.281685e-003
1.859042e+003, 9.171643e-003
1.860970e+003, 9.417366e-003
1.862899e+003, 8.536469e-003
1.864827e+003, 8.293128e-003
1.866756e+003, 8.622973e-003
1.868684e+003, 8.589258e-003
1.870613e+003, 8.582132e-003
1.872541e+003, 8.572417e-003
1.874470e+003, 7.619116e-003
1.876398e+003, 6.757777e-003
1.878327e+003, 7.278082e-003
1.880255e+003, 8.269672e-003
1.882183e+003, 8.787934e-003
1.884112e+003, 7.661810e-003
1.886040e+003, 6.964721e-003
1.887969e+003, 7.420055e-003
1.889897e+003, 8.014378e-003
1.891826e+003, 8.251918e-003
1.893754e+003, 8.004353e-003
1.895683e+003, 7.291858e-003
1.897611e+003, 7.382149e-003
1.899540e+003, 7.972728e-003
1.901468e+003, 8.165570e-003
1.903397e+003, 7.828278e-003
1.905325e+003, 7.842667e-003
1.907254e+003, 7.865083e-003
1.909182e+003, 7.550938e-003
1.911110e+003, 7.267075e-003
1.913039e+003, 7.380053e-003
1.914967e+003, 7.136643e-003
1.916896e+003, 7.883682e-003
1.918824e+003, 8.517887e-003
1.920753e+003, 8.373487e-003
1.922681e+003, 7.449185e-003
1.924610e+003, 6.863615e-003
1.926538e+003, 7.226586e-003
1.928467e+003, 7.049998e-003
1.930395e+003, 6.696783e-003
1.932324e+003, 6.967683e-003
1.934252e+003, 7.188952e-003
1.936181e+003, 7.857040e-003
1.938109e+003, 7.039843e-003
1.940037e+003, 6.402964e-003
1.941966e+003, 6.299100e-003
1.943894e+003, 6.500200e-003
1.945823e+003, 5.989647e-003
1.947751e+003, 6.337873e-003
1.949680e+003, 6.308039e-003
1.951608e+003, 6.645323e-003
1.953537e+003, 6.514666e-003
1.955465e+003, 6.244298e-003
1.957394e+003, 6.871316e-003
1.959322e+003, 7.346550e-003
1.961251e+003, 8.035176e-003
1.963179e+003, 7.547975e-003
1.965108e+003, 4.876526e-003
1.967036e+003, 3.614870e-003
1.968964e+003, 4.182659e-003
1.970893e+003, 4.612821e-003
1.972821e+003, 5.998767e-003
1.974750e+003, 6.984976e-003
1.976678e+003, 6.702693e-003
1.978607e+003, 8.058570e-003
1.980535e+003, 8.654775e-003
1.982464e+003, 8.179666e-003
1.984392e+003, 7.675076e-003
1.986321e+003, 8.306355e-003
1.988249e+003, 8.678219e-003
1.990178e+003, 8.123027e-003
1.992106e+003, 9.216896e-003
1.994035e+003, 8.891187e-003
1.995963e+003, 8.530913e-003
1.997891e+003, 8.781546e-003
1.999820e+003, 7.507416e-003
2.001748e+003, 5.769349e-003
2.003677e+003, 4.825626e-003
2.005605e+003, 6.148270e-003
2.007534e+003, 8.162935e-003
2.009462e+003, 9.045505e-003
2.011391e+003, 7.259340e-003
2.013319e+003, 4.781010e-003
2.015248e+003, 4.859577e-003
2.017176e+003, 6.030565e-003
2.019105e+003, 6.236109e-003
2.021033e+003, 7.043631e-003
2.022962e+003, 8.163291e-003
2.024890e+003, 8.815149e-003
2.026818e+003, 7.993474e-003
2.028747e+003, 6.456975e-003
2.030675e+003, 6.841701e-003
2.032604e+003, 7.260804e-003
2.034532e+003, 8.286698e-003
2.036461e+003, 8.970364e-003
2.038389e+003, 8.579856e-003
2.040318e+003, 8.635053e-003
2.042246e+003, 6.933841e-003
2.044175e+003, 6.455320e-003
2.046103e+003, 6.780130e-003
2.048032e+003, 7.104312e-003
2.049960e+003, 8.642539e-003
2.051889e+003, 9.649124e-003
2.053817e+003, 8.499750e-003
2.055746e+003, 7.711063e-003
2.057674e+003, 7.779606e-003
2.059603e+003, 8.469957e-003
2.061531e+003, 9.135501e-003
2.063459e+003, 8.683789e-003
2.065388e+003, 7.525805e-003
2.067316e+003, 7.051199e-003
2.069245e+003, 6.683616e-003
2.071173e+003, 6.924332e-003
2.073102e+003, 7.983983e-003
2.075030e+003, 8.871556e-003
2.076959e+003, 8.547523e-003
2.078887e+003, 8.144241e-003
2.080816e+003, 7.498558e-003
2.082744e+003, 8.177678e-003
2.084673e+003, 9.115551e-003
2.086601e+003, 9.280787e-003
2.088530e+003, 8.749443e-003
2.090458e+003, 8.524037e-003
2.092386e+003, 8.390901e-003
2.094315e+003, 9.181643e-003
2.096243e+003, 9.802895e-003
2.098172e+003, 9.570981e-003
2.100100e+003, 9.547157e-003
2.102029e+003, 9.365144e-003
2.103957e+003, 9.130572e-003
2.105886e+003, 8.572200e-003
2.107814e+003, 8.233270e-003
2.109743e+003, 8.998753e-003
2.111671e+003, 9.030513e-003
2.113600e+003, 9.803768e-003
2.115528e+003, 1.033588e-002
2.117457e+003, 9.892941e-003
2.119385e+003, 8.946729e-003
2.121313e+003, 8.764115e-003
2.123242e+003, 8.124075e-003
2.125170e+003, 7.435042e-003
2.127099e+003, 7.474122e-003
2.129027e+003, 8.042187e-003
2.130956e+003, 7.768753e-003
2.132884e+003, 7.270143e-003
2.134813e+003, 6.812580e-003
2.136741e+003, 6.374941e-003
2.138670e+003, 7.063359e-003
2.140598e+003, 6.895582e-003
2.142527e+003, 6.357624e-003
2.144455e+003, 6.786905e-003
2.146384e+003, 7.227319e-003
2.148312e+003, 8.002220e-003
2.150240e+003, 7.399299e-003
2.152169e+003, 6.982389e-003
2.154097e+003, 5.986050e-003
2.156026e+003, 3.564593e-003
2.157954e+003, 1.525434e-003
2.159883e+003, 6.554671e-003
2.161811e+003, 1.028372e-002
2.163740e+003, 1.047239e-002
2.165668e+003, 9.067398e-003
2.167597e+003, 9.845419e-003
2.169525e+003, 1.135804e-002
2.171454e+003, 1.003440e-002
2.173382e+003, 7.922970e-003
2.175311e+003, 8.585487e-003
2.177239e+003, 9.566281e-003
2.179167e+003, 8.757901e-003
2.181096e+003, 8.836997e-003
2.183024e+003, 9.857285e-003
2.184953e+003, 9.310414e-003
2.186881e+003, 7.718622e-003
2.188810e+003, 7.079964e-003
2.190738e+003, 7.766130e-003
2.192667e+003, 7.126560e-003
2.194595e+003, 8.947513e-003
2.196524e+003, 1.053858e-002
2.198452e+003, 1.037498e-002
2.200381e+003, 9.858796e-003
2.202309e+003, 8.413662e-003
2.204238e+003, 7.837106e-003
2.206166e+003, 1.042475e-002
2.208094e+003, 1.163134e-002
2.210023e+003, 1.091212e-002
2.211951e+003, 9.963176e-003
2.213880e+003, 1.094620e-002
2.215808e+003, 1.093429e-002
2.217737e+003, 9.760505e-003
2.219665e+003, 8.958208e-003
2.221594e+003, 9.723427e-003
2.223522e+003, 1.013218e-002
2.225451e+003, 1.024906e-002
2.227379e+003, 1.103111e-002
2.229308e+003, 1.112286e-002
2.231236e+003, 1.080004e-002
2.233165e+003, 1.068601e-002
2.235093e+003, 1.102500e-002
2.237021e+003, 1.148849e-002
2.238950e+003, 1.155564e-002
2.240878e+003, 1.197376e-002
2.242807e+003, 1.103320e-002
2.244735e+003, 1.098778e-002
2.246664e+003, 1.176429e-002
2.248592e+003, 1.274856e-002
2.250521e+003, 1.289965e-002
2.252449e+003, 1.236310e-002
2.254378e+003, 1.196278e-002
2.256306e+003, 1.290614e-002
2.258235e+003, 1.244202e-002
2.260163e+003, 1.128071e-002
2.262092e+003, 1.151783e-002
2.264020e+003, 1.324864e-002
2.265948e+003, 1.341798e-002
2.267877e+003, 1.306528e-002
2.269805e+003, 1.337119e-002
2.271734e+003, 1.383685e-002
2.273662e+003, 1.310349e-002
2.275591e+003, 1.272412e-002
2.277519e+003, 1.360054e-002
2.279448e+003, 1.326977e-002
2.281376e+003, 1.266578e-002
2.283305e+003, 1.351282e-002
2.285233e+003, 1.356137e-002
2.287162e+003, 1.409768e-002
2.289090e+003, 1.495991e-002
2.291019e+003, 1.503544e-002
2.292947e+003, 1.492191e-002
2.294875e+003, 1.467922e-002
2.296804e+003, 1.422653e-002
2.298732e+003, 1.483892e-002
2.300661e+003, 1.528331e-002
2.302589e+003, 1.512605e-002
2.304518e+003, 1.507750e-002
2.306446e+003, 1.523837e-002
2.308375e+003, 1.512793e-002
2.310303e+003, 1.518324e-002
2.312232e+003, 1.520954e-002
2.314160e+003, 1.532628e-002
2.316089e+003, 1.535736e-002
2.318017e+003, 1.584275e-002
2.319946e+003, 1.612823e-002
2.321874e+003, 1.646239e-002
2.323802e+003, 1.664353e-002
2.325731e+003, 1.547552e-002
2.327659e+003, 1.446612e-002
2.329588e+003, 1.501722e-002
2.331516e+003, 1.537529e-002
2.333445e+003, 1.511201e-002
2.335373e+003, 1.456849e-002
2.337302e+003, 1.459718e-002
2.339230e+003, 1.494969e-002
2.341159e+003, 1.553525e-002
2.343087e+003, 1.576538e-002
2.345016e+003, 1.551318e-002
2.346944e+003, 1.504795e-002
2.348873e+003, 1.496213e-002
2.350801e+003, 1.450442e-002
2.352729e+003, 1.420493e-002
2.354658e+003, 1.459451e-002
2.356586e+003, 1.557608e-002
2.358515e+003, 1.548396e-002
2.360443e+003, 1.531034e-002
2.362372e+003, 1.496021e-002
2.364300e+003, 1.507092e-002
2.366229e+003, 1.480498e-002
2.368157e+003, 1.454121e-002
2.370086e+003, 1.481875e-002
2.372014e+003, 1.505949e-002
2.373942e+003, 1.459981e-002
2.375871e+003, 1.460614e-002
2.377799e+003, 1.469982e-002
2.379728e+003, 1.433507e-002
2.381656e+003, 1.360077e-002
2.383585e+003, 1.385404e-002
2.385513e+003, 1.492851e-002
2.387442e+003, 1.572459e-002
2.389370e+003, 1.534734e-002
2.391299e+003, 1.484972e-002
2.393227e+003, 1.478904e-002
2.395156e+003, 1.450782e-002
2.397084e+003, 1.436286e-002
2.399012e+003, 1.551956e-002
2.400941e+003, 1.586017e-002
2.402869e+003, 1.540096e-002
2.404798e+003, 1.552571e-002
2.406726e+003, 1.636999e-002
2.408655e+003, 1.631509e-002
2.410583e+003, 1.588999e-002
2.412512e+003, 1.513830e-002
2.414440e+003, 1.525121e-002
2.416369e+003, 1.580149e-002
2.418297e+003, 1.591099e-002
2.420226e+003, 1.565032e-002
2.422154e+003, 1.615452e-002
2.424083e+003, 1.578492e-002
2.426011e+003, 1.527367e-002
2.427939e+003, 1.533560e-002
2.429868e+003, 1.566242e-002
2.431796e+003, 1.565596e-002
2.433725e+003, 1.580867e-002
2.435653e+003, 1.559406e-002
2.437582e+003, 1.609750e-002
2.439510e+003, 1.672734e-002
2.441439e+003, 1.664491e-002
2.443367e+003, 1.600732e-002
2.445296e+003, 1.585777e-002
2.447224e+003, 1.607870e-002
2.449153e+003, 1.605998e-002
2.451081e+003, 1.631745e-002
2.453010e+003, 1.633161e-002
2.454938e+003, 1.667886e-002
2.456866e+003, 1.697381e-002
2.458795e+003, 1.699401e-002
2.460723e+003, 1.630738e-002
2.462652e+003, 1.504367e-002
2.464580e+003, 1.528140e-002
2.466509e+003, 1.605599e-002
2.468437e+003, 1.561458e-002
2.470366e+003, 1.558027e-002
2.472294e+003, 1.613657e-002
2.474223e+003, 1.557340e-002
2.476151e+003, 1.524921e-002
2.478080e+003, 1.559827e-002
2.480008e+003, 1.608524e-002
2.481937e+003, 1.601586e-002
2.483865e+003, 1.635522e-002
2.485793e+003, 1.645239e-002
2.487722e+003, 1.661037e-002
2.489650e+003, 1.680153e-002
2.491579e+003, 1.649152e-002
2.493507e+003, 1.551710e-002
2.495436e+003, 1.617994e-002
2.497364e+003, 1.648705e-002
2.499293e+003, 1.615948e-002
2.501221e+003, 1.674100e-002
2.503150e+003, 1.698227e-002
2.505078e+003, 1.699611e-002
2.507007e+003, 1.770443e-002
2.508935e+003, 1.735309e-002
2.510864e+003, 1.759630e-002
2.512792e+003, 1.743713e-002
2.514720e+003, 1.651087e-002
2.516649e+003, 1.642153e-002
2.518577e+003, 1.748576e-002
2.520506e+003, 1.735523e-002
2.522434e+003, 1.728148e-002
2.524363e+003, 1.700361e-002
2.526291e+003, 1.688135e-002
2.528220e+003, 1.661601e-002
2.530148e+003, 1.669508e-002
2.532077e+003, 1.671351e-002
2.534005e+003, 1.687808e-002
2.535934e+003, 1.740906e-002
2.537862e+003, 1.753319e-002
2.539791e+003, 1.670728e-002
2.541719e+003, 1.599009e-002
2.543647e+003, 1.613110e-002
2.545576e+003, 1.660208e-002
2.547504e+003, 1.623899e-002
2.549433e+003, 1.706200e-002
2.551361e+003, 1.719949e-002
2.553290e+003, 1.695156e-002
2.555218e+003, 1.691786e-002
2.557147e+003, 1.685733e-002
2.559075e+003, 1.730713e-002
2.561004e+003, 1.746567e-002
2.562932e+003, 1.699196e-002
2.564861e+003, 1.755016e-002
2.566789e+003, 1.777298e-002
2.568718e+003, 1.828908e-002
2.570646e+003, 1.870715e-002
2.572574e+003, 1.827711e-002
2.574503e+003, 1.731583e-002
2.576431e+003, 1.670629e-002
2.578360e+003, 1.632864e-002
2.580288e+003, 1.675109e-002
2.582217e+003, 1.750736e-002
2.584145e+003, 1.793224e-002
2.586074e+003, 1.697132e-002
2.588002e+003, 1.681675e-002
2.589931e+003, 1.765277e-002
2.591859e+003, 1.750471e-002
2.593788e+003, 1.727972e-002
2.595716e+003, 1.769054e-002
2.597645e+003, 1.768008e-002
2.599573e+003, 1.803905e-002
2.601501e+003, 1.810989e-002
2.603430e+003, 1.773786e-002
2.605358e+003, 1.770935e-002
2.607287e+003, 1.805633e-002
2.609215e+003, 1.786195e-002
2.611144e+003, 1.799715e-002
2.613072e+003, 1.815261e-002
2.615001e+003, 1.852696e-002
2.616929e+003, 1.825051e-002
2.618858e+003, 1.807272e-002
2.620786e+003, 1.782852e-002
2.622715e+003, 1.767349e-002
2.624643e+003, 1.766856e-002
2.626572e+003, 1.799130e-002
2.628500e+003, 1.796762e-002
2.630428e+003, 1.827054e-002
2.632357e+003, 1.793152e-002
2.634285e+003, 1.768507e-002
2.636214e+003, 1.833141e-002
2.638142e+003, 1.905741e-002
2.640071e+003, 1.883166e-002
2.641999e+003, 1.855107e-002
2.643928e+003, 1.833948e-002
2.645856e+003, 1.827892e-002
2.647785e+003, 1.777812e-002
2.649713e+003, 1.793222e-002
2.651642e+003, 1.850012e-002
2.653570e+003, 1.830837e-002
2.655499e+003, 1.774136e-002
2.657427e+003, 1.760073e-002
2.659355e+003, 1.705007e-002
2.661284e+003, 1.697966e-002
2.663212e+003, 1.721210e-002
2.665141e+003, 1.760825e-002
2.667069e+003, 1.743510e-002
2.668998e+003, 1.744609e-002
2.670926e+003, 1.740326e-002
2.672855e+003, 1.742886e-002
2.674783e+003, 1.735408e-002
2.676712e+003, 1.751515e-002
2.678640e+003, 1.785633e-002
2.680569e+003, 1.742634e-002
2.682497e+003, 1.689928e-002
2.684426e+003, 1.739480e-002
2.686354e+003, 1.739763e-002
2.688282e+003, 1.710258e-002
2.690211e+003, 1.705669e-002
2.692139e+003, 1.748002e-002
2.694068e+003, 1.750414e-002
2.695996e+003, 1.732264e-002
2.697925e+003, 1.742657e-002
2.699853e+003, 1.784879e-002
2.701782e+003, 1.779709e-002
2.703710e+003, 1.786819e-002
2.705639e+003, 1.798007e-002
2.707567e+003, 1.859391e-002
2.709496e+003, 1.848467e-002
2.711424e+003, 1.816093e-002
2.713353e+003, 1.796278e-002
2.715281e+003, 1.784821e-002
2.717209e+003, 1.765743e-002
2.719138e+003, 1.736985e-002
2.721066e+003, 1.730468e-002
2.722995e+003, 1.811072e-002
2.724923e+003, 1.889080e-002
2.726852e+003, 1.855289e-002
2.728780e+003, 1.809577e-002
2.730709e+003, 1.828056e-002
2.732637e+003, 1.793795e-002
2.734566e+003, 1.796496e-002
2.736494e+003, 1.827656e-002
2.738423e+003, 1.864683e-002
2.740351e+003, 1.873246e-002
2.742280e+003, 1.929914e-002
2.744208e+003, 1.894247e-002
2.746136e+003, 1.835280e-002
2.748065e+003, 1.851596e-002
2.749993e+003, 1.854589e-002
2.751922e+003, 1.835202e-002
2.753850e+003, 1.880899e-002
2.755779e+003, 1.852074e-002
2.757707e+003, 1.836221e-002
2.759636e+003, 1.817971e-002
2.761564e+003, 1.851919e-002
2.763493e+003, 1.817937e-002
2.765421e+003, 1.817736e-002
2.767350e+003, 1.844868e-002
2.769278e+003, 1.857745e-002
2.771207e+003, 1.864000e-002
2.773135e+003, 1.905422e-002
2.775063e+003, 1.903871e-002
2.776992e+003, 1.885471e-002
2.778920e+003, 1.847702e-002
2.780849e+003, 1.899940e-002
2.782777e+003, 1.934992e-002
2.784706e+003, 1.924182e-002
2.786634e+003, 1.920571e-002
2.788563e+003, 1.934283e-002
2.790491e+003, 1.883387e-002
2.792420e+003, 1.853831e-002
2.794348e+003, 1.909154e-002
2.796277e+003, 1.921730e-002
2.798205e+003, 1.924063e-002
2.800134e+003, 1.884929e-002
2.802062e+003, 1.843840e-002
2.803990e+003, 1.919914e-002
2.805919e+003, 1.919620e-002
2.807847e+003, 1.874684e-002
2.809776e+003, 1.878751e-002
2.811704e+003, 1.906846e-002
2.813633e+003, 1.887343e-002
2.815561e+003, 1.888485e-002
2.817490e+003, 1.917930e-002
2.819418e+003, 1.965551e-002
2.821347e+003, 1.982542e-002
2.823275e+003, 1.982605e-002
2.825204e+003, 1.922250e-002
2.827132e+003, 1.935885e-002
2.829061e+003, 1.905470e-002
2.830989e+003, 1.831254e-002
2.832917e+003, 1.774625e-002
2.834846e+003, 1.838783e-002
2.836774e+003, 1.902609e-002
2.838703e+003, 1.905049e-002
2.840631e+003, 1.922327e-002
2.842560e+003, 1.985658e-002
2.844488e+003, 1.964173e-002
2.846417e+003, 1.934778e-002
2.848345e+003, 1.874577e-002
2.850274e+003, 1.881225e-002
2.852202e+003, 1.879121e-002
2.854131e+003, 1.943499e-002
2.856059e+003, 1.902148e-002
2.857988e+003, 1.947896e-002
2.859916e+003, 1.997436e-002
2.861844e+003, 2.000662e-002
2.863773e+003, 1.952977e-002
2.865701e+003, 1.888170e-002
2.867630e+003, 1.876408e-002
2.869558e+003, 1.960796e-002
2.871487e+003, 2.013708e-002
2.873415e+003, 2.015670e-002
2.875344e+003, 1.979083e-002
2.877272e+003, 1.940511e-002
2.879201e+003, 1.916593e-002
2.881129e+003, 1.909114e-002
2.883058e+003, 1.947868e-002
2.884986e+003, 1.985167e-002
2.886915e+003, 1.968857e-002
2.888843e+003, 2.000046e-002
2.890771e+003, 2.057929e-002
2.892700e+003, 2.089587e-002
2.894628e+003, 2.039130e-002
2.896557e+003, 1.956267e-002
2.898485e+003, 1.941242e-002
2.900414e+003, 2.044075e-002
2.902342e+003, 2.022028e-002
2.904271e+003, 2.011667e-002
2.906199e+003, 2.001086e-002
2.908128e+003, 1.987721e-002
2.910056e+003, 1.978490e-002
2.911985e+003, 1.996532e-002
2.913913e+003, 2.007595e-002
2.915842e+003, 2.007059e-002
2.917770e+003, 2.004516e-002
2.919698e+003, 2.025844e-002
2.921627e+003, 1.987606e-002
2.923555e+003, 1.919162e-002
2.925484e+003, 1.882025e-002
2.927412e+003, 1.962539e-002
2.929341e+003, 2.050861e-002
2.931269e+003, 2.091007e-002
2.933198e+003, 2.039290e-002
2.935126e+003, 2.072792e-002
2.937055e+003, 2.098024e-002
2.938983e+003, 2.121796e-002
2.940912e+003, 2.059180e-002
2.942840e+003, 2.070559e-002
2.944769e+003, 2.076676e-002
2.946697e+003, 2.088099e-002
2.948625e+003, 2.095375e-002
2.950554e+003, 2.075252e-002
2.952482e+003, 2.061844e-002
2.954411e+003, 2.096163e-002
2.956339e+003, 2.125155e-002
2.958268e+003, 2.164187e-002
2.960196e+003, 2.234055e-002
2.962125e+003, 2.275294e-002
2.964053e+003, 2.260132e-002
2.965982e+003, 2.215254e-002
2.967910e+003, 2.169441e-002
2.969839e+003, 2.211297e-002
2.971767e+003, 2.217071e-002
2.973696e+003, 2.184674e-002
2.975624e+003, 2.198666e-002
2.977552e+003, 2.210307e-002
2.979481e+003, 2.159237e-002
2.981409e+003, 2.219381e-002
2.983338e+003, 2.328098e-002
2.985266e+003, 2.320590e-002
2.987195e+003, 2.258853e-002
2.989123e+003, 2.259697e-002
2.991052e+003, 2.237357e-002
2.992980e+003, 2.218774e-002
2.994909e+003, 2.182447e-002
2.996837e+003, 2.214069e-002
2.998766e+003, 2.227925e-002
3.000694e+003, 2.248991e-002
3.002623e+003, 2.264689e-002
3.004551e+003, 2.248043e-002
3.006479e+003, 2.196015e-002
3.008408e+003, 2.221949e-002
3.010336e+003, 2.267443e-002
3.012265e+003, 2.332221e-002
3.014193e+003, 2.241461e-002
3.016122e+003, 2.212186e-002
3.018050e+003, 2.266935e-002
3.019979e+003, 2.344366e-002
3.021907e+003, 2.364131e-002
3.023836e+003, 2.303253e-002
3.025764e+003, 2.257909e-002
3.027693e+003, 2.248806e-002
3.029621e+003, 2.282358e-002
3.031550e+003, 2.329382e-002
3.033478e+003, 2.340430e-002
3.035406e+003, 2.347866e-002
3.037335e+003, 2.381695e-002
3.039263e+003, 2.445114e-002
3.041192e+003, 2.362723e-002
3.043120e+003, 2.390410e-002
3.045049e+003, 2.384518e-002
3.046977e+003, 2.390068e-002
3.048906e+003, 2.486446e-002
3.050834e+003, 2.455072e-002
3.052763e+003, 2.400612e-002
3.054691e+003, 2.378209e-002
3.056620e+003, 2.375514e-002
3.058548e+003, 2.377735e-002
3.060477e+003, 2.331764e-002
3.062405e+003, 2.400693e-002
3.064333e+003, 2.390079e-002
3.066262e+003, 2.340690e-002
3.068190e+003, 2.337683e-002
3.070119e+003, 2.380807e-002
3.072047e+003, 2.383401e-002
3.073976e+003, 2.492560e-002
3.075904e+003, 2.543935e-002
3.077833e+003, 2.498993e-002
3.079761e+003, 2.504863e-002
3.081690e+003, 2.506952e-002
3.083618e+003, 2.438809e-002
3.085547e+003, 2.398330e-002
3.087475e+003, 2.455664e-002
3.089404e+003, 2.487249e-002
3.091332e+003, 2.544690e-002
3.093260e+003, 2.620962e-002
3.095189e+003, 2.603659e-002
3.097117e+003, 2.633941e-002
3.099046e+003, 2.560375e-002
3.100974e+003, 2.538806e-002
3.102903e+003, 2.601458e-002
3.104831e+003, 2.574278e-002
3.106760e+003, 2.534983e-002
3.108688e+003, 2.533262e-002
3.110617e+003, 2.513432e-002
3.112545e+003, 2.603666e-002
3.114474e+003, 2.653334e-002
3.116402e+003, 2.647226e-002
3.118331e+003, 2.686949e-002
3.120259e+003, 2.813289e-002
3.122188e+003, 2.802818e-002
3.124116e+003, 2.718408e-002
3.126044e+003, 2.661481e-002
3.127973e+003, 2.751692e-002
3.129901e+003, 2.840694e-002
3.131830e+003, 2.801189e-002
3.133758e+003, 2.757460e-002
3.135687e+003, 2.659784e-002
3.137615e+003, 2.577791e-002
3.139544e+003, 2.765248e-002
3.141472e+003, 2.934127e-002
3.143401e+003, 2.888325e-002
3.145329e+003, 2.787765e-002
3.147258e+003, 2.845203e-002
3.149186e+003, 2.852689e-002
3.151115e+003, 2.820229e-002
3.153043e+003, 2.800275e-002
3.154971e+003, 2.753439e-002
3.156900e+003, 2.855010e-002
3.158828e+003, 2.952402e-002
3.160757e+003, 2.905279e-002
3.162685e+003, 2.838802e-002
3.164614e+003, 2.796223e-002
3.166542e+003, 2.777958e-002
3.168471e+003, 2.836086e-002
3.170399e+003, 2.954846e-002
3.172328e+003, 2.900585e-002
3.174256e+003, 2.845860e-002
3.176185e+003, 2.844033e-002
3.178113e+003, 2.930688e-002
3.180042e+003, 2.875004e-002
3.181970e+003, 2.829799e-002
3.183898e+003, 2.830168e-002
3.185827e+003, 2.821087e-002
3.187755e+003, 2.854071e-002
3.189684e+003, 2.971741e-002
3.191612e+003, 2.998541e-002
3.193541e+003, 2.983107e-002
3.195469e+003, 2.963805e-002
3.197398e+003, 2.985964e-002
3.199326e+003, 3.078679e-002
3.201255e+003, 3.126524e-002
3.203183e+003, 3.072017e-002
3.205112e+003, 3.193400e-002
3.207040e+003, 3.221625e-002
3.208969e+003, 3.164445e-002
3.210897e+003, 3.145941e-002
3.212825e+003, 3.132818e-002
3.214754e+003, 3.071605e-002
3.216682e+003, 3.135347e-002
3.218611e+003, 3.178580e-002
3.220539e+003, 3.159756e-002
3.222468e+003, 3.222668e-002
3.224396e+003, 3.273048e-002
3.226325e+003, 3.099141e-002
3.228253e+003, 3.103225e-002
3.230182e+003, 3.169052e-002
3.232110e+003, 3.193555e-002
3.234039e+003, 3.225698e-002
3.235967e+003, 3.395626e-002
3.237896e+003, 3.401211e-002
3.239824e+003, 3.337387e-002
3.241752e+003, 3.340859e-002
3.243681e+003, 3.379929e-002
3.245609e+003, 3.333689e-002
3.247538e+003, 3.392843e-002
3.249466e+003, 3.446384e-002
3.251395e+003, 3.415822e-002
3.253323e+003, 3.456153e-002
3.255252e+003, 3.523076e-002
3.257180e+003, 3.441594e-002
3.259109e+003, 3.523498e-002
3.261037e+003, 3.585880e-002
3.262966e+003, 3.578864e-002
3.264894e+003, 3.606099e-002
3.266823e+003, 3.572359e-002
3.268751e+003, 3.507420e-002
3.270679e+003, 3.558452e-002
3.272608e+003, 3.544763e-002
3.274536e+003, 3.511816e-002
3.276465e+003, 3.624047e-002
3.278393e+003, 3.817075e-002
3.280322e+003, 3.769670e-002
3.282250e+003, 3.700100e-002
3.284179e+003, 3.772840e-002
3.286107e+003, 3.850463e-002
3.288036e+003, 3.838295e-002
3.289964e+003, 3.777561e-002
3.291893e+003, 3.790886e-002
3.293821e+003, 3.824938e-002
3.295750e+003, 3.911672e-002
3.297678e+003, 3.935523e-002
3.299606e+003, 3.892668e-002
3.301535e+003, 4.070303e-002
3.303463e+003, 4.227162e-002
3.305392e+003, 4.338532e-002
3.307320e+003, 4.441949e-002
3.309249e+003, 4.462398e-002
3.311177e+003, 4.535671e-002
3.313106e+003, 4.659986e-002
3.315034e+003, 4.740097e-002
3.316963e+003, 4.843809e-002
3.318891e+003, 4.937888e-002
3.320820e+003, 4.923428e-002
3.322748e+003, 4.920978e-002
3.324677e+003, 5.083567e-002
3.326605e+003, 5.344197e-002
3.328533e+003, 5.474773e-002
3.330462e+003, 5.331775e-002
3.332390e+003, 5.307084e-002
3.334319e+003, 5.404530e-002
3.336247e+003, 5.407082e-002
3.338176e+003, 5.368755e-002
3.340104e+003, 5.432095e-002
3.342033e+003, 5.580477e-002
3.343961e+003, 5.642973e-002
3.345890e+003, 5.496287e-002
3.347818e+003, 5.392999e-002
3.349747e+003, 5.317157e-002
3.351675e+003, 5.361773e-002
3.353604e+003, 5.354938e-002
3.355532e+003, 5.313918e-002
3.357460e+003, 5.187099e-002
3.359389e+003, 5.083614e-002
3.361317e+003, 5.008067e-002
3.363246e+003, 4.870140e-002
3.365174e+003, 4.712357e-002
3.367103e+003, 4.698649e-002
3.369031e+003, 4.540147e-002
3.370960e+003, 4.344878e-002
3.372888e+003, 4.316563e-002
3.374817e+003, 4.294629e-002
3.376745e+003, 4.045575e-002
3.378674e+003, 3.899412e-002
3.380602e+003, 3.920189e-002
3.382531e+003, 3.947061e-002
3.384459e+003, 3.812784e-002
3.386387e+003, 3.579384e-002
3.388316e+003, 3.409747e-002
3.390244e+003, 3.383634e-002
3.392173e+003, 3.299358e-002
3.394101e+003, 3.321303e-002
3.396030e+003, 3.423540e-002
3.397958e+003, 3.319797e-002
3.399887e+003, 3.179430e-002
3.401815e+003, 3.304569e-002
3.403744e+003, 3.374282e-002
3.405672e+003, 3.387889e-002
3.407601e+003, 3.246400e-002
3.409529e+003, 3.184091e-002
3.411458e+003, 3.088550e-002
3.413386e+003, 3.131484e-002
3.415314e+003, 3.196086e-002
3.417243e+003, 3.195725e-002
3.419171e+003, 3.186524e-002
3.421100e+003, 3.223808e-002
3.423028e+003, 3.105948e-002
3.424957e+003, 3.119618e-002
3.426885e+003, 3.122420e-002
3.428814e+003, 3.145524e-002
3.430742e+003, 3.098859e-002
3.432671e+003, 3.080870e-002
3.434599e+003, 3.033305e-002
3.436528e+003, 3.054835e-002
3.438456e+003, 3.056734e-002
3.440385e+003, 3.000605e-002
3.442313e+003, 3.116608e-002
3.444241e+003, 3.182149e-002
3.446170e+003, 3.090943e-002
3.448098e+003, 3.038350e-002
3.450027e+003, 2.999939e-002
3.451955e+003, 2.963198e-002
3.453884e+003, 2.919361e-002
3.455812e+003, 3.007317e-002
3.457741e+003, 2.982625e-002
3.459669e+003, 2.800850e-002
3.461598e+003, 2.810504e-002
3.463526e+003, 2.987071e-002
3.465455e+003, 2.975754e-002
3.467383e+003, 2.874273e-002
3.469312e+003, 2.729492e-002
3.471240e+003, 2.807506e-002
3.473168e+003, 2.934368e-002
3.475097e+003, 3.023107e-002
3.477025e+003, 3.020912e-002
3.478954e+003, 3.125863e-002
3.480882e+003, 3.008828e-002
3.482811e+003, 2.714516e-002
3.484739e+003, 2.804898e-002
3.486668e+003, 2.942903e-002
3.488596e+003, 2.795996e-002
3.490525e+003, 2.802314e-002
3.492453e+003, 2.771481e-002
3.494382e+003, 2.888100e-002
3.496310e+003, 2.968454e-002
3.498239e+003, 2.931228e-002
3.500167e+003, 2.915744e-002
3.502095e+003, 2.878067e-002
3.504024e+003, 2.804407e-002
3.505952e+003, 2.859385e-002
3.507881e+003, 2.976880e-002
3.509809e+003, 3.078309e-002
3.511738e+003, 2.999556e-002
3.513666e+003, 2.898834e-002
3.515595e+003, 2.771283e-002
3.517523e+003, 2.711337e-002
3.519452e+003, 2.672292e-002
3.521380e+003, 2.785519e-002
3.523309e+003, 2.946075e-002
3.525237e+003, 2.983528e-002
3.527166e+003, 2.788033e-002
3.529094e+003, 2.639734e-002
3.531022e+003, 2.629447e-002
3.532951e+003, 2.822953e-002
3.534879e+003, 2.906182e-002
3.536808e+003, 2.849150e-002
3.538736e+003, 2.883575e-002
3.540665e+003, 2.956999e-002
3.542593e+003, 2.933972e-002
3.544522e+003, 2.951328e-002
3.546450e+003, 2.855441e-002
3.548379e+003, 2.832213e-002
3.550307e+003, 2.872930e-002
3.552236e+003, 2.835000e-002
3.554164e+003, 2.853762e-002
3.556093e+003, 2.937906e-002
3.558021e+003, 2.826085e-002
3.559949e+003, 2.834138e-002
3.561878e+003, 2.824972e-002
3.563806e+003, 2.929975e-002
3.565735e+003, 2.971968e-002
3.567663e+003, 3.024927e-002
3.569592e+003, 2.921586e-002
3.571520e+003, 2.984696e-002
3.573449e+003, 3.052418e-002
3.575377e+003, 3.195412e-002
3.577306e+003, 3.094585e-002
3.579234e+003, 3.043555e-002
3.581163e+003, 3.132521e-002
3.583091e+003, 3.169540e-002
3.585020e+003, 3.110091e-002
3.586948e+003, 3.352493e-002
3.588876e+003, 3.534314e-002
3.590805e+003, 3.473366e-002
3.592733e+003, 3.419088e-002
3.594662e+003, 3.603201e-002
3.596590e+003, 3.597925e-002
3.598519e+003, 3.526689e-002
3.600447e+003, 3.687705e-002
3.602376e+003, 3.845478e-002
3.604304e+003, 3.900874e-002
3.606233e+003, 3.946692e-002
3.608161e+003, 3.953725e-002
3.610090e+003, 4.039853e-002
3.612018e+003, 4.029865e-002
3.613947e+003, 4.027395e-002
3.615875e+003, 3.811574e-002
3.617803e+003, 3.989101e-002
3.619732e+003, 4.251684e-002
3.621660e+003, 4.481557e-002
3.623589e+003, 4.452013e-002
3.625517e+003, 4.371171e-002
3.627446e+003, 4.469195e-002
3.629374e+003, 4.538221e-002
3.631303e+003, 4.385740e-002
3.633231e+003, 4.184993e-002
3.635160e+003, 4.140617e-002
3.637088e+003, 4.010536e-002
3.639017e+003, 3.943036e-002
3.640945e+003, 3.871676e-002
3.642874e+003, 3.693160e-002
3.644802e+003, 3.566076e-002
3.646730e+003, 3.690376e-002
3.648659e+003, 3.744416e-002
3.650587e+003, 3.492022e-002
3.652516e+003, 3.550104e-002
3.654444e+003, 3.597047e-002
3.656373e+003, 3.430952e-002
3.658301e+003, 3.253882e-002
3.660230e+003, 3.189600e-002
3.662158e+003, 3.099409e-002
3.664087e+003, 3.102723e-002
3.666015e+003, 3.157064e-002
3.667944e+003, 3.295591e-002
3.669872e+003, 3.160563e-002
3.671801e+003, 2.886731e-002
3.673729e+003, 2.752212e-002
3.675657e+003, 2.895577e-002
3.677586e+003, 2.726922e-002
3.679514e+003, 2.583592e-002
3.681443e+003, 2.699480e-002
3.683371e+003, 2.970802e-002
3.685300e+003, 2.873201e-002
3.687228e+003, 2.539084e-002
3.689157e+003, 2.563547e-002
3.691085e+003, 2.605729e-002
3.693014e+003, 2.601033e-002
3.694942e+003, 2.462359e-002
3.696871e+003, 2.404202e-002
3.698799e+003, 2.563293e-002
3.700728e+003, 2.710450e-002
3.702656e+003, 2.795183e-002
3.704584e+003, 2.756861e-002
3.706513e+003, 2.696856e-002
3.708441e+003, 2.622822e-002
3.710370e+003, 2.498710e-002
3.712298e+003, 2.424109e-002
3.714227e+003, 2.425475e-002
3.716155e+003, 2.495660e-002
3.718084e+003, 2.363706e-002
3.720012e+003, 2.113841e-002
3.721941e+003, 2.169308e-002
3.723869e+003, 2.318948e-002
3.725798e+003, 2.463865e-002
3.727726e+003, 2.483186e-002
3.729655e+003, 2.421685e-002
3.731583e+003, 2.425366e-002
3.733511e+003, 2.561731e-002
3.735440e+003, 2.450366e-002
3.737368e+003, 2.435611e-002
3.739297e+003, 2.442672e-002
3.741225e+003, 2.513687e-002
3.743154e+003, 2.638595e-002
3.745082e+003, 2.657794e-002
3.747011e+003, 2.285431e-002
3.748939e+003, 2.262391e-002
3.750868e+003, 2.407993e-002
3.752796e+003, 2.449635e-002
3.754725e+003, 2.320345e-002
3.756653e+003, 2.554112e-002
3.758582e+003, 2.700885e-002
3.760510e+003, 2.591323e-002
3.762438e+003, 2.538940e-002
3.764367e+003, 2.570829e-002
3.766295e+003, 2.513687e-002
3.768224e+003, 2.572327e-002
3.770152e+003, 2.657392e-002
3.772081e+003, 2.746345e-002
3.774009e+003, 2.766505e-002
3.775938e+003, 2.631874e-002
3.777866e+003, 2.616560e-002
3.779795e+003, 2.555246e-002
3.781723e+003, 2.420564e-002
3.783652e+003, 2.545343e-002
3.785580e+003, 2.453130e-002
3.787509e+003, 2.333761e-002
3.789437e+003, 2.422331e-002
3.791365e+003, 2.562556e-002
3.793294e+003, 2.626110e-002
3.795222e+003, 2.602991e-002
3.797151e+003, 2.625268e-002
3.799079e+003, 2.490701e-002
3.801008e+003, 2.407860e-002
3.802936e+003, 2.650839e-002
3.804865e+003, 2.753260e-002
3.806793e+003, 2.640575e-002
3.808722e+003, 2.482704e-002
3.810650e+003, 2.828691e-002
3.812579e+003, 2.884207e-002
3.814507e+003, 2.806439e-002
3.816436e+003, 2.896594e-002
3.818364e+003, 2.932319e-002
3.820292e+003, 2.768258e-002
3.822221e+003, 2.671423e-002
3.824149e+003, 2.498182e-002
3.826078e+003, 2.496713e-002
3.828006e+003, 2.530835e-002
3.829935e+003, 2.511302e-002
3.831863e+003, 2.472236e-002
3.833792e+003, 2.409334e-002
3.835720e+003, 2.472709e-002
3.837649e+003, 2.485640e-002
3.839577e+003, 2.539385e-002
3.841506e+003, 2.760645e-002
3.843434e+003, 2.757782e-002
3.845363e+003, 2.712878e-002
3.847291e+003, 2.777047e-002
3.849219e+003, 2.885613e-002
3.851148e+003, 2.583755e-002
3.853076e+003, 2.498866e-002
3.855005e+003, 2.678410e-002
3.856933e+003, 2.701437e-002
3.858862e+003, 2.763851e-002
3.860790e+003, 2.769351e-002
3.862719e+003, 2.650181e-002
3.864647e+003, 2.742354e-002
3.866576e+003, 2.825414e-002
3.868504e+003, 2.756553e-002
3.870433e+003, 2.723239e-002
3.872361e+003, 2.764380e-002
3.874290e+003, 2.978549e-002
3.876218e+003, 2.967141e-002
3.878146e+003, 2.687399e-002
3.880075e+003, 2.776693e-002
3.882003e+003, 2.778593e-002
3.883932e+003, 2.552219e-002
3.885860e+003, 2.538604e-002
3.887789e+003, 2.762722e-002
3.889717e+003, 2.719846e-002
3.891646e+003, 2.700912e-002
3.893574e+003, 2.704340e-002
3.895503e+003, 2.750084e-002
3.897431e+003, 2.797931e-002
3.899360e+003, 2.968117e-002
3.901288e+003, 3.022351e-002
3.903217e+003, 2.905619e-002
3.905145e+003, 2.687888e-002
3.907073e+003, 2.593754e-002
3.909002e+003, 2.634564e-002
3.910930e+003, 2.842887e-002
3.912859e+003, 2.959153e-002
3.914787e+003, 2.809275e-002
3.916716e+003, 2.602427e-002
3.918644e+003, 2.520300e-002
3.920573e+003, 2.301299e-002
3.922501e+003, 2.292163e-002
3.924430e+003, 2.521766e-002
3.926358e+003, 2.672926e-002
3.928287e+003, 2.595773e-002
3.930215e+003, 2.817973e-002
3.932144e+003, 2.938608e-002
3.934072e+003, 3.056129e-002
3.936000e+003, 3.166885e-002
3.937929e+003, 2.996908e-002
3.939857e+003, 2.859333e-002
3.941786e+003, 2.909112e-002
3.943714e+003, 2.635826e-002
3.945643e+003, 2.488980e-002
3.947571e+003, 2.678179e-002
3.949500e+003, 2.813186e-002
3.951428e+003, 2.953929e-002
3.953357e+003, 2.817030e-002
3.955285e+003, 2.828542e-002
3.957214e+003, 2.955917e-002
3.959142e+003, 2.817924e-002
3.961071e+003, 2.561156e-002
3.962999e+003, 2.475497e-002
3.964927e+003, 2.693456e-002
3.966856e+003, 2.794132e-002
3.968784e+003, 2.927622e-002
3.970713e+003, 2.897022e-002
3.972641e+003, 2.944621e-002
3.974570e+003, 2.955477e-002
3.976498e+003, 2.736488e-002
3.978427e+003, 2.769909e-002
3.980355e+003, 2.810036e-002
3.982284e+003, 2.709137e-002
3.984212e+003, 2.665521e-002
3.986141e+003, 2.739889e-002
3.988069e+003, 2.803858e-002
3.989998e+003, 2.779917e-002
3.991926e+003, 2.749919e-002
3.993854e+003, 2.781136e-002
3.995783e+003, 2.927219e-002
3.997711e+003, 3.010326e-002
3.999640e+003, 3.011626e-002
##END=



