##NAMES=Colemanite
##RRUFFID=R050102
##IDEAL CHEMISTRY=CaB_3_O_4_(OH)_3_&#183;H_2_O
##LOCALITY=Kramer deposit, Boron, Kern County, California, USA
##OWNER=RRUFF
##SOURCE=Rock Currier
##DESCRIPTION=Colorless prismatic to tabular crystals
##STATUS=The identification of this mineral has been confirmed by X-ray diffraction and chemical analysis
##URL=rruff.info/R050102
##MEASURED CHEMISTRY=Ca_1.00_B_3.00_O_4_(OH)_3_Â·H_2_O ; trace amounts of Na; B assumed by stoichiometry and charge balance.
3.991926e+002, 0.000000e+000
4.011211e+002, 8.673269e-002
4.030496e+002, 8.717094e-002
4.049780e+002, 8.894839e-002
4.069065e+002, 9.234615e-002
4.088350e+002, 9.286968e-002
4.107634e+002, 9.304501e-002
4.126919e+002, 9.569176e-002
4.146204e+002, 9.777492e-002
4.165488e+002, 9.921873e-002
4.184773e+002, 9.915818e-002
4.204058e+002, 9.790929e-002
4.223342e+002, 9.668903e-002
4.242627e+002, 9.681737e-002
4.261912e+002, 9.651730e-002
4.281196e+002, 9.450585e-002
4.300481e+002, 9.334744e-002
4.319766e+002, 9.337536e-002
4.339050e+002, 9.243622e-002
4.358335e+002, 9.076474e-002
4.377620e+002, 8.874873e-002
4.396904e+002, 8.758522e-002
4.416189e+002, 8.671911e-002
4.435474e+002, 8.661062e-002
4.454758e+002, 8.518630e-002
4.474043e+002, 8.288809e-002
4.493328e+002, 8.203049e-002
4.512612e+002, 8.174829e-002
4.531897e+002, 8.147953e-002
4.551182e+002, 8.147966e-002
4.570466e+002, 8.204953e-002
4.589751e+002, 8.165255e-002
4.609036e+002, 8.089686e-002
4.628320e+002, 7.952205e-002
4.647605e+002, 7.841754e-002
4.666890e+002, 7.784005e-002
4.686174e+002, 7.704853e-002
4.705459e+002, 7.597849e-002
4.724744e+002, 7.549424e-002
4.744028e+002, 7.512437e-002
4.763313e+002, 7.506672e-002
4.782598e+002, 7.510507e-002
4.801882e+002, 7.547214e-002
4.821167e+002, 7.673427e-002
4.840452e+002, 7.812998e-002
4.859736e+002, 7.939184e-002
4.879021e+002, 8.123530e-002
4.898306e+002, 8.387034e-002
4.917590e+002, 8.526175e-002
4.936875e+002, 8.547407e-002
4.956160e+002, 8.471852e-002
4.975444e+002, 8.261798e-002
4.994729e+002, 8.019714e-002
5.014014e+002, 7.921624e-002
5.033298e+002, 8.000113e-002
5.052583e+002, 8.157562e-002
5.071868e+002, 8.425836e-002
5.091152e+002, 8.853266e-002
5.110437e+002, 9.290189e-002
5.129722e+002, 9.694257e-002
5.149006e+002, 9.731968e-002
5.168291e+002, 9.308667e-002
5.187576e+002, 8.630449e-002
5.206860e+002, 7.915770e-002
5.226145e+002, 7.395072e-002
5.245430e+002, 7.130653e-002
5.264714e+002, 7.081655e-002
5.283999e+002, 7.172964e-002
5.303284e+002, 7.347903e-002
5.322568e+002, 7.509616e-002
5.341853e+002, 7.666419e-002
5.361138e+002, 7.887913e-002
5.380422e+002, 8.100367e-002
5.399707e+002, 8.270876e-002
5.418992e+002, 8.386840e-002
5.438276e+002, 8.391232e-002
5.457561e+002, 8.509193e-002
5.476846e+002, 8.840671e-002
5.496130e+002, 8.974104e-002
5.515415e+002, 8.594958e-002
5.534700e+002, 8.032826e-002
5.553984e+002, 7.758082e-002
5.573269e+002, 7.720456e-002
5.592554e+002, 7.800050e-002
5.611838e+002, 7.946223e-002
5.631123e+002, 8.180223e-002
5.650408e+002, 8.504824e-002
5.669692e+002, 8.874097e-002
5.688977e+002, 9.359951e-002
5.708262e+002, 9.936867e-002
5.727546e+002, 1.058001e-001
5.746831e+002, 1.135433e-001
5.766116e+002, 1.216529e-001
5.785400e+002, 1.277954e-001
5.804685e+002, 1.293025e-001
5.823970e+002, 1.228527e-001
5.843254e+002, 1.101519e-001
5.862539e+002, 9.638842e-002
5.881824e+002, 8.558369e-002
5.901108e+002, 7.866346e-002
5.920393e+002, 7.467815e-002
5.939678e+002, 7.296598e-002
5.958962e+002, 7.296161e-002
5.978247e+002, 7.399475e-002
5.997532e+002, 7.645632e-002
6.016816e+002, 8.032428e-002
6.036101e+002, 8.398772e-002
6.055386e+002, 8.542432e-002
6.074670e+002, 8.505749e-002
6.093955e+002, 8.451817e-002
6.113240e+002, 8.478959e-002
6.132524e+002, 8.543723e-002
6.151809e+002, 8.720270e-002
6.171094e+002, 9.003437e-002
6.190378e+002, 9.237541e-002
6.209663e+002, 9.442685e-002
6.228948e+002, 9.623921e-002
6.248232e+002, 9.732653e-002
6.267517e+002, 9.759545e-002
6.286802e+002, 9.729598e-002
6.306086e+002, 9.687073e-002
6.325371e+002, 9.603786e-002
6.344656e+002, 9.538003e-002
6.363940e+002, 9.490876e-002
6.383225e+002, 9.425507e-002
6.402510e+002, 9.351090e-002
6.421794e+002, 9.279084e-002
6.441079e+002, 9.225862e-002
6.460364e+002, 9.206915e-002
6.479648e+002, 9.188490e-002
6.498933e+002, 9.187497e-002
6.518218e+002, 9.225727e-002
6.537502e+002, 9.298344e-002
6.556787e+002, 9.411278e-002
6.576072e+002, 9.551488e-002
6.595356e+002, 9.705542e-002
6.614641e+002, 9.917190e-002
6.633926e+002, 1.015731e-001
6.653210e+002, 1.042411e-001
6.672495e+002, 1.073652e-001
6.691780e+002, 1.106142e-001
6.711064e+002, 1.136114e-001
6.730349e+002, 1.152296e-001
6.749634e+002, 1.129277e-001
6.768918e+002, 1.075521e-001
6.788203e+002, 1.037492e-001
6.807488e+002, 1.038623e-001
6.826772e+002, 1.071686e-001
6.846057e+002, 1.125588e-001
6.865342e+002, 1.179629e-001
6.884626e+002, 1.222190e-001
6.903911e+002, 1.249205e-001
6.923196e+002, 1.256367e-001
6.942480e+002, 1.250581e-001
6.961765e+002, 1.243322e-001
6.981050e+002, 1.237886e-001
7.000334e+002, 1.237048e-001
7.019619e+002, 1.244597e-001
7.038904e+002, 1.260409e-001
7.058188e+002, 1.283241e-001
7.077473e+002, 1.308965e-001
7.096758e+002, 1.338379e-001
7.116042e+002, 1.368579e-001
7.135327e+002, 1.401801e-001
7.154612e+002, 1.435463e-001
7.173896e+002, 1.472894e-001
7.193181e+002, 1.519259e-001
7.212466e+002, 1.570630e-001
7.231750e+002, 1.623123e-001
7.251035e+002, 1.675636e-001
7.270320e+002, 1.725901e-001
7.289604e+002, 1.753544e-001
7.308889e+002, 1.737169e-001
7.328174e+002, 1.671448e-001
7.347458e+002, 1.568386e-001
7.366743e+002, 1.451014e-001
7.386028e+002, 1.354092e-001
7.405313e+002, 1.300225e-001
7.424597e+002, 1.294653e-001
7.443882e+002, 1.319163e-001
7.463167e+002, 1.362281e-001
7.482451e+002, 1.419654e-001
7.501736e+002, 1.486802e-001
7.521021e+002, 1.560159e-001
7.540305e+002, 1.624859e-001
7.559590e+002, 1.671115e-001
7.578875e+002, 1.688929e-001
7.598159e+002, 1.663820e-001
7.617444e+002, 1.586473e-001
7.636729e+002, 1.463967e-001
7.656013e+002, 1.314637e-001
7.675298e+002, 1.168450e-001
7.694583e+002, 1.055074e-001
7.713867e+002, 9.881847e-002
7.733152e+002, 9.715256e-002
7.752437e+002, 9.883188e-002
7.771721e+002, 1.026660e-001
7.791006e+002, 1.084309e-001
7.810291e+002, 1.158832e-001
7.829575e+002, 1.237227e-001
7.848860e+002, 1.313219e-001
7.868145e+002, 1.374400e-001
7.887429e+002, 1.417076e-001
7.906714e+002, 1.444952e-001
7.925999e+002, 1.463388e-001
7.945283e+002, 1.480332e-001
7.964568e+002, 1.502267e-001
7.983853e+002, 1.536233e-001
8.003137e+002, 1.588503e-001
8.022422e+002, 1.649042e-001
8.041707e+002, 1.714400e-001
8.060991e+002, 1.774207e-001
8.080276e+002, 1.824684e-001
8.099561e+002, 1.861638e-001
8.118845e+002, 1.874595e-001
8.138130e+002, 1.860207e-001
8.157415e+002, 1.829948e-001
8.176699e+002, 1.792218e-001
8.195984e+002, 1.757275e-001
8.215269e+002, 1.737869e-001
8.234553e+002, 1.736038e-001
8.253838e+002, 1.746833e-001
8.273123e+002, 1.767270e-001
8.292407e+002, 1.797619e-001
8.311692e+002, 1.840708e-001
8.330977e+002, 1.889726e-001
8.350261e+002, 1.941397e-001
8.369546e+002, 1.991726e-001
8.388831e+002, 2.037867e-001
8.408115e+002, 2.081642e-001
8.427400e+002, 2.127819e-001
8.446685e+002, 2.169801e-001
8.465969e+002, 2.206815e-001
8.485254e+002, 2.242378e-001
8.504539e+002, 2.272420e-001
8.523823e+002, 2.297212e-001
8.543108e+002, 2.318316e-001
8.562393e+002, 2.330936e-001
8.581677e+002, 2.340694e-001
8.600962e+002, 2.351234e-001
8.620247e+002, 2.359006e-001
8.639531e+002, 2.364990e-001
8.658816e+002, 2.372251e-001
8.678101e+002, 2.384150e-001
8.697385e+002, 2.397146e-001
8.716670e+002, 2.411094e-001
8.735955e+002, 2.430232e-001
8.755239e+002, 2.452618e-001
8.774524e+002, 2.475344e-001
8.793809e+002, 2.493412e-001
8.813093e+002, 2.506164e-001
8.832378e+002, 2.515326e-001
8.851663e+002, 2.519846e-001
8.870947e+002, 2.513886e-001
8.890232e+002, 2.500443e-001
8.909517e+002, 2.482703e-001
8.928801e+002, 2.462831e-001
8.948085e+002, 2.440489e-001
8.967370e+002, 2.421127e-001
8.986655e+002, 2.404723e-001
9.005939e+002, 2.393914e-001
9.025224e+002, 2.392266e-001
9.044509e+002, 2.392649e-001
9.063793e+002, 2.392972e-001
9.083078e+002, 2.394986e-001
9.102363e+002, 2.399605e-001
9.121647e+002, 2.404380e-001
9.140932e+002, 2.404744e-001
9.160217e+002, 2.404101e-001
9.179501e+002, 2.399858e-001
9.198786e+002, 2.394895e-001
9.218071e+002, 2.391595e-001
9.237355e+002, 2.384557e-001
9.256640e+002, 2.370445e-001
9.275925e+002, 2.348898e-001
9.295209e+002, 2.322260e-001
9.314494e+002, 2.291047e-001
9.333779e+002, 2.254521e-001
9.353063e+002, 2.212915e-001
9.372348e+002, 2.172974e-001
9.391633e+002, 2.132717e-001
9.410917e+002, 2.091792e-001
9.430202e+002, 2.051173e-001
9.449487e+002, 2.006477e-001
9.468771e+002, 1.960927e-001
9.488056e+002, 1.915992e-001
9.507341e+002, 1.868247e-001
9.526625e+002, 1.816442e-001
9.545910e+002, 1.758984e-001
9.565195e+002, 1.695902e-001
9.584479e+002, 1.631056e-001
9.603764e+002, 1.560877e-001
9.623049e+002, 1.485472e-001
9.642333e+002, 1.409980e-001
9.661618e+002, 1.334377e-001
9.680903e+002, 1.259125e-001
9.700187e+002, 1.190444e-001
9.719472e+002, 1.125669e-001
9.738757e+002, 1.066239e-001
9.758041e+002, 1.014256e-001
9.777326e+002, 9.719271e-002
9.796611e+002, 9.368399e-002
9.815895e+002, 9.075654e-002
9.835180e+002, 8.848754e-002
9.854465e+002, 8.707747e-002
9.873749e+002, 8.621891e-002
9.893034e+002, 8.590621e-002
9.912319e+002, 8.617038e-002
9.931603e+002, 8.705480e-002
9.950888e+002, 8.817860e-002
9.970173e+002, 8.995552e-002
9.989457e+002, 9.200796e-002
1.000874e+003, 9.381220e-002
1.002803e+003, 9.593095e-002
1.004731e+003, 9.870289e-002
1.006660e+003, 1.014575e-001
1.008588e+003, 1.040844e-001
1.010517e+003, 1.068519e-001
1.012445e+003, 1.094062e-001
1.014373e+003, 1.115842e-001
1.016302e+003, 1.132062e-001
1.018230e+003, 1.146015e-001
1.020159e+003, 1.157785e-001
1.022087e+003, 1.166608e-001
1.024016e+003, 1.175054e-001
1.025944e+003, 1.181696e-001
1.027873e+003, 1.187708e-001
1.029801e+003, 1.194944e-001
1.031730e+003, 1.202547e-001
1.033658e+003, 1.212035e-001
1.035587e+003, 1.224936e-001
1.037515e+003, 1.237092e-001
1.039444e+003, 1.244264e-001
1.041372e+003, 1.246136e-001
1.043301e+003, 1.240760e-001
1.045229e+003, 1.222078e-001
1.047157e+003, 1.188972e-001
1.049086e+003, 1.146315e-001
1.051014e+003, 1.098669e-001
1.052943e+003, 1.046907e-001
1.054871e+003, 9.993503e-002
1.056800e+003, 9.602549e-002
1.058728e+003, 9.303586e-002
1.060657e+003, 9.081484e-002
1.062585e+003, 8.932315e-002
1.064514e+003, 8.826208e-002
1.066442e+003, 8.763915e-002
1.068371e+003, 8.715436e-002
1.070299e+003, 8.639196e-002
1.072228e+003, 8.507246e-002
1.074156e+003, 8.347251e-002
1.076084e+003, 8.154672e-002
1.078013e+003, 7.929965e-002
1.079941e+003, 7.672280e-002
1.081870e+003, 7.388701e-002
1.083798e+003, 7.121484e-002
1.085727e+003, 6.902048e-002
1.087655e+003, 6.715637e-002
1.089584e+003, 6.576990e-002
1.091512e+003, 6.497026e-002
1.093441e+003, 6.475681e-002
1.095369e+003, 6.512545e-002
1.097298e+003, 6.611882e-002
1.099226e+003, 6.757548e-002
1.101155e+003, 6.907661e-002
1.103083e+003, 7.033654e-002
1.105011e+003, 7.152808e-002
1.106940e+003, 7.292328e-002
1.108868e+003, 7.443231e-002
1.110797e+003, 7.596531e-002
1.112725e+003, 7.716260e-002
1.114654e+003, 7.810967e-002
1.116582e+003, 7.891110e-002
1.118511e+003, 7.933983e-002
1.120439e+003, 7.923307e-002
1.122368e+003, 7.858571e-002
1.124296e+003, 7.794987e-002
1.126225e+003, 7.745544e-002
1.128153e+003, 7.730650e-002
1.130082e+003, 7.702781e-002
1.132010e+003, 7.658868e-002
1.133938e+003, 7.640554e-002
1.135867e+003, 7.616249e-002
1.137795e+003, 7.559192e-002
1.139724e+003, 7.502913e-002
1.141652e+003, 7.440938e-002
1.143581e+003, 7.362431e-002
1.145509e+003, 7.315376e-002
1.147438e+003, 7.311635e-002
1.149366e+003, 7.317048e-002
1.151295e+003, 7.314672e-002
1.153223e+003, 7.323767e-002
1.155152e+003, 7.317466e-002
1.157080e+003, 7.270993e-002
1.159009e+003, 7.190213e-002
1.160937e+003, 7.058349e-002
1.162865e+003, 6.878199e-002
1.164794e+003, 6.656219e-002
1.166722e+003, 6.383878e-002
1.168651e+003, 6.090638e-002
1.170579e+003, 5.777602e-002
1.172508e+003, 5.437998e-002
1.174436e+003, 5.131455e-002
1.176365e+003, 4.887357e-002
1.178293e+003, 4.657467e-002
1.180222e+003, 4.413293e-002
1.182150e+003, 4.226683e-002
1.184079e+003, 4.095135e-002
1.186007e+003, 3.979447e-002
1.187936e+003, 3.918882e-002
1.189864e+003, 3.898345e-002
1.191792e+003, 3.883993e-002
1.193721e+003, 3.927403e-002
1.195649e+003, 4.009905e-002
1.197578e+003, 4.100213e-002
1.199506e+003, 4.220191e-002
1.201435e+003, 4.392699e-002
1.203363e+003, 4.611209e-002
1.205292e+003, 4.848957e-002
1.207220e+003, 5.120003e-002
1.209149e+003, 5.460423e-002
1.211077e+003, 5.846111e-002
1.213006e+003, 6.271823e-002
1.214934e+003, 6.744459e-002
1.216863e+003, 7.259493e-002
1.218791e+003, 7.812776e-002
1.220719e+003, 8.392666e-002
1.222648e+003, 8.939938e-002
1.224576e+003, 9.398573e-002
1.226505e+003, 9.744851e-002
1.228433e+003, 9.931143e-002
1.230362e+003, 9.902377e-002
1.232290e+003, 9.662653e-002
1.234219e+003, 9.321966e-002
1.236147e+003, 8.931974e-002
1.238076e+003, 8.533555e-002
1.240004e+003, 8.179968e-002
1.241933e+003, 7.930937e-002
1.243861e+003, 7.807565e-002
1.245790e+003, 7.799127e-002
1.247718e+003, 7.910122e-002
1.249646e+003, 8.130755e-002
1.251575e+003, 8.450773e-002
1.253503e+003, 8.839034e-002
1.255432e+003, 9.282731e-002
1.257360e+003, 9.756163e-002
1.259289e+003, 1.020413e-001
1.261217e+003, 1.061059e-001
1.263146e+003, 1.099243e-001
1.265074e+003, 1.131082e-001
1.267003e+003, 1.153677e-001
1.268931e+003, 1.168095e-001
1.270860e+003, 1.176880e-001
1.272788e+003, 1.183390e-001
1.274717e+003, 1.186072e-001
1.276645e+003, 1.186699e-001
1.278573e+003, 1.189054e-001
1.280502e+003, 1.191791e-001
1.282430e+003, 1.193195e-001
1.284359e+003, 1.194448e-001
1.286287e+003, 1.193563e-001
1.288216e+003, 1.192378e-001
1.290144e+003, 1.193040e-001
1.292073e+003, 1.195114e-001
1.294001e+003, 1.203083e-001
1.295930e+003, 1.221799e-001
1.297858e+003, 1.256047e-001
1.299787e+003, 1.309647e-001
1.301715e+003, 1.384698e-001
1.303644e+003, 1.476282e-001
1.305572e+003, 1.582379e-001
1.307500e+003, 1.696797e-001
1.309429e+003, 1.802191e-001
1.311357e+003, 1.881676e-001
1.313286e+003, 1.931568e-001
1.315214e+003, 1.950841e-001
1.317143e+003, 1.947806e-001
1.319071e+003, 1.933702e-001
1.321000e+003, 1.910753e-001
1.322928e+003, 1.885171e-001
1.324857e+003, 1.862130e-001
1.326785e+003, 1.837398e-001
1.328714e+003, 1.812253e-001
1.330642e+003, 1.786719e-001
1.332571e+003, 1.756620e-001
1.334499e+003, 1.720667e-001
1.336427e+003, 1.683501e-001
1.338356e+003, 1.644557e-001
1.340284e+003, 1.603001e-001
1.342213e+003, 1.564697e-001
1.344141e+003, 1.534512e-001
1.346070e+003, 1.522672e-001
1.347998e+003, 1.537344e-001
1.349927e+003, 1.578583e-001
1.351855e+003, 1.642520e-001
1.353784e+003, 1.712598e-001
1.355712e+003, 1.764960e-001
1.357641e+003, 1.789487e-001
1.359569e+003, 1.788652e-001
1.361498e+003, 1.760968e-001
1.363426e+003, 1.712740e-001
1.365354e+003, 1.650723e-001
1.367283e+003, 1.577425e-001
1.369211e+003, 1.498517e-001
1.371140e+003, 1.419929e-001
1.373068e+003, 1.341290e-001
1.374997e+003, 1.264637e-001
1.376925e+003, 1.192022e-001
1.378854e+003, 1.123037e-001
1.380782e+003, 1.056861e-001
1.382711e+003, 9.967914e-002
1.384639e+003, 9.405497e-002
1.386568e+003, 8.873776e-002
1.388496e+003, 8.368382e-002
1.390424e+003, 7.894089e-002
1.392353e+003, 7.402875e-002
1.394281e+003, 6.944650e-002
1.396210e+003, 6.527416e-002
1.398138e+003, 6.135394e-002
1.400067e+003, 5.747503e-002
1.401995e+003, 5.371916e-002
1.403924e+003, 5.033134e-002
1.405852e+003, 4.732707e-002
1.407781e+003, 4.451149e-002
1.409709e+003, 4.207783e-002
1.411638e+003, 4.001290e-002
1.413566e+003, 3.824763e-002
1.415495e+003, 3.678517e-002
1.417423e+003, 3.585621e-002
1.419351e+003, 3.531824e-002
1.421280e+003, 3.527281e-002
1.423208e+003, 3.551725e-002
1.425137e+003, 3.584183e-002
1.427065e+003, 3.613123e-002
1.428994e+003, 3.616745e-002
1.430922e+003, 3.589510e-002
1.432851e+003, 3.527820e-002
1.434779e+003, 3.407781e-002
1.436708e+003, 3.238869e-002
1.438636e+003, 3.080234e-002
1.440565e+003, 2.950458e-002
1.442493e+003, 2.823953e-002
1.444422e+003, 2.716541e-002
1.446350e+003, 2.675558e-002
1.448278e+003, 2.687994e-002
1.450207e+003, 2.711137e-002
1.452135e+003, 2.762321e-002
1.454064e+003, 2.814234e-002
1.455992e+003, 2.857517e-002
1.457921e+003, 2.877027e-002
1.459849e+003, 2.863115e-002
1.461778e+003, 2.800869e-002
1.463706e+003, 2.718667e-002
1.465635e+003, 2.604676e-002
1.467563e+003, 2.450478e-002
1.469492e+003, 2.260648e-002
1.471420e+003, 2.077717e-002
1.473349e+003, 1.904104e-002
1.475277e+003, 1.745614e-002
1.477205e+003, 1.600842e-002
1.479134e+003, 1.496166e-002
1.481062e+003, 1.404624e-002
1.482991e+003, 1.324843e-002
1.484919e+003, 1.255836e-002
1.486848e+003, 1.193518e-002
1.488776e+003, 1.135166e-002
1.490705e+003, 1.105873e-002
1.492633e+003, 1.093861e-002
1.494562e+003, 1.060491e-002
1.496490e+003, 1.021453e-002
1.498419e+003, 9.907898e-003
1.500347e+003, 9.660535e-003
1.502276e+003, 9.502959e-003
1.504204e+003, 9.471750e-003
1.506132e+003, 9.639555e-003
1.508061e+003, 9.471045e-003
1.509989e+003, 9.039335e-003
1.511918e+003, 8.785057e-003
1.513846e+003, 8.880897e-003
1.515775e+003, 9.041169e-003
1.517703e+003, 8.931454e-003
1.519632e+003, 8.897319e-003
1.521560e+003, 8.805346e-003
1.523489e+003, 8.715681e-003
1.525417e+003, 8.714561e-003
1.527346e+003, 8.834615e-003
1.529274e+003, 9.005990e-003
1.531203e+003, 8.986807e-003
1.533131e+003, 9.012034e-003
1.535059e+003, 9.027092e-003
1.536988e+003, 9.186695e-003
1.538916e+003, 9.316494e-003
1.540845e+003, 9.236261e-003
1.542773e+003, 9.456243e-003
1.544702e+003, 9.762077e-003
1.546630e+003, 9.742119e-003
1.548559e+003, 9.757054e-003
1.550487e+003, 9.807073e-003
1.552416e+003, 1.000965e-002
1.554344e+003, 1.014793e-002
1.556273e+003, 1.043492e-002
1.558201e+003, 1.059271e-002
1.560130e+003, 1.057564e-002
1.562058e+003, 1.065903e-002
1.563986e+003, 1.077129e-002
1.565915e+003, 1.081308e-002
1.567843e+003, 1.100020e-002
1.569772e+003, 1.102992e-002
1.571700e+003, 1.102232e-002
1.573629e+003, 1.115339e-002
1.575557e+003, 1.142805e-002
1.577486e+003, 1.180010e-002
1.579414e+003, 1.195612e-002
1.581343e+003, 1.196054e-002
1.583271e+003, 1.203780e-002
1.585200e+003, 1.225571e-002
1.587128e+003, 1.259254e-002
1.589057e+003, 1.286205e-002
1.590985e+003, 1.316642e-002
1.592913e+003, 1.323167e-002
1.594842e+003, 1.321355e-002
1.596770e+003, 1.339465e-002
1.598699e+003, 1.370081e-002
1.600627e+003, 1.381309e-002
1.602556e+003, 1.365996e-002
1.604484e+003, 1.349550e-002
1.606413e+003, 1.341424e-002
1.608341e+003, 1.343996e-002
1.610270e+003, 1.345003e-002
1.612198e+003, 1.332630e-002
1.614127e+003, 1.319447e-002
1.616055e+003, 1.318490e-002
1.617984e+003, 1.312950e-002
1.619912e+003, 1.306899e-002
1.621840e+003, 1.287963e-002
1.623769e+003, 1.296576e-002
1.625697e+003, 1.306906e-002
1.627626e+003, 1.292736e-002
1.629554e+003, 1.262334e-002
1.631483e+003, 1.240870e-002
1.633411e+003, 1.243843e-002
1.635340e+003, 1.251976e-002
1.637268e+003, 1.247158e-002
1.639197e+003, 1.242172e-002
1.641125e+003, 1.241833e-002
1.643054e+003, 1.236573e-002
1.644982e+003, 1.246987e-002
1.646911e+003, 1.250463e-002
1.648839e+003, 1.254466e-002
1.650767e+003, 1.263660e-002
1.652696e+003, 1.264815e-002
1.654624e+003, 1.247296e-002
1.656553e+003, 1.239750e-002
1.658481e+003, 1.239392e-002
1.660410e+003, 1.247325e-002
1.662338e+003, 1.257763e-002
1.664267e+003, 1.260600e-002
1.666195e+003, 1.269484e-002
1.668124e+003, 1.265379e-002
1.670052e+003, 1.245739e-002
1.671981e+003, 1.246361e-002
1.673909e+003, 1.261236e-002
1.675838e+003, 1.247097e-002
1.677766e+003, 1.237138e-002
1.679694e+003, 1.242288e-002
1.681623e+003, 1.256844e-002
1.683551e+003, 1.279435e-002
1.685480e+003, 1.274029e-002
1.687408e+003, 1.267275e-002
1.689337e+003, 1.239733e-002
1.691265e+003, 1.220597e-002
1.693194e+003, 1.218338e-002
1.695122e+003, 1.224701e-002
1.697051e+003, 1.194944e-002
1.698979e+003, 1.164350e-002
1.700908e+003, 1.134875e-002
1.702836e+003, 1.130164e-002
1.704765e+003, 1.138926e-002
1.706693e+003, 1.150519e-002
1.708621e+003, 1.099484e-002
1.710550e+003, 1.018805e-002
1.712478e+003, 9.826377e-003
1.714407e+003, 9.896833e-003
1.716335e+003, 9.759658e-003
1.718264e+003, 9.433199e-003
1.720192e+003, 9.182693e-003
1.722121e+003, 8.835214e-003
1.724049e+003, 8.562453e-003
1.725978e+003, 8.688145e-003
1.727906e+003, 8.358354e-003
1.729835e+003, 7.914587e-003
1.731763e+003, 7.648019e-003
1.733692e+003, 7.207437e-003
1.735620e+003, 6.827179e-003
1.737548e+003, 6.867303e-003
1.739477e+003, 6.575864e-003
1.741405e+003, 6.337284e-003
1.743334e+003, 6.110394e-003
1.745262e+003, 5.810920e-003
1.747191e+003, 5.803646e-003
1.749119e+003, 5.966055e-003
1.751048e+003, 6.002489e-003
1.752976e+003, 5.566867e-003
1.754905e+003, 5.129469e-003
1.756833e+003, 5.248809e-003
1.758762e+003, 5.511256e-003
1.760690e+003, 5.520415e-003
1.762619e+003, 5.350999e-003
1.764547e+003, 5.432494e-003
1.766475e+003, 5.299220e-003
1.768404e+003, 5.016496e-003
1.770332e+003, 5.107653e-003
1.772261e+003, 5.332842e-003
1.774189e+003, 5.212852e-003
1.776118e+003, 5.190696e-003
1.778046e+003, 5.213833e-003
1.779975e+003, 5.278179e-003
1.781903e+003, 5.136187e-003
1.783832e+003, 5.102661e-003
1.785760e+003, 4.998000e-003
1.787689e+003, 4.838287e-003
1.789617e+003, 4.738372e-003
1.791546e+003, 4.928052e-003
1.793474e+003, 5.188737e-003
1.795402e+003, 5.026069e-003
1.797331e+003, 4.967806e-003
1.799259e+003, 5.075227e-003
1.801188e+003, 5.000443e-003
1.803116e+003, 4.888762e-003
1.805045e+003, 4.780870e-003
1.806973e+003, 4.545545e-003
1.808902e+003, 4.127701e-003
1.810830e+003, 4.266433e-003
1.812759e+003, 4.478583e-003
1.814687e+003, 4.431790e-003
1.816616e+003, 4.466975e-003
1.818544e+003, 4.768511e-003
1.820473e+003, 5.374558e-003
1.822401e+003, 5.505566e-003
1.824329e+003, 5.275583e-003
1.826258e+003, 5.149035e-003
1.828186e+003, 4.752387e-003
1.830115e+003, 4.508418e-003
1.832043e+003, 4.588931e-003
1.833972e+003, 4.602386e-003
1.835900e+003, 4.643208e-003
1.837829e+003, 4.540409e-003
1.839757e+003, 4.303562e-003
1.841686e+003, 4.456051e-003
1.843614e+003, 4.687579e-003
1.845543e+003, 4.870528e-003
1.847471e+003, 4.534921e-003
1.849400e+003, 4.165790e-003
1.851328e+003, 4.118852e-003
1.853256e+003, 4.115780e-003
1.855185e+003, 4.143798e-003
1.857113e+003, 4.116668e-003
1.859042e+003, 4.205932e-003
1.860970e+003, 4.105044e-003
1.862899e+003, 3.934908e-003
1.864827e+003, 3.953482e-003
1.866756e+003, 4.396083e-003
1.868684e+003, 4.669340e-003
1.870613e+003, 4.391436e-003
1.872541e+003, 3.971137e-003
1.874470e+003, 4.239547e-003
1.876398e+003, 4.679333e-003
1.878327e+003, 4.863330e-003
1.880255e+003, 4.720585e-003
1.882183e+003, 4.014166e-003
1.884112e+003, 3.544630e-003
1.886040e+003, 3.634172e-003
1.887969e+003, 3.796174e-003
1.889897e+003, 4.053594e-003
1.891826e+003, 4.061024e-003
1.893754e+003, 3.941981e-003
1.895683e+003, 4.019569e-003
1.897611e+003, 3.983292e-003
1.899540e+003, 3.820801e-003
1.901468e+003, 3.800002e-003
1.903397e+003, 3.767579e-003
1.905325e+003, 3.977692e-003
1.907254e+003, 4.022010e-003
1.909182e+003, 3.491623e-003
1.911110e+003, 3.289426e-003
1.913039e+003, 3.813014e-003
1.914967e+003, 4.073393e-003
1.916896e+003, 3.445844e-003
1.918824e+003, 3.698627e-003
1.920753e+003, 4.417069e-003
1.922681e+003, 4.195459e-003
1.924610e+003, 3.485481e-003
1.926538e+003, 3.157833e-003
1.928467e+003, 3.207464e-003
1.930395e+003, 2.825234e-003
1.932324e+003, 2.921258e-003
1.934252e+003, 3.610110e-003
1.936181e+003, 4.498403e-003
1.938109e+003, 3.945840e-003
1.940037e+003, 2.743744e-003
1.941966e+003, 3.069090e-003
1.943894e+003, 4.088846e-003
1.945823e+003, 3.964665e-003
1.947751e+003, 3.982804e-003
1.949680e+003, 3.419840e-003
1.951608e+003, 3.068591e-003
1.953537e+003, 3.504896e-003
1.955465e+003, 2.969338e-003
1.957394e+003, 3.985496e-003
1.959322e+003, 5.681658e-003
1.961251e+003, 5.654218e-003
1.963179e+003, 4.270846e-003
1.965108e+003, 4.758837e-003
1.967036e+003, 4.578294e-003
1.968964e+003, 3.702611e-003
1.970893e+003, 3.304792e-003
1.972821e+003, 3.465495e-003
1.974750e+003, 4.829721e-003
1.976678e+003, 6.419559e-003
1.978607e+003, 8.078990e-003
1.980535e+003, 8.370450e-003
1.982464e+003, 6.727152e-003
1.984392e+003, 5.726752e-003
1.986321e+003, 4.998415e-003
1.988249e+003, 5.445790e-003
1.990178e+003, 5.342442e-003
1.992106e+003, 4.250936e-003
1.994035e+003, 4.540734e-003
1.995963e+003, 5.443818e-003
1.997891e+003, 5.907834e-003
1.999820e+003, 4.340530e-003
2.001748e+003, 2.097939e-003
2.003677e+003, 2.757782e-003
2.005605e+003, 4.688022e-003
2.007534e+003, 5.307068e-003
2.009462e+003, 4.813384e-003
2.011391e+003, 4.967282e-003
2.013319e+003, 4.032393e-003
2.015248e+003, 3.764089e-003
2.017176e+003, 3.499525e-003
2.019105e+003, 2.949838e-003
2.021033e+003, 3.415137e-003
2.022962e+003, 5.031245e-003
2.024890e+003, 6.008519e-003
2.026818e+003, 5.611779e-003
2.028747e+003, 3.980079e-003
2.030675e+003, 2.568654e-003
2.032604e+003, 2.299773e-003
2.034532e+003, 3.990336e-003
2.036461e+003, 6.141460e-003
2.038389e+003, 5.286826e-003
2.040318e+003, 4.793480e-003
2.042246e+003, 4.673744e-003
2.044175e+003, 3.199941e-003
2.046103e+003, 4.670879e-003
2.048032e+003, 5.404586e-003
2.049960e+003, 4.766630e-003
2.051889e+003, 4.474399e-003
2.053817e+003, 4.482266e-003
2.055746e+003, 4.133446e-003
2.057674e+003, 3.336948e-003
2.059603e+003, 3.358180e-003
2.061531e+003, 4.178718e-003
2.063459e+003, 4.350868e-003
2.065388e+003, 4.201284e-003
2.067316e+003, 3.705922e-003
2.069245e+003, 3.621315e-003
2.071173e+003, 3.883732e-003
2.073102e+003, 3.375878e-003
2.075030e+003, 3.625562e-003
2.076959e+003, 4.592774e-003
2.078887e+003, 5.134519e-003
2.080816e+003, 5.395385e-003
2.082744e+003, 5.850703e-003
2.084673e+003, 6.191137e-003
2.086601e+003, 5.043426e-003
2.088530e+003, 4.038996e-003
2.090458e+003, 4.416833e-003
2.092386e+003, 4.886263e-003
2.094315e+003, 5.264445e-003
2.096243e+003, 6.712351e-003
2.098172e+003, 6.797316e-003
2.100100e+003, 4.906224e-003
2.102029e+003, 4.674702e-003
2.103957e+003, 5.590080e-003
2.105886e+003, 6.595325e-003
2.107814e+003, 6.799126e-003
2.109743e+003, 6.012765e-003
2.111671e+003, 6.469396e-003
2.113600e+003, 7.227368e-003
2.115528e+003, 7.237139e-003
2.117457e+003, 6.226919e-003
2.119385e+003, 5.974070e-003
2.121313e+003, 6.416672e-003
2.123242e+003, 6.970994e-003
2.125170e+003, 6.434430e-003
2.127099e+003, 5.082988e-003
2.129027e+003, 3.896975e-003
2.130956e+003, 3.664346e-003
2.132884e+003, 4.686943e-003
2.134813e+003, 6.215192e-003
2.136741e+003, 6.541668e-003
2.138670e+003, 4.364464e-003
2.140598e+003, 3.778116e-003
2.142527e+003, 4.681860e-003
2.144455e+003, 4.367195e-003
2.146384e+003, 4.470015e-003
2.148312e+003, 3.808514e-003
2.150240e+003, 3.506370e-003
2.152169e+003, 4.373793e-003
2.154097e+003, 3.581648e-003
2.156026e+003, 8.851296e-004
2.157954e+003, 2.926870e-003
2.159883e+003, 5.905287e-003
2.161811e+003, 5.488538e-003
2.163740e+003, 6.320148e-003
2.165668e+003, 6.814404e-003
2.167597e+003, 8.108851e-003
2.169525e+003, 8.559405e-003
2.171454e+003, 6.837456e-003
2.173382e+003, 6.831774e-003
2.175311e+003, 7.795485e-003
2.177239e+003, 7.617872e-003
2.179167e+003, 6.150553e-003
2.181096e+003, 6.298064e-003
2.183024e+003, 8.336987e-003
2.184953e+003, 8.005961e-003
2.186881e+003, 6.757122e-003
2.188810e+003, 7.029573e-003
2.190738e+003, 7.158039e-003
2.192667e+003, 7.901242e-003
2.194595e+003, 8.914329e-003
2.196524e+003, 8.395568e-003
2.198452e+003, 8.404111e-003
2.200381e+003, 7.159780e-003
2.202309e+003, 5.401104e-003
2.204238e+003, 5.878009e-003
2.206166e+003, 6.425630e-003
2.208094e+003, 5.718519e-003
2.210023e+003, 5.457675e-003
2.211951e+003, 5.757176e-003
2.213880e+003, 6.671315e-003
2.215808e+003, 7.057447e-003
2.217737e+003, 6.425230e-003
2.219665e+003, 6.957269e-003
2.221594e+003, 8.086777e-003
2.223522e+003, 7.302842e-003
2.225451e+003, 6.415498e-003
2.227379e+003, 6.167601e-003
2.229308e+003, 6.062171e-003
2.231236e+003, 6.380634e-003
2.233165e+003, 7.438848e-003
2.235093e+003, 7.950337e-003
2.237021e+003, 7.155769e-003
2.238950e+003, 6.401153e-003
2.240878e+003, 6.839949e-003
2.242807e+003, 6.486254e-003
2.244735e+003, 6.168804e-003
2.246664e+003, 5.845538e-003
2.248592e+003, 5.164634e-003
2.250521e+003, 4.546199e-003
2.252449e+003, 5.434348e-003
2.254378e+003, 7.318901e-003
2.256306e+003, 6.746946e-003
2.258235e+003, 6.459607e-003
2.260163e+003, 7.244826e-003
2.262092e+003, 7.441235e-003
2.264020e+003, 7.012803e-003
2.265948e+003, 7.108029e-003
2.267877e+003, 7.188275e-003
2.269805e+003, 7.608144e-003
2.271734e+003, 7.369542e-003
2.273662e+003, 7.095063e-003
2.275591e+003, 7.022867e-003
2.277519e+003, 7.577056e-003
2.279448e+003, 7.795709e-003
2.281376e+003, 7.615909e-003
2.283305e+003, 7.835435e-003
2.285233e+003, 8.377979e-003
2.287162e+003, 8.184639e-003
2.289090e+003, 8.047035e-003
2.291019e+003, 8.098726e-003
2.292947e+003, 7.911630e-003
2.294875e+003, 7.735922e-003
2.296804e+003, 8.434738e-003
2.298732e+003, 8.584502e-003
2.300661e+003, 8.045378e-003
2.302589e+003, 7.699382e-003
2.304518e+003, 7.889502e-003
2.306446e+003, 8.080154e-003
2.308375e+003, 8.163321e-003
2.310303e+003, 8.302591e-003
2.312232e+003, 8.349087e-003
2.314160e+003, 8.317458e-003
2.316089e+003, 8.663531e-003
2.318017e+003, 8.897011e-003
2.319946e+003, 8.880900e-003
2.321874e+003, 9.066246e-003
2.323802e+003, 9.281843e-003
2.325731e+003, 8.928544e-003
2.327659e+003, 8.496664e-003
2.329588e+003, 8.150945e-003
2.331516e+003, 8.276257e-003
2.333445e+003, 8.505836e-003
2.335373e+003, 8.307434e-003
2.337302e+003, 8.428580e-003
2.339230e+003, 8.586039e-003
2.341159e+003, 8.518747e-003
2.343087e+003, 8.413867e-003
2.345016e+003, 8.485179e-003
2.346944e+003, 8.351827e-003
2.348873e+003, 8.388841e-003
2.350801e+003, 8.733097e-003
2.352729e+003, 8.773621e-003
2.354658e+003, 8.791887e-003
2.356586e+003, 9.286015e-003
2.358515e+003, 9.367531e-003
2.360443e+003, 8.893585e-003
2.362372e+003, 8.886121e-003
2.364300e+003, 8.851487e-003
2.366229e+003, 8.027782e-003
2.368157e+003, 8.291630e-003
2.370086e+003, 8.640992e-003
2.372014e+003, 8.695176e-003
2.373942e+003, 8.943281e-003
2.375871e+003, 8.965972e-003
2.377799e+003, 9.009419e-003
2.379728e+003, 9.270279e-003
2.381656e+003, 9.003730e-003
2.383585e+003, 8.722599e-003
2.385513e+003, 8.854156e-003
2.387442e+003, 9.544307e-003
2.389370e+003, 9.203891e-003
2.391299e+003, 8.502596e-003
2.393227e+003, 8.989993e-003
2.395156e+003, 9.736465e-003
2.397084e+003, 8.831407e-003
2.399012e+003, 8.450075e-003
2.400941e+003, 9.285779e-003
2.402869e+003, 9.786449e-003
2.404798e+003, 1.007064e-002
2.406726e+003, 9.562169e-003
2.408655e+003, 9.714014e-003
2.410583e+003, 9.931739e-003
2.412512e+003, 9.645018e-003
2.414440e+003, 9.358956e-003
2.416369e+003, 9.029304e-003
2.418297e+003, 9.548228e-003
2.420226e+003, 9.842355e-003
2.422154e+003, 9.828813e-003
2.424083e+003, 1.024687e-002
2.426011e+003, 1.022645e-002
2.427939e+003, 9.702809e-003
2.429868e+003, 9.653397e-003
2.431796e+003, 1.007366e-002
2.433725e+003, 1.077990e-002
2.435653e+003, 1.075167e-002
2.437582e+003, 1.071393e-002
2.439510e+003, 1.098389e-002
2.441439e+003, 1.074584e-002
2.443367e+003, 1.088854e-002
2.445296e+003, 1.124534e-002
2.447224e+003, 1.159845e-002
2.449153e+003, 1.150136e-002
2.451081e+003, 1.107998e-002
2.453010e+003, 1.034422e-002
2.454938e+003, 1.066418e-002
2.456866e+003, 1.121917e-002
2.458795e+003, 1.119628e-002
2.460723e+003, 1.143702e-002
2.462652e+003, 1.181306e-002
2.464580e+003, 1.161765e-002
2.466509e+003, 1.136818e-002
2.468437e+003, 1.131359e-002
2.470366e+003, 1.097720e-002
2.472294e+003, 1.053599e-002
2.474223e+003, 1.154526e-002
2.476151e+003, 1.255737e-002
2.478080e+003, 1.207771e-002
2.480008e+003, 1.162094e-002
2.481937e+003, 1.194425e-002
2.483865e+003, 1.179584e-002
2.485793e+003, 1.164031e-002
2.487722e+003, 1.099196e-002
2.489650e+003, 1.087132e-002
2.491579e+003, 1.151512e-002
2.493507e+003, 1.200312e-002
2.495436e+003, 1.230807e-002
2.497364e+003, 1.236001e-002
2.499293e+003, 1.225967e-002
2.501221e+003, 1.179668e-002
2.503150e+003, 1.146583e-002
2.505078e+003, 1.158280e-002
2.507007e+003, 1.181322e-002
2.508935e+003, 1.143429e-002
2.510864e+003, 1.159795e-002
2.512792e+003, 1.213165e-002
2.514720e+003, 1.197222e-002
2.516649e+003, 1.168055e-002
2.518577e+003, 1.214676e-002
2.520506e+003, 1.229102e-002
2.522434e+003, 1.198732e-002
2.524363e+003, 1.179152e-002
2.526291e+003, 1.197400e-002
2.528220e+003, 1.218099e-002
2.530148e+003, 1.207738e-002
2.532077e+003, 1.160649e-002
2.534005e+003, 1.152421e-002
2.535934e+003, 1.193459e-002
2.537862e+003, 1.193398e-002
2.539791e+003, 1.184097e-002
2.541719e+003, 1.123688e-002
2.543647e+003, 1.071296e-002
2.545576e+003, 1.090958e-002
2.547504e+003, 1.146526e-002
2.549433e+003, 1.136119e-002
2.551361e+003, 1.126705e-002
2.553290e+003, 1.152831e-002
2.555218e+003, 1.125825e-002
2.557147e+003, 1.124578e-002
2.559075e+003, 1.209186e-002
2.561004e+003, 1.215219e-002
2.562932e+003, 1.180605e-002
2.564861e+003, 1.224756e-002
2.566789e+003, 1.154605e-002
2.568718e+003, 1.101968e-002
2.570646e+003, 1.120810e-002
2.572574e+003, 1.134860e-002
2.574503e+003, 1.182582e-002
2.576431e+003, 1.256697e-002
2.578360e+003, 1.234840e-002
2.580288e+003, 1.164393e-002
2.582217e+003, 1.154387e-002
2.584145e+003, 1.143096e-002
2.586074e+003, 1.189794e-002
2.588002e+003, 1.186279e-002
2.589931e+003, 1.171606e-002
2.591859e+003, 1.166317e-002
2.593788e+003, 1.152823e-002
2.595716e+003, 1.150318e-002
2.597645e+003, 1.200042e-002
2.599573e+003, 1.179128e-002
2.601501e+003, 1.111403e-002
2.603430e+003, 1.105302e-002
2.605358e+003, 1.149298e-002
2.607287e+003, 1.158710e-002
2.609215e+003, 1.121588e-002
2.611144e+003, 1.077129e-002
2.613072e+003, 1.090014e-002
2.615001e+003, 1.046011e-002
2.616929e+003, 9.877794e-003
2.618858e+003, 9.819429e-003
2.620786e+003, 9.919685e-003
2.622715e+003, 1.045536e-002
2.624643e+003, 1.116558e-002
2.626572e+003, 1.145277e-002
2.628500e+003, 1.078417e-002
2.630428e+003, 1.051400e-002
2.632357e+003, 1.130762e-002
2.634285e+003, 1.134403e-002
2.636214e+003, 1.066611e-002
2.638142e+003, 1.080388e-002
2.640071e+003, 1.111409e-002
2.641999e+003, 1.104920e-002
2.643928e+003, 1.113148e-002
2.645856e+003, 1.171274e-002
2.647785e+003, 1.167705e-002
2.649713e+003, 1.136667e-002
2.651642e+003, 1.143848e-002
2.653570e+003, 1.161038e-002
2.655499e+003, 1.147529e-002
2.657427e+003, 1.133378e-002
2.659355e+003, 1.180296e-002
2.661284e+003, 1.166712e-002
2.663212e+003, 1.089026e-002
2.665141e+003, 1.083522e-002
2.667069e+003, 1.117529e-002
2.668998e+003, 1.139850e-002
2.670926e+003, 1.144910e-002
2.672855e+003, 1.158483e-002
2.674783e+003, 1.165137e-002
2.676712e+003, 1.166318e-002
2.678640e+003, 1.159225e-002
2.680569e+003, 1.178074e-002
2.682497e+003, 1.170644e-002
2.684426e+003, 1.174172e-002
2.686354e+003, 1.226870e-002
2.688282e+003, 1.241488e-002
2.690211e+003, 1.205069e-002
2.692139e+003, 1.247479e-002
2.694068e+003, 1.257540e-002
2.695996e+003, 1.274306e-002
2.697925e+003, 1.304990e-002
2.699853e+003, 1.290998e-002
2.701782e+003, 1.280797e-002
2.703710e+003, 1.309193e-002
2.705639e+003, 1.322538e-002
2.707567e+003, 1.323100e-002
2.709496e+003, 1.333539e-002
2.711424e+003, 1.323831e-002
2.713353e+003, 1.292718e-002
2.715281e+003, 1.298631e-002
2.717209e+003, 1.325763e-002
2.719138e+003, 1.296149e-002
2.721066e+003, 1.293832e-002
2.722995e+003, 1.343679e-002
2.724923e+003, 1.373619e-002
2.726852e+003, 1.349686e-002
2.728780e+003, 1.381894e-002
2.730709e+003, 1.415592e-002
2.732637e+003, 1.396132e-002
2.734566e+003, 1.339401e-002
2.736494e+003, 1.378178e-002
2.738423e+003, 1.422814e-002
2.740351e+003, 1.403767e-002
2.742280e+003, 1.421333e-002
2.744208e+003, 1.430642e-002
2.746136e+003, 1.423959e-002
2.748065e+003, 1.460321e-002
2.749993e+003, 1.502824e-002
2.751922e+003, 1.523243e-002
2.753850e+003, 1.505727e-002
2.755779e+003, 1.511304e-002
2.757707e+003, 1.522855e-002
2.759636e+003, 1.547241e-002
2.761564e+003, 1.599304e-002
2.763493e+003, 1.604226e-002
2.765421e+003, 1.578836e-002
2.767350e+003, 1.589841e-002
2.769278e+003, 1.615768e-002
2.771207e+003, 1.679699e-002
2.773135e+003, 1.709346e-002
2.775063e+003, 1.737874e-002
2.776992e+003, 1.757996e-002
2.778920e+003, 1.746726e-002
2.780849e+003, 1.732617e-002
2.782777e+003, 1.703358e-002
2.784706e+003, 1.731670e-002
2.786634e+003, 1.809445e-002
2.788563e+003, 1.824260e-002
2.790491e+003, 1.807351e-002
2.792420e+003, 1.797941e-002
2.794348e+003, 1.806071e-002
2.796277e+003, 1.798337e-002
2.798205e+003, 1.831255e-002
2.800134e+003, 1.902256e-002
2.802062e+003, 1.921693e-002
2.803990e+003, 1.943707e-002
2.805919e+003, 1.965659e-002
2.807847e+003, 1.996370e-002
2.809776e+003, 2.024119e-002
2.811704e+003, 2.046207e-002
2.813633e+003, 2.044302e-002
2.815561e+003, 2.057278e-002
2.817490e+003, 2.134576e-002
2.819418e+003, 2.201182e-002
2.821347e+003, 2.220164e-002
2.823275e+003, 2.126947e-002
2.825204e+003, 2.099019e-002
2.827132e+003, 2.136791e-002
2.829061e+003, 2.205723e-002
2.830989e+003, 2.221333e-002
2.832917e+003, 2.208998e-002
2.834846e+003, 2.285156e-002
2.836774e+003, 2.329635e-002
2.838703e+003, 2.297378e-002
2.840631e+003, 2.248807e-002
2.842560e+003, 2.278470e-002
2.844488e+003, 2.290634e-002
2.846417e+003, 2.285942e-002
2.848345e+003, 2.310355e-002
2.850274e+003, 2.333302e-002
2.852202e+003, 2.380421e-002
2.854131e+003, 2.454046e-002
2.856059e+003, 2.459411e-002
2.857988e+003, 2.437756e-002
2.859916e+003, 2.416789e-002
2.861844e+003, 2.430757e-002
2.863773e+003, 2.453288e-002
2.865701e+003, 2.438294e-002
2.867630e+003, 2.480948e-002
2.869558e+003, 2.504412e-002
2.871487e+003, 2.511785e-002
2.873415e+003, 2.509848e-002
2.875344e+003, 2.512009e-002
2.877272e+003, 2.537830e-002
2.879201e+003, 2.601085e-002
2.881129e+003, 2.623824e-002
2.883058e+003, 2.635687e-002
2.884986e+003, 2.715584e-002
2.886915e+003, 2.732865e-002
2.888843e+003, 2.716515e-002
2.890771e+003, 2.769540e-002
2.892700e+003, 2.798013e-002
2.894628e+003, 2.817297e-002
2.896557e+003, 2.863644e-002
2.898485e+003, 2.873814e-002
2.900414e+003, 2.867477e-002
2.902342e+003, 2.922806e-002
2.904271e+003, 3.059749e-002
2.906199e+003, 3.108139e-002
2.908128e+003, 3.030645e-002
2.910056e+003, 3.028981e-002
2.911985e+003, 3.106573e-002
2.913913e+003, 3.125167e-002
2.915842e+003, 3.149835e-002
2.917770e+003, 3.226226e-002
2.919698e+003, 3.294744e-002
2.921627e+003, 3.367541e-002
2.923555e+003, 3.334038e-002
2.925484e+003, 3.217167e-002
2.927412e+003, 3.215169e-002
2.929341e+003, 3.228088e-002
2.931269e+003, 3.186378e-002
2.933198e+003, 3.207291e-002
2.935126e+003, 3.321078e-002
2.937055e+003, 3.411790e-002
2.938983e+003, 3.437837e-002
2.940912e+003, 3.433306e-002
2.942840e+003, 3.450432e-002
2.944769e+003, 3.540697e-002
2.946697e+003, 3.554268e-002
2.948625e+003, 3.541709e-002
2.950554e+003, 3.611351e-002
2.952482e+003, 3.607715e-002
2.954411e+003, 3.622859e-002
2.956339e+003, 3.745488e-002
2.958268e+003, 3.819989e-002
2.960196e+003, 3.846600e-002
2.962125e+003, 3.932129e-002
2.964053e+003, 3.992542e-002
2.965982e+003, 3.968056e-002
2.967910e+003, 3.915732e-002
2.969839e+003, 3.915598e-002
2.971767e+003, 3.993497e-002
2.973696e+003, 4.080721e-002
2.975624e+003, 4.095274e-002
2.977552e+003, 4.046990e-002
2.979481e+003, 4.029638e-002
2.981409e+003, 4.114535e-002
2.983338e+003, 4.221720e-002
2.985266e+003, 4.294140e-002
2.987195e+003, 4.299902e-002
2.989123e+003, 4.321937e-002
2.991052e+003, 4.364630e-002
2.992980e+003, 4.378397e-002
2.994909e+003, 4.389788e-002
2.996837e+003, 4.502022e-002
2.998766e+003, 4.559744e-002
3.000694e+003, 4.591615e-002
3.002623e+003, 4.600491e-002
3.004551e+003, 4.604663e-002
3.006479e+003, 4.701353e-002
3.008408e+003, 4.753452e-002
3.010336e+003, 4.776630e-002
3.012265e+003, 4.845765e-002
3.014193e+003, 4.957123e-002
3.016122e+003, 4.955064e-002
3.018050e+003, 4.963664e-002
3.019979e+003, 5.048704e-002
3.021907e+003, 5.108630e-002
3.023836e+003, 5.086330e-002
3.025764e+003, 5.131277e-002
3.027693e+003, 5.171302e-002
3.029621e+003, 5.177050e-002
3.031550e+003, 5.252529e-002
3.033478e+003, 5.339098e-002
3.035406e+003, 5.440089e-002
3.037335e+003, 5.497842e-002
3.039263e+003, 5.506834e-002
3.041192e+003, 5.481115e-002
3.043120e+003, 5.534807e-002
3.045049e+003, 5.671757e-002
3.046977e+003, 5.686826e-002
3.048906e+003, 5.630707e-002
3.050834e+003, 5.686227e-002
3.052763e+003, 5.828316e-002
3.054691e+003, 5.977661e-002
3.056620e+003, 6.072325e-002
3.058548e+003, 6.066259e-002
3.060477e+003, 6.038404e-002
3.062405e+003, 6.136928e-002
3.064333e+003, 6.259669e-002
3.066262e+003, 6.320965e-002
3.068190e+003, 6.317895e-002
3.070119e+003, 6.311626e-002
3.072047e+003, 6.390735e-002
3.073976e+003, 6.499309e-002
3.075904e+003, 6.590430e-002
3.077833e+003, 6.632344e-002
3.079761e+003, 6.661896e-002
3.081690e+003, 6.703400e-002
3.083618e+003, 6.764819e-002
3.085547e+003, 6.919359e-002
3.087475e+003, 7.052784e-002
3.089404e+003, 7.080778e-002
3.091332e+003, 7.120436e-002
3.093260e+003, 7.279611e-002
3.095189e+003, 7.373120e-002
3.097117e+003, 7.302100e-002
3.099046e+003, 7.343708e-002
3.100974e+003, 7.457798e-002
3.102903e+003, 7.550679e-002
3.104831e+003, 7.572511e-002
3.106760e+003, 7.645960e-002
3.108688e+003, 7.843333e-002
3.110617e+003, 7.933196e-002
3.112545e+003, 8.017147e-002
3.114474e+003, 8.105382e-002
3.116402e+003, 8.129873e-002
3.118331e+003, 8.179656e-002
3.120259e+003, 8.225442e-002
3.122188e+003, 8.263288e-002
3.124116e+003, 8.333793e-002
3.126044e+003, 8.426306e-002
3.127973e+003, 8.549212e-002
3.129901e+003, 8.655067e-002
3.131830e+003, 8.728265e-002
3.133758e+003, 8.737116e-002
3.135687e+003, 8.757572e-002
3.137615e+003, 8.777127e-002
3.139544e+003, 8.833900e-002
3.141472e+003, 8.862872e-002
3.143401e+003, 8.939376e-002
3.145329e+003, 9.032314e-002
3.147258e+003, 9.009266e-002
3.149186e+003, 9.028663e-002
3.151115e+003, 9.097949e-002
3.153043e+003, 9.118558e-002
3.154971e+003, 9.130102e-002
3.156900e+003, 9.125620e-002
3.158828e+003, 9.147909e-002
3.160757e+003, 9.258095e-002
3.162685e+003, 9.345145e-002
3.164614e+003, 9.323471e-002
3.166542e+003, 9.335283e-002
3.168471e+003, 9.409873e-002
3.170399e+003, 9.373414e-002
3.172328e+003, 9.350900e-002
3.174256e+003, 9.309608e-002
3.176185e+003, 9.365400e-002
3.178113e+003, 9.422297e-002
3.180042e+003, 9.418911e-002
3.181970e+003, 9.398788e-002
3.183898e+003, 9.392278e-002
3.185827e+003, 9.392058e-002
3.187755e+003, 9.331607e-002
3.189684e+003, 9.327394e-002
3.191612e+003, 9.360094e-002
3.193541e+003, 9.394949e-002
3.195469e+003, 9.350315e-002
3.197398e+003, 9.451774e-002
3.199326e+003, 9.445403e-002
3.201255e+003, 9.394693e-002
3.203183e+003, 9.490749e-002
3.205112e+003, 9.542803e-002
3.207040e+003, 9.531576e-002
3.208969e+003, 9.515791e-002
3.210897e+003, 9.513218e-002
3.212825e+003, 9.564550e-002
3.214754e+003, 9.648797e-002
3.216682e+003, 9.749056e-002
3.218611e+003, 9.747080e-002
3.220539e+003, 9.725244e-002
3.222468e+003, 9.721717e-002
3.224396e+003, 9.637961e-002
3.226325e+003, 9.636786e-002
3.228253e+003, 9.764513e-002
3.230182e+003, 9.774443e-002
3.232110e+003, 9.708304e-002
3.234039e+003, 9.693979e-002
3.235967e+003, 9.692834e-002
3.237896e+003, 9.712897e-002
3.239824e+003, 9.571206e-002
3.241752e+003, 9.424049e-002
3.243681e+003, 9.368361e-002
3.245609e+003, 9.365449e-002
3.247538e+003, 9.313481e-002
3.249466e+003, 9.264378e-002
3.251395e+003, 9.227236e-002
3.253323e+003, 9.148775e-002
3.255252e+003, 9.049289e-002
3.257180e+003, 9.048379e-002
3.259109e+003, 9.012932e-002
3.261037e+003, 9.012369e-002
3.262966e+003, 8.975155e-002
3.264894e+003, 8.941728e-002
3.266823e+003, 8.889965e-002
3.268751e+003, 8.783522e-002
3.270679e+003, 8.651035e-002
3.272608e+003, 8.653820e-002
3.274536e+003, 8.718720e-002
3.276465e+003, 8.747058e-002
3.278393e+003, 8.606688e-002
3.280322e+003, 8.446538e-002
3.282250e+003, 8.471446e-002
3.284179e+003, 8.458190e-002
3.286107e+003, 8.419376e-002
3.288036e+003, 8.354012e-002
3.289964e+003, 8.362067e-002
3.291893e+003, 8.281496e-002
3.293821e+003, 8.116737e-002
3.295750e+003, 8.130990e-002
3.297678e+003, 8.134672e-002
3.299606e+003, 7.995374e-002
3.301535e+003, 8.001030e-002
3.303463e+003, 8.002625e-002
3.305392e+003, 7.936535e-002
3.307320e+003, 7.848601e-002
3.309249e+003, 7.747936e-002
3.311177e+003, 7.651206e-002
3.313106e+003, 7.514555e-002
3.315034e+003, 7.410300e-002
3.316963e+003, 7.310221e-002
3.318891e+003, 7.260522e-002
3.320820e+003, 7.114642e-002
3.322748e+003, 6.976034e-002
3.324677e+003, 6.921536e-002
3.326605e+003, 6.853296e-002
3.328533e+003, 6.756114e-002
3.330462e+003, 6.707657e-002
3.332390e+003, 6.561982e-002
3.334319e+003, 6.325083e-002
3.336247e+003, 6.239747e-002
3.338176e+003, 6.188698e-002
3.340104e+003, 5.998090e-002
3.342033e+003, 5.900663e-002
3.343961e+003, 5.779827e-002
3.345890e+003, 5.611669e-002
3.347818e+003, 5.525900e-002
3.349747e+003, 5.388279e-002
3.351675e+003, 5.317609e-002
3.353604e+003, 5.158358e-002
3.355532e+003, 4.964984e-002
3.357460e+003, 4.880527e-002
3.359389e+003, 4.807154e-002
3.361317e+003, 4.639741e-002
3.363246e+003, 4.426678e-002
3.365174e+003, 4.308795e-002
3.367103e+003, 4.326845e-002
3.369031e+003, 4.340760e-002
3.370960e+003, 4.155948e-002
3.372888e+003, 4.035997e-002
3.374817e+003, 3.980738e-002
3.376745e+003, 3.864215e-002
3.378674e+003, 3.780385e-002
3.380602e+003, 3.732259e-002
3.382531e+003, 3.721622e-002
3.384459e+003, 3.642993e-002
3.386387e+003, 3.556726e-002
3.388316e+003, 3.447139e-002
3.390244e+003, 3.285150e-002
3.392173e+003, 3.235575e-002
3.394101e+003, 3.185318e-002
3.396030e+003, 3.098115e-002
3.397958e+003, 3.005426e-002
3.399887e+003, 2.998959e-002
3.401815e+003, 2.977212e-002
3.403744e+003, 2.906494e-002
3.405672e+003, 2.860568e-002
3.407601e+003, 2.881914e-002
3.409529e+003, 2.865238e-002
3.411458e+003, 2.721881e-002
3.413386e+003, 2.626475e-002
3.415314e+003, 2.616993e-002
3.417243e+003, 2.596649e-002
3.419171e+003, 2.594138e-002
3.421100e+003, 2.551707e-002
3.423028e+003, 2.444898e-002
3.424957e+003, 2.304933e-002
3.426885e+003, 2.258399e-002
3.428814e+003, 2.278026e-002
3.430742e+003, 2.274592e-002
3.432671e+003, 2.266319e-002
3.434599e+003, 2.209829e-002
3.436528e+003, 2.160035e-002
3.438456e+003, 2.246254e-002
3.440385e+003, 2.259705e-002
3.442313e+003, 2.009152e-002
3.444241e+003, 1.856373e-002
3.446170e+003, 1.860917e-002
3.448098e+003, 1.821458e-002
3.450027e+003, 1.874937e-002
3.451955e+003, 1.997892e-002
3.453884e+003, 1.983613e-002
3.455812e+003, 1.924357e-002
3.457741e+003, 1.887847e-002
3.459669e+003, 1.768757e-002
3.461598e+003, 1.723511e-002
3.463526e+003, 1.824340e-002
3.465455e+003, 1.870165e-002
3.467383e+003, 1.929094e-002
3.469312e+003, 1.858536e-002
3.471240e+003, 1.789998e-002
3.473168e+003, 1.700616e-002
3.475097e+003, 1.691618e-002
3.477025e+003, 1.716596e-002
3.478954e+003, 1.716977e-002
3.480882e+003, 1.706749e-002
3.482811e+003, 1.673496e-002
3.484739e+003, 1.718319e-002
3.486668e+003, 1.758671e-002
3.488596e+003, 1.777618e-002
3.490525e+003, 1.793298e-002
3.492453e+003, 1.815617e-002
3.494382e+003, 1.832078e-002
3.496310e+003, 1.819890e-002
3.498239e+003, 1.834881e-002
3.500167e+003, 1.937266e-002
3.502095e+003, 2.076730e-002
3.504024e+003, 2.077810e-002
3.505952e+003, 2.028931e-002
3.507881e+003, 1.994916e-002
3.509809e+003, 2.082071e-002
3.511738e+003, 2.128771e-002
3.513666e+003, 2.129642e-002
3.515595e+003, 2.186115e-002
3.517523e+003, 2.253286e-002
3.519452e+003, 2.263326e-002
3.521380e+003, 2.302961e-002
3.523309e+003, 2.270491e-002
3.525237e+003, 2.240869e-002
3.527166e+003, 2.302424e-002
3.529094e+003, 2.346484e-002
3.531022e+003, 2.181202e-002
3.532951e+003, 2.114659e-002
3.534879e+003, 2.202011e-002
3.536808e+003, 2.163920e-002
3.538736e+003, 2.045431e-002
3.540665e+003, 1.994261e-002
3.542593e+003, 2.063125e-002
3.544522e+003, 2.145816e-002
3.546450e+003, 1.954615e-002
3.548379e+003, 1.822420e-002
3.550307e+003, 1.763981e-002
3.552236e+003, 1.790951e-002
3.554164e+003, 1.726019e-002
3.556093e+003, 1.635039e-002
3.558021e+003, 1.615682e-002
3.559949e+003, 1.593883e-002
3.561878e+003, 1.615763e-002
3.563806e+003, 1.569498e-002
3.565735e+003, 1.608995e-002
3.567663e+003, 1.640195e-002
3.569592e+003, 1.669028e-002
3.571520e+003, 1.795292e-002
3.573449e+003, 1.770100e-002
3.575377e+003, 1.811366e-002
3.577306e+003, 2.088921e-002
3.579234e+003, 2.274108e-002
3.581163e+003, 2.414736e-002
3.583091e+003, 2.514536e-002
3.585020e+003, 2.869258e-002
3.586948e+003, 3.335796e-002
3.588876e+003, 3.656413e-002
3.590805e+003, 4.026658e-002
3.592733e+003, 4.630742e-002
3.594662e+003, 5.169721e-002
3.596590e+003, 5.595601e-002
3.598519e+003, 5.995196e-002
3.600447e+003, 6.131516e-002
3.602376e+003, 5.921279e-002
3.604304e+003, 5.508602e-002
3.606233e+003, 5.064808e-002
3.608161e+003, 4.418192e-002
3.610090e+003, 3.766262e-002
3.612018e+003, 3.169285e-002
3.613947e+003, 2.616444e-002
3.615875e+003, 2.112391e-002
3.617803e+003, 1.705823e-002
3.619732e+003, 1.313666e-002
3.621660e+003, 9.746185e-003
3.623589e+003, 8.465099e-003
3.625517e+003, 7.596854e-003
3.627446e+003, 6.426102e-003
3.629374e+003, 5.370590e-003
3.631303e+003, 3.060916e-003
3.633231e+003, 1.229760e-003
3.635160e+003, 1.039286e-003
3.637088e+003, 1.701150e-003
3.639017e+003, 1.525325e-003
3.640945e+003, 1.263907e-003
3.642874e+003, 2.244918e-003
3.644802e+003, 1.276860e-003
3.646730e+003, 6.199424e-005
3.648659e+003, -6.467575e-005
3.650587e+003, 2.731796e-004
3.652516e+003, 8.103099e-004
3.654444e+003, 1.261701e-003
3.656373e+003, 1.206451e-003
3.658301e+003, 1.059745e-003
3.660230e+003, 8.172606e-004
3.662158e+003, 8.060854e-004
3.664087e+003, 8.034211e-005
3.666015e+003, 5.122445e-004
3.667944e+003, 1.231800e-003
3.669872e+003, 4.451890e-004
3.671801e+003, 1.939785e-004
3.673729e+003, 7.372787e-004
3.675657e+003, 2.087416e-003
3.677586e+003, 1.637566e-003
3.679514e+003, -2.298026e-004
3.681443e+003, -3.247307e-004
3.683371e+003, 1.680109e-004
3.685300e+003, 7.848897e-004
3.687228e+003, 1.147139e-004
3.689157e+003, 8.009719e-004
3.691085e+003, 1.749166e-003
3.693014e+003, 1.200584e-003
3.694942e+003, -2.174246e-004
3.696871e+003, -3.938888e-005
3.698799e+003, 9.065182e-004
3.700728e+003, 3.801189e-004
3.702656e+003, 7.490118e-004
3.704584e+003, 6.912485e-004
3.706513e+003, -1.102832e-004
3.708441e+003, 8.891734e-004
3.710370e+003, 1.813976e-003
3.712298e+003, 1.137337e-003
3.714227e+003, 1.707452e-003
3.716155e+003, 2.625412e-003
3.718084e+003, 1.230173e-003
3.720012e+003, -1.681859e-004
3.721941e+003, -2.293909e-004
3.723869e+003, 2.188378e-004
3.725798e+003, 7.202252e-004
3.727726e+003, 2.146795e-003
3.729655e+003, 3.442490e-003
3.731583e+003, 3.118574e-003
3.733511e+003, 1.106270e-003
3.735440e+003, -3.847598e-004
3.737368e+003, -2.079071e-004
3.739297e+003, -4.552223e-005
3.741225e+003, -6.559864e-004
3.743154e+003, -4.344842e-004
3.745082e+003, -1.516321e-005
3.747011e+003, -1.272390e-003
3.748939e+003, -1.267589e-003
3.750868e+003, -1.659995e-003
3.752796e+003, -2.230663e-003
3.754725e+003, -1.371214e-003
3.756653e+003, -1.061630e-003
3.758582e+003, -5.003094e-004
3.760510e+003, 1.057483e-004
3.762438e+003, 2.024937e-004
3.764367e+003, 1.853281e-004
3.766295e+003, -4.119147e-005
3.768224e+003, 5.762953e-004
3.770152e+003, 9.242886e-004
3.772081e+003, 5.550407e-004
3.774009e+003, 1.025251e-003
3.775938e+003, -1.161852e-003
3.777866e+003, -2.291421e-003
3.779795e+003, -4.898591e-004
3.781723e+003, 6.364786e-004
3.783652e+003, 4.111910e-004
3.785580e+003, -6.716080e-004
3.787509e+003, -1.654341e-003
3.789437e+003, -1.374569e-003
3.791365e+003, -4.677868e-004
3.793294e+003, -9.795902e-004
3.795222e+003, -1.060701e-003
3.797151e+003, 6.820480e-004
3.799079e+003, -2.101924e-005
3.801008e+003, -5.372303e-004
3.802936e+003, -1.996121e-004
3.804865e+003, -2.002423e-004
3.806793e+003, 7.608053e-004
3.808722e+003, 2.111287e-004
3.810650e+003, -1.420795e-003
3.812579e+003, -1.478052e-003
3.814507e+003, -6.170744e-004
3.816436e+003, 2.042197e-004
3.818364e+003, -1.332989e-003
3.820292e+003, -2.068541e-003
3.822221e+003, -9.502131e-004
3.824149e+003, 4.633013e-004
3.826078e+003, 8.197416e-004
3.828006e+003, 2.437496e-004
3.829935e+003, 4.069358e-005
3.831863e+003, -1.599267e-004
3.833792e+003, -3.022208e-004
3.835720e+003, 3.106019e-004
3.837649e+003, 1.181792e-003
3.839577e+003, 2.684985e-003
3.841506e+003, 1.999277e-003
3.843434e+003, -3.865081e-004
3.845363e+003, -1.765842e-003
3.847291e+003, -8.886520e-004
3.849219e+003, 6.162525e-004
3.851148e+003, 1.233769e-003
3.853076e+003, 1.811798e-003
3.855005e+003, 2.140572e-003
3.856933e+003, 1.242584e-003
3.858862e+003, 1.277835e-003
3.860790e+003, 1.369964e-003
3.862719e+003, 9.959005e-004
3.864647e+003, 1.445318e-003
3.866576e+003, 2.199355e-003
3.868504e+003, 2.080547e-003
3.870433e+003, 1.244751e-003
3.872361e+003, 5.578451e-004
3.874290e+003, 1.082120e-003
3.876218e+003, 4.820771e-004
3.878146e+003, -2.041007e-004
3.880075e+003, -4.303405e-004
3.882003e+003, -6.140429e-005
3.883932e+003, 8.232510e-004
3.885860e+003, 1.047961e-003
3.887789e+003, 1.192958e-003
3.889717e+003, 3.314647e-004
3.891646e+003, 1.631628e-004
3.893574e+003, 6.169872e-004
3.895503e+003, 3.574884e-004
3.897431e+003, 1.066796e-003
3.899360e+003, 1.768647e-003
3.901288e+003, 1.528938e-003
3.903217e+003, 4.028756e-004
3.905145e+003, -2.870675e-004
3.907073e+003, -7.726897e-004
3.909002e+003, -9.980240e-004
3.910930e+003, -3.276585e-004
3.912859e+003, 8.618241e-004
3.914787e+003, 2.627533e-004
3.916716e+003, 1.339182e-004
3.918644e+003, 7.172779e-004
3.920573e+003, 5.305507e-005
3.922501e+003, 5.604859e-004
3.924430e+003, 1.894337e-003
3.926358e+003, 8.839628e-004
3.928287e+003, -8.201072e-004
3.930215e+003, -1.593006e-003
3.932144e+003, -7.664826e-004
3.934072e+003, 5.006545e-004
3.936000e+003, -3.268399e-004
3.937929e+003, -8.037232e-004
3.939857e+003, -3.113024e-004
3.941786e+003, 4.513380e-004
3.943714e+003, 1.978459e-004
3.945643e+003, -8.754001e-005
3.947571e+003, 5.687302e-004
3.949500e+003, -3.940184e-004
3.951428e+003, -1.405266e-003
3.953357e+003, -4.348917e-004
3.955285e+003, 1.097089e-003
3.957214e+003, 3.890983e-004
3.959142e+003, -1.668758e-003
3.961071e+003, -2.788551e-003
3.962999e+003, -2.141572e-003
3.964927e+003, -3.241407e-004
3.966856e+003, 4.466440e-004
3.968784e+003, -2.939345e-004
3.970713e+003, -6.099420e-004
3.972641e+003, -3.538252e-004
3.974570e+003, 1.152929e-003
3.976498e+003, 1.839974e-003
3.978427e+003, 4.410203e-004
3.980355e+003, -8.772350e-004
3.982284e+003, -6.761389e-004
3.984212e+003, -5.959130e-004
3.986141e+003, -1.611628e-004
3.988069e+003, 1.423265e-003
3.989998e+003, 2.177469e-003
3.991926e+003, 3.714223e-004
3.993854e+003, -1.476832e-003
3.995783e+003, -1.756632e-003
3.997711e+003, -2.272356e-004
3.999640e+003, -2.283745e-004
##END=



