##NAMES=Columbite-(Fe)
##RRUFFID=R060001
##IDEAL CHEMISTRY=Fe^2+^Nb^5+^_2_O_6_
##LOCALITY=Gypsy mine, Minas Gerais, Brazil
##OWNER=RRUFF
##SOURCE=Eric Van Valkenburg
##DESCRIPTION=Steel gray fragment with internal red hints
##STATUS=The identification of this mineral has been confirmed by X-ray diffraction and chemical analysis
##URL=rruff.info/R060001
##MEASURED CHEMISTRY=(Fe^2+^_0.52_Mn^2+^_0.48_)_Σ=1_(Nb_1.61_Ta_0.39_)_Σ=2_O_6_
3.991926e+002, 2.678668e-001
4.011211e+002, 2.722166e-001
4.030496e+002, 2.767335e-001
4.049780e+002, 2.829384e-001
4.069065e+002, 2.866598e-001
4.088350e+002, 2.865366e-001
4.107634e+002, 2.869640e-001
4.126919e+002, 2.928605e-001
4.146204e+002, 3.021673e-001
4.165488e+002, 3.007017e-001
4.184773e+002, 2.986045e-001
4.204058e+002, 3.039939e-001
4.223342e+002, 3.065966e-001
4.242627e+002, 3.093011e-001
4.261912e+002, 3.146464e-001
4.281196e+002, 3.193220e-001
4.300481e+002, 3.210784e-001
4.319766e+002, 3.217244e-001
4.339050e+002, 3.274523e-001
4.358335e+002, 3.322994e-001
4.377620e+002, 3.333219e-001
4.396904e+002, 3.339088e-001
4.416189e+002, 3.337899e-001
4.435474e+002, 3.360911e-001
4.454758e+002, 3.370941e-001
4.474043e+002, 3.379707e-001
4.493328e+002, 3.391485e-001
4.512612e+002, 3.360488e-001
4.531897e+002, 3.351570e-001
4.551182e+002, 3.382934e-001
4.570466e+002, 3.379134e-001
4.589751e+002, 3.378539e-001
4.609036e+002, 3.397476e-001
4.628320e+002, 3.395893e-001
4.647605e+002, 3.364146e-001
4.666890e+002, 3.342537e-001
4.686174e+002, 3.367153e-001
4.705459e+002, 3.390124e-001
4.724744e+002, 3.400547e-001
4.744028e+002, 3.410941e-001
4.763313e+002, 3.411129e-001
4.782598e+002, 3.408462e-001
4.801882e+002, 3.409185e-001
4.821167e+002, 3.404503e-001
4.840452e+002, 3.399979e-001
4.859736e+002, 3.399876e-001
4.879021e+002, 3.384163e-001
4.898306e+002, 3.372192e-001
4.917590e+002, 3.357285e-001
4.936875e+002, 3.341568e-001
4.956160e+002, 3.351405e-001
4.975444e+002, 3.345633e-001
4.994729e+002, 3.316903e-001
5.014014e+002, 3.284498e-001
5.033298e+002, 3.277932e-001
5.052583e+002, 3.290288e-001
5.071868e+002, 3.277742e-001
5.091152e+002, 3.261807e-001
5.110437e+002, 3.244941e-001
5.129722e+002, 3.220832e-001
5.149006e+002, 3.205397e-001
5.168291e+002, 3.196707e-001
5.187576e+002, 3.187456e-001
5.206860e+002, 3.181286e-001
5.226145e+002, 3.170926e-001
5.245430e+002, 3.159806e-001
5.264714e+002, 3.146982e-001
5.283999e+002, 3.129571e-001
5.303284e+002, 3.122775e-001
5.322568e+002, 3.114609e-001
5.341853e+002, 3.102089e-001
5.361138e+002, 3.102202e-001
5.380422e+002, 3.096554e-001
5.399707e+002, 3.089144e-001
5.418992e+002, 3.073974e-001
5.438276e+002, 3.057538e-001
5.457561e+002, 3.047348e-001
5.476846e+002, 3.042017e-001
5.496130e+002, 3.037781e-001
5.515415e+002, 3.031247e-001
5.534700e+002, 3.025195e-001
5.553984e+002, 3.005596e-001
5.573269e+002, 2.979872e-001
5.592554e+002, 2.963609e-001
5.611838e+002, 2.945479e-001
5.631123e+002, 2.927310e-001
5.650408e+002, 2.908517e-001
5.669692e+002, 2.884869e-001
5.688977e+002, 2.869210e-001
5.708262e+002, 2.855504e-001
5.727546e+002, 2.835568e-001
5.746831e+002, 2.812018e-001
5.766116e+002, 2.786361e-001
5.785400e+002, 2.767775e-001
5.804685e+002, 2.751757e-001
5.823970e+002, 2.735751e-001
5.843254e+002, 2.724112e-001
5.862539e+002, 2.704872e-001
5.881824e+002, 2.682839e-001
5.901108e+002, 2.665467e-001
5.920393e+002, 2.656686e-001
5.939678e+002, 2.647166e-001
5.958962e+002, 2.636676e-001
5.978247e+002, 2.627273e-001
5.997532e+002, 2.623890e-001
6.016816e+002, 2.624867e-001
6.036101e+002, 2.628449e-001
6.055386e+002, 2.638359e-001
6.074670e+002, 2.647725e-001
6.093955e+002, 2.664343e-001
6.113240e+002, 2.678476e-001
6.132524e+002, 2.688200e-001
6.151809e+002, 2.698749e-001
6.171094e+002, 2.707124e-001
6.190378e+002, 2.717389e-001
6.209663e+002, 2.722717e-001
6.228948e+002, 2.715304e-001
6.248232e+002, 2.706205e-001
6.267517e+002, 2.696661e-001
6.286802e+002, 2.689705e-001
6.306086e+002, 2.675276e-001
6.325371e+002, 2.651735e-001
6.344656e+002, 2.634462e-001
6.363940e+002, 2.627347e-001
6.383225e+002, 2.620010e-001
6.402510e+002, 2.608622e-001
6.421794e+002, 2.598262e-001
6.441079e+002, 2.590967e-001
6.460364e+002, 2.583187e-001
6.479648e+002, 2.572757e-001
6.498933e+002, 2.572896e-001
6.518218e+002, 2.573488e-001
6.537502e+002, 2.569019e-001
6.556787e+002, 2.569780e-001
6.576072e+002, 2.568592e-001
6.595356e+002, 2.563880e-001
6.614641e+002, 2.563093e-001
6.633926e+002, 2.564824e-001
6.653210e+002, 2.560707e-001
6.672495e+002, 2.556736e-001
6.691780e+002, 2.556402e-001
6.711064e+002, 2.555764e-001
6.730349e+002, 2.550798e-001
6.749634e+002, 2.545300e-001
6.768918e+002, 2.541007e-001
6.788203e+002, 2.536156e-001
6.807488e+002, 2.526527e-001
6.826772e+002, 2.517764e-001
6.846057e+002, 2.509041e-001
6.865342e+002, 2.494712e-001
6.884626e+002, 2.480220e-001
6.903911e+002, 2.465562e-001
6.923196e+002, 2.449582e-001
6.942480e+002, 2.431227e-001
6.961765e+002, 2.407755e-001
6.981050e+002, 2.377302e-001
7.000334e+002, 2.344565e-001
7.019619e+002, 2.315333e-001
7.038904e+002, 2.286227e-001
7.058188e+002, 2.249921e-001
7.077473e+002, 2.214769e-001
7.096758e+002, 2.177795e-001
7.116042e+002, 2.135433e-001
7.135327e+002, 2.092601e-001
7.154612e+002, 2.051730e-001
7.173896e+002, 2.013643e-001
7.193181e+002, 1.971270e-001
7.212466e+002, 1.926707e-001
7.231750e+002, 1.885499e-001
7.251035e+002, 1.846157e-001
7.270320e+002, 1.811169e-001
7.289604e+002, 1.774454e-001
7.308889e+002, 1.736525e-001
7.328174e+002, 1.701838e-001
7.347458e+002, 1.668504e-001
7.366743e+002, 1.636496e-001
7.386028e+002, 1.608714e-001
7.405313e+002, 1.578830e-001
7.424597e+002, 1.550456e-001
7.443882e+002, 1.528486e-001
7.463167e+002, 1.508010e-001
7.482451e+002, 1.488166e-001
7.501736e+002, 1.471802e-001
7.521021e+002, 1.460185e-001
7.540305e+002, 1.447749e-001
7.559590e+002, 1.435721e-001
7.578875e+002, 1.426826e-001
7.598159e+002, 1.422119e-001
7.617444e+002, 1.415823e-001
7.636729e+002, 1.407314e-001
7.656013e+002, 1.401338e-001
7.675298e+002, 1.397119e-001
7.694583e+002, 1.390345e-001
7.713867e+002, 1.384459e-001
7.733152e+002, 1.379907e-001
7.752437e+002, 1.375165e-001
7.771721e+002, 1.370789e-001
7.791006e+002, 1.366506e-001
7.810291e+002, 1.361647e-001
7.829575e+002, 1.355792e-001
7.848860e+002, 1.348765e-001
7.868145e+002, 1.343349e-001
7.887429e+002, 1.338019e-001
7.906714e+002, 1.330588e-001
7.925999e+002, 1.323550e-001
7.945283e+002, 1.318915e-001
7.964568e+002, 1.311959e-001
7.983853e+002, 1.305744e-001
8.003137e+002, 1.301362e-001
8.022422e+002, 1.298018e-001
8.041707e+002, 1.294258e-001
8.060991e+002, 1.287657e-001
8.080276e+002, 1.284200e-001
8.099561e+002, 1.284859e-001
8.118845e+002, 1.284706e-001
8.138130e+002, 1.282390e-001
8.157415e+002, 1.283061e-001
8.176699e+002, 1.285302e-001
8.195984e+002, 1.285031e-001
8.215269e+002, 1.285479e-001
8.234553e+002, 1.286677e-001
8.253838e+002, 1.287162e-001
8.273123e+002, 1.284509e-001
8.292407e+002, 1.283493e-001
8.311692e+002, 1.280716e-001
8.330977e+002, 1.275527e-001
8.350261e+002, 1.268212e-001
8.369546e+002, 1.256570e-001
8.388831e+002, 1.240500e-001
8.408115e+002, 1.222702e-001
8.427400e+002, 1.201673e-001
8.446685e+002, 1.171787e-001
8.465969e+002, 1.135687e-001
8.485254e+002, 1.100369e-001
8.504539e+002, 1.064394e-001
8.523823e+002, 1.026752e-001
8.543108e+002, 9.881148e-002
8.562393e+002, 9.518795e-002
8.581677e+002, 9.188841e-002
8.600962e+002, 8.889800e-002
8.620247e+002, 8.575319e-002
8.639531e+002, 8.246540e-002
8.658816e+002, 7.869104e-002
8.678101e+002, 7.450343e-002
8.697385e+002, 6.998482e-002
8.716670e+002, 6.483393e-002
8.735955e+002, 5.923768e-002
8.755239e+002, 5.356667e-002
8.774524e+002, 4.814704e-002
8.793809e+002, 4.283483e-002
8.813093e+002, 3.750270e-002
8.832378e+002, 3.264826e-002
8.851663e+002, 2.849036e-002
8.870947e+002, 2.503731e-002
8.890232e+002, 2.241546e-002
8.909517e+002, 2.036278e-002
8.928801e+002, 1.867122e-002
8.948086e+002, 1.737224e-002
8.967371e+002, 1.647430e-002
8.986655e+002, 1.579115e-002
9.005940e+002, 1.508837e-002
9.025225e+002, 1.444635e-002
9.044509e+002, 1.390766e-002
9.063794e+002, 1.353503e-002
9.083079e+002, 1.329419e-002
9.102363e+002, 1.297897e-002
9.121648e+002, 1.266052e-002
9.140933e+002, 1.228070e-002
9.160217e+002, 1.171675e-002
9.179502e+002, 1.099148e-002
9.198787e+002, 1.014655e-002
9.218071e+002, 9.433299e-003
9.237356e+002, 8.772903e-003
9.256641e+002, 8.214612e-003
9.275925e+002, 7.861309e-003
9.295210e+002, 7.449492e-003
9.314495e+002, 7.022718e-003
9.333779e+002, 6.555324e-003
9.353064e+002, 6.053331e-003
9.372349e+002, 5.754169e-003
9.391633e+002, 5.601173e-003
9.410918e+002, 5.476492e-003
9.430203e+002, 5.045086e-003
9.449487e+002, 4.481064e-003
9.468772e+002, 4.173551e-003
9.488057e+002, 3.954542e-003
9.507341e+002, 3.506253e-003
9.526626e+002, 3.335885e-003
9.545911e+002, 3.154634e-003
9.565195e+002, 2.931742e-003
9.584480e+002, 2.803082e-003
9.603765e+002, 2.647898e-003
9.623049e+002, 2.524340e-003
9.642334e+002, 2.316935e-003
9.661619e+002, 2.246309e-003
9.680903e+002, 2.285399e-003
9.700188e+002, 2.132491e-003
9.719473e+002, 2.062091e-003
9.738757e+002, 2.062256e-003
9.758042e+002, 2.006732e-003
9.777327e+002, 1.822430e-003
9.796611e+002, 1.681786e-003
9.815896e+002, 1.709048e-003
9.835181e+002, 1.717875e-003
9.854465e+002, 1.542980e-003
9.873750e+002, 1.414151e-003
9.893035e+002, 1.239163e-003
9.912319e+002, 1.191570e-003
9.931604e+002, 1.283536e-003
9.950889e+002, 1.342973e-003
9.970173e+002, 1.266276e-003
9.989458e+002, 1.192002e-003
1.000874e+003, 1.132431e-003
1.002803e+003, 1.203269e-003
1.004731e+003, 1.158165e-003
1.006660e+003, 1.003385e-003
1.008588e+003, 9.229407e-004
1.010517e+003, 1.025094e-003
1.012445e+003, 9.735767e-004
1.014374e+003, 7.237010e-004
1.016302e+003, 6.488916e-004
1.018230e+003, 7.327162e-004
1.020159e+003, 5.816650e-004
1.022087e+003, 3.808569e-004
1.024016e+003, 1.467708e-004
1.025944e+003, 4.163757e-005
1.027873e+003, 1.584534e-004
1.029801e+003, 2.726000e-004
1.031730e+003, 9.382516e-005
1.033658e+003, -9.591132e-005
1.035587e+003, -1.201872e-004
1.037515e+003, -1.527555e-005
1.039444e+003, -1.378935e-004
1.041372e+003, -2.884325e-004
1.043301e+003, -3.451537e-004
1.045229e+003, -4.350767e-004
1.047157e+003, -4.314147e-004
1.049086e+003, -4.402883e-004
1.051014e+003, -4.590061e-004
1.052943e+003, -4.517622e-004
1.054871e+003, -5.103964e-004
1.056800e+003, -4.996285e-004
1.058728e+003, -3.311206e-004
1.060657e+003, -3.040489e-004
1.062585e+003, -4.415642e-004
1.064514e+003, -5.842987e-004
1.066442e+003, -7.004049e-004
1.068371e+003, -6.569270e-004
1.070299e+003, -6.652884e-004
1.072228e+003, -6.307382e-004
1.074156e+003, -6.035473e-004
1.076084e+003, -5.297791e-004
1.078013e+003, -3.917813e-004
1.079941e+003, -3.069285e-004
1.081870e+003, -2.620015e-004
1.083798e+003, -1.221951e-004
1.085727e+003, -2.014581e-004
1.087655e+003, -3.348980e-004
1.089584e+003, -1.975726e-004
1.091512e+003, -8.573383e-005
1.093441e+003, -1.820363e-004
1.095369e+003, -1.672041e-004
1.097298e+003, -1.283232e-004
1.099226e+003, -1.061242e-004
1.101155e+003, -6.607175e-005
1.103083e+003, -6.392598e-006
1.105011e+003, -2.919324e-005
1.106940e+003, -1.905225e-004
1.108868e+003, -2.621505e-004
1.110797e+003, -2.828296e-004
1.112725e+003, -3.664326e-004
1.114654e+003, -5.112849e-004
1.116582e+003, -7.114913e-004
1.118511e+003, -9.075161e-004
1.120439e+003, -1.320470e-003
1.122368e+003, -1.840748e-003
1.124296e+003, -2.343420e-003
1.126225e+003, -2.801239e-003
1.128153e+003, -3.255203e-003
1.130082e+003, -3.680458e-003
1.132010e+003, -4.222464e-003
1.133938e+003, -4.719405e-003
1.135867e+003, -5.175671e-003
1.137795e+003, -5.703781e-003
1.139724e+003, -5.822452e-003
1.141652e+003, -4.806811e-003
1.143581e+003, -3.647005e-003
1.145509e+003, -2.743181e-003
1.147438e+003, -1.817591e-003
1.149366e+003, -1.311246e-003
1.151295e+003, -1.109362e-003
1.153223e+003, -8.867942e-004
1.155152e+003, -7.697493e-004
1.157080e+003, -7.640794e-004
1.159009e+003, -8.050799e-004
1.160937e+003, -7.312261e-004
1.162865e+003, -7.967055e-004
1.164794e+003, -9.033941e-004
1.166722e+003, -8.296706e-004
1.168651e+003, -8.135587e-004
1.170579e+003, -9.586848e-004
1.172508e+003, -1.024410e-003
1.174436e+003, -9.301156e-004
1.176365e+003, -7.512346e-004
1.178293e+003, -7.139184e-004
1.180222e+003, -8.089431e-004
1.182150e+003, -8.006878e-004
1.184079e+003, -5.338602e-004
1.186007e+003, -4.313402e-004
1.187936e+003, -3.107712e-004
1.189864e+003, -1.474544e-004
1.191792e+003, -1.731515e-005
1.193721e+003, -2.214313e-005
1.195649e+003, -1.064315e-004
1.197578e+003, -4.901737e-005
1.199506e+003, 6.356090e-005
1.201435e+003, 6.769970e-005
1.203363e+003, 4.405156e-005
1.205292e+003, 1.925901e-004
1.207220e+003, 3.085285e-004
1.209149e+003, 3.078468e-004
1.211077e+003, 2.872832e-004
1.213006e+003, 2.631173e-004
1.214934e+003, 3.197454e-004
1.216863e+003, 4.310645e-004
1.218791e+003, 4.139133e-004
1.220719e+003, 4.071482e-004
1.222648e+003, 4.407205e-004
1.224576e+003, 4.789457e-004
1.226505e+003, 4.543401e-004
1.228433e+003, 3.919452e-004
1.230362e+003, 3.940947e-004
1.232290e+003, 3.375858e-004
1.234219e+003, 2.261810e-004
1.236147e+003, 1.745969e-004
1.238076e+003, 1.263693e-004
1.240004e+003, 6.990880e-005
1.241933e+003, 1.114607e-004
1.243861e+003, 1.084432e-004
1.245790e+003, 8.804351e-005
1.247718e+003, 1.163371e-004
1.249646e+003, 1.784042e-005
1.251575e+003, -9.579584e-005
1.253503e+003, -6.088614e-005
1.255432e+003, -1.063570e-004
1.257360e+003, -2.395175e-004
1.259289e+003, -2.833307e-004
1.261217e+003, -2.575703e-004
1.263146e+003, -2.781972e-004
1.265074e+003, -3.953800e-004
1.267003e+003, -2.833977e-004
1.268931e+003, -5.948916e-005
1.270860e+003, 1.688674e-005
1.272788e+003, 1.365356e-004
1.274717e+003, 3.466569e-004
1.276645e+003, 3.301427e-004
1.278573e+003, 2.020337e-004
1.280502e+003, 2.397448e-004
1.282430e+003, 1.815036e-004
1.284359e+003, 4.656985e-005
1.286287e+003, -4.398450e-005
1.288216e+003, -1.017898e-004
1.290144e+003, -3.278963e-004
1.292073e+003, -3.870353e-004
1.294001e+003, -4.907325e-004
1.295930e+003, -6.230921e-004
1.297858e+003, -6.047413e-004
1.299787e+003, -4.382208e-004
1.301715e+003, -3.572553e-004
1.303644e+003, -6.077364e-004
1.305572e+003, -6.601959e-004
1.307500e+003, -6.694868e-004
1.309429e+003, -7.026196e-004
1.311357e+003, -5.901232e-004
1.313286e+003, -5.978942e-004
1.315214e+003, -4.980490e-004
1.317143e+003, -4.348606e-004
1.319071e+003, -6.030276e-004
1.321000e+003, -6.342754e-004
1.322928e+003, -6.570071e-004
1.324857e+003, -7.215664e-004
1.326785e+003, -6.660745e-004
1.328714e+003, -5.094334e-004
1.330642e+003, -4.086047e-004
1.332571e+003, -3.422871e-004
1.334499e+003, -3.260225e-004
1.336427e+003, -3.242418e-004
1.338356e+003, -4.575178e-004
1.340284e+003, -5.152002e-004
1.342213e+003, -3.922656e-004
1.344141e+003, -3.378391e-004
1.346070e+003, -2.131611e-004
1.347998e+003, -2.516136e-004
1.349927e+003, -1.571551e-004
1.351855e+003, -2.287552e-004
1.353784e+003, -3.510863e-004
1.355712e+003, -1.048073e-004
1.357641e+003, 1.567230e-004
1.359569e+003, 1.949146e-004
1.361498e+003, 1.441166e-004
1.363426e+003, 1.756549e-004
1.365354e+003, 3.522336e-004
1.367283e+003, 3.441423e-004
1.369211e+003, 3.168434e-004
1.371140e+003, 3.650710e-004
1.373068e+003, 4.578605e-004
1.374997e+003, 4.543811e-004
1.376925e+003, 7.016510e-004
1.378854e+003, 7.956252e-004
1.380782e+003, 8.100197e-004
1.382711e+003, 7.237196e-004
1.384639e+003, 5.850196e-004
1.386568e+003, 3.907755e-004
1.388496e+003, 4.473701e-004
1.390425e+003, 6.495118e-004
1.392353e+003, 6.390139e-004
1.394281e+003, 3.955513e-004
1.396210e+003, 3.014803e-004
1.398138e+003, 1.275539e-004
1.400067e+003, 1.065433e-006
1.401995e+003, 1.690835e-004
1.403924e+003, 4.403517e-004
1.405852e+003, 7.320568e-004
1.407781e+003, 7.738993e-004
1.409709e+003, 6.548315e-004
1.411638e+003, 3.730804e-004
1.413566e+003, 3.708452e-004
1.415495e+003, 5.189106e-004
1.417423e+003, 2.201125e-004
1.419352e+003, -1.296103e-004
1.421280e+003, -9.590387e-005
1.423208e+003, 3.775954e-005
1.425137e+003, 3.613532e-006
1.427065e+003, -6.440282e-005
1.428994e+003, -2.726465e-004
1.430922e+003, -1.374781e-004
1.432851e+003, 1.515821e-004
1.434779e+003, 2.788231e-004
1.436708e+003, 1.416877e-004
1.438636e+003, 3.628656e-004
1.440565e+003, 3.379658e-004
1.442493e+003, 1.478419e-004
1.444422e+003, 6.888062e-005
1.446350e+003, -1.136959e-004
1.448279e+003, -2.492592e-004
1.450207e+003, -1.160055e-005
1.452135e+003, -2.392381e-005
1.454064e+003, -3.566369e-004
1.455992e+003, -1.011543e-003
1.457921e+003, -1.038119e-003
1.459849e+003, -4.132167e-004
1.461778e+003, -2.088770e-004
1.463706e+003, -5.601197e-004
1.465635e+003, -6.806329e-004
1.467563e+003, -4.915968e-004
1.469492e+003, -6.629154e-004
1.471420e+003, -1.196325e-003
1.473349e+003, -1.396500e-003
1.475277e+003, -1.031913e-003
1.477206e+003, -7.695183e-004
1.479134e+003, -6.862506e-004
1.481063e+003, -5.736351e-004
1.482991e+003, -4.527196e-004
1.484919e+003, -5.655065e-004
1.486848e+003, -6.965175e-004
1.488776e+003, -7.681772e-004
1.490705e+003, -8.086786e-004
1.492633e+003, -6.758720e-004
1.494562e+003, -7.558763e-004
1.496490e+003, -9.507388e-004
1.498419e+003, -8.202121e-004
1.500347e+003, -6.309748e-004
1.502276e+003, -4.222468e-004
1.504204e+003, -7.155836e-004
1.506133e+003, -1.285844e-003
1.508061e+003, -8.741766e-004
1.509990e+003, -4.376173e-004
1.511918e+003, -4.385412e-004
1.513846e+003, -3.510416e-004
1.515775e+003, -4.183426e-004
1.517703e+003, -5.467162e-004
1.519632e+003, -7.637963e-004
1.521560e+003, -8.699447e-004
1.523489e+003, -4.387423e-004
1.525417e+003, -3.040284e-004
1.527346e+003, -2.295524e-004
1.529274e+003, -7.642061e-005
1.531203e+003, 6.918609e-005
1.533131e+003, -1.334623e-004
1.535060e+003, -5.000085e-005
1.536988e+003, -2.924874e-004
1.538917e+003, -9.964481e-004
1.540845e+003, -1.038842e-003
1.542773e+003, -6.393567e-004
1.544702e+003, -3.723130e-004
1.546630e+003, -1.779646e-004
1.548559e+003, -5.124509e-005
1.550487e+003, 2.764910e-005
1.552416e+003, -1.394525e-004
1.554344e+003, -4.359782e-004
1.556273e+003, -6.211028e-004
1.558201e+003, -1.209185e-003
1.560130e+003, -1.082137e-003
1.562058e+003, -3.317446e-004
1.563987e+003, -5.849451e-005
1.565915e+003, -2.854317e-005
1.567844e+003, -2.170205e-004
1.569772e+003, -3.744513e-004
1.571700e+003, -1.631379e-004
1.573629e+003, -2.335310e-004
1.575557e+003, -7.278472e-004
1.577486e+003, -3.433302e-004
1.579414e+003, 1.437739e-004
1.581343e+003, 1.460165e-004
1.583271e+003, 1.845658e-004
1.585200e+003, 1.739711e-004
1.587128e+003, 1.401454e-005
1.589057e+003, -6.333739e-005
1.590985e+003, 1.430139e-004
1.592914e+003, 3.900155e-004
1.594842e+003, 3.289953e-004
1.596771e+003, 2.145767e-005
1.598699e+003, 1.493692e-004
1.600627e+003, 3.142655e-004
1.602556e+003, 1.713634e-004
1.604484e+003, 1.761392e-004
1.606413e+003, 1.625121e-004
1.608341e+003, 9.150058e-005
1.610270e+003, 1.517460e-004
1.612198e+003, 2.942085e-004
1.614127e+003, -9.351969e-005
1.616055e+003, -6.434843e-004
1.617984e+003, -2.649054e-004
1.619912e+003, 1.415238e-004
1.621841e+003, -1.349822e-004
1.623769e+003, -3.558472e-004
1.625698e+003, -2.414584e-004
1.627626e+003, -2.412573e-004
1.629554e+003, -2.953261e-004
1.631483e+003, -2.099350e-004
1.633411e+003, -4.473403e-004
1.635340e+003, -1.116738e-003
1.637268e+003, -1.007430e-003
1.639197e+003, -5.577058e-004
1.641125e+003, -4.448071e-004
1.643054e+003, -5.551204e-004
1.644982e+003, -1.041993e-003
1.646911e+003, -1.238734e-003
1.648839e+003, -8.790269e-004
1.650768e+003, -1.462720e-003
1.652696e+003, -2.515525e-003
1.654625e+003, -1.709603e-003
1.656553e+003, -7.954016e-004
1.658481e+003, -8.074939e-004
1.660410e+003, -1.019426e-003
1.662338e+003, -1.438238e-003
1.664267e+003, -1.455337e-003
1.666195e+003, -1.221448e-003
1.668124e+003, -1.440391e-003
1.670052e+003, -1.417942e-003
1.671981e+003, -1.187459e-003
1.673909e+003, -1.418583e-003
1.675838e+003, -1.422264e-003
1.677766e+003, -8.394867e-004
1.679695e+003, -9.242594e-004
1.681623e+003, -1.351804e-003
1.683552e+003, -1.983710e-003
1.685480e+003, -1.687303e-003
1.687408e+003, -8.129030e-004
1.689337e+003, -6.305724e-004
1.691265e+003, -7.220134e-004
1.693194e+003, -1.115419e-003
1.695122e+003, -1.792446e-003
1.697051e+003, -1.426928e-003
1.698979e+003, -1.591288e-003
1.700908e+003, -1.822211e-003
1.702836e+003, -9.096935e-004
1.704765e+003, -5.436614e-004
1.706693e+003, -5.420223e-004
1.708622e+003, -6.713644e-004
1.710550e+003, -6.518140e-004
1.712479e+003, -6.713942e-004
1.714407e+003, -8.319765e-004
1.716335e+003, -1.012728e-003
1.718264e+003, -8.356869e-004
1.720192e+003, -3.367811e-004
1.722121e+003, -9.423494e-005
1.724049e+003, -6.556511e-005
1.725978e+003, -8.931756e-005
1.727906e+003, -8.150935e-005
1.729835e+003, -7.314980e-005
1.731763e+003, -3.345460e-004
1.733692e+003, -1.115188e-003
1.735620e+003, -8.943379e-004
1.737549e+003, -4.861504e-004
1.739477e+003, -7.778257e-004
1.741406e+003, -9.497255e-004
1.743334e+003, -9.974986e-004
1.745262e+003, -1.126349e-003
1.747191e+003, -1.251072e-003
1.749119e+003, -1.246870e-003
1.751048e+003, -1.366422e-003
1.752976e+003, -9.283423e-004
1.754905e+003, -3.900081e-004
1.756833e+003, -4.066229e-004
1.758762e+003, -4.273653e-004
1.760690e+003, -5.234480e-004
1.762619e+003, -6.594956e-004
1.764547e+003, -3.730506e-004
1.766476e+003, -3.099442e-004
1.768404e+003, -4.968792e-004
1.770333e+003, -6.120950e-004
1.772261e+003, -8.441508e-004
1.774189e+003, -5.913079e-004
1.776118e+003, -2.573729e-004
1.778046e+003, -1.714230e-004
1.779975e+003, -2.759695e-005
1.781903e+003, 1.585484e-005
1.783832e+003, -1.417249e-004
1.785760e+003, 9.807944e-005
1.787689e+003, 2.470613e-004
1.789617e+003, 2.831221e-007
1.791546e+003, -3.781170e-004
1.793474e+003, -1.207739e-004
1.795403e+003, 1.637936e-004
1.797331e+003, -1.367182e-004
1.799260e+003, -1.606643e-004
1.801188e+003, 1.931190e-005
1.803116e+003, 3.693998e-005
1.805045e+003, 1.326203e-004
1.806973e+003, 4.069507e-005
1.808902e+003, -2.289712e-004
1.810830e+003, -4.174858e-004
1.812759e+003, -3.191680e-004
1.814687e+003, -1.832247e-004
1.816616e+003, -2.566576e-004
1.818544e+003, -7.043034e-004
1.820473e+003, -7.208884e-004
1.822401e+003, -2.893209e-004
1.824330e+003, -3.638864e-004
1.826258e+003, -5.537271e-004
1.828187e+003, -6.739050e-004
1.830115e+003, -6.196350e-004
1.832043e+003, -4.702955e-004
1.833972e+003, -4.323274e-004
1.835900e+003, -7.850528e-004
1.837829e+003, -8.405000e-004
1.839757e+003, -3.996789e-004
1.841686e+003, -5.928278e-004
1.843614e+003, -1.052707e-003
1.845543e+003, -1.316175e-003
1.847471e+003, -1.118079e-003
1.849400e+003, -6.984323e-004
1.851328e+003, -5.766302e-004
1.853257e+003, -6.620586e-004
1.855185e+003, -6.167591e-004
1.857114e+003, -7.229000e-004
1.859042e+003, -8.205026e-004
1.860970e+003, -9.326786e-004
1.862899e+003, -7.352978e-004
1.864827e+003, -6.223023e-004
1.866756e+003, -7.208586e-004
1.868684e+003, -8.819252e-004
1.870613e+003, -5.856603e-004
1.872541e+003, -5.324036e-004
1.874470e+003, -1.325607e-004
1.876398e+003, -5.232245e-004
1.878327e+003, -6.716698e-004
1.880255e+003, -2.479106e-004
1.882184e+003, -3.390163e-004
1.884112e+003, -5.508065e-004
1.886041e+003, -8.619428e-004
1.887969e+003, -6.591976e-004
1.889897e+003, -4.138201e-004
1.891826e+003, -6.868094e-004
1.893754e+003, -1.061767e-003
1.895683e+003, -1.253814e-003
1.897611e+003, -6.593168e-004
1.899540e+003, 2.378225e-005
1.901468e+003, -1.438260e-004
1.903397e+003, -2.922863e-004
1.905325e+003, -4.575104e-004
1.907254e+003, -1.170635e-003
1.909182e+003, -7.995069e-004
1.911111e+003, -1.874864e-004
1.913039e+003, -6.079525e-004
1.914968e+003, -7.629097e-004
1.916896e+003, -4.574507e-004
1.918824e+003, -9.645671e-004
1.920753e+003, -1.718611e-003
1.922681e+003, -2.032191e-003
1.924610e+003, -1.550391e-003
1.926538e+003, -1.718223e-003
1.928467e+003, -2.074301e-003
1.930395e+003, -1.422897e-003
1.932324e+003, -9.269863e-004
1.934252e+003, -1.328766e-003
1.936181e+003, -1.545176e-003
1.938109e+003, -1.392454e-003
1.940038e+003, -1.532227e-003
1.941966e+003, -2.887800e-003
1.943895e+003, -3.266647e-003
1.945823e+003, -2.813324e-003
1.947751e+003, -2.561316e-003
1.949680e+003, -2.196357e-003
1.951608e+003, -2.081066e-003
1.953537e+003, -2.019510e-003
1.955465e+003, -3.285527e-003
1.957394e+003, -4.583195e-003
1.959322e+003, -5.334616e-003
1.961251e+003, -5.757168e-003
1.963179e+003, -5.454913e-003
1.965108e+003, -4.728258e-003
1.967036e+003, -4.804432e-003
1.968965e+003, -5.671978e-003
1.970893e+003, -5.009055e-003
1.972822e+003, -5.079821e-003
1.974750e+003, -5.694762e-003
1.976678e+003, -4.865289e-003
1.978607e+003, -2.376020e-003
1.980535e+003, -2.650112e-003
1.982464e+003, -3.295302e-003
1.984392e+003, -4.157618e-003
1.986321e+003, -4.666418e-003
1.988249e+003, -4.512787e-003
1.990178e+003, -4.234940e-003
1.992106e+003, -3.679574e-003
1.994035e+003, -3.072500e-003
1.995963e+003, -3.839731e-003
1.997892e+003, -4.738912e-003
1.999820e+003, -4.848763e-003
2.001749e+003, -5.732551e-003
2.003677e+003, -5.917653e-003
2.005605e+003, -5.792156e-003
2.007534e+003, -5.537450e-003
2.009462e+003, -5.717769e-003
2.011391e+003, -6.274998e-003
2.013319e+003, -6.333038e-003
2.015248e+003, -5.673558e-003
2.017176e+003, -6.110519e-003
2.019105e+003, -6.943509e-003
2.021033e+003, -7.994995e-003
2.022962e+003, -8.289725e-003
2.024890e+003, -7.253975e-003
2.026819e+003, -6.799743e-003
2.028747e+003, -6.855622e-003
2.030676e+003, -6.895587e-003
2.032604e+003, -6.503806e-003
2.034532e+003, -5.246162e-003
2.036461e+003, -3.949672e-003
2.038389e+003, -4.054099e-003
2.040318e+003, -4.387274e-003
2.042246e+003, -4.732803e-003
2.044175e+003, -3.779247e-003
2.046103e+003, -4.254311e-003
2.048032e+003, -5.617633e-003
2.049960e+003, -5.115330e-003
2.051889e+003, -4.498109e-003
2.053817e+003, -4.266679e-003
2.055746e+003, -3.723159e-003
2.057674e+003, -3.170207e-003
2.059603e+003, -2.975091e-003
2.061531e+003, -3.489241e-003
2.063459e+003, -3.687248e-003
2.065388e+003, -3.053308e-003
2.067316e+003, -2.980143e-003
2.069245e+003, -3.625631e-003
2.071173e+003, -3.979087e-003
2.073102e+003, -3.967181e-003
2.075030e+003, -4.086196e-003
2.076959e+003, -3.894955e-003
2.078887e+003, -3.209710e-003
2.080816e+003, -3.040299e-003
2.082744e+003, -3.095165e-003
2.084673e+003, -3.238142e-003
2.086601e+003, -3.352076e-003
2.088530e+003, -2.832055e-003
2.090458e+003, -3.739372e-003
2.092386e+003, -5.334407e-003
2.094315e+003, -4.889548e-003
2.096243e+003, -3.465742e-003
2.098172e+003, -2.536327e-003
2.100100e+003, -2.813131e-003
2.102029e+003, -3.003970e-003
2.103957e+003, -2.668440e-003
2.105886e+003, -3.159896e-003
2.107814e+003, -3.900617e-003
2.109743e+003, -3.412247e-003
2.111671e+003, -2.393603e-003
2.113600e+003, -2.220050e-003
2.115528e+003, -3.283784e-003
2.117457e+003, -3.817916e-003
2.119385e+003, -3.738627e-003
2.121313e+003, -3.536180e-003
2.123242e+003, -3.817841e-003
2.125170e+003, -4.110038e-003
2.127099e+003, -5.271420e-003
2.129027e+003, -5.673841e-003
2.130956e+003, -6.380722e-003
2.132884e+003, -7.256582e-003
2.134813e+003, -6.831378e-003
2.136741e+003, -7.222190e-003
2.138670e+003, -7.716209e-003
2.140598e+003, -6.705135e-003
2.142527e+003, -6.878778e-003
2.144455e+003, -8.737683e-003
2.146384e+003, -9.339020e-003
2.148312e+003, -8.290470e-003
2.150240e+003, -8.261070e-003
2.152169e+003, -8.792102e-003
2.154097e+003, -9.973481e-003
2.156026e+003, -1.135735e-002
2.157954e+003, -1.059364e-002
2.159883e+003, -7.973492e-003
2.161811e+003, -6.324351e-003
2.163740e+003, -5.520955e-003
2.165668e+003, -5.417585e-003
2.167597e+003, -5.780071e-003
2.169525e+003, -6.295279e-003
2.171454e+003, -6.331757e-003
2.173382e+003, -6.936044e-003
2.175311e+003, -6.359547e-003
2.177239e+003, -5.808815e-003
2.179167e+003, -6.397426e-003
2.181096e+003, -5.497754e-003
2.183024e+003, -4.062116e-003
2.184953e+003, -5.003333e-003
2.186881e+003, -6.103128e-003
2.188810e+003, -5.254433e-003
2.190738e+003, -4.891649e-003
2.192667e+003, -4.783526e-003
2.194595e+003, -4.273757e-003
2.196524e+003, -4.784644e-003
2.198452e+003, -4.608512e-003
2.200381e+003, -4.653499e-003
2.202309e+003, -5.437240e-003
2.204238e+003, -5.560249e-003
2.206166e+003, -4.914001e-003
2.208094e+003, -4.947618e-003
2.210023e+003, -4.495561e-003
2.211951e+003, -3.580436e-003
2.213880e+003, -4.324868e-003
2.215808e+003, -4.794419e-003
2.217737e+003, -4.788205e-003
2.219665e+003, -3.996313e-003
2.221594e+003, -2.819359e-003
2.223522e+003, -2.790481e-003
2.225451e+003, -3.255516e-003
2.227379e+003, -4.095688e-003
2.229308e+003, -3.375292e-003
2.231236e+003, -3.745571e-003
2.233165e+003, -4.364908e-003
2.235093e+003, -3.891796e-003
2.237021e+003, -3.969833e-003
2.238950e+003, -3.314480e-003
2.240878e+003, -2.998248e-003
2.242807e+003, -2.788931e-003
2.244735e+003, -1.947492e-003
2.246664e+003, -2.768651e-003
2.248592e+003, -3.248900e-003
2.250521e+003, -2.686113e-003
2.252449e+003, -3.429681e-003
2.254378e+003, -3.375560e-003
2.256306e+003, -2.892420e-003
2.258235e+003, -2.817348e-003
2.260163e+003, -3.409043e-003
2.262092e+003, -3.747553e-003
2.264020e+003, -3.367797e-003
2.265948e+003, -3.013968e-003
2.267877e+003, -2.449229e-003
2.269805e+003, -2.149984e-003
2.271734e+003, -1.385093e-003
2.273662e+003, -1.463071e-003
2.275591e+003, -1.966909e-003
2.277519e+003, -1.661316e-003
2.279448e+003, -1.419380e-003
2.281376e+003, -7.691234e-004
2.283305e+003, -1.213104e-004
2.285233e+003, -5.364418e-005
2.287162e+003, 8.699298e-005
2.289090e+003, -2.904832e-004
2.291019e+003, -6.724447e-004
2.292947e+003, -6.648749e-004
2.294875e+003, -8.923262e-004
2.296804e+003, -7.527024e-004
2.298732e+003, -5.315840e-004
2.300661e+003, -8.378923e-004
2.302589e+003, -1.103684e-003
2.304518e+003, -7.243752e-004
2.306446e+003, -3.210902e-004
2.308375e+003, -3.265291e-004
2.310303e+003, -5.073994e-004
2.312232e+003, -6.016493e-004
2.314160e+003, -4.368275e-004
2.316089e+003, -4.128367e-004
2.318017e+003, -5.256832e-004
2.319946e+003, 2.291203e-004
2.321874e+003, 1.392528e-003
2.323802e+003, 1.654431e-003
2.325731e+003, 4.664660e-004
2.327659e+003, -5.836785e-004
2.329588e+003, -7.674098e-004
2.331516e+003, -4.602373e-004
2.333445e+003, -4.967153e-004
2.335373e+003, -7.309169e-004
2.337302e+003, -6.172359e-004
2.339230e+003, -7.077605e-004
2.341159e+003, -4.357398e-004
2.343087e+003, -5.871058e-005
2.345016e+003, -3.093779e-004
2.346944e+003, -8.883625e-004
2.348873e+003, -9.527504e-004
2.350801e+003, -8.420646e-004
2.352729e+003, -3.956705e-004
2.354658e+003, 7.270277e-005
2.356586e+003, 2.343804e-004
2.358515e+003, 5.884469e-005
2.360443e+003, 1.264960e-004
2.362372e+003, 5.142689e-004
2.364300e+003, 3.080070e-004
2.366229e+003, -1.352429e-004
2.368157e+003, -3.248602e-004
2.370086e+003, 2.320260e-004
2.372014e+003, 2.982020e-004
2.373943e+003, -3.387332e-004
2.375871e+003, -3.768653e-004
2.377800e+003, 4.109740e-004
2.379728e+003, 4.326254e-004
2.381656e+003, -2.066791e-005
2.383585e+003, -2.171844e-004
2.385513e+003, -5.565882e-004
2.387442e+003, -3.189743e-004
2.389370e+003, 2.158135e-004
2.391299e+003, 4.017651e-004
2.393227e+003, 2.780557e-005
2.395156e+003, -4.443973e-004
2.397084e+003, -8.870661e-005
2.399013e+003, 3.856421e-005
2.400941e+003, -5.290657e-004
2.402870e+003, 2.439320e-005
2.404798e+003, 6.823242e-004
2.406727e+003, 4.220456e-004
2.408655e+003, 4.366040e-005
2.410583e+003, -2.022088e-005
2.412512e+003, 1.993179e-004
2.414440e+003, 9.561032e-004
2.416369e+003, 9.487718e-004
2.418297e+003, 7.357597e-004
2.420226e+003, 6.466061e-004
2.422154e+003, 5.000830e-004
2.424083e+003, 3.269166e-004
2.426011e+003, -2.620667e-004
2.427940e+003, -5.787313e-004
2.429868e+003, -4.810989e-004
2.431797e+003, -8.095056e-004
2.433725e+003, -8.195639e-004
2.435654e+003, -6.217510e-004
2.437582e+003, -3.272891e-004
2.439510e+003, 7.976592e-005
2.441439e+003, -3.822148e-005
2.443367e+003, -4.413724e-004
2.445296e+003, -2.288073e-004
2.447224e+003, 1.330674e-005
2.449153e+003, 2.990961e-004
2.451081e+003, 5.660951e-005
2.453010e+003, -7.703304e-004
2.454938e+003, -5.909801e-004
2.456867e+003, -9.596348e-006
2.458795e+003, 1.221448e-004
2.460724e+003, -3.789365e-005
2.462652e+003, -2.988279e-004
2.464581e+003, -5.548447e-004
2.466509e+003, -9.490848e-004
2.468438e+003, -1.417354e-003
2.470366e+003, -1.120940e-003
2.472294e+003, -4.851818e-004
2.474223e+003, -2.979189e-004
2.476151e+003, 1.051128e-004
2.478080e+003, -1.185685e-004
2.480008e+003, -5.812347e-004
2.481937e+003, -6.477088e-004
2.483865e+003, -8.505732e-004
2.485794e+003, -3.429353e-004
2.487722e+003, -1.132190e-004
2.489651e+003, -4.456043e-004
2.491579e+003, -2.134293e-004
2.493508e+003, -4.405677e-004
2.495436e+003, -7.315725e-004
2.497365e+003, -5.783886e-004
2.499293e+003, -5.381107e-004
2.501221e+003, -2.060533e-004
2.503150e+003, -6.860495e-005
2.505078e+003, 3.753603e-005
2.507007e+003, -4.198849e-004
2.508935e+003, -4.201233e-004
2.510864e+003, -4.398823e-004
2.512792e+003, -4.951805e-004
2.514721e+003, -8.148849e-004
2.516649e+003, -6.117076e-004
2.518578e+003, 4.191697e-005
2.520506e+003, 2.873391e-004
2.522435e+003, -1.971424e-005
2.524363e+003, -5.610138e-004
2.526292e+003, -9.853691e-004
2.528220e+003, -3.774613e-004
2.530148e+003, 1.523048e-004
2.532077e+003, 1.227856e-004
2.534005e+003, 3.953427e-004
2.535934e+003, 7.515103e-004
2.537862e+003, 4.604459e-005
2.539791e+003, -1.013353e-003
2.541719e+003, -1.173466e-003
2.543648e+003, -8.315295e-004
2.545576e+003, -1.555234e-004
2.547505e+003, 4.923046e-004
2.549433e+003, -2.373457e-004
2.551362e+003, -7.411391e-004
2.553290e+003, -3.431886e-004
2.555219e+003, -9.864569e-005
2.557147e+003, -3.267825e-004
2.559075e+003, -3.097653e-004
2.561004e+003, -3.608912e-004
2.562932e+003, -1.265556e-004
2.564861e+003, 1.952499e-004
2.566789e+003, -9.898841e-005
2.568718e+003, -7.045865e-004
2.570646e+003, -7.933229e-004
2.572575e+003, -5.984008e-004
2.574503e+003, -5.669445e-004
2.576432e+003, -7.981658e-004
2.578360e+003, -7.151365e-004
2.580289e+003, -5.272925e-004
2.582217e+003, -3.390610e-004
2.584146e+003, -8.171648e-004
2.586074e+003, -1.539439e-003
2.588002e+003, -1.815662e-003
2.589931e+003, -1.213863e-003
2.591859e+003, -1.217842e-003
2.593788e+003, -1.275867e-003
2.595716e+003, -1.027882e-003
2.597645e+003, -8.516163e-004
2.599573e+003, -1.062497e-003
2.601502e+003, -6.596446e-004
2.603430e+003, -3.751069e-004
2.605359e+003, -8.626282e-004
2.607287e+003, -1.319021e-003
2.609216e+003, -1.096860e-003
2.611144e+003, -7.582307e-004
2.613073e+003, -1.124650e-003
2.615001e+003, -1.035795e-003
2.616929e+003, -5.617291e-004
2.618858e+003, -1.073509e-003
2.620786e+003, -1.326233e-003
2.622715e+003, -1.252115e-003
2.624643e+003, -1.239777e-003
2.626572e+003, -8.484125e-004
2.628500e+003, -7.905066e-004
2.630429e+003, -1.217186e-003
2.632357e+003, -1.322761e-003
2.634286e+003, -6.806105e-004
2.636214e+003, 8.441508e-005
2.638143e+003, 3.002137e-004
2.640071e+003, -5.236864e-004
2.642000e+003, -7.824898e-004
2.643928e+003, -5.372018e-004
2.645856e+003, -4.292428e-004
2.647785e+003, 2.010018e-004
2.649713e+003, -2.349913e-005
2.651642e+003, -3.759712e-004
2.653570e+003, 2.672970e-004
2.655499e+003, 6.814152e-004
2.657427e+003, 7.539988e-006
2.659356e+003, -3.181696e-004
2.661284e+003, -2.622604e-005
2.663213e+003, -1.062453e-005
2.665141e+003, -5.796552e-006
2.667070e+003, -2.177805e-004
2.668998e+003, -8.575469e-004
2.670927e+003, -6.935596e-004
2.672855e+003, -1.988560e-004
2.674783e+003, 1.427531e-005
2.676712e+003, -3.469139e-004
2.678640e+003, -2.826452e-004
2.680569e+003, 4.832894e-004
2.682497e+003, 2.696365e-004
2.684426e+003, -3.058761e-004
2.686354e+003, -4.216135e-004
2.688283e+003, -2.796054e-004
2.690211e+003, -1.978874e-004
2.692140e+003, 5.029142e-005
2.694068e+003, 2.409518e-005
2.695997e+003, -2.525300e-004
2.697925e+003, -1.443624e-004
2.699854e+003, 7.601082e-005
2.701782e+003, -7.399917e-005
2.703710e+003, -5.502999e-005
2.705639e+003, 1.111031e-004
2.707567e+003, 2.422929e-004
2.709496e+003, 3.943443e-004
2.711424e+003, 4.407465e-004
2.713353e+003, 5.290061e-004
2.715281e+003, 3.814101e-004
2.717210e+003, 2.491474e-004
2.719138e+003, 5.573034e-005
2.721067e+003, 1.530349e-004
2.722995e+003, 3.482997e-004
2.724924e+003, 2.604723e-004
2.726852e+003, -2.649426e-005
2.728781e+003, 2.875924e-006
2.730709e+003, -3.675371e-004
2.732637e+003, -5.312115e-004
2.734566e+003, -4.728585e-004
2.736494e+003, -5.301088e-004
2.738423e+003, -1.213700e-004
2.740351e+003, 1.069307e-004
2.742280e+003, -7.140636e-005
2.744208e+003, -2.822280e-005
2.746137e+003, -2.376586e-004
2.748065e+003, -4.654229e-004
2.749994e+003, -4.735738e-004
2.751922e+003, -3.455430e-004
2.753851e+003, -4.440248e-004
2.755779e+003, -6.781220e-004
2.757708e+003, -6.154478e-004
2.759636e+003, -3.093928e-004
2.761564e+003, -4.744530e-005
2.763493e+003, -7.505715e-005
2.765421e+003, -2.978295e-004
2.767350e+003, -2.522320e-004
2.769278e+003, -1.645237e-004
2.771207e+003, 1.372397e-005
2.773135e+003, -1.754165e-004
2.775064e+003, -6.399900e-004
2.776992e+003, -5.608499e-004
2.778921e+003, -6.864071e-004
2.780849e+003, -7.182211e-004
2.782778e+003, -3.400594e-004
2.784706e+003, -8.053631e-004
2.786635e+003, -8.250326e-004
2.788563e+003, -4.637390e-004
2.790491e+003, -3.311932e-004
2.792420e+003, -3.492832e-005
2.794348e+003, -3.956109e-004
2.796277e+003, -1.020297e-003
2.798205e+003, -9.865612e-004
2.800134e+003, -6.879121e-004
2.802062e+003, -8.054376e-004
2.803991e+003, -7.815361e-004
2.805919e+003, -1.028761e-003
2.807848e+003, -1.086786e-003
2.809776e+003, -7.351637e-004
2.811705e+003, -3.238469e-004
2.813633e+003, -5.539656e-004
2.815562e+003, -8.194298e-004
2.817490e+003, -4.903078e-004
2.819418e+003, -1.299828e-004
2.821347e+003, -4.441142e-004
2.823275e+003, -1.006708e-003
2.825204e+003, -8.851737e-004
2.827132e+003, -3.299415e-004
2.829061e+003, -1.156330e-004
2.830989e+003, -3.963411e-004
2.832918e+003, -6.285310e-004
2.834846e+003, -3.832579e-004
2.836775e+003, -3.598034e-004
2.838703e+003, -6.722957e-004
2.840632e+003, -6.797016e-004
2.842560e+003, -2.271533e-004
2.844489e+003, 3.208667e-004
2.846417e+003, 4.668534e-004
2.848345e+003, 2.970994e-004
2.850274e+003, 5.361438e-005
2.852202e+003, -3.491789e-004
2.854131e+003, -1.512468e-004
2.856059e+003, 1.600236e-004
2.857988e+003, 9.548664e-005
2.859916e+003, -1.905859e-005
2.861845e+003, 1.627207e-004
2.863773e+003, 1.743287e-004
2.865702e+003, -9.527802e-005
2.867630e+003, -5.592555e-004
2.869559e+003, -7.538795e-004
2.871487e+003, -6.422102e-004
2.873416e+003, -6.535798e-004
2.875344e+003, -8.107126e-004
2.877272e+003, -3.702193e-004
2.879201e+003, -2.146065e-004
2.881129e+003, -6.281734e-004
2.883058e+003, -8.346289e-004
2.884986e+003, -6.081164e-004
2.886915e+003, -9.704679e-004
2.888843e+003, -1.107424e-003
2.890772e+003, -7.204264e-004
2.892700e+003, -7.151961e-004
2.894629e+003, -1.107320e-003
2.896557e+003, -1.002729e-003
2.898486e+003, -1.008406e-003
2.900414e+003, -8.812994e-004
2.902343e+003, -8.490086e-004
2.904271e+003, -4.510283e-004
2.906199e+003, -2.228320e-004
2.908128e+003, -2.895743e-004
2.910056e+003, -8.379519e-004
2.911985e+003, -9.059459e-004
2.913913e+003, -8.183271e-004
2.915842e+003, -5.019009e-004
2.917770e+003, -3.200173e-004
2.919699e+003, -1.133397e-003
2.921627e+003, -9.922385e-004
2.923556e+003, -9.472370e-004
2.925484e+003, -1.241550e-003
2.927413e+003, -6.840527e-004
2.929341e+003, -5.635619e-004
2.931270e+003, -7.286072e-004
2.933198e+003, -1.160413e-003
2.935126e+003, -1.184806e-003
2.937055e+003, -5.886704e-004
2.938983e+003, 3.587455e-004
2.940912e+003, 2.370477e-004
2.942840e+003, -1.074374e-005
2.944769e+003, -1.880974e-004
2.946697e+003, -3.303289e-004
2.948626e+003, -4.515052e-006
2.950554e+003, 3.239512e-004
2.952483e+003, 4.298836e-004
2.954411e+003, 6.724298e-004
2.956340e+003, 6.971508e-004
2.958268e+003, 8.020848e-004
2.960197e+003, 5.086213e-004
2.962125e+003, 7.721335e-004
2.964053e+003, 1.326978e-003
2.965982e+003, 1.672432e-003
2.967910e+003, 1.351401e-003
2.969839e+003, 9.781569e-004
2.971767e+003, 2.736151e-004
2.973696e+003, -9.141713e-004
2.975624e+003, -1.580060e-003
2.977553e+003, -1.006782e-003
2.979481e+003, -9.888709e-004
2.981410e+003, -9.895712e-004
2.983338e+003, -8.088648e-004
2.985267e+003, -2.941489e-004
2.987195e+003, -1.033396e-004
2.989124e+003, -1.358569e-003
2.991052e+003, -1.763493e-003
2.992980e+003, -1.037180e-003
2.994909e+003, -1.265496e-003
2.996837e+003, -1.989886e-003
2.998766e+003, -1.674905e-003
3.000694e+003, -7.118285e-004
3.002623e+003, -8.262098e-004
3.004551e+003, -7.469505e-004
3.006480e+003, -4.039109e-004
3.008408e+003, 2.586842e-005
3.010337e+003, 4.329681e-004
3.012265e+003, -2.246052e-004
3.014194e+003, -1.234338e-003
3.016122e+003, -8.753687e-004
3.018051e+003, -1.728684e-004
3.019979e+003, 6.221533e-004
3.021907e+003, 1.224890e-003
3.023836e+003, 1.011595e-003
3.025764e+003, 4.911721e-004
3.027693e+003, 2.834797e-004
3.029621e+003, 2.961010e-004
3.031550e+003, 2.758205e-005
3.033478e+003, -5.784631e-005
3.035407e+003, 2.641976e-004
3.037335e+003, 4.546195e-004
3.039264e+003, 6.237179e-004
3.041192e+003, -2.069771e-005
3.043121e+003, -4.779100e-004
3.045049e+003, -5.545318e-004
3.046978e+003, -6.138980e-004
3.048906e+003, 2.210736e-004
3.050834e+003, 2.695173e-004
3.052763e+003, -9.291619e-004
3.054691e+003, -6.490946e-005
3.056620e+003, 7.942319e-004
3.058548e+003, -1.846254e-005
3.060477e+003, 1.495183e-004
3.062405e+003, 3.421903e-004
3.064334e+003, -8.694828e-005
3.066262e+003, -1.600236e-004
3.068191e+003, -3.258139e-004
3.070119e+003, 1.034141e-004
3.072048e+003, 4.393458e-004
3.073976e+003, 3.072023e-004
3.075905e+003, 2.858192e-004
3.077833e+003, 4.675090e-004
3.079761e+003, 6.469190e-004
3.081690e+003, 8.837134e-004
3.083618e+003, 6.604642e-004
3.085547e+003, -1.516491e-004
3.087475e+003, -8.439720e-004
3.089404e+003, -6.801784e-004
3.091332e+003, -5.358458e-004
3.093261e+003, -8.347332e-004
3.095189e+003, -8.575916e-004
3.097118e+003, -1.326233e-003
3.099046e+003, -1.146153e-003
3.100975e+003, -8.723736e-004
3.102903e+003, -5.827993e-004
3.104832e+003, -1.638383e-004
3.106760e+003, -4.457533e-004
3.108688e+003, -7.428080e-004
3.110617e+003, -1.674145e-004
3.112545e+003, -5.437732e-004
3.114474e+003, -1.618579e-003
3.116402e+003, -1.642808e-003
3.118331e+003, -6.376654e-004
3.120259e+003, 1.031160e-004
3.122188e+003, -8.078068e-004
3.124116e+003, -7.612556e-004
3.126045e+003, 3.328174e-004
3.127973e+003, 6.775856e-004
3.129902e+003, -4.047304e-004
3.131830e+003, -7.175952e-004
3.133759e+003, -5.496293e-004
3.135687e+003, -5.411357e-004
3.137615e+003, -3.587604e-004
3.139544e+003, -3.229231e-004
3.141472e+003, -4.420280e-004
3.143401e+003, -4.211813e-004
3.145329e+003, -9.479076e-004
3.147258e+003, -7.789433e-004
3.149186e+003, -2.847016e-004
3.151115e+003, 9.819865e-005
3.153043e+003, 5.435944e-004
3.154972e+003, 1.859069e-004
3.156900e+003, 2.390444e-004
3.158829e+003, 1.271203e-003
3.160757e+003, 1.155064e-003
3.162686e+003, 1.367450e-003
3.164614e+003, 1.657441e-003
3.166542e+003, 1.094356e-003
3.168471e+003, 6.137341e-004
3.170399e+003, 1.461357e-004
3.172328e+003, -4.042536e-004
3.174256e+003, 8.209050e-005
3.176185e+003, 2.232790e-004
3.178113e+003, -9.536743e-006
3.180042e+003, 3.986508e-004
3.181970e+003, 5.436540e-004
3.183899e+003, 5.325973e-004
3.185827e+003, 2.453029e-004
3.187756e+003, 1.702756e-004
3.189684e+003, -3.157258e-004
3.191613e+003, -8.530915e-004
3.193541e+003, -7.431656e-004
3.195469e+003, 2.233833e-004
3.197398e+003, 8.012652e-004
3.199326e+003, 1.273155e-003
3.201255e+003, 7.661432e-004
3.203183e+003, -2.965182e-004
3.205112e+003, -1.384169e-004
3.207040e+003, 4.730374e-004
3.208969e+003, 1.350433e-003
3.210897e+003, 1.150802e-003
3.212826e+003, -6.444752e-004
3.214754e+003, -7.222742e-004
3.216683e+003, 4.346073e-004
3.218611e+003, -4.218519e-005
3.220540e+003, -3.264993e-004
3.222468e+003, 3.595650e-005
3.224396e+003, 3.313422e-004
3.226325e+003, 9.648502e-005
3.228253e+003, 4.673451e-004
3.230182e+003, -9.003282e-005
3.232110e+003, -2.224594e-004
3.234039e+003, -1.808107e-004
3.235967e+003, -2.629012e-004
3.237896e+003, -2.762377e-004
3.239824e+003, -3.558993e-004
3.241753e+003, -1.377150e-003
3.243681e+003, -1.812473e-003
3.245610e+003, -1.041859e-003
3.247538e+003, -9.262115e-004
3.249467e+003, -9.891838e-004
3.251395e+003, -3.008097e-004
3.253323e+003, 6.160289e-004
3.255252e+003, 5.403012e-004
3.257180e+003, -1.798272e-004
3.259109e+003, 1.966506e-004
3.261037e+003, 2.195537e-004
3.262966e+003, -2.822280e-004
3.264894e+003, -8.463860e-005
3.266823e+003, -5.164146e-004
3.268751e+003, -1.392514e-004
3.270680e+003, 3.962219e-005
3.272608e+003, -9.227246e-004
3.274537e+003, -1.447469e-003
3.276465e+003, -1.664236e-003
3.278394e+003, -1.386940e-003
3.280322e+003, -1.229450e-003
3.282250e+003, -1.498640e-003
3.284179e+003, -1.334772e-003
3.286107e+003, -5.737245e-004
3.288036e+003, -1.016065e-003
3.289964e+003, -1.500487e-003
3.291893e+003, -1.503080e-003
3.293821e+003, -9.605587e-004
3.295750e+003, -8.391738e-004
3.297678e+003, -8.093566e-004
3.299607e+003, -1.716331e-003
3.301535e+003, -2.462730e-003
3.303464e+003, -1.493767e-003
3.305392e+003, -1.039043e-003
3.307321e+003, -8.398741e-004
3.309249e+003, -1.072899e-003
3.311177e+003, -9.300113e-004
3.313106e+003, -7.441640e-004
3.315034e+003, -5.794615e-004
3.316963e+003, -8.338690e-004
3.318891e+003, -9.701699e-004
3.320820e+003, -1.009971e-003
3.322748e+003, -9.814948e-004
3.324677e+003, -4.961491e-004
3.326605e+003, -8.023977e-004
3.328534e+003, -4.937351e-004
3.330462e+003, -4.623085e-004
3.332391e+003, -1.118347e-003
3.334319e+003, -1.365095e-003
3.336248e+003, -6.955564e-004
3.338176e+003, -1.816154e-004
3.340104e+003, 8.486360e-004
3.342033e+003, 1.746386e-003
3.343961e+003, 1.044884e-003
3.345890e+003, 7.818639e-005
3.347818e+003, -4.392862e-005
3.349747e+003, 3.740937e-004
3.351675e+003, 1.775771e-004
3.353604e+003, -1.024842e-003
3.355532e+003, -1.073390e-003
3.357461e+003, -2.888143e-004
3.359389e+003, 1.653135e-004
3.361318e+003, 3.494620e-004
3.363246e+003, 9.952784e-004
3.365175e+003, 1.188114e-003
3.367103e+003, -1.485050e-004
3.369031e+003, -5.705208e-004
3.370960e+003, -2.721846e-004
3.372888e+003, -8.603930e-005
3.374817e+003, 2.335757e-004
3.376745e+003, 3.738701e-004
3.378674e+003, -2.753288e-004
3.380602e+003, -4.847348e-004
3.382531e+003, 8.115321e-004
3.384459e+003, 1.255542e-003
3.386388e+003, -2.427399e-005
3.388316e+003, -2.882332e-004
3.390245e+003, 2.261996e-005
3.392173e+003, -1.206249e-003
3.394102e+003, -1.823321e-003
3.396030e+003, -2.035946e-004
3.397958e+003, 4.984140e-004
3.399887e+003, -1.150668e-004
3.401815e+003, -3.137589e-004
3.403744e+003, -4.049391e-004
3.405672e+003, -3.006607e-004
3.407601e+003, -3.260523e-004
3.409529e+003, -2.880394e-005
3.411458e+003, -7.315427e-004
3.413386e+003, -8.958876e-004
3.415315e+003, -5.525351e-004
3.417243e+003, -5.869716e-004
3.419172e+003, -4.853308e-004
3.421100e+003, -7.046759e-004
3.423029e+003, -6.346405e-004
3.424957e+003, 1.337677e-004
3.426885e+003, 4.843026e-004
3.428814e+003, -3.113747e-004
3.430742e+003, -2.396241e-003
3.432671e+003, -1.658663e-003
3.434599e+003, -7.688999e-005
3.436528e+003, 5.740821e-004
3.438456e+003, 1.028806e-003
3.440385e+003, 1.940101e-003
3.442313e+003, 2.678007e-003
3.444242e+003, 1.910955e-003
3.446170e+003, 8.440465e-004
3.448099e+003, 7.107705e-004
3.450027e+003, 7.881820e-004
3.451956e+003, 4.129559e-004
3.453884e+003, -1.150951e-003
3.455813e+003, -1.419514e-003
3.457741e+003, 1.441285e-003
3.459669e+003, 3.357083e-003
3.461598e+003, 2.284989e-003
3.463526e+003, 1.147091e-003
3.465455e+003, 2.491772e-004
3.467383e+003, 1.158118e-004
3.469312e+003, 4.357696e-004
3.471240e+003, 9.105355e-004
3.473169e+003, 7.701069e-004
3.475097e+003, -3.153682e-004
3.477026e+003, -1.004919e-003
3.478954e+003, -1.030102e-003
3.480883e+003, -6.795526e-004
3.482811e+003, -1.355827e-003
3.484740e+003, -1.411185e-003
3.486668e+003, -8.401126e-004
3.488596e+003, -9.910762e-005
3.490525e+003, -5.603731e-004
3.492453e+003, -1.211166e-003
3.494382e+003, -6.007552e-004
3.496310e+003, 4.077107e-004
3.498239e+003, 4.316717e-004
3.500167e+003, 8.157492e-004
3.502096e+003, 9.197593e-004
3.504024e+003, -9.872019e-004
3.505953e+003, -1.841873e-003
3.507881e+003, 5.399436e-004
3.509810e+003, 3.482699e-004
3.511738e+003, -7.428676e-004
3.513667e+003, -1.097828e-003
3.515595e+003, -2.091184e-003
3.517523e+003, -1.591727e-003
3.519452e+003, -4.179627e-004
3.521380e+003, 1.411736e-004
3.523309e+003, -7.876605e-004
3.525237e+003, -6.354004e-004
3.527166e+003, 2.683550e-004
3.529094e+003, 5.976111e-004
3.531023e+003, 5.720854e-004
3.532951e+003, -6.951690e-004
3.534880e+003, -8.016080e-004
3.536808e+003, 3.842860e-004
3.538737e+003, 4.958957e-004
3.540665e+003, 1.808256e-004
3.542594e+003, 8.056611e-004
3.544522e+003, -2.237409e-004
3.546450e+003, -5.200207e-004
3.548379e+003, 4.895478e-004
3.550307e+003, 1.737446e-003
3.552236e+003, 1.245543e-003
3.554164e+003, -3.726780e-004
3.556093e+003, 4.610419e-005
3.558021e+003, -1.215190e-004
3.559950e+003, -6.249547e-004
3.561878e+003, -1.565516e-004
3.563807e+003, 1.079872e-003
3.565735e+003, 3.545582e-004
3.567664e+003, 1.733005e-005
3.569592e+003, 3.066957e-004
3.571521e+003, 5.597621e-004
3.573449e+003, -7.264316e-005
3.575377e+003, -3.647208e-004
3.577306e+003, 1.099825e-003
3.579234e+003, 1.696795e-004
3.581163e+003, -1.009762e-003
3.583091e+003, 1.569241e-004
3.585020e+003, -4.162788e-004
3.586948e+003, -5.143285e-004
3.588877e+003, 9.796172e-004
3.590805e+003, 1.247928e-003
3.592734e+003, 1.993328e-004
3.594662e+003, -2.815276e-004
3.596591e+003, 6.696284e-004
3.598519e+003, 6.864816e-004
3.600448e+003, 4.216135e-004
3.602376e+003, 8.409321e-004
3.604304e+003, 6.702095e-004
3.606233e+003, 3.515333e-004
3.608161e+003, 1.219735e-003
3.610090e+003, 2.119780e-003
3.612018e+003, 9.922534e-004
3.613947e+003, 6.095171e-004
3.615875e+003, -3.507882e-004
3.617804e+003, -1.358554e-003
3.619732e+003, -6.528497e-004
3.621661e+003, -8.225441e-005
3.623589e+003, -1.502633e-004
3.625518e+003, -1.466677e-003
3.627446e+003, -2.799094e-003
3.629375e+003, -2.104446e-003
3.631303e+003, -1.328319e-003
3.633231e+003, -7.443428e-004
3.635160e+003, 5.860925e-004
3.637088e+003, 5.747527e-004
3.639017e+003, 1.469463e-003
3.640945e+003, 5.803704e-004
3.642874e+003, -8.928776e-004
3.644802e+003, -1.369029e-003
3.646731e+003, -1.280457e-003
3.648659e+003, -1.374692e-003
3.650588e+003, -2.128348e-003
3.652516e+003, -1.362264e-003
3.654445e+003, -6.714016e-004
3.656373e+003, -1.204535e-003
3.658302e+003, -4.744530e-004
3.660230e+003, 7.272363e-004
3.662158e+003, 1.129746e-003
3.664087e+003, 3.290772e-004
3.666015e+003, -6.702542e-004
3.667944e+003, -3.442168e-005
3.669872e+003, -1.000673e-003
3.671801e+003, -2.905726e-005
3.673729e+003, 1.685917e-004
3.675658e+003, -1.731724e-003
3.677586e+003, -2.637446e-003
3.679515e+003, -1.629621e-003
3.681443e+003, 7.881522e-004
3.683372e+003, 2.023250e-003
3.685300e+003, 7.818341e-004
3.687229e+003, -1.018286e-003
3.689157e+003, -1.738459e-003
3.691085e+003, -3.331900e-004
3.693014e+003, -4.398525e-004
3.694942e+003, -1.421571e-005
3.696871e+003, 4.853010e-004
3.698799e+003, 9.045899e-004
3.700728e+003, 1.794964e-003
3.702656e+003, 1.630574e-003
3.704585e+003, 1.508325e-003
3.706513e+003, 1.033843e-004
3.708442e+003, -8.292496e-004
3.710370e+003, -2.761483e-004
3.712299e+003, -1.749396e-004
3.714227e+003, 1.546443e-003
3.716156e+003, 1.225501e-003
3.718084e+003, -4.207194e-004
3.720012e+003, -1.752019e-003
3.721941e+003, -7.676184e-004
3.723869e+003, 3.533065e-004
3.725798e+003, -9.331107e-004
3.727726e+003, -2.177060e-003
3.729655e+003, -9.495616e-004
3.731583e+003, 4.103780e-005
3.733512e+003, -6.472170e-004
3.735440e+003, -6.014109e-005
3.737369e+003, 3.824234e-004
3.739297e+003, -7.487237e-004
3.741226e+003, -6.562769e-004
3.743154e+003, -2.164423e-003
3.745083e+003, -2.800077e-003
3.747011e+003, -2.155542e-003
3.748939e+003, -3.649205e-003
3.750868e+003, -2.719134e-003
3.752796e+003, -1.180470e-004
3.754725e+003, 7.256269e-004
3.756653e+003, -1.612008e-004
3.758582e+003, 4.994571e-004
3.760510e+003, -9.172857e-004
3.762439e+003, -1.348823e-003
3.764367e+003, -2.448857e-004
3.766296e+003, 1.063108e-003
3.768224e+003, 3.006250e-003
3.770153e+003, 1.854539e-003
3.772081e+003, 1.371086e-003
3.774010e+003, 5.699396e-004
3.775938e+003, 8.037984e-004
3.777866e+003, 9.906292e-004
3.779795e+003, -1.262844e-003
3.781723e+003, -1.770794e-003
3.783652e+003, -2.588332e-004
3.785580e+003, 6.132722e-004
3.787509e+003, -6.124079e-004
3.789437e+003, 1.588464e-004
3.791366e+003, 9.241700e-005
3.793294e+003, -1.391411e-003
3.795223e+003, -6.913245e-004
3.797151e+003, 6.758571e-004
3.799080e+003, -7.424355e-004
3.801008e+003, -2.454877e-003
3.802937e+003, 2.470613e-004
3.804865e+003, 7.483959e-004
3.806793e+003, 3.490448e-004
3.808722e+003, 2.880991e-004
3.810650e+003, -1.487136e-005
3.812579e+003, 7.028878e-004
3.814507e+003, -1.132399e-003
3.816436e+003, -1.534730e-003
3.818364e+003, 1.151860e-004
3.820293e+003, -1.715720e-003
3.822221e+003, -2.312422e-003
3.824150e+003, -2.595484e-004
3.826078e+003, -3.163517e-004
3.828007e+003, 8.630753e-005
3.829935e+003, -7.176399e-005
3.831864e+003, 3.431141e-004
3.833792e+003, 7.108748e-004
3.835720e+003, -1.504213e-003
3.837649e+003, -2.484918e-003
3.839577e+003, -2.394259e-003
3.841506e+003, -2.861381e-003
3.843434e+003, -1.369923e-003
3.845363e+003, -1.286447e-003
3.847291e+003, -1.336128e-003
3.849220e+003, -9.134412e-005
3.851148e+003, -2.008379e-003
3.853077e+003, -3.207535e-003
3.855005e+003, -1.134932e-003
3.856934e+003, 9.894967e-004
3.858862e+003, 9.503365e-004
3.860791e+003, -4.403591e-004
3.862719e+003, -6.465018e-004
3.864647e+003, 2.642870e-004
3.866576e+003, 1.360446e-003
3.868504e+003, -5.698502e-004
3.870433e+003, -7.460713e-004
3.872361e+003, 4.789829e-004
3.874290e+003, 8.387268e-004
3.876218e+003, 8.649528e-004
3.878147e+003, 1.534522e-004
3.880075e+003, -1.466006e-003
3.882004e+003, -1.369923e-003
3.883932e+003, -1.093745e-004
3.885861e+003, 1.170158e-003
3.887789e+003, 2.527863e-003
3.889718e+003, 1.350105e-003
3.891646e+003, -5.953014e-004
3.893574e+003, -7.126033e-004
3.895503e+003, -5.107820e-004
3.897431e+003, -7.427931e-004
3.899360e+003, -1.511872e-003
3.901288e+003, -1.903504e-003
3.903217e+003, -1.088381e-004
3.905145e+003, 1.580745e-003
3.907074e+003, 1.119941e-003
3.909002e+003, 1.475692e-003
3.910931e+003, 2.033055e-003
3.912859e+003, 9.877384e-004
3.914788e+003, -1.279771e-003
3.916716e+003, -1.212448e-003
3.918645e+003, 1.121551e-003
3.920573e+003, 1.675189e-003
3.922501e+003, 8.178055e-004
3.924430e+003, 1.168072e-003
3.926358e+003, 2.119362e-003
3.928287e+003, -6.264448e-004
3.930215e+003, -6.093383e-004
3.932144e+003, 1.171738e-003
3.934072e+003, 1.346678e-003
3.936001e+003, 3.060699e-004
3.937929e+003, -1.214862e-003
3.939858e+003, -1.354843e-003
3.941786e+003, -1.644552e-003
3.943715e+003, -9.592474e-004
3.945643e+003, -7.064641e-004
3.947572e+003, -6.809533e-004
3.949500e+003, 3.499091e-004
3.951428e+003, 2.027899e-003
3.953357e+003, 3.757298e-003
3.955285e+003, 3.538102e-003
3.957214e+003, 2.114117e-003
3.959142e+003, 8.035302e-004
3.961071e+003, -4.380941e-004
3.962999e+003, -2.328575e-003
3.964928e+003, -2.868861e-003
3.966856e+003, -1.957029e-003
3.968785e+003, -2.063006e-003
3.970713e+003, -1.581967e-003
3.972642e+003, -6.097555e-004
3.974570e+003, -2.119541e-003
3.976499e+003, -1.608223e-003
3.978427e+003, -4.356205e-004
3.980355e+003, -9.594560e-004
3.982284e+003, -1.861453e-003
3.984212e+003, -1.802206e-003
3.986141e+003, -7.880628e-004
3.988069e+003, -7.305741e-004
3.989998e+003, -4.011095e-004
3.991926e+003, 1.669526e-004
3.993855e+003, -6.737709e-004
3.995783e+003, -8.200705e-004
3.997712e+003, -1.330972e-004
3.999640e+003, -1.821816e-004
4.001569e+003, 0.000000e+000
##END=



