##NAMES=Cryolite
##RRUFFID=R050287
##IDEAL CHEMISTRY=Na_3_AlF_6_
##LOCALITY=Ivigtut, Greenland
##OWNER=RRUFF
##SOURCE=Marcus Origlieri
##DESCRIPTION=Colorless fragment
##STATUS=The identification of this mineral has been confirmed by X-ray diffraction and chemical analysis
##URL=rruff.info/R050287
##MEASURED CHEMISTRY=Na_3.00_Al_1.00_F_6.00_
3.991926e+002, 1.652909e-001
4.011211e+002, 1.168084e-001
4.030496e+002, 1.173699e-001
4.049780e+002, 1.060669e-001
4.069065e+002, 1.017574e-001
4.088350e+002, 9.806486e-002
4.107634e+002, 9.267949e-002
4.126919e+002, 8.890843e-002
4.146204e+002, 8.141347e-002
4.165488e+002, 7.324824e-002
4.184773e+002, 6.739788e-002
4.204058e+002, 5.777115e-002
4.223342e+002, 4.758660e-002
4.242627e+002, 3.939834e-002
4.261912e+002, 3.110072e-002
4.281196e+002, 2.649244e-002
4.300481e+002, 2.391211e-002
4.319766e+002, 2.047999e-002
4.339050e+002, 1.736396e-002
4.358335e+002, 1.654683e-002
4.377620e+002, 1.641660e-002
4.396904e+002, 1.602333e-002
4.416189e+002, 1.548234e-002
4.435474e+002, 1.439132e-002
4.454758e+002, 1.338623e-002
4.474043e+002, 1.300300e-002
4.493328e+002, 1.288671e-002
4.512612e+002, 1.304696e-002
4.531897e+002, 1.271847e-002
4.551182e+002, 1.324422e-002
4.570466e+002, 1.411358e-002
4.589751e+002, 1.429766e-002
4.609036e+002, 1.449115e-002
4.628320e+002, 1.441401e-002
4.647605e+002, 1.414871e-002
4.666890e+002, 1.544702e-002
4.686174e+002, 1.623030e-002
4.705459e+002, 1.610737e-002
4.724744e+002, 1.732871e-002
4.744028e+002, 1.858547e-002
4.763313e+002, 1.960653e-002
4.782598e+002, 2.136822e-002
4.801882e+002, 2.268161e-002
4.821167e+002, 2.408447e-002
4.840452e+002, 2.598992e-002
4.859736e+002, 2.856722e-002
4.879021e+002, 3.105909e-002
4.898306e+002, 3.288942e-002
4.917590e+002, 3.464975e-002
4.936875e+002, 3.723426e-002
4.956160e+002, 4.041674e-002
4.975444e+002, 4.364782e-002
4.994729e+002, 4.655277e-002
5.014014e+002, 4.938893e-002
5.033298e+002, 5.297704e-002
5.052583e+002, 5.766046e-002
5.071868e+002, 6.168685e-002
5.091152e+002, 6.629683e-002
5.110437e+002, 7.190543e-002
5.129722e+002, 7.736776e-002
5.149006e+002, 8.281016e-002
5.168291e+002, 8.993036e-002
5.187576e+002, 9.866112e-002
5.206860e+002, 1.075053e-001
5.226145e+002, 1.177226e-001
5.245430e+002, 1.293869e-001
5.264714e+002, 1.410931e-001
5.283999e+002, 1.533982e-001
5.303284e+002, 1.675909e-001
5.322568e+002, 1.819729e-001
5.341853e+002, 1.958559e-001
5.361138e+002, 2.115130e-001
5.380422e+002, 2.277252e-001
5.399707e+002, 2.439484e-001
5.418992e+002, 2.604525e-001
5.438276e+002, 2.756574e-001
5.457561e+002, 2.907582e-001
5.476846e+002, 3.055004e-001
5.496130e+002, 3.180693e-001
5.515415e+002, 3.306254e-001
5.534700e+002, 3.438174e-001
5.553984e+002, 3.542263e-001
5.573269e+002, 3.611065e-001
5.592554e+002, 3.645652e-001
5.611838e+002, 3.660550e-001
5.631123e+002, 3.656968e-001
5.650408e+002, 3.617284e-001
5.669692e+002, 3.537692e-001
5.688977e+002, 3.424871e-001
5.708262e+002, 3.305206e-001
5.727546e+002, 3.172979e-001
5.746831e+002, 3.028916e-001
5.766116e+002, 2.877794e-001
5.785400e+002, 2.710360e-001
5.804685e+002, 2.556816e-001
5.823970e+002, 2.437131e-001
5.843254e+002, 2.335994e-001
5.862539e+002, 2.251464e-001
5.881824e+002, 2.193533e-001
5.901108e+002, 2.160936e-001
5.920393e+002, 2.132807e-001
5.939678e+002, 2.106754e-001
5.958962e+002, 2.075597e-001
5.978247e+002, 2.026948e-001
5.997532e+002, 1.953250e-001
6.016816e+002, 1.852799e-001
6.036101e+002, 1.737235e-001
6.055386e+002, 1.622771e-001
6.074670e+002, 1.506279e-001
6.093955e+002, 1.401468e-001
6.113240e+002, 1.312914e-001
6.132524e+002, 1.231140e-001
6.151809e+002, 1.162927e-001
6.171094e+002, 1.099417e-001
6.190378e+002, 1.041985e-001
6.209663e+002, 9.932390e-002
6.228948e+002, 9.470159e-002
6.248232e+002, 9.017491e-002
6.267517e+002, 8.509514e-002
6.286802e+002, 7.985421e-002
6.306086e+002, 7.543461e-002
6.325371e+002, 7.171849e-002
6.344656e+002, 6.822117e-002
6.363940e+002, 6.405372e-002
6.383225e+002, 6.003813e-002
6.402510e+002, 5.742455e-002
6.421794e+002, 5.450996e-002
6.441079e+002, 5.141263e-002
6.460364e+002, 4.848887e-002
6.479648e+002, 4.535105e-002
6.498933e+002, 4.228350e-002
6.518218e+002, 3.988153e-002
6.537502e+002, 3.739046e-002
6.556787e+002, 3.451304e-002
6.576072e+002, 3.156553e-002
6.595356e+002, 2.878285e-002
6.614641e+002, 2.650946e-002
6.633926e+002, 2.455204e-002
6.653210e+002, 2.252145e-002
6.672495e+002, 2.050172e-002
6.691780e+002, 1.869125e-002
6.711064e+002, 1.718859e-002
6.730349e+002, 1.565252e-002
6.749634e+002, 1.424900e-002
6.768918e+002, 1.322869e-002
6.788203e+002, 1.215526e-002
6.807488e+002, 1.093445e-002
6.826772e+002, 1.030706e-002
6.846057e+002, 9.916660e-003
6.865342e+002, 9.181081e-003
6.884626e+002, 8.536248e-003
6.903911e+002, 8.246845e-003
6.923196e+002, 7.927519e-003
6.942480e+002, 7.675593e-003
6.961765e+002, 7.410220e-003
6.981050e+002, 7.050687e-003
7.000334e+002, 6.795989e-003
7.019619e+002, 6.520447e-003
7.038904e+002, 6.184282e-003
7.058188e+002, 6.041970e-003
7.077473e+002, 5.823126e-003
7.096758e+002, 5.681182e-003
7.116042e+002, 5.453712e-003
7.135327e+002, 5.188067e-003
7.154612e+002, 4.929227e-003
7.173896e+002, 4.810827e-003
7.193181e+002, 4.685291e-003
7.212466e+002, 4.536887e-003
7.231750e+002, 4.535452e-003
7.251035e+002, 4.735851e-003
7.270320e+002, 4.573180e-003
7.289604e+002, 4.178385e-003
7.308889e+002, 4.007166e-003
7.328174e+002, 3.705333e-003
7.347458e+002, 3.399013e-003
7.366743e+002, 3.404924e-003
7.386028e+002, 3.229197e-003
7.405313e+002, 3.150917e-003
7.424597e+002, 3.153136e-003
7.443882e+002, 3.038209e-003
7.463167e+002, 3.251807e-003
7.482451e+002, 3.154748e-003
7.501736e+002, 2.736555e-003
7.521021e+002, 2.627181e-003
7.540305e+002, 2.743696e-003
7.559590e+002, 2.763393e-003
7.578875e+002, 2.847133e-003
7.598159e+002, 2.468759e-003
7.617444e+002, 2.396255e-003
7.636729e+002, 2.715736e-003
7.656013e+002, 2.857253e-003
7.675298e+002, 2.660819e-003
7.694583e+002, 2.305902e-003
7.713867e+002, 2.373840e-003
7.733152e+002, 2.523643e-003
7.752437e+002, 2.639870e-003
7.771721e+002, 2.420120e-003
7.791006e+002, 2.060521e-003
7.810291e+002, 1.881931e-003
7.829575e+002, 2.103872e-003
7.848860e+002, 2.104737e-003
7.868145e+002, 2.022042e-003
7.887429e+002, 1.787665e-003
7.906714e+002, 1.666203e-003
7.925999e+002, 1.819534e-003
7.945283e+002, 2.092716e-003
7.964568e+002, 2.207572e-003
7.983853e+002, 1.969933e-003
8.003137e+002, 1.877631e-003
8.022422e+002, 2.141864e-003
8.041707e+002, 2.137683e-003
8.060991e+002, 1.820773e-003
8.080276e+002, 1.706437e-003
8.099561e+002, 1.859404e-003
8.118845e+002, 1.937695e-003
8.138130e+002, 2.093624e-003
8.157415e+002, 2.120636e-003
8.176699e+002, 2.193521e-003
8.195984e+002, 2.095422e-003
8.215269e+002, 1.958875e-003
8.234553e+002, 1.962485e-003
8.253838e+002, 1.815045e-003
8.273123e+002, 1.712099e-003
8.292407e+002, 1.839516e-003
8.311692e+002, 1.979789e-003
8.330977e+002, 1.990544e-003
8.350261e+002, 1.781915e-003
8.369546e+002, 1.394219e-003
8.388831e+002, 1.549391e-003
8.408115e+002, 1.898816e-003
8.427400e+002, 1.893347e-003
8.446685e+002, 1.592542e-003
8.465969e+002, 1.388768e-003
8.485254e+002, 1.696765e-003
8.504539e+002, 1.787059e-003
8.523823e+002, 1.692420e-003
8.543108e+002, 1.524361e-003
8.562393e+002, 1.284399e-003
8.581677e+002, 1.208863e-003
8.600962e+002, 1.236169e-003
8.620247e+002, 1.459178e-003
8.639531e+002, 1.169227e-003
8.658816e+002, 8.314411e-004
8.678101e+002, 1.153103e-003
8.697385e+002, 1.293950e-003
8.716670e+002, 9.333113e-004
8.735955e+002, 9.858694e-004
8.755239e+002, 1.508211e-003
8.774524e+002, 1.500120e-003
8.793809e+002, 1.254180e-003
8.813093e+002, 1.280164e-003
8.832378e+002, 1.519765e-003
8.851663e+002, 1.335179e-003
8.870947e+002, 1.064527e-003
8.890232e+002, 1.258032e-003
8.909517e+002, 1.544835e-003
8.928801e+002, 1.839646e-003
8.948085e+002, 1.940000e-003
8.967370e+002, 1.772457e-003
8.986655e+002, 1.637082e-003
9.005939e+002, 1.598435e-003
9.025224e+002, 1.913659e-003
9.044509e+002, 2.113543e-003
9.063793e+002, 2.057606e-003
9.083078e+002, 2.084796e-003
9.102363e+002, 1.855951e-003
9.121647e+002, 1.725901e-003
9.140932e+002, 1.938650e-003
9.160217e+002, 2.065308e-003
9.179501e+002, 2.175608e-003
9.198786e+002, 1.941088e-003
9.218071e+002, 1.889026e-003
9.237355e+002, 2.103252e-003
9.256640e+002, 2.441386e-003
9.275925e+002, 2.497838e-003
9.295209e+002, 2.320043e-003
9.314494e+002, 2.172227e-003
9.333779e+002, 2.213696e-003
9.353063e+002, 2.459304e-003
9.372348e+002, 2.526959e-003
9.391633e+002, 2.426306e-003
9.410917e+002, 2.201988e-003
9.430202e+002, 2.233298e-003
9.449487e+002, 2.594481e-003
9.468771e+002, 3.127255e-003
9.488056e+002, 3.226577e-003
9.507341e+002, 2.984390e-003
9.526625e+002, 3.097732e-003
9.545910e+002, 3.174276e-003
9.565195e+002, 3.503985e-003
9.584479e+002, 3.827750e-003
9.603764e+002, 3.841778e-003
9.623049e+002, 3.716866e-003
9.642333e+002, 3.787821e-003
9.661618e+002, 4.051354e-003
9.680903e+002, 4.210168e-003
9.700187e+002, 4.226995e-003
9.719472e+002, 4.165109e-003
9.738757e+002, 4.204626e-003
9.758041e+002, 4.249104e-003
9.777326e+002, 3.983635e-003
9.796611e+002, 3.836930e-003
9.815895e+002, 3.978864e-003
9.835180e+002, 4.187016e-003
9.854465e+002, 4.157276e-003
9.873749e+002, 3.912437e-003
9.893034e+002, 3.471417e-003
9.912319e+002, 2.992503e-003
9.931603e+002, 3.191158e-003
9.950888e+002, 3.553346e-003
9.970173e+002, 3.429752e-003
9.989457e+002, 3.023523e-003
1.000874e+003, 2.635612e-003
1.002803e+003, 2.517020e-003
1.004731e+003, 2.571654e-003
1.006660e+003, 2.698233e-003
1.008588e+003, 2.692911e-003
1.010517e+003, 2.407958e-003
1.012445e+003, 2.249090e-003
1.014373e+003, 2.091382e-003
1.016302e+003, 1.951451e-003
1.018230e+003, 1.931399e-003
1.020159e+003, 1.907388e-003
1.022087e+003, 1.888036e-003
1.024016e+003, 1.901685e-003
1.025944e+003, 1.676284e-003
1.027873e+003, 1.293574e-003
1.029801e+003, 1.305959e-003
1.031730e+003, 1.284029e-003
1.033658e+003, 1.163928e-003
1.035587e+003, 1.127880e-003
1.037515e+003, 1.008996e-003
1.039444e+003, 1.266067e-003
1.041372e+003, 1.232086e-003
1.043301e+003, 8.958704e-004
1.045229e+003, 8.721951e-004
1.047157e+003, 1.070816e-003
1.049086e+003, 1.054287e-003
1.051014e+003, 9.215810e-004
1.052943e+003, 1.023055e-003
1.054871e+003, 9.816686e-004
1.056800e+003, 1.180683e-003
1.058728e+003, 1.220717e-003
1.060657e+003, 1.037665e-003
1.062585e+003, 8.139104e-004
1.064514e+003, 7.253304e-004
1.066442e+003, 6.205543e-004
1.068371e+003, 7.867110e-004
1.070299e+003, 8.566609e-004
1.072228e+003, 6.396094e-004
1.074156e+003, 4.407196e-004
1.076084e+003, 3.052711e-004
1.078013e+003, 1.868472e-004
1.079941e+003, 2.762532e-004
1.081870e+003, 4.565863e-004
1.083798e+003, 3.430714e-004
1.085727e+003, 1.543199e-004
1.087655e+003, 6.195410e-005
1.089584e+003, -7.252399e-005
1.091512e+003, -1.283003e-004
1.093441e+003, -2.453956e-004
1.095369e+003, -5.062135e-004
1.097298e+003, -3.934119e-004
1.099226e+003, -1.953266e-004
1.101155e+003, -4.614309e-004
1.103083e+003, -6.553244e-004
1.105011e+003, -4.716429e-004
1.106940e+003, -2.818198e-004
1.108868e+003, -4.010479e-004
1.110797e+003, -5.749224e-004
1.112725e+003, -6.015869e-004
1.114654e+003, -2.786531e-004
1.116582e+003, -2.474830e-004
1.118511e+003, -5.261633e-004
1.120439e+003, -4.470355e-004
1.122368e+003, -4.006166e-004
1.124296e+003, -3.124855e-004
1.126225e+003, -2.784501e-004
1.128153e+003, -3.180402e-004
1.130082e+003, -2.702725e-004
1.132010e+003, -3.100939e-004
1.133938e+003, -3.996786e-004
1.135867e+003, -3.517698e-004
1.137795e+003, -2.114127e-004
1.139724e+003, -2.623124e-004
1.141652e+003, -5.648974e-004
1.143581e+003, -6.788159e-004
1.145509e+003, -6.328065e-004
1.147438e+003, -5.052097e-004
1.149366e+003, -5.765504e-004
1.151295e+003, -8.063501e-004
1.153223e+003, -7.497485e-004
1.155152e+003, -6.484541e-004
1.157080e+003, -6.885902e-004
1.159009e+003, -9.581166e-004
1.160937e+003, -1.135330e-003
1.162865e+003, -1.159282e-003
1.164794e+003, -1.187542e-003
1.166722e+003, -1.480571e-003
1.168651e+003, -1.591691e-003
1.170579e+003, -1.382314e-003
1.172508e+003, -1.203546e-003
1.174436e+003, -1.261270e-003
1.176365e+003, -1.229008e-003
1.178293e+003, -1.146188e-003
1.180222e+003, -1.228941e-003
1.182150e+003, -1.318550e-003
1.184079e+003, -1.174323e-003
1.186007e+003, -1.019617e-003
1.187936e+003, -1.144885e-003
1.189864e+003, -1.131873e-003
1.191792e+003, -1.139618e-003
1.193721e+003, -1.254401e-003
1.195649e+003, -1.243228e-003
1.197578e+003, -1.189374e-003
1.199506e+003, -1.229871e-003
1.201435e+003, -1.236694e-003
1.203363e+003, -1.122395e-003
1.205292e+003, -9.260194e-004
1.207220e+003, -9.041020e-004
1.209149e+003, -1.053547e-003
1.211077e+003, -1.225401e-003
1.213006e+003, -1.450492e-003
1.214934e+003, -1.282716e-003
1.216863e+003, -8.936531e-004
1.218791e+003, -9.220799e-004
1.220719e+003, -1.294312e-003
1.222648e+003, -1.242039e-003
1.224576e+003, -1.077436e-003
1.226505e+003, -1.174433e-003
1.228433e+003, -1.155079e-003
1.230362e+003, -1.164092e-003
1.232290e+003, -1.380217e-003
1.234219e+003, -1.481527e-003
1.236147e+003, -1.203936e-003
1.238076e+003, -9.910500e-004
1.240004e+003, -9.565850e-004
1.241933e+003, -1.101126e-003
1.243861e+003, -1.089674e-003
1.245790e+003, -9.371489e-004
1.247718e+003, -1.135919e-003
1.249646e+003, -1.381072e-003
1.251575e+003, -1.346595e-003
1.253503e+003, -1.274545e-003
1.255432e+003, -1.253680e-003
1.257360e+003, -1.253527e-003
1.259289e+003, -1.255991e-003
1.261217e+003, -1.173729e-003
1.263146e+003, -1.228853e-003
1.265074e+003, -1.283842e-003
1.267003e+003, -1.281862e-003
1.268931e+003, -1.197312e-003
1.270860e+003, -1.188627e-003
1.272788e+003, -1.139383e-003
1.274717e+003, -1.034545e-003
1.276645e+003, -1.024331e-003
1.278573e+003, -1.104694e-003
1.280502e+003, -1.111949e-003
1.282430e+003, -1.109595e-003
1.284359e+003, -1.179086e-003
1.286287e+003, -1.152871e-003
1.288216e+003, -8.403247e-004
1.290144e+003, -7.818225e-004
1.292073e+003, -1.019188e-003
1.294001e+003, -1.087898e-003
1.295930e+003, -9.580635e-004
1.297858e+003, -8.660655e-004
1.299787e+003, -7.200546e-004
1.301715e+003, -7.108276e-004
1.303644e+003, -7.781840e-004
1.305572e+003, -7.900052e-004
1.307500e+003, -8.480164e-004
1.309429e+003, -6.985734e-004
1.311357e+003, -6.099365e-004
1.313286e+003, -6.130938e-004
1.315214e+003, -4.816864e-004
1.317143e+003, -4.186816e-004
1.319071e+003, -3.088756e-004
1.321000e+003, -4.414262e-004
1.322928e+003, -5.131103e-004
1.324857e+003, -6.590559e-004
1.326785e+003, -7.943246e-004
1.328714e+003, -4.524503e-004
1.330642e+003, -2.445130e-004
1.332571e+003, -5.599479e-004
1.334499e+003, -5.828893e-004
1.336427e+003, -3.808265e-004
1.338356e+003, -4.945040e-004
1.340284e+003, -7.397839e-004
1.342213e+003, -6.968300e-004
1.344141e+003, -4.949062e-004
1.346070e+003, -4.262721e-004
1.347998e+003, -4.566071e-004
1.349927e+003, -7.313918e-004
1.351855e+003, -8.238264e-004
1.353784e+003, -9.045493e-004
1.355712e+003, -8.678475e-004
1.357641e+003, -5.156973e-004
1.359569e+003, -3.756260e-004
1.361498e+003, -5.319910e-004
1.363426e+003, -6.494075e-004
1.365354e+003, -8.258184e-004
1.367283e+003, -9.414324e-004
1.369211e+003, -8.777576e-004
1.371140e+003, -8.678341e-004
1.373068e+003, -9.894294e-004
1.374997e+003, -1.022793e-003
1.376925e+003, -1.023727e-003
1.378854e+003, -8.547874e-004
1.380782e+003, -7.582533e-004
1.382711e+003, -6.353440e-004
1.384639e+003, -6.435171e-004
1.386568e+003, -8.746626e-004
1.388496e+003, -7.787548e-004
1.390424e+003, -6.074087e-004
1.392353e+003, -6.953049e-004
1.394281e+003, -4.209962e-004
1.396210e+003, -2.911036e-004
1.398138e+003, -5.957839e-004
1.400067e+003, -7.125945e-004
1.401995e+003, -5.814164e-004
1.403924e+003, -5.308146e-004
1.405852e+003, -5.870646e-004
1.407781e+003, -3.174798e-004
1.409709e+003, -1.250282e-004
1.411638e+003, -3.429391e-004
1.413566e+003, -7.665732e-004
1.415495e+003, -8.308532e-004
1.417423e+003, -5.001144e-004
1.419351e+003, -2.721429e-004
1.421280e+003, -2.223790e-004
1.423208e+003, -3.649789e-004
1.425137e+003, -6.721027e-004
1.427065e+003, -7.116004e-004
1.428994e+003, -5.758200e-004
1.430922e+003, -5.318798e-004
1.432851e+003, -8.200368e-004
1.434779e+003, -1.038692e-003
1.436708e+003, -8.820008e-004
1.438636e+003, -9.804249e-004
1.440565e+003, -1.267710e-003
1.442493e+003, -1.006866e-003
1.444422e+003, -1.017529e-003
1.446350e+003, -1.555488e-003
1.448278e+003, -1.604567e-003
1.450207e+003, -1.465873e-003
1.452135e+003, -1.652416e-003
1.454064e+003, -1.784916e-003
1.455992e+003, -1.906337e-003
1.457921e+003, -1.982833e-003
1.459849e+003, -1.978368e-003
1.461778e+003, -1.795158e-003
1.463706e+003, -1.911504e-003
1.465635e+003, -2.458332e-003
1.467563e+003, -2.506031e-003
1.469492e+003, -1.866533e-003
1.471420e+003, -1.318558e-003
1.473349e+003, -1.025868e-003
1.475277e+003, -8.064345e-004
1.477205e+003, -7.404159e-004
1.479134e+003, -7.584180e-004
1.481062e+003, -5.244318e-004
1.482991e+003, -4.839697e-004
1.484919e+003, -4.225506e-004
1.486848e+003, -2.333767e-004
1.488776e+003, -3.107977e-004
1.490705e+003, -4.856480e-004
1.492633e+003, -3.303378e-004
1.494562e+003, -3.605019e-005
1.496490e+003, -3.222930e-005
1.498419e+003, -4.068429e-004
1.500347e+003, -5.825199e-004
1.502276e+003, -4.761371e-004
1.504204e+003, -3.433596e-004
1.506132e+003, -3.068392e-004
1.508061e+003, -1.508864e-004
1.509989e+003, -1.593827e-004
1.511918e+003, -7.974790e-005
1.513846e+003, -1.133013e-004
1.515775e+003, -3.258212e-004
1.517703e+003, -2.782331e-004
1.519632e+003, 1.776641e-004
1.521560e+003, 3.866987e-004
1.523489e+003, -2.720780e-005
1.525417e+003, -3.757329e-004
1.527346e+003, -2.161584e-004
1.529274e+003, -2.357304e-004
1.531203e+003, -2.745207e-004
1.533131e+003, -2.785225e-004
1.535059e+003, -2.894478e-004
1.536988e+003, -1.117237e-004
1.538916e+003, 3.013608e-005
1.540845e+003, -1.603089e-005
1.542773e+003, -1.642741e-004
1.544702e+003, -6.515178e-005
1.546630e+003, 5.693685e-005
1.548559e+003, -9.835410e-005
1.550487e+003, -1.883618e-004
1.552416e+003, -3.132863e-004
1.554344e+003, -3.439437e-004
1.556273e+003, -3.631305e-004
1.558201e+003, -3.422170e-004
1.560130e+003, -1.304099e-004
1.562058e+003, -2.016682e-004
1.563986e+003, -4.610521e-004
1.565915e+003, -3.937976e-004
1.567843e+003, -3.376885e-004
1.569772e+003, -3.648768e-004
1.571700e+003, -4.895024e-004
1.573629e+003, -5.506965e-004
1.575557e+003, -6.228302e-004
1.577486e+003, -7.519919e-004
1.579414e+003, -9.214772e-004
1.581343e+003, -7.689562e-004
1.583271e+003, -5.377687e-004
1.585200e+003, -7.083951e-004
1.587128e+003, -1.025911e-003
1.589057e+003, -1.057965e-003
1.590985e+003, -9.308076e-004
1.592913e+003, -9.886478e-004
1.594842e+003, -1.112467e-003
1.596770e+003, -1.227372e-003
1.598699e+003, -1.151912e-003
1.600627e+003, -7.900413e-004
1.602556e+003, -6.862866e-004
1.604484e+003, -9.884503e-004
1.606413e+003, -1.131166e-003
1.608341e+003, -1.164606e-003
1.610270e+003, -9.539720e-004
1.612198e+003, -8.654877e-004
1.614127e+003, -1.202486e-003
1.616055e+003, -1.104276e-003
1.617984e+003, -7.251879e-004
1.619912e+003, -5.542364e-004
1.621840e+003, -9.860490e-004
1.623769e+003, -1.303655e-003
1.625697e+003, -1.040892e-003
1.627626e+003, -8.988698e-004
1.629554e+003, -1.188322e-003
1.631483e+003, -1.312060e-003
1.633411e+003, -1.116892e-003
1.635340e+003, -1.015142e-003
1.637268e+003, -1.028311e-003
1.639197e+003, -9.941064e-004
1.641125e+003, -9.337500e-004
1.643054e+003, -9.721981e-004
1.644982e+003, -6.810955e-004
1.646911e+003, -6.587785e-004
1.648839e+003, -6.842753e-004
1.650767e+003, -6.624525e-004
1.652696e+003, -8.770009e-004
1.654624e+003, -8.830618e-004
1.656553e+003, -8.913822e-004
1.658481e+003, -8.443948e-004
1.660410e+003, -1.009004e-003
1.662338e+003, -1.418787e-003
1.664267e+003, -1.630143e-003
1.666195e+003, -1.563891e-003
1.668124e+003, -1.524777e-003
1.670052e+003, -1.394995e-003
1.671981e+003, -1.240387e-003
1.673909e+003, -1.144916e-003
1.675838e+003, -1.285098e-003
1.677766e+003, -1.597272e-003
1.679694e+003, -1.437933e-003
1.681623e+003, -9.475546e-004
1.683551e+003, -5.940134e-004
1.685480e+003, -6.791723e-004
1.687408e+003, -1.078728e-003
1.689337e+003, -8.654157e-004
1.691265e+003, -1.027139e-003
1.693194e+003, -1.430452e-003
1.695122e+003, -1.407976e-003
1.697051e+003, -1.066308e-003
1.698979e+003, -9.355766e-004
1.700908e+003, -1.362717e-003
1.702836e+003, -1.951987e-003
1.704765e+003, -2.211837e-003
1.706693e+003, -2.283572e-003
1.708621e+003, -2.402804e-003
1.710550e+003, -2.436135e-003
1.712478e+003, -2.433848e-003
1.714407e+003, -2.410146e-003
1.716335e+003, -2.278218e-003
1.718264e+003, -2.170373e-003
1.720192e+003, -2.183436e-003
1.722121e+003, -2.501467e-003
1.724049e+003, -2.409752e-003
1.725978e+003, -2.329956e-003
1.727906e+003, -2.696666e-003
1.729835e+003, -2.663067e-003
1.731763e+003, -2.696968e-003
1.733692e+003, -3.106141e-003
1.735620e+003, -3.485374e-003
1.737548e+003, -4.165503e-003
1.739477e+003, -4.711422e-003
1.741405e+003, -4.975094e-003
1.743334e+003, -4.838849e-003
1.745262e+003, -4.914012e-003
1.747191e+003, -4.303756e-003
1.749119e+003, -3.539135e-003
1.751048e+003, -3.009243e-003
1.752976e+003, -2.551901e-003
1.754905e+003, -2.104922e-003
1.756833e+003, -1.881328e-003
1.758762e+003, -1.489917e-003
1.760690e+003, -1.221222e-003
1.762619e+003, -1.388257e-003
1.764547e+003, -1.195994e-003
1.766475e+003, -4.136403e-004
1.768404e+003, 9.375104e-007
1.770332e+003, 5.672463e-005
1.772261e+003, -3.229651e-005
1.774189e+003, -2.791832e-004
1.776118e+003, -2.331283e-004
1.778046e+003, -2.483998e-004
1.779975e+003, -3.608007e-004
1.781903e+003, -4.692388e-004
1.783832e+003, -6.032918e-004
1.785760e+003, -1.823980e-004
1.787689e+003, 2.430132e-004
1.789617e+003, 2.270823e-004
1.791546e+003, 1.553043e-004
1.793474e+003, 3.743868e-005
1.795402e+003, -1.637558e-004
1.797331e+003, -7.092420e-005
1.799259e+003, 3.958651e-005
1.801188e+003, 1.211611e-004
1.803116e+003, 2.320821e-004
1.805045e+003, 4.278067e-004
1.806973e+003, 3.045098e-004
1.808902e+003, -1.364629e-004
1.810830e+003, 1.128083e-004
1.812759e+003, 2.805489e-004
1.814687e+003, 1.373441e-004
1.816616e+003, 5.862453e-004
1.818544e+003, 7.599490e-004
1.820473e+003, 6.253997e-004
1.822401e+003, 1.912577e-004
1.824329e+003, -3.815730e-004
1.826258e+003, -2.034129e-004
1.828186e+003, 3.667464e-004
1.830115e+003, 6.826649e-004
1.832043e+003, 6.765189e-004
1.833972e+003, 6.155026e-004
1.835900e+003, 6.869538e-004
1.837829e+003, 5.801109e-004
1.839757e+003, 4.657985e-004
1.841686e+003, 6.558334e-004
1.843614e+003, 6.389741e-004
1.845543e+003, 3.496112e-004
1.847471e+003, 6.000008e-004
1.849400e+003, 1.309415e-003
1.851328e+003, 8.636680e-004
1.853256e+003, 8.535643e-004
1.855185e+003, 9.850403e-004
1.857113e+003, 1.115577e-003
1.859042e+003, 1.354866e-003
1.860970e+003, 1.204406e-003
1.862899e+003, 1.180309e-003
1.864827e+003, 8.614914e-004
1.866756e+003, 6.719418e-004
1.868684e+003, 2.578016e-004
1.870613e+003, 8.216631e-004
1.872541e+003, 1.391304e-003
1.874470e+003, 1.016236e-003
1.876398e+003, 1.079784e-003
1.878327e+003, 9.379459e-004
1.880255e+003, 1.104586e-003
1.882183e+003, 1.270913e-003
1.884112e+003, 9.640226e-004
1.886040e+003, 8.027923e-004
1.887969e+003, 7.533956e-004
1.889897e+003, 5.082554e-004
1.891826e+003, 3.810180e-004
1.893754e+003, 1.173781e-003
1.895683e+003, 9.994997e-004
1.897611e+003, 4.091068e-004
1.899540e+003, 4.680243e-004
1.901468e+003, -1.891773e-004
1.903397e+003, 1.901065e-004
1.905325e+003, 9.106622e-004
1.907254e+003, -2.785168e-004
1.909182e+003, -1.175466e-003
1.911110e+003, -7.445955e-004
1.913039e+003, -3.289705e-005
1.914967e+003, 2.669161e-004
1.916896e+003, 3.641448e-004
1.918824e+003, 9.419375e-004
1.920753e+003, 1.569495e-003
1.922681e+003, 1.440875e-003
1.924610e+003, 7.003615e-004
1.926538e+003, 8.458432e-005
1.928467e+003, 6.224689e-004
1.930395e+003, 7.974069e-004
1.932324e+003, 8.377460e-004
1.934252e+003, 4.267528e-004
1.936181e+003, 1.302326e-005
1.938109e+003, 9.479019e-005
1.940037e+003, 1.280041e-003
1.941966e+003, 2.566061e-003
1.943894e+003, 2.115847e-003
1.945823e+003, 1.879025e-003
1.947751e+003, 8.545771e-004
1.949680e+003, 2.915935e-004
1.951608e+003, 1.258532e-003
1.953537e+003, 2.813232e-003
1.955465e+003, 3.282111e-003
1.957394e+003, 1.757477e-003
1.959322e+003, 2.362088e-003
1.961251e+003, 2.438900e-003
1.963179e+003, 2.543592e-003
1.965108e+003, 5.199761e-003
1.967036e+003, 5.793595e-003
1.968964e+003, 6.183874e-003
1.970893e+003, 3.990393e-003
1.972821e+003, 3.049194e-003
1.974750e+003, 4.493017e-003
1.976678e+003, 3.583975e-003
1.978607e+003, 4.739144e-003
1.980535e+003, 5.270361e-003
1.982464e+003, 5.280384e-003
1.984392e+003, 5.533573e-003
1.986321e+003, 6.168250e-003
1.988249e+003, 4.046515e-003
1.990178e+003, 3.743415e-003
1.992106e+003, 3.412394e-003
1.994035e+003, 1.538296e-003
1.995963e+003, 1.178123e-003
1.997891e+003, 2.249748e-003
1.999820e+003, 2.574184e-003
2.001748e+003, 2.443831e-003
2.003677e+003, 3.119138e-003
2.005605e+003, 3.672994e-003
2.007534e+003, 3.813206e-003
2.009462e+003, 3.421603e-003
2.011391e+003, 2.601044e-003
2.013319e+003, 4.187353e-003
2.015248e+003, 4.703776e-003
2.017176e+003, 3.931416e-003
2.019105e+003, 4.413784e-003
2.021033e+003, 6.718733e-003
2.022962e+003, 5.737397e-003
2.024890e+003, 2.742732e-003
2.026818e+003, 2.177291e-003
2.028747e+003, 4.675407e-003
2.030675e+003, 6.812829e-003
2.032604e+003, 4.238966e-003
2.034532e+003, 4.811822e-003
2.036461e+003, 3.795367e-003
2.038389e+003, 1.769155e-003
2.040318e+003, 3.377568e-003
2.042246e+003, 4.223855e-003
2.044175e+003, 2.489718e-003
2.046103e+003, 2.040074e-003
2.048032e+003, 3.258607e-003
2.049960e+003, 5.621054e-003
2.051889e+003, 4.158481e-003
2.053817e+003, 2.602535e-003
2.055746e+003, 3.098411e-003
2.057674e+003, 2.462951e-003
2.059603e+003, 5.857846e-004
2.061531e+003, 1.309101e-003
2.063459e+003, 3.362827e-003
2.065388e+003, 2.475889e-003
2.067316e+003, 2.981549e-003
2.069245e+003, 4.226789e-003
2.071173e+003, 3.210642e-003
2.073102e+003, 4.684337e-003
2.075030e+003, 5.962653e-003
2.076959e+003, 3.963115e-003
2.078887e+003, 3.298022e-003
2.080816e+003, 3.149066e-003
2.082744e+003, 1.045964e-003
2.084673e+003, -5.899728e-004
2.086601e+003, -2.056608e-004
2.088530e+003, 4.999104e-004
2.090458e+003, 1.092625e-003
2.092386e+003, 1.286621e-003
2.094315e+003, 1.818737e-003
2.096243e+003, 6.986583e-004
2.098172e+003, -5.482160e-004
2.100100e+003, 5.030282e-004
2.102029e+003, 2.429093e-003
2.103957e+003, 1.916805e-003
2.105886e+003, 6.393762e-004
2.107814e+003, 8.332958e-004
2.109743e+003, 1.259422e-003
2.111671e+003, 7.488955e-004
2.113600e+003, 9.054010e-004
2.115528e+003, 1.708565e-003
2.117457e+003, 1.130690e-003
2.119385e+003, -1.581304e-004
2.121313e+003, -5.390908e-005
2.123242e+003, -3.080885e-004
2.125170e+003, -7.468764e-004
2.127099e+003, -8.283955e-004
2.129027e+003, 2.417834e-004
2.130956e+003, -1.863136e-004
2.132884e+003, -3.711607e-004
2.134813e+003, 1.099732e-003
2.136741e+003, 2.353433e-003
2.138670e+003, 4.322680e-003
2.140598e+003, 5.092485e-003
2.142527e+003, 3.118013e-003
2.144455e+003, 2.215838e-003
2.146384e+003, 2.092230e-003
2.148312e+003, 3.530335e-003
2.150240e+003, 3.971644e-003
2.152169e+003, 2.545309e-003
2.154097e+003, 5.803789e-004
2.156026e+003, 1.399572e-004
2.157954e+003, 2.169082e-003
2.159883e+003, 5.371898e-003
2.161811e+003, 8.794261e-003
2.163740e+003, 8.037702e-003
2.165668e+003, 5.598634e-003
2.167597e+003, 5.019153e-003
2.169525e+003, 3.387487e-003
2.171454e+003, 2.878104e-003
2.173382e+003, 3.410204e-003
2.175311e+003, 3.630485e-003
2.177239e+003, 2.487507e-003
2.179167e+003, 3.694548e-003
2.181096e+003, 5.115585e-003
2.183024e+003, 5.218509e-003
2.184953e+003, 5.494104e-003
2.186881e+003, 5.628326e-003
2.188810e+003, 3.888272e-003
2.190738e+003, 2.559772e-003
2.192667e+003, 4.982840e-003
2.194595e+003, 8.281924e-003
2.196524e+003, 4.698419e-003
2.198452e+003, 2.512985e-003
2.200381e+003, 3.085024e-003
2.202309e+003, 2.778916e-003
2.204238e+003, 4.638150e-003
2.206166e+003, 4.661968e-003
2.208094e+003, 4.754785e-003
2.210023e+003, 4.557614e-003
2.211951e+003, 3.368485e-003
2.213880e+003, 3.927283e-003
2.215808e+003, 4.798179e-003
2.217737e+003, 3.706087e-003
2.219665e+003, 3.522538e-003
2.221594e+003, 3.850503e-003
2.223522e+003, 4.561469e-003
2.225451e+003, 5.671589e-003
2.227379e+003, 4.117311e-003
2.229308e+003, 3.427532e-003
2.231236e+003, 3.143045e-003
2.233165e+003, 3.070194e-003
2.235093e+003, 2.540389e-003
2.237021e+003, 3.351622e-003
2.238950e+003, 3.196335e-003
2.240878e+003, 2.590962e-003
2.242807e+003, 5.081545e-003
2.244735e+003, 5.572315e-003
2.246664e+003, 3.674323e-003
2.248592e+003, 2.584044e-003
2.250521e+003, 1.324121e-003
2.252449e+003, 6.640836e-004
2.254378e+003, 1.474651e-003
2.256306e+003, 2.401558e-003
2.258235e+003, 2.402710e-003
2.260163e+003, 2.013565e-003
2.262092e+003, 1.550110e-003
2.264020e+003, 1.556240e-003
2.265948e+003, 1.174276e-003
2.267877e+003, 1.163690e-003
2.269805e+003, 1.802875e-003
2.271734e+003, 3.442832e-003
2.273662e+003, 4.227076e-003
2.275591e+003, 3.032920e-003
2.277519e+003, 1.219863e-003
2.279448e+003, 2.026658e-003
2.281376e+003, 3.011818e-003
2.283305e+003, 2.720352e-003
2.285233e+003, 2.680207e-003
2.287162e+003, 3.381423e-003
2.289090e+003, 2.822166e-003
2.291019e+003, 2.863749e-003
2.292947e+003, 2.608964e-003
2.294875e+003, 1.955422e-003
2.296804e+003, 2.759405e-003
2.298732e+003, 2.311503e-003
2.300661e+003, 1.672288e-003
2.302589e+003, 1.380884e-003
2.304518e+003, 1.055213e-003
2.306446e+003, 1.637148e-003
2.308375e+003, 2.068472e-003
2.310303e+003, 1.969181e-003
2.312232e+003, 2.733459e-003
2.314160e+003, 2.742428e-003
2.316089e+003, 1.938128e-003
2.318017e+003, 1.629667e-003
2.319946e+003, 1.845627e-003
2.321874e+003, 2.717087e-003
2.323802e+003, 3.244627e-003
2.325731e+003, 1.742152e-003
2.327659e+003, 2.364922e-004
2.329588e+003, -2.923484e-004
2.331516e+003, 3.250537e-004
2.333445e+003, 3.252452e-004
2.335373e+003, -8.031763e-005
2.337302e+003, 8.131678e-006
2.339230e+003, 2.683687e-004
2.341159e+003, 1.629919e-004
2.343087e+003, -5.769820e-004
2.345016e+003, -8.972709e-004
2.346944e+003, -7.728340e-004
2.348873e+003, -3.665801e-004
2.350801e+003, -9.915110e-005
2.352729e+003, 2.597026e-004
2.354658e+003, 6.350971e-005
2.356586e+003, -2.483526e-004
2.358515e+003, -5.949957e-004
2.360443e+003, -6.962327e-004
2.362372e+003, -6.268689e-004
2.364300e+003, -7.394919e-005
2.366229e+003, 4.026768e-004
2.368157e+003, -2.113673e-004
2.370086e+003, -2.273207e-004
2.372014e+003, -1.235430e-004
2.373942e+003, -1.490467e-004
2.375871e+003, -6.785984e-004
2.377799e+003, -1.007576e-003
2.379728e+003, -5.923092e-004
2.381656e+003, 3.645886e-005
2.383585e+003, 1.970683e-004
2.385513e+003, -2.926500e-004
2.387442e+003, -4.281892e-004
2.389370e+003, -7.916646e-005
2.391299e+003, -6.487980e-004
2.393227e+003, -7.398974e-004
2.395156e+003, -2.086990e-004
2.397084e+003, 5.480978e-004
2.399012e+003, 3.550583e-004
2.400941e+003, 9.114377e-004
2.402869e+003, 1.309084e-003
2.404798e+003, 7.699193e-004
2.406726e+003, 7.947174e-004
2.408655e+003, 6.265244e-004
2.410583e+003, -2.212231e-004
2.412512e+003, -5.141837e-004
2.414440e+003, -1.155139e-004
2.416369e+003, -6.781206e-005
2.418297e+003, 2.247830e-004
2.420226e+003, 5.275542e-004
2.422154e+003, 7.884069e-004
2.424083e+003, 9.221520e-004
2.426011e+003, 3.816498e-004
2.427939e+003, 3.519358e-004
2.429868e+003, 3.158933e-004
2.431796e+003, -3.746084e-004
2.433725e+003, -3.345995e-004
2.435653e+003, -5.792891e-004
2.437582e+003, -6.069510e-004
2.439510e+003, 3.895145e-004
2.441439e+003, 1.481408e-003
2.443367e+003, 2.221075e-003
2.445296e+003, 1.814996e-003
2.447224e+003, 6.293358e-004
2.449153e+003, 1.029322e-003
2.451081e+003, 1.085819e-003
2.453010e+003, 1.051445e-003
2.454938e+003, 4.429179e-004
2.456866e+003, -3.244346e-004
2.458795e+003, -1.009016e-003
2.460723e+003, -7.651645e-004
2.462652e+003, 2.515950e-004
2.464580e+003, 1.305420e-003
2.466509e+003, 9.166974e-004
2.468437e+003, 1.032231e-004
2.470366e+003, 4.092661e-007
2.472294e+003, 3.210811e-004
2.474223e+003, 5.943626e-004
2.476151e+003, -8.333352e-004
2.478080e+003, -1.660272e-003
2.480008e+003, -5.333330e-004
2.481937e+003, 1.102863e-003
2.483865e+003, 9.068386e-004
2.485793e+003, -3.887529e-005
2.487722e+003, -1.417673e-004
2.489650e+003, 1.239104e-004
2.491579e+003, -1.009614e-004
2.493507e+003, -6.110501e-004
2.495436e+003, -7.193258e-005
2.497364e+003, 7.364801e-005
2.499293e+003, -9.596941e-004
2.501221e+003, -7.417110e-005
2.503150e+003, 2.115162e-004
2.505078e+003, -1.379802e-003
2.507007e+003, -1.178419e-003
2.508935e+003, 2.261191e-005
2.510864e+003, 8.140346e-004
2.512792e+003, 3.987167e-004
2.514720e+003, 5.132808e-005
2.516649e+003, -7.162242e-004
2.518577e+003, -5.659828e-004
2.520506e+003, -7.525414e-004
2.522434e+003, -4.605875e-004
2.524363e+003, 9.350181e-004
2.526291e+003, 4.277385e-004
2.528220e+003, -4.374443e-004
2.530148e+003, 1.681839e-004
2.532077e+003, 2.007022e-004
2.534005e+003, -1.275229e-003
2.535934e+003, -2.230304e-003
2.537862e+003, -1.879230e-003
2.539791e+003, -9.515341e-004
2.541719e+003, -8.397492e-004
2.543647e+003, -4.156815e-004
2.545576e+003, -1.459919e-004
2.547504e+003, 2.091011e-004
2.549433e+003, -4.927059e-004
2.551361e+003, -1.112032e-003
2.553290e+003, -6.581748e-005
2.555218e+003, 4.774423e-004
2.557147e+003, 4.712757e-004
2.559075e+003, 1.221079e-004
2.561004e+003, -9.291387e-005
2.562932e+003, 9.961597e-005
2.564861e+003, -1.230503e-004
2.566789e+003, 3.950333e-004
2.568718e+003, 2.892481e-004
2.570646e+003, 5.498605e-004
2.572574e+003, 9.948501e-004
2.574503e+003, 1.066976e-003
2.576431e+003, 2.407625e-004
2.578360e+003, -4.961616e-004
2.580288e+003, -4.608963e-004
2.582217e+003, -1.013590e-003
2.584145e+003, -6.847764e-004
2.586074e+003, -6.094124e-004
2.588002e+003, -1.023486e-003
2.589931e+003, -7.037192e-004
2.591859e+003, 3.822254e-004
2.593788e+003, 6.604051e-004
2.595716e+003, 4.188597e-005
2.597645e+003, 5.594245e-004
2.599573e+003, 3.678536e-004
2.601501e+003, 7.585701e-005
2.603430e+003, 4.790289e-004
2.605358e+003, 1.864658e-005
2.607287e+003, 1.252661e-005
2.609215e+003, 2.782426e-004
2.611144e+003, 7.508764e-004
2.613072e+003, 9.859869e-004
2.615001e+003, 5.058626e-004
2.616929e+003, 2.030917e-004
2.618858e+003, -7.549030e-005
2.620786e+003, 1.428562e-004
2.622715e+003, 1.729346e-005
2.624643e+003, -6.593521e-004
2.626572e+003, -1.470537e-003
2.628500e+003, -1.462484e-003
2.630428e+003, -7.630637e-004
2.632357e+003, -1.391084e-004
2.634285e+003, 7.232935e-004
2.636214e+003, 6.222645e-004
2.638142e+003, -5.376344e-004
2.640071e+003, -5.888261e-004
2.641999e+003, -6.961703e-004
2.643928e+003, -7.237314e-004
2.645856e+003, -4.378178e-004
2.647785e+003, -9.035457e-004
2.649713e+003, -5.988742e-004
2.651642e+003, 6.686309e-005
2.653570e+003, -3.015382e-004
2.655499e+003, -1.191437e-003
2.657427e+003, -1.504168e-003
2.659355e+003, -2.044137e-003
2.661284e+003, -1.767696e-003
2.663212e+003, -9.217719e-004
2.665141e+003, -9.760858e-004
2.667069e+003, -1.638825e-003
2.668998e+003, -1.909676e-003
2.670926e+003, -1.751745e-003
2.672855e+003, -1.237444e-003
2.674783e+003, -7.193348e-004
2.676712e+003, -7.110785e-004
2.678640e+003, -1.477528e-003
2.680569e+003, -2.556129e-003
2.682497e+003, -2.312634e-003
2.684426e+003, -1.177227e-003
2.686354e+003, -6.612442e-004
2.688282e+003, -1.078985e-003
2.690211e+003, -1.276376e-003
2.692139e+003, -1.962479e-003
2.694068e+003, -1.998907e-003
2.695996e+003, -1.383785e-003
2.697925e+003, -1.757045e-003
2.699853e+003, -1.900406e-003
2.701782e+003, -8.123898e-004
2.703710e+003, -5.929713e-004
2.705639e+003, -5.632423e-004
2.707567e+003, -7.393690e-004
2.709496e+003, -1.030702e-003
2.711424e+003, -1.355484e-003
2.713353e+003, -7.852395e-004
2.715281e+003, -2.574082e-004
2.717209e+003, -4.522424e-004
2.719138e+003, -4.704768e-004
2.721066e+003, -9.290345e-004
2.722995e+003, -7.466796e-004
2.724923e+003, -4.166376e-004
2.726852e+003, -9.393597e-004
2.728780e+003, -5.379302e-004
2.730709e+003, -2.242735e-004
2.732637e+003, -1.204057e-003
2.734566e+003, -1.644117e-003
2.736494e+003, -9.669680e-004
2.738423e+003, -3.141884e-004
2.740351e+003, -4.953269e-004
2.742280e+003, -1.598416e-003
2.744208e+003, -1.709206e-003
2.746136e+003, -5.065078e-004
2.748065e+003, 1.952007e-004
2.749993e+003, -2.104698e-004
2.751922e+003, -1.248314e-004
2.753850e+003, 4.324486e-004
2.755779e+003, -1.923833e-005
2.757707e+003, 1.060101e-004
2.759636e+003, -4.412413e-004
2.761564e+003, -8.593167e-004
2.763493e+003, -5.577638e-004
2.765421e+003, -7.879059e-004
2.767350e+003, -7.255182e-004
2.769278e+003, -5.386631e-004
2.771207e+003, -1.070167e-003
2.773135e+003, -5.969063e-004
2.775063e+003, -2.566504e-004
2.776992e+003, -8.757367e-004
2.778920e+003, -1.520468e-003
2.780849e+003, -1.074928e-003
2.782777e+003, -1.349087e-003
2.784706e+003, -1.741563e-003
2.786634e+003, -6.180800e-004
2.788563e+003, -7.662503e-004
2.790491e+003, -1.241057e-003
2.792420e+003, -8.614520e-004
2.794348e+003, -4.309926e-004
2.796277e+003, -8.664982e-004
2.798205e+003, -9.370803e-004
2.800134e+003, -2.614794e-004
2.802062e+003, -8.174691e-004
2.803990e+003, -1.329976e-003
2.805919e+003, -1.709363e-003
2.807847e+003, -1.342129e-003
2.809776e+003, -1.434993e-005
2.811704e+003, 1.989445e-004
2.813633e+003, -4.932594e-004
2.815561e+003, -1.803517e-003
2.817490e+003, -2.230973e-003
2.819418e+003, -2.014649e-003
2.821347e+003, -2.122064e-003
2.823275e+003, -2.042768e-003
2.825204e+003, -3.725940e-004
2.827132e+003, -3.504332e-004
2.829061e+003, -1.321796e-003
2.830989e+003, -1.750563e-004
2.832917e+003, 6.676395e-005
2.834846e+003, -1.464967e-003
2.836774e+003, -1.408008e-003
2.838703e+003, -1.122343e-003
2.840631e+003, -3.048319e-003
2.842560e+003, -3.405726e-003
2.844488e+003, -1.898509e-003
2.846417e+003, -8.226177e-004
2.848345e+003, -7.861257e-004
2.850274e+003, -7.981230e-004
2.852202e+003, -5.489020e-004
2.854131e+003, -1.246573e-003
2.856059e+003, -2.096894e-003
2.857988e+003, -4.757512e-004
2.859916e+003, 8.086646e-004
2.861844e+003, -1.083799e-004
2.863773e+003, -6.016744e-004
2.865701e+003, -4.208623e-004
2.867630e+003, -1.209907e-003
2.869558e+003, -2.671139e-003
2.871487e+003, -3.437267e-003
2.873415e+003, -2.221850e-003
2.875344e+003, -9.387336e-004
2.877272e+003, -7.876903e-004
2.879201e+003, -1.385299e-003
2.881129e+003, -4.236796e-004
2.883058e+003, -9.598471e-004
2.884986e+003, -2.598471e-003
2.886915e+003, -2.412071e-003
2.888843e+003, -1.824392e-003
2.890771e+003, -1.721026e-003
2.892700e+003, -1.956669e-003
2.894628e+003, -2.079554e-003
2.896557e+003, -2.029663e-003
2.898485e+003, -1.923090e-003
2.900414e+003, -1.189202e-003
2.902342e+003, -1.525098e-003
2.904271e+003, -2.832022e-003
2.906199e+003, -2.373336e-003
2.908128e+003, -1.281328e-003
2.910056e+003, -6.040912e-004
2.911985e+003, -7.356368e-004
2.913913e+003, -4.016683e-004
2.915842e+003, -8.945093e-004
2.917770e+003, -4.625879e-004
2.919698e+003, 1.798447e-003
2.921627e+003, 2.176229e-003
2.923555e+003, -2.104286e-004
2.925484e+003, -1.627577e-003
2.927412e+003, -1.132309e-003
2.929341e+003, -2.007987e-004
2.931269e+003, -1.360059e-003
2.933198e+003, -1.347557e-003
2.935126e+003, -1.065262e-003
2.937055e+003, -2.166375e-003
2.938983e+003, -2.116976e-003
2.940912e+003, -1.100757e-003
2.942840e+003, -2.709478e-004
2.944769e+003, -4.344424e-004
2.946697e+003, -1.314427e-003
2.948625e+003, -1.750403e-003
2.950554e+003, -2.208252e-003
2.952482e+003, -1.955559e-003
2.954411e+003, -2.612351e-003
2.956339e+003, -1.824937e-003
2.958268e+003, 6.301571e-004
2.960196e+003, 3.621429e-004
2.962125e+003, 3.939029e-004
2.964053e+003, 8.830205e-004
2.965982e+003, -1.106291e-003
2.967910e+003, -1.847165e-003
2.969839e+003, -6.582434e-004
2.971767e+003, -3.413572e-004
2.973696e+003, -2.183442e-003
2.975624e+003, -2.159034e-003
2.977552e+003, -1.517721e-003
2.979481e+003, -2.321558e-003
2.981409e+003, -1.974878e-003
2.983338e+003, -1.428844e-003
2.985266e+003, -9.534508e-004
2.987195e+003, -2.363063e-004
2.989123e+003, -3.351364e-004
2.991052e+003, -9.677031e-004
2.992980e+003, -6.320952e-004
2.994909e+003, -6.741404e-004
2.996837e+003, -7.895213e-004
2.998766e+003, -1.687399e-003
3.000694e+003, -1.777470e-003
3.002623e+003, -2.382840e-004
3.004551e+003, 1.091051e-003
3.006479e+003, 5.118211e-004
3.008408e+003, -9.568690e-004
3.010336e+003, -1.128051e-003
3.012265e+003, 7.262211e-004
3.014193e+003, 2.445405e-003
3.016122e+003, 1.588986e-003
3.018050e+003, 6.310648e-004
3.019979e+003, 6.934215e-004
3.021907e+003, -9.244401e-005
3.023836e+003, -8.389191e-004
3.025764e+003, -1.450315e-003
3.027693e+003, -1.717096e-003
3.029621e+003, -5.939179e-004
3.031550e+003, -9.053787e-004
3.033478e+003, -2.505174e-003
3.035406e+003, -1.450077e-003
3.037335e+003, -1.829891e-003
3.039263e+003, -1.551103e-003
3.041192e+003, -8.899017e-004
3.043120e+003, -1.665100e-003
3.045049e+003, -2.358633e-003
3.046977e+003, -1.897049e-003
3.048906e+003, -1.766575e-003
3.050834e+003, -2.148967e-003
3.052763e+003, -4.290523e-004
3.054691e+003, 5.191320e-004
3.056620e+003, -1.105393e-004
3.058548e+003, -1.424617e-003
3.060477e+003, -1.605862e-003
3.062405e+003, -1.074912e-003
3.064333e+003, -1.684876e-003
3.066262e+003, -1.902699e-003
3.068190e+003, -2.237702e-003
3.070119e+003, -2.987102e-003
3.072047e+003, -2.113733e-003
3.073976e+003, -3.197517e-003
3.075904e+003, -3.158963e-003
3.077833e+003, -1.427591e-003
3.079761e+003, -2.651986e-003
3.081690e+003, -2.941628e-003
3.083618e+003, -1.779549e-003
3.085547e+003, -6.324265e-004
3.087475e+003, 9.203029e-004
3.089404e+003, 4.343492e-004
3.091332e+003, -1.955703e-003
3.093260e+003, -2.738021e-003
3.095189e+003, -3.760409e-003
3.097117e+003, -3.136556e-003
3.099046e+003, -3.504097e-003
3.100974e+003, -2.853289e-003
3.102903e+003, -3.959484e-004
3.104831e+003, -3.057090e-005
3.106760e+003, -8.558058e-004
3.108688e+003, -1.523397e-003
3.110617e+003, -4.313276e-004
3.112545e+003, -8.757494e-005
3.114474e+003, -1.325321e-003
3.116402e+003, -2.457684e-003
3.118331e+003, -2.436120e-003
3.120259e+003, -2.019867e-003
3.122188e+003, -2.238881e-003
3.124116e+003, -3.143131e-003
3.126044e+003, -1.108548e-003
3.127973e+003, 7.345803e-004
3.129901e+003, -1.078128e-003
3.131830e+003, -2.306881e-003
3.133758e+003, -3.064837e-003
3.135687e+003, -1.654707e-003
3.137615e+003, -2.157187e-003
3.139544e+003, -4.081704e-003
3.141472e+003, -2.786261e-003
3.143401e+003, -1.271918e-003
3.145329e+003, -9.741788e-004
3.147258e+003, -1.778086e-003
3.149186e+003, -2.436690e-003
3.151115e+003, -2.684960e-003
3.153043e+003, -1.488872e-003
3.154971e+003, -3.007198e-004
3.156900e+003, -1.381813e-003
3.158828e+003, -2.534104e-003
3.160757e+003, -3.151644e-003
3.162685e+003, -2.653403e-003
3.164614e+003, -2.018471e-003
3.166542e+003, -1.919017e-003
3.168471e+003, -2.819506e-003
3.170399e+003, -4.630605e-003
3.172328e+003, -3.580610e-003
3.174256e+003, -1.867395e-003
3.176185e+003, -2.074505e-003
3.178113e+003, -1.594956e-003
3.180042e+003, -2.206636e-003
3.181970e+003, -3.981994e-003
3.183898e+003, -3.755596e-003
3.185827e+003, -2.233731e-003
3.187755e+003, -1.119365e-003
3.189684e+003, -1.317186e-003
3.191612e+003, -2.515120e-003
3.193541e+003, -3.442011e-003
3.195469e+003, -3.482217e-003
3.197398e+003, -3.202554e-003
3.199326e+003, -3.504395e-003
3.201255e+003, -3.092332e-003
3.203183e+003, -3.005661e-003
3.205112e+003, -3.401831e-003
3.207040e+003, -3.234051e-003
3.208969e+003, -2.989233e-003
3.210897e+003, -2.821266e-003
3.212825e+003, -2.763041e-003
3.214754e+003, -2.426815e-003
3.216682e+003, -1.850311e-003
3.218611e+003, -2.060260e-003
3.220539e+003, -4.102293e-003
3.222468e+003, -5.699580e-003
3.224396e+003, -5.209513e-003
3.226325e+003, -5.118369e-003
3.228253e+003, -5.351718e-003
3.230182e+003, -3.773898e-003
3.232110e+003, -1.282387e-003
3.234039e+003, -1.639399e-003
3.235967e+003, -4.160858e-003
3.237896e+003, -3.759692e-003
3.239824e+003, -3.141799e-003
3.241752e+003, -3.711250e-003
3.243681e+003, -2.841599e-003
3.245609e+003, -3.611622e-003
3.247538e+003, -3.729141e-003
3.249466e+003, -2.648836e-003
3.251395e+003, -1.930635e-003
3.253323e+003, -2.198615e-003
3.255252e+003, -3.906344e-003
3.257180e+003, -5.927030e-003
3.259109e+003, -5.159942e-003
3.261037e+003, -3.505489e-003
3.262966e+003, -3.289585e-003
3.264894e+003, -2.515960e-003
3.266823e+003, -1.238301e-003
3.268751e+003, -3.462138e-003
3.270679e+003, -4.334822e-003
3.272608e+003, -1.498970e-003
3.274536e+003, -8.824709e-004
3.276465e+003, -2.123309e-003
3.278393e+003, -3.159042e-003
3.280322e+003, -4.148424e-003
3.282250e+003, -3.557801e-003
3.284179e+003, -2.713952e-003
3.286107e+003, -3.116391e-003
3.288036e+003, -3.335946e-003
3.289964e+003, -3.034551e-003
3.291893e+003, -2.781399e-003
3.293821e+003, -3.641757e-003
3.295750e+003, -4.645638e-003
3.297678e+003, -4.948702e-003
3.299606e+003, -5.265670e-003
3.301535e+003, -4.725211e-003
3.303463e+003, -3.457630e-003
3.305392e+003, -4.634339e-003
3.307320e+003, -5.587699e-003
3.309249e+003, -4.408350e-003
3.311177e+003, -3.762825e-003
3.313106e+003, -2.714956e-003
3.315034e+003, -1.921146e-003
3.316963e+003, -1.498426e-003
3.318891e+003, -2.829564e-003
3.320820e+003, -4.680099e-003
3.322748e+003, -3.724364e-003
3.324677e+003, -2.279392e-003
3.326605e+003, -1.515995e-003
3.328533e+003, -2.358233e-003
3.330462e+003, -4.150325e-003
3.332390e+003, -5.045247e-003
3.334319e+003, -4.601552e-003
3.336247e+003, -4.104184e-003
3.338176e+003, -3.625151e-003
3.340104e+003, -3.069424e-003
3.342033e+003, -1.924849e-003
3.343961e+003, -3.211499e-003
3.345890e+003, -4.855653e-003
3.347818e+003, -4.582365e-003
3.349747e+003, -3.477174e-003
3.351675e+003, -4.220832e-003
3.353604e+003, -4.224480e-003
3.355532e+003, -3.430936e-003
3.357460e+003, -4.642361e-003
3.359389e+003, -5.105535e-003
3.361317e+003, -3.998638e-003
3.363246e+003, -4.426287e-003
3.365174e+003, -5.401302e-003
3.367103e+003, -5.085350e-003
3.369031e+003, -3.452980e-003
3.370960e+003, -1.989584e-003
3.372888e+003, -5.370076e-004
3.374817e+003, -2.013525e-003
3.376745e+003, -2.438859e-003
3.378674e+003, -3.911098e-003
3.380602e+003, -5.991989e-003
3.382531e+003, -5.151091e-003
3.384459e+003, -4.793707e-003
3.386387e+003, -5.337865e-003
3.388316e+003, -5.530274e-003
3.390244e+003, -3.149689e-003
3.392173e+003, -3.126358e-003
3.394101e+003, -4.579684e-003
3.396030e+003, -5.623353e-003
3.397958e+003, -4.788475e-003
3.399887e+003, -4.387578e-003
3.401815e+003, -4.140896e-003
3.403744e+003, -4.624624e-003
3.405672e+003, -3.324135e-003
3.407601e+003, -3.447791e-003
3.409529e+003, -4.886981e-003
3.411458e+003, -3.698193e-003
3.413386e+003, -4.102649e-003
3.415314e+003, -3.947306e-003
3.417243e+003, -2.386492e-003
3.419171e+003, -3.506517e-003
3.421100e+003, -3.921546e-003
3.423028e+003, -3.676117e-003
3.424957e+003, -4.087584e-003
3.426885e+003, -2.944300e-003
3.428814e+003, -3.603288e-004
3.430742e+003, -5.442870e-004
3.432671e+003, -2.217838e-003
3.434599e+003, -2.806450e-003
3.436528e+003, -4.131939e-003
3.438456e+003, -3.371366e-003
3.440385e+003, -3.057376e-003
3.442313e+003, -4.551269e-003
3.444241e+003, -4.681241e-003
3.446170e+003, -2.180952e-003
3.448098e+003, -2.293400e-003
3.450027e+003, -4.169830e-003
3.451955e+003, -3.199717e-003
3.453884e+003, -1.334934e-003
3.455812e+003, -1.578766e-003
3.457741e+003, -2.556147e-003
3.459669e+003, -4.694896e-003
3.461598e+003, -5.245782e-003
3.463526e+003, -4.059224e-003
3.465455e+003, -1.760951e-003
3.467383e+003, -5.847833e-004
3.469312e+003, -2.733614e-003
3.471240e+003, -4.566581e-003
3.473168e+003, -2.611667e-003
3.475097e+003, -2.083704e-003
3.477025e+003, -3.800990e-003
3.478954e+003, -3.052194e-003
3.480882e+003, -1.152687e-003
3.482811e+003, -2.400022e-003
3.484739e+003, -5.204218e-003
3.486668e+003, -4.685812e-003
3.488596e+003, -2.491485e-003
3.490525e+003, -2.584655e-003
3.492453e+003, -3.467259e-003
3.494382e+003, -2.520123e-003
3.496310e+003, -2.006069e-003
3.498239e+003, -4.380669e-003
3.500167e+003, -3.616656e-003
3.502095e+003, -1.942058e-003
3.504024e+003, -1.040619e-003
3.505952e+003, -2.709839e-003
3.507881e+003, -3.332742e-003
3.509809e+003, -1.798358e-003
3.511738e+003, -1.097908e-003
3.513666e+003, -3.004555e-004
3.515595e+003, 1.171715e-003
3.517523e+003, -5.058176e-005
3.519452e+003, -1.834165e-003
3.521380e+003, 1.592077e-003
3.523309e+003, 4.885242e-004
3.525237e+003, -3.938745e-003
3.527166e+003, -3.592202e-003
3.529094e+003, -1.532344e-003
3.531022e+003, -2.018274e-003
3.532951e+003, -5.757129e-003
3.534879e+003, -4.328799e-003
3.536808e+003, -2.110174e-003
3.538736e+003, -2.623281e-003
3.540665e+003, -2.232203e-003
3.542593e+003, 6.315197e-005
3.544522e+003, -8.103637e-006
3.546450e+003, -1.703984e-003
3.548379e+003, -3.763939e-003
3.550307e+003, -3.427513e-003
3.552236e+003, -2.649620e-003
3.554164e+003, -1.600993e-003
3.556093e+003, -1.114130e-003
3.558021e+003, 1.211575e-003
3.559949e+003, 2.412893e-003
3.561878e+003, 5.968212e-004
3.563806e+003, 1.990274e-003
3.565735e+003, 4.099814e-003
3.567663e+003, 4.218071e-003
3.569592e+003, 2.350960e-003
3.571520e+003, 2.446258e-004
3.573449e+003, -1.284849e-003
3.575377e+003, -1.213099e-003
3.577306e+003, -5.353105e-004
3.579234e+003, -6.261662e-005
3.581163e+003, 2.102980e-003
3.583091e+003, 4.198693e-003
3.585020e+003, 1.932771e-004
3.586948e+003, -3.304091e-003
3.588876e+003, -9.852475e-004
3.590805e+003, 2.109620e-004
3.592733e+003, 5.487600e-004
3.594662e+003, 1.893022e-003
3.596590e+003, 1.843688e-003
3.598519e+003, -1.002194e-003
3.600447e+003, -9.199892e-004
3.602376e+003, -1.316955e-003
3.604304e+003, -1.687642e-003
3.606233e+003, 5.820199e-004
3.608161e+003, 1.668412e-003
3.610090e+003, -1.559984e-003
3.612018e+003, -3.668828e-003
3.613947e+003, -2.364851e-003
3.615875e+003, -2.263708e-003
3.617803e+003, -1.145939e-004
3.619732e+003, 3.067071e-004
3.621660e+003, 2.628400e-003
3.623589e+003, 4.679848e-003
3.625517e+003, 1.724060e-003
3.627446e+003, 5.719771e-004
3.629374e+003, 6.438610e-004
3.631303e+003, -4.481273e-004
3.633231e+003, -2.548316e-004
3.635160e+003, 1.402072e-004
3.637088e+003, 5.266022e-004
3.639017e+003, -8.681450e-004
3.640945e+003, -1.424831e-003
3.642874e+003, -1.224421e-003
3.644802e+003, -2.048935e-003
3.646730e+003, -4.285627e-003
3.648659e+003, -2.304392e-003
3.650587e+003, -1.257472e-003
3.652516e+003, -2.452200e-003
3.654444e+003, -9.328184e-004
3.656373e+003, 2.778105e-003
3.658301e+003, 3.770478e-003
3.660230e+003, 6.538804e-003
3.662158e+003, 7.634087e-003
3.664087e+003, 4.296769e-003
3.666015e+003, 7.518331e-004
3.667944e+003, -2.637065e-004
3.669872e+003, -1.445731e-004
3.671801e+003, -1.384881e-003
3.673729e+003, -2.095102e-003
3.675657e+003, -1.668738e-003
3.677586e+003, -1.039801e-003
3.679514e+003, 1.743511e-004
3.681443e+003, 9.390421e-004
3.683371e+003, -1.299983e-003
3.685300e+003, -3.163528e-004
3.687228e+003, -1.174505e-003
3.689157e+003, -1.768033e-003
3.691085e+003, 2.813424e-003
3.693014e+003, 2.926690e-003
3.694942e+003, 2.714941e-003
3.696871e+003, 1.729542e-003
3.698799e+003, 1.414430e-003
3.700728e+003, 3.848278e-004
3.702656e+003, -9.274639e-005
3.704584e+003, 9.518228e-004
3.706513e+003, -3.217346e-004
3.708441e+003, -1.690618e-003
3.710370e+003, -1.319339e-003
3.712298e+003, 7.012721e-004
3.714227e+003, -1.183719e-003
3.716155e+003, -5.412137e-003
3.718084e+003, -2.338644e-003
3.720012e+003, 3.630386e-004
3.721941e+003, 6.829833e-004
3.723869e+003, 6.770419e-004
3.725798e+003, -1.617877e-003
3.727726e+003, -2.698027e-003
3.729655e+003, -1.662020e-003
3.731583e+003, 3.300352e-004
3.733511e+003, 2.275194e-003
3.735440e+003, 1.686131e-003
3.737368e+003, 2.973530e-004
3.739297e+003, 1.881862e-003
3.741225e+003, 4.444530e-003
3.743154e+003, 3.429083e-003
3.745082e+003, 2.903684e-003
3.747011e+003, 4.245129e-003
3.748939e+003, 3.129187e-003
3.750868e+003, 8.680883e-004
3.752796e+003, 3.393737e-004
3.754725e+003, 1.925968e-004
3.756653e+003, -1.393255e-003
3.758582e+003, -1.267668e-003
3.760510e+003, 1.714286e-003
3.762438e+003, 5.257335e-003
3.764367e+003, 4.517798e-003
3.766295e+003, 6.589181e-005
3.768224e+003, -2.594707e-003
3.770152e+003, -1.220427e-004
3.772081e+003, 5.563995e-004
3.774009e+003, -4.824899e-004
3.775938e+003, -5.867957e-004
3.777866e+003, -8.962354e-005
3.779795e+003, 1.954655e-003
3.781723e+003, 4.532471e-003
3.783652e+003, 1.822351e-003
3.785580e+003, 5.734477e-004
3.787509e+003, 1.987668e-003
3.789437e+003, 1.504270e-004
3.791365e+003, -7.637378e-004
3.793294e+003, 1.207290e-003
3.795222e+003, 1.014746e-003
3.797151e+003, 1.727841e-003
3.799079e+003, 3.400973e-003
3.801008e+003, 1.478348e-003
3.802936e+003, -5.909606e-005
3.804865e+003, 5.158351e-004
3.806793e+003, -3.695326e-004
3.808722e+003, -9.042163e-004
3.810650e+003, -3.755875e-004
3.812579e+003, 2.486285e-004
3.814507e+003, 1.671846e-003
3.816436e+003, 9.147672e-004
3.818364e+003, -1.416015e-003
3.820292e+003, 1.532346e-003
3.822221e+003, 4.632569e-003
3.824149e+003, 4.652569e-003
3.826078e+003, 2.383357e-005
3.828006e+003, -2.550263e-003
3.829935e+003, -1.793162e-003
3.831863e+003, 2.931883e-004
3.833792e+003, 3.931358e-003
3.835720e+003, 3.176027e-003
3.837649e+003, 1.686953e-003
3.839577e+003, 6.675334e-004
3.841506e+003, -9.254842e-004
3.843434e+003, -1.352386e-004
3.845363e+003, 2.676913e-003
3.847291e+003, 2.034740e-003
3.849219e+003, 1.886618e-003
3.851148e+003, 1.638984e-003
3.853076e+003, 1.154261e-003
3.855005e+003, 9.551960e-004
3.856933e+003, -8.414516e-004
3.858862e+003, -2.881141e-003
3.860790e+003, -3.136565e-003
3.862719e+003, -2.558821e-003
3.864647e+003, -1.593483e-003
3.866576e+003, 1.966685e-004
3.868504e+003, 4.307467e-003
3.870433e+003, 3.940395e-003
3.872361e+003, 2.143450e-003
3.874290e+003, 2.453929e-003
3.876218e+003, 8.507099e-004
3.878146e+003, 1.036275e-003
3.880075e+003, 1.646147e-003
3.882003e+003, 1.054552e-003
3.883932e+003, 1.256065e-004
3.885860e+003, -7.817435e-004
3.887789e+003, 1.985205e-004
3.889717e+003, 4.514052e-004
3.891646e+003, -1.419228e-003
3.893574e+003, -3.623098e-003
3.895503e+003, 2.473234e-004
3.897431e+003, 1.173105e-003
3.899360e+003, -1.346132e-003
3.901288e+003, -1.123590e-003
3.903217e+003, 2.011877e-003
3.905145e+003, 2.553038e-003
3.907073e+003, 1.422424e-003
3.909002e+003, 8.639956e-004
3.910930e+003, 1.839936e-003
3.912859e+003, 1.850189e-004
3.914787e+003, -1.248027e-003
3.916716e+003, -1.664952e-004
3.918644e+003, 1.478227e-003
3.920573e+003, 3.300170e-003
3.922501e+003, 2.131774e-003
3.924430e+003, -6.337892e-004
3.926358e+003, -2.326872e-003
3.928287e+003, -2.173329e-003
3.930215e+003, -2.286762e-003
3.932144e+003, -2.478749e-003
3.934072e+003, -8.564566e-004
3.936000e+003, 2.477082e-003
3.937929e+003, 2.908380e-003
3.939857e+003, 3.269119e-004
3.941786e+003, 1.421597e-003
3.943714e+003, 2.867103e-003
3.945643e+003, 6.255509e-004
3.947571e+003, -2.274393e-003
3.949500e+003, -1.372856e-003
3.951428e+003, 1.763442e-003
3.953357e+003, 1.901334e-003
3.955285e+003, -2.516063e-004
3.957214e+003, -2.263973e-003
3.959142e+003, -1.695483e-003
3.961071e+003, 7.541751e-004
3.962999e+003, 3.799448e-003
3.964927e+003, 2.447924e-003
3.966856e+003, -6.888601e-004
3.968784e+003, 1.670155e-004
3.970713e+003, 9.571434e-004
3.972641e+003, 2.473498e-004
3.974570e+003, 2.102055e-003
3.976498e+003, 3.674669e-003
3.978427e+003, 2.516588e-003
3.980355e+003, 3.766919e-003
3.982284e+003, 1.889488e-003
3.984212e+003, 7.399593e-004
3.986141e+003, 8.454989e-004
3.988069e+003, -1.914983e-003
3.989998e+003, -5.409298e-003
3.991926e+003, -3.271354e-003
3.993854e+003, -2.449729e-003
3.995783e+003, -5.071366e-004
3.997711e+003, 1.087310e-003
3.999640e+003, 1.087834e-003
4.001568e+003, 0.000000e+000
##END=



