##NAMES=Dawsonite
##RRUFFID=R050645
##IDEAL CHEMISTRY=NaAlCO_3_(OH)_2_
##LOCALITY=Cerro Sapo, Cochabamba Department, Bolivia
##OWNER=RRUFF
##SOURCE=Marcus Origlieri
##DESCRIPTION=White fibrous aggregates associated with blue sodalite on pale green ankerite.
##STATUS=The identification of this mineral is confirmed by single-crystal X-ray diffraction and chemical analysis.
##URL=rruff.info/R050645
##MEASURED CHEMISTRY=Na_1.00_(Al_0.99_Fe^3+^_0.01_)_Î£=1_CO_3_(OH)_2_
399.1926, 0.1354604
401.1211, 0.1365354
403.0496, 0.1371918
404.9780, 0.1391564
406.9065, 0.1406571
408.8350, 0.1431020
410.7634, 0.1408696
412.6919, 0.1380548
414.6204, 0.1307661
416.5488, 0.1243929
418.4773, 0.1260462
420.4058, 0.1324950
422.3342, 0.1360031
424.2627, 0.1368041
426.1912, 0.1403117
428.1196, 0.1421865
430.0481, 0.1402949
431.9766, 0.1444257
433.9050, 0.1501012
435.8335, 0.1504826
437.7620, 0.1498234
439.6904, 0.1536796
441.6189, 0.1595373
443.5474, 0.1626491
445.4758, 0.1660686
447.4043, 0.1722893
449.3328, 0.1792703
451.2612, 0.1863784
453.1897, 0.1933586
455.1182, 0.2001192
457.0466, 0.2065282
458.9751, 0.2128825
460.9036, 0.2183567
462.8320, 0.2236697
464.7605, 0.2264682
466.6890, 0.2294405
468.6174, 0.2341337
470.5459, 0.2409661
472.4744, 0.2478392
474.4028, 0.2552818
476.3313, 0.2616393
478.2598, 0.2658335
480.1882, 0.2701547
482.1167, 0.2730593
484.0452, 0.2749282
485.9736, 0.2732949
487.9021, 0.2677688
489.8306, 0.2630623
491.7590, 0.2564743
493.6875, 0.2445672
495.6160, 0.2315876
497.5444, 0.2335385
499.4729, 0.2484484
501.4014, 0.2636614
503.3298, 0.2713661
505.2583, 0.2729348
507.1868, 0.2735527
509.1152, 0.2727762
511.0437, 0.2703571
512.9722, 0.2670640
514.9006, 0.2627008
516.8291, 0.2594478
518.7576, 0.2556802
520.6860, 0.2521437
522.6145, 0.2491841
524.5430, 0.2481254
526.4714, 0.2469511
528.3999, 0.2452200
530.3284, 0.2447849
532.2568, 0.2442855
534.1853, 0.2447762
536.1138, 0.2475449
538.0422, 0.2510938
539.9707, 0.2556912
541.8992, 0.2609933
543.8276, 0.2655228
545.7561, 0.2680863
547.6846, 0.2671507
549.6130, 0.2640088
551.5415, 0.2597213
553.4700, 0.2516990
555.3984, 0.2437227
557.3269, 0.2340004
559.2554, 0.2244104
561.1838, 0.2170138
563.1123, 0.2094906
565.0408, 0.2013407
566.9692, 0.1948132
568.8977, 0.1876661
570.8262, 0.1794522
572.7546, 0.1715982
574.6831, 0.1663538
576.6116, 0.1627198
578.5400, 0.1591531
580.4685, 0.1543953
582.3970, 0.1503880
584.3254, 0.1474131
586.2539, 0.1444652
588.1824, 0.1418346
590.1108, 0.1391205
592.0393, 0.1357206
593.9678, 0.1330237
595.8962, 0.1309400
597.8247, 0.1285889
599.7532, 0.1263692
601.6816, 0.1248946
603.6101, 0.1234305
605.5386, 0.1228416
607.4670, 0.1217423
609.3955, 0.1208263
611.3240, 0.1201038
613.2524, 0.1193724
615.1809, 0.1191268
617.1094, 0.1190076
619.0378, 0.1189044
620.9663, 0.1191967
622.8948, 0.1193369
624.8232, 0.1190348
626.7517, 0.1195206
628.6802, 0.1200130
630.6086, 0.1206966
632.5371, 0.1211930
634.4656, 0.1216973
636.3940, 0.1221966
638.3225, 0.1227412
640.2510, 0.1230845
642.1794, 0.1243133
644.1079, 0.1266423
646.0364, 0.1284147
647.9648, 0.1293708
649.8933, 0.1311024
651.8218, 0.1329154
653.7502, 0.1345516
655.6787, 0.1367179
657.6072, 0.1395788
659.5356, 0.1422867
661.4641, 0.1447618
663.3926, 0.1479746
665.3210, 0.1512331
667.2495, 0.1537614
669.1780, 0.1557473
671.1064, 0.1576818
673.0349, 0.1590030
674.9634, 0.1598137
676.8918, 0.1599713
678.8203, 0.1603536
680.7488, 0.1614900
682.6772, 0.1624426
684.6057, 0.1628430
686.5342, 0.1627496
688.4626, 0.1624436
690.3911, 0.1613863
692.3196, 0.1598121
694.2480, 0.1575340
696.1765, 0.1543734
698.1050, 0.1504268
700.0334, 0.1451808
701.9619, 0.1389388
703.8904, 0.1332748
705.8188, 0.1274200
707.7473, 0.1206657
709.6758, 0.1146367
711.6042, 0.1090867
713.5327, 0.1040310
715.4612, 9.9300593E-02
717.3896, 9.4974339E-02
719.3181, 9.1936909E-02
721.2466, 9.0329930E-02
723.1750, 8.9441717E-02
725.1035, 8.9458928E-02
727.0320, 9.1159120E-02
728.9604, 9.4044678E-02
730.8889, 9.4590724E-02
732.8174, 9.0633281E-02
734.7458, 8.5788213E-02
736.6743, 8.2384430E-02
738.6028, 8.0345333E-02
740.5313, 7.9135530E-02
742.4597, 7.8652039E-02
744.3882, 7.8061000E-02
746.3167, 7.7271268E-02
748.2451, 7.7319168E-02
750.1736, 7.7371873E-02
752.1021, 7.7092141E-02
754.0305, 7.6863468E-02
755.9590, 7.6741740E-02
757.8875, 7.7057540E-02
759.8159, 7.7207029E-02
761.7444, 7.6911584E-02
763.6729, 7.6401249E-02
765.6013, 7.6079108E-02
767.5298, 7.5799458E-02
769.4583, 7.5318202E-02
771.3867, 7.4518614E-02
773.3152, 7.4091032E-02
775.2437, 7.3646121E-02
777.1721, 7.2665773E-02
779.1006, 7.1806423E-02
781.0291, 7.1437597E-02
782.9575, 7.0899598E-02
784.8860, 7.0061930E-02
786.8145, 6.9312513E-02
788.7429, 6.8903193E-02
790.6714, 6.8569504E-02
792.5999, 6.7911670E-02
794.5283, 6.7088008E-02
796.4568, 6.6804677E-02
798.3853, 6.6536129E-02
800.3137, 6.6206463E-02
802.2422, 6.6331357E-02
804.1707, 6.6488288E-02
806.0991, 6.6503949E-02
808.0276, 6.6733338E-02
809.9561, 6.7169167E-02
811.8845, 6.7926116E-02
813.8130, 6.8749182E-02
815.7415, 6.9861531E-02
817.6699, 7.1044996E-02
819.5984, 7.1982957E-02
821.5269, 7.2964340E-02
823.4553, 7.4619822E-02
825.3838, 7.6202467E-02
827.3123, 7.8050107E-02
829.2407, 7.9965673E-02
831.1692, 8.2064956E-02
833.0977, 8.5503973E-02
835.0261, 8.9836501E-02
836.9546, 9.5864654E-02
838.8831, 0.1055761
840.8115, 0.1210364
842.7400, 0.1434211
844.6685, 0.1660655
846.5969, 0.1715319
848.5254, 0.1492790
850.4539, 0.1193883
852.3823, 0.1052462
854.3108, 0.1068752
856.2393, 0.1142510
858.1677, 0.1195673
860.0962, 0.1202654
862.0247, 0.1171608
863.9531, 0.1104015
865.8816, 0.1014923
867.8101, 9.2779972E-02
869.7385, 8.6342447E-02
871.6670, 8.2335129E-02
873.5955, 8.0124222E-02
875.5239, 7.9579748E-02
877.4524, 7.9129778E-02
879.3809, 7.8281559E-02
881.3093, 7.7723712E-02
883.2378, 7.7199049E-02
885.1663, 7.7280462E-02
887.0947, 7.8457981E-02
889.0232, 7.9887293E-02
890.9517, 8.1833497E-02
892.8801, 8.4712319E-02
894.8085, 8.8230163E-02
896.7370, 9.1820948E-02
898.6655, 9.5620729E-02
900.5939, 0.1002684
902.5224, 0.1055532
904.4509, 0.1108319
906.3793, 0.1165635
908.3078, 0.1234105
910.2363, 0.1312758
912.1647, 0.1395414
914.0932, 0.1479676
916.0217, 0.1569685
917.9501, 0.1656487
919.8786, 0.1743564
921.8071, 0.1834987
923.7355, 0.1926202
925.6640, 0.2011766
927.5925, 0.2090758
929.5209, 0.2158990
931.4494, 0.2205566
933.3779, 0.2233039
935.3063, 0.2246298
937.2348, 0.2243320
939.1633, 0.2233527
941.0917, 0.2221140
943.0202, 0.2208908
944.9487, 0.2202855
946.8771, 0.2218239
948.8056, 0.2261383
950.7341, 0.2334867
952.6625, 0.2418259
954.5910, 0.2454279
956.5195, 0.2392260
958.4479, 0.2240989
960.3764, 0.2041033
962.3049, 0.1835663
964.2333, 0.1651667
966.1618, 0.1497388
968.0903, 0.1371047
970.0187, 0.1272708
971.9472, 0.1199527
973.8757, 0.1140981
975.8041, 0.1096384
977.7326, 0.1065817
979.6611, 0.1044150
981.5895, 0.1028744
983.5180, 0.1015108
985.4465, 0.1002432
987.3749, 9.9377073E-02
989.3034, 9.8679677E-02
991.2319, 9.8087810E-02
993.1603, 9.7558893E-02
995.0888, 9.7045369E-02
997.0173, 9.6622042E-02
998.9457, 9.5995449E-02
1000.874, 9.5090777E-02
1002.803, 9.4519489E-02
1004.731, 9.3977652E-02
1006.660, 9.3012422E-02
1008.588, 9.2296883E-02
1010.517, 9.1786802E-02
1012.445, 9.0826631E-02
1014.373, 8.9607462E-02
1016.302, 8.8530809E-02
1018.230, 8.7697037E-02
1020.159, 8.6755283E-02
1022.087, 8.5647382E-02
1024.016, 8.4913060E-02
1025.944, 8.4518172E-02
1027.873, 8.3916023E-02
1029.801, 8.2878336E-02
1031.730, 8.2251512E-02
1033.658, 8.1909627E-02
1035.587, 8.1605643E-02
1037.515, 8.1102043E-02
1039.444, 8.0340162E-02
1041.372, 7.9585083E-02
1043.301, 7.8800820E-02
1045.229, 7.8102097E-02
1047.157, 7.7945463E-02
1049.086, 7.7655621E-02
1051.014, 7.6992244E-02
1052.943, 7.6143622E-02
1054.871, 7.4998841E-02
1056.800, 7.4246220E-02
1058.728, 7.3469453E-02
1060.657, 7.2247326E-02
1062.585, 7.1330942E-02
1064.514, 7.0470288E-02
1066.442, 6.9373801E-02
1068.371, 6.8639003E-02
1070.299, 6.8019509E-02
1072.228, 6.7137539E-02
1074.156, 6.5191723E-02
1076.084, 6.3197963E-02
1078.013, 6.2446430E-02
1079.941, 6.2201571E-02
1081.870, 6.2263940E-02
1083.798, 6.3225202E-02
1085.727, 6.5373823E-02
1087.655, 6.8543933E-02
1089.584, 7.3112853E-02
1091.512, 7.8754671E-02
1093.441, 8.4757037E-02
1095.369, 8.8982880E-02
1097.298, 8.9067660E-02
1099.226, 8.4048077E-02
1101.155, 7.5028673E-02
1103.083, 6.4756833E-02
1105.011, 5.5554889E-02
1106.940, 4.8292279E-02
1108.868, 4.2848449E-02
1110.797, 3.8837969E-02
1112.725, 3.5872880E-02
1114.654, 3.3417881E-02
1116.582, 3.1625301E-02
1118.511, 3.0383660E-02
1120.439, 2.9147470E-02
1122.368, 2.8131161E-02
1124.296, 2.7570210E-02
1126.225, 2.6689749E-02
1128.153, 2.5733180E-02
1130.082, 2.5175130E-02
1132.010, 2.4996489E-02
1133.938, 2.4718059E-02
1135.867, 2.3871610E-02
1137.795, 2.3145931E-02
1139.724, 2.2838170E-02
1141.652, 2.2586130E-02
1143.581, 2.1946680E-02
1145.509, 2.1530150E-02
1147.438, 2.1249009E-02
1149.366, 2.0854659E-02
1151.295, 2.0523300E-02
1153.223, 2.0110911E-02
1155.152, 1.9725971E-02
1157.080, 1.9524399E-02
1159.009, 1.9306440E-02
1160.937, 1.9047219E-02
1162.865, 1.8860510E-02
1164.794, 1.8517779E-02
1166.722, 1.8075610E-02
1168.651, 1.8015319E-02
1170.579, 1.7814390E-02
1172.508, 1.7290881E-02
1174.436, 1.7088089E-02
1176.365, 1.6886620E-02
1178.293, 1.6803101E-02
1180.222, 1.7093221E-02
1182.150, 1.6922750E-02
1184.079, 1.6597381E-02
1186.007, 1.6691910E-02
1187.936, 1.6721660E-02
1189.864, 1.6480790E-02
1191.792, 1.6285760E-02
1193.721, 1.6200980E-02
1195.649, 1.6152080E-02
1197.578, 1.6196391E-02
1199.506, 1.6060529E-02
1201.435, 1.5879029E-02
1203.363, 1.5852969E-02
1205.292, 1.5743580E-02
1207.220, 1.5897270E-02
1209.149, 1.6186129E-02
1211.077, 1.6339591E-02
1213.006, 1.6475189E-02
1214.934, 1.6425749E-02
1216.863, 1.6320780E-02
1218.791, 1.6410170E-02
1220.719, 1.6526381E-02
1222.648, 1.6580621E-02
1224.576, 1.6532641E-02
1226.505, 1.6377730E-02
1228.433, 1.6445080E-02
1230.362, 1.6558520E-02
1232.290, 1.6581560E-02
1234.219, 1.6697319E-02
1236.147, 1.6930001E-02
1238.076, 1.7055910E-02
1240.004, 1.7237719E-02
1241.933, 1.7328260E-02
1243.861, 1.7518921E-02
1245.790, 1.7707750E-02
1247.718, 1.7962210E-02
1249.646, 1.8108631E-02
1251.575, 1.8234041E-02
1253.503, 1.8559139E-02
1255.432, 1.8874019E-02
1257.360, 1.9073360E-02
1259.289, 1.9373000E-02
1261.217, 1.9668389E-02
1263.146, 1.9730311E-02
1265.074, 2.0127241E-02
1267.003, 2.0833330E-02
1268.931, 2.1410190E-02
1270.860, 2.1985689E-02
1272.788, 2.2610430E-02
1274.717, 2.3250550E-02
1276.645, 2.3838190E-02
1278.573, 2.4227539E-02
1280.502, 2.4466790E-02
1282.430, 2.4652230E-02
1284.359, 2.4915179E-02
1286.287, 2.5106641E-02
1288.216, 2.5352770E-02
1290.144, 2.5537729E-02
1292.073, 2.5960840E-02
1294.001, 2.6429720E-02
1295.930, 2.6737910E-02
1297.858, 2.6881119E-02
1299.787, 2.7039470E-02
1301.715, 2.7737450E-02
1303.644, 2.8327851E-02
1305.572, 2.8802641E-02
1307.500, 2.9405421E-02
1309.429, 2.9886831E-02
1311.357, 3.0693300E-02
1313.286, 3.1572651E-02
1315.214, 3.2237731E-02
1317.143, 3.2839399E-02
1319.071, 3.3809960E-02
1321.000, 3.5022739E-02
1322.928, 3.6121629E-02
1324.857, 3.7258789E-02
1326.785, 3.8449809E-02
1328.714, 3.9375432E-02
1330.642, 4.0610310E-02
1332.571, 4.2193759E-02
1334.499, 4.3970771E-02
1336.427, 4.5678832E-02
1338.356, 4.7614548E-02
1340.284, 4.9985699E-02
1342.213, 5.2492078E-02
1344.141, 5.4961320E-02
1346.070, 5.7963561E-02
1347.998, 6.1574489E-02
1349.927, 6.5370910E-02
1351.855, 6.8144970E-02
1353.784, 6.9757000E-02
1355.712, 7.1610317E-02
1357.641, 7.4713074E-02
1359.569, 7.8732051E-02
1361.498, 8.3489433E-02
1363.426, 8.8832520E-02
1365.354, 9.4935387E-02
1367.283, 0.1019878
1369.211, 0.1096992
1371.140, 0.1185338
1373.068, 0.1287642
1374.997, 0.1405099
1376.925, 0.1534619
1378.854, 0.1680828
1380.782, 0.1850124
1382.711, 0.2042287
1384.639, 0.2263040
1386.568, 0.2509376
1388.496, 0.2772733
1390.424, 0.3024939
1392.353, 0.3240871
1394.281, 0.3406987
1396.210, 0.3510283
1398.138, 0.3540352
1400.067, 0.3498551
1401.995, 0.3391159
1403.924, 0.3239160
1405.852, 0.3063634
1407.781, 0.2871804
1409.709, 0.2678235
1411.638, 0.2491503
1413.566, 0.2315689
1415.495, 0.2154515
1417.423, 0.2007922
1419.351, 0.1877321
1421.280, 0.1760491
1423.208, 0.1656842
1425.137, 0.1569001
1427.065, 0.1499100
1428.994, 0.1439082
1430.922, 0.1384672
1432.851, 0.1337577
1434.779, 0.1297954
1436.708, 0.1262048
1438.636, 0.1229697
1440.565, 0.1203969
1442.493, 0.1182453
1444.422, 0.1170832
1446.350, 0.1169059
1448.278, 0.1171211
1450.207, 0.1178569
1452.135, 0.1193396
1454.064, 0.1209794
1455.992, 0.1227532
1457.921, 0.1246618
1459.849, 0.1265947
1461.778, 0.1284246
1463.706, 0.1301881
1465.635, 0.1315463
1467.563, 0.1321078
1469.492, 0.1324812
1471.420, 0.1327106
1473.349, 0.1324981
1475.277, 0.1320742
1477.205, 0.1315462
1479.134, 0.1313889
1481.062, 0.1308674
1482.991, 0.1296319
1484.919, 0.1274414
1486.848, 0.1249482
1488.776, 0.1224984
1490.705, 0.1203334
1492.633, 0.1187924
1494.562, 0.1174250
1496.490, 0.1161508
1498.419, 0.1151216
1500.347, 0.1139792
1502.276, 0.1127127
1504.204, 0.1119575
1506.132, 0.1116248
1508.061, 0.1110511
1509.989, 0.1105390
1511.918, 0.1100537
1513.846, 0.1100566
1515.775, 0.1105269
1517.703, 0.1112919
1519.632, 0.1124872
1521.560, 0.1144466
1523.489, 0.1172632
1525.417, 0.1208356
1527.346, 0.1257994
1529.274, 0.1319417
1531.203, 0.1392426
1533.131, 0.1474616
1535.059, 0.1559087
1536.988, 0.1643126
1538.916, 0.1730040
1540.845, 0.1815398
1542.773, 0.1889929
1544.702, 0.1960673
1546.630, 0.2029372
1548.559, 0.2085705
1550.487, 0.2130666
1552.416, 0.2167546
1554.344, 0.2198400
1556.273, 0.2216891
1558.201, 0.2222696
1560.130, 0.2230300
1562.058, 0.2231467
1563.986, 0.2227681
1565.915, 0.2214527
1567.843, 0.2189215
1569.772, 0.2157414
1571.700, 0.2114875
1573.629, 0.2062133
1575.557, 0.1996987
1577.486, 0.1918886
1579.414, 0.1834275
1581.343, 0.1748471
1583.271, 0.1651620
1585.200, 0.1549097
1587.128, 0.1450175
1589.057, 0.1350393
1590.985, 0.1255703
1592.913, 0.1161985
1594.842, 0.1072467
1596.770, 9.8755017E-02
1598.699, 9.0929881E-02
1600.627, 8.3516657E-02
1602.556, 7.6827087E-02
1604.484, 7.0244431E-02
1606.413, 6.4040117E-02
1608.341, 5.8563732E-02
1610.270, 5.3550620E-02
1612.198, 4.8979741E-02
1614.127, 4.4615000E-02
1616.055, 4.0821549E-02
1617.984, 3.7210088E-02
1619.912, 3.3951558E-02
1621.840, 3.1401839E-02
1623.769, 2.9326430E-02
1625.697, 2.7527820E-02
1627.626, 2.5787180E-02
1629.554, 2.4196880E-02
1631.483, 2.2808069E-02
1633.411, 2.1658029E-02
1635.340, 2.0700550E-02
1637.268, 2.0113399E-02
1639.197, 1.9465391E-02
1641.125, 1.8774999E-02
1643.054, 1.8219350E-02
1644.982, 1.7986139E-02
1646.911, 1.7845189E-02
1648.839, 1.7673369E-02
1650.767, 1.7113799E-02
1652.696, 1.6844790E-02
1654.624, 1.6533149E-02
1656.553, 1.6322689E-02
1658.481, 1.6576869E-02
1660.410, 1.6512319E-02
1662.338, 1.5748071E-02
1664.267, 1.5219180E-02
1666.195, 1.5270700E-02
1668.124, 1.5466050E-02
1670.052, 1.5073750E-02
1671.981, 1.4433070E-02
1673.909, 1.4050900E-02
1675.838, 1.4056220E-02
1677.766, 1.4182120E-02
1679.694, 1.4293320E-02
1681.623, 1.4239270E-02
1683.551, 1.3835030E-02
1685.480, 1.3833350E-02
1687.408, 1.3928950E-02
1689.337, 1.3445230E-02
1691.265, 1.3140060E-02
1693.194, 1.3105700E-02
1695.122, 1.3201480E-02
1697.051, 1.3490930E-02
1698.979, 1.3587970E-02
1700.908, 1.3619470E-02
1702.836, 1.4113750E-02
1704.765, 1.4978570E-02
1706.693, 1.5698120E-02
1708.621, 1.6242141E-02
1710.550, 1.7077530E-02
1712.478, 1.7481590E-02
1714.407, 1.7796829E-02
1716.335, 1.7702639E-02
1718.264, 1.7583439E-02
1720.192, 1.8047210E-02
1722.121, 1.8400950E-02
1724.049, 1.8447910E-02
1725.978, 1.8398499E-02
1727.906, 1.8096350E-02
1729.835, 1.7101580E-02
1731.763, 1.6549990E-02
1733.692, 1.6427729E-02
1735.620, 1.5736610E-02
1737.548, 1.4992250E-02
1739.477, 1.4295670E-02
1741.405, 1.3388710E-02
1743.334, 1.2661900E-02
1745.262, 1.2631460E-02
1747.191, 1.2662420E-02
1749.119, 1.1969390E-02
1751.048, 1.1822580E-02
1752.976, 1.1682580E-02
1754.905, 1.1084490E-02
1756.833, 1.1180960E-02
1758.762, 1.1890580E-02
1760.690, 1.2667310E-02
1762.619, 1.3208940E-02
1764.547, 1.3432930E-02
1766.475, 1.3679950E-02
1768.404, 1.4485210E-02
1770.332, 1.4875710E-02
1772.261, 1.4980290E-02
1774.189, 1.4868390E-02
1776.118, 1.4565610E-02
1778.046, 1.3621730E-02
1779.975, 1.2861580E-02
1781.903, 1.2688060E-02
1783.832, 1.2537600E-02
1785.760, 1.1645150E-02
1787.689, 1.1233090E-02
1789.617, 1.1684570E-02
1791.546, 1.1620690E-02
1793.474, 1.1417530E-02
1795.402, 1.1321160E-02
1797.331, 1.0908050E-02
1799.259, 1.1065220E-02
1801.188, 1.1250710E-02
1803.116, 1.1059860E-02
1805.045, 1.0858980E-02
1806.973, 1.1166830E-02
1808.902, 1.1249520E-02
1810.830, 1.1332360E-02
1812.759, 1.1850970E-02
1814.687, 1.2031150E-02
1816.616, 1.2664400E-02
1818.544, 1.3314350E-02
1820.473, 1.3639920E-02
1822.401, 1.3866340E-02
1824.329, 1.4102750E-02
1826.258, 1.3817060E-02
1828.186, 1.2985720E-02
1830.115, 1.2071550E-02
1832.043, 1.1601780E-02
1833.972, 1.1263600E-02
1835.900, 1.0755130E-02
1837.829, 1.0254490E-02
1839.757, 9.7366273E-03
1841.686, 9.7108223E-03
1843.614, 9.5156711E-03
1845.543, 8.8339653E-03
1847.471, 8.4185395E-03
1849.400, 8.6426660E-03
1851.328, 8.5175727E-03
1853.256, 8.4547689E-03
1855.185, 8.0500236E-03
1857.113, 7.9959938E-03
1859.042, 8.1070764E-03
1860.970, 8.2091670E-03
1862.899, 8.2005886E-03
1864.827, 7.9714218E-03
1866.756, 7.5897900E-03
1868.684, 7.5977552E-03
1870.613, 7.8224726E-03
1872.541, 8.4695797E-03
1874.470, 8.3086202E-03
1876.398, 8.3187381E-03
1878.327, 8.7475274E-03
1880.255, 8.6757829E-03
1882.183, 8.0609173E-03
1884.112, 8.1603471E-03
1886.040, 8.7769460E-03
1887.969, 8.8364426E-03
1889.897, 9.3388380E-03
1891.826, 8.7611666E-03
1893.754, 7.8639388E-03
1895.683, 7.6573780E-03
1897.611, 7.9186140E-03
1899.540, 7.8802723E-03
1901.468, 7.3371669E-03
1903.397, 7.3525631E-03
1905.325, 7.6979198E-03
1907.254, 7.9901163E-03
1909.182, 7.1584471E-03
1911.110, 6.2776320E-03
1913.039, 6.5498282E-03
1914.967, 7.1915318E-03
1916.896, 7.2540012E-03
1918.824, 7.3811752E-03
1920.753, 6.9536311E-03
1922.681, 6.0555190E-03
1924.610, 6.2331790E-03
1926.538, 6.0542920E-03
1928.467, 5.7252869E-03
1930.395, 6.6514779E-03
1932.324, 7.7929762E-03
1934.252, 7.0289979E-03
1936.181, 6.3142818E-03
1938.109, 5.8794231E-03
1940.037, 5.1984251E-03
1941.966, 5.5374759E-03
1943.894, 6.8068090E-03
1945.823, 6.1684740E-03
1947.751, 4.2495020E-03
1949.680, 3.9460808E-03
1951.608, 5.6816209E-03
1953.537, 5.4365210E-03
1955.465, 5.2488260E-03
1957.394, 5.5709570E-03
1959.322, 5.1557790E-03
1961.251, 6.8418402E-03
1963.179, 6.0236691E-03
1965.108, 4.7868872E-03
1967.036, 6.5242508E-03
1968.964, 7.1563260E-03
1970.893, 4.6464042E-03
1972.821, 3.9593610E-03
1974.750, 7.0304922E-03
1976.678, 7.2019971E-03
1978.607, 7.7952361E-03
1980.535, 9.6484087E-03
1982.464, 1.0402050E-02
1984.392, 1.1375490E-02
1986.321, 1.0244850E-02
1988.249, 7.7917431E-03
1990.178, 8.7544154E-03
1992.106, 1.0482780E-02
1994.035, 9.5064668E-03
1995.963, 6.7175650E-03
1997.891, 5.4678209E-03
1999.820, 6.0407389E-03
2001.748, 5.3964839E-03
2003.677, 5.2809780E-03
2005.605, 7.1144812E-03
2007.534, 7.6471888E-03
2009.462, 7.2022751E-03
2011.391, 8.2189459E-03
2013.319, 7.2391699E-03
2015.248, 6.4967228E-03
2017.176, 6.8254001E-03
2019.105, 9.4463564E-03
2021.033, 8.0818664E-03
2022.962, 5.7614832E-03
2024.890, 7.2306469E-03
2026.818, 8.8217733E-03
2028.747, 8.2465746E-03
2030.675, 6.5583200E-03
2032.604, 7.4617248E-03
2034.532, 8.4779989E-03
2036.461, 8.1308931E-03
2038.389, 7.2981231E-03
2040.318, 8.3002290E-03
2042.246, 9.1411676E-03
2044.175, 8.6614573E-03
2046.103, 8.5930247E-03
2048.032, 9.4563765E-03
2049.960, 9.3594315E-03
2051.889, 8.5076969E-03
2053.817, 9.2025166E-03
2055.746, 9.4844894E-03
2057.674, 1.1685120E-02
2059.603, 1.1829180E-02
2061.531, 8.9035230E-03
2063.459, 7.0327912E-03
2065.388, 8.3687836E-03
2067.316, 8.6298957E-03
2069.245, 9.4747767E-03
2071.173, 1.1117680E-02
2073.102, 1.1911930E-02
2075.030, 1.0827210E-02
2076.959, 9.9555198E-03
2078.887, 1.0885330E-02
2080.816, 1.1103820E-02
2082.744, 1.0218080E-02
2084.673, 1.0274340E-02
2086.601, 1.0289720E-02
2088.530, 1.0611590E-02
2090.458, 9.6513620E-03
2092.386, 9.1669643E-03
2094.315, 8.9794453E-03
2096.243, 9.5960824E-03
2098.172, 9.7768474E-03
2100.100, 1.0602650E-02
2102.029, 1.0460130E-02
2103.957, 9.7236903E-03
2105.886, 9.9364379E-03
2107.814, 9.7987652E-03
2109.743, 9.3698353E-03
2111.671, 9.0393042E-03
2113.600, 8.8785393E-03
2115.528, 7.1247732E-03
2117.457, 6.9493591E-03
2119.385, 7.3808208E-03
2121.313, 7.0034489E-03
2123.242, 8.6010015E-03
2125.170, 7.1728588E-03
2127.099, 5.4514231E-03
2129.027, 6.1870539E-03
2130.956, 5.7748649E-03
2132.884, 3.2898490E-03
2134.813, 3.5850510E-03
2136.741, 5.8564451E-03
2138.670, 4.9664201E-03
2140.598, 3.2516390E-03
2142.527, 3.2493679E-03
2144.455, 3.0825350E-03
2146.384, 2.9226339E-03
2148.312, 4.1255071E-03
2150.240, 3.7605241E-03
2152.169, 1.5646740E-04
2154.097, -2.0050281E-03
2156.026, -2.5646749E-03
2157.954, -9.9770457E-04
2159.883, 2.9477640E-03
2161.811, 4.7082491E-03
2163.740, 4.1127908E-03
2165.668, 3.5761429E-03
2167.597, 5.3327200E-03
2169.525, 6.4855348E-03
2171.454, 5.5839149E-03
2173.382, 5.3485469E-03
2175.311, 3.5404810E-03
2177.239, 3.3784630E-03
2179.167, 5.0089979E-03
2181.096, 1.4982990E-03
2183.024, 6.6286902E-04
2184.953, 3.7838710E-03
2186.881, 5.6735179E-03
2188.810, 6.5604900E-03
2190.738, 5.4292930E-03
2192.667, 3.9606341E-03
2194.595, 5.1570432E-03
2196.524, 5.7218168E-03
2198.452, 6.3453931E-03
2200.381, 4.7562718E-03
2202.309, 3.7039670E-03
2204.238, 5.2156840E-03
2206.166, 4.2841118E-03
2208.094, 4.7589759E-03
2210.023, 6.3610980E-03
2211.951, 7.0040100E-03
2213.880, 7.2494070E-03
2215.808, 7.8525832E-03
2217.737, 7.2635170E-03
2219.665, 7.8847157E-03
2221.594, 7.4363649E-03
2223.522, 6.6618631E-03
2225.451, 7.0351670E-03
2227.379, 8.7721366E-03
2229.308, 8.4897438E-03
2231.236, 7.0844349E-03
2233.165, 6.4315060E-03
2235.093, 7.9504941E-03
2237.021, 9.6912431E-03
2238.950, 9.9097211E-03
2240.878, 9.9090301E-03
2242.807, 8.7321894E-03
2244.735, 7.4978620E-03
2246.664, 7.6812808E-03
2248.592, 8.9165820E-03
2250.521, 9.2431260E-03
2252.449, 9.9961609E-03
2254.378, 1.0114680E-02
2256.306, 8.6981533E-03
2258.235, 8.2495743E-03
2260.163, 9.6737333E-03
2262.092, 1.0180870E-02
2264.020, 1.0643910E-02
2265.948, 1.1079380E-02
2267.877, 9.7645791E-03
2269.805, 1.0186550E-02
2271.734, 1.1552940E-02
2273.662, 1.1226360E-02
2275.591, 1.1589030E-02
2277.519, 1.1893240E-02
2279.448, 1.1464790E-02
2281.376, 1.2191130E-02
2283.305, 1.1529580E-02
2285.233, 1.0219220E-02
2287.162, 1.0659010E-02
2289.090, 1.1821790E-02
2291.019, 1.1961970E-02
2292.947, 1.0514590E-02
2294.875, 1.0220400E-02
2296.804, 1.0627420E-02
2298.732, 1.1017240E-02
2300.661, 1.1362980E-02
2302.589, 1.1347730E-02
2304.518, 1.1808510E-02
2306.446, 1.1612720E-02
2308.375, 1.1122000E-02
2310.303, 1.1341930E-02
2312.232, 1.2266600E-02
2314.160, 1.2540070E-02
2316.089, 1.3061640E-02
2318.017, 1.4138210E-02
2319.946, 1.3884010E-02
2321.874, 1.3831290E-02
2323.802, 1.4169510E-02
2325.731, 1.3235540E-02
2327.659, 1.2143830E-02
2329.588, 1.2628360E-02
2331.516, 1.2626690E-02
2333.445, 1.2452470E-02
2335.373, 1.2636530E-02
2337.302, 1.2243050E-02
2339.230, 1.1726500E-02
2341.159, 1.2034960E-02
2343.087, 1.2639910E-02
2345.016, 1.2435720E-02
2346.944, 1.1807420E-02
2348.873, 1.0992870E-02
2350.801, 1.0804130E-02
2352.729, 1.1128890E-02
2354.658, 1.1947580E-02
2356.586, 1.2276650E-02
2358.515, 1.2904110E-02
2360.443, 1.2832050E-02
2362.372, 1.2211340E-02
2364.300, 1.2574390E-02
2366.229, 1.2715210E-02
2368.157, 1.2428100E-02
2370.086, 1.2083220E-02
2372.014, 1.1907630E-02
2373.942, 1.0749840E-02
2375.871, 1.0688650E-02
2377.799, 1.1851230E-02
2379.728, 1.1819450E-02
2381.656, 1.0544060E-02
2383.585, 1.0150070E-02
2385.513, 9.8639457E-03
2387.442, 1.0306060E-02
2389.370, 1.0803140E-02
2391.299, 1.0484290E-02
2393.227, 1.0945100E-02
2395.156, 1.1432910E-02
2397.084, 1.1111320E-02
2399.012, 1.1091100E-02
2400.941, 1.0823620E-02
2402.869, 1.1301430E-02
2404.798, 1.1867240E-02
2406.726, 1.2310850E-02
2408.655, 1.1596770E-02
2410.583, 1.1249790E-02
2412.512, 1.1396640E-02
2414.440, 1.1345420E-02
2416.369, 1.0852240E-02
2418.297, 1.0810870E-02
2420.226, 1.1320320E-02
2422.154, 1.0453310E-02
2424.083, 1.0410450E-02
2426.011, 1.1074730E-02
2427.939, 1.1845890E-02
2429.868, 1.1863600E-02
2431.796, 1.1038600E-02
2433.725, 1.1500840E-02
2435.653, 1.2161380E-02
2437.582, 1.2340300E-02
2439.510, 1.3200910E-02
2441.439, 1.2357050E-02
2443.367, 1.2579950E-02
2445.296, 1.2686470E-02
2447.224, 1.2199710E-02
2449.153, 1.2317030E-02
2451.081, 1.2083150E-02
2453.010, 1.1846730E-02
2454.938, 1.2567420E-02
2456.866, 1.3389870E-02
2458.795, 1.4066270E-02
2460.723, 1.4362850E-02
2462.652, 1.4565660E-02
2464.580, 1.4743060E-02
2466.509, 1.5045880E-02
2468.437, 1.4359470E-02
2470.366, 1.3738080E-02
2472.294, 1.3818000E-02
2474.223, 1.3134690E-02
2476.151, 1.2838750E-02
2478.080, 1.3676020E-02
2480.008, 1.4794610E-02
2481.937, 1.4684060E-02
2483.865, 1.3399590E-02
2485.793, 1.3317180E-02
2487.722, 1.3524640E-02
2489.650, 1.3242890E-02
2491.579, 1.3736060E-02
2493.507, 1.4186830E-02
2495.436, 1.3622510E-02
2497.364, 1.4319030E-02
2499.293, 1.4312460E-02
2501.221, 1.3776630E-02
2503.150, 1.4187320E-02
2505.078, 1.4002080E-02
2507.007, 1.4154310E-02
2508.935, 1.3719940E-02
2510.864, 1.3613220E-02
2512.792, 1.3625440E-02
2514.720, 1.3784820E-02
2516.649, 1.5233360E-02
2518.577, 1.6306359E-02
2520.506, 1.4929520E-02
2522.434, 1.3194950E-02
2524.363, 1.3068320E-02
2526.291, 1.3145400E-02
2528.220, 1.2955960E-02
2530.148, 1.2975430E-02
2532.077, 1.2753920E-02
2534.005, 1.2046290E-02
2535.934, 1.1753410E-02
2537.862, 1.3587960E-02
2539.791, 1.4265920E-02
2541.719, 1.3870900E-02
2543.647, 1.2901650E-02
2545.576, 1.2217950E-02
2547.504, 1.3581810E-02
2549.433, 1.4105060E-02
2551.361, 1.3086870E-02
2553.290, 1.2537300E-02
2555.218, 1.2827830E-02
2557.147, 1.3465540E-02
2559.075, 1.3208120E-02
2561.004, 1.1648090E-02
2562.932, 1.1360590E-02
2564.861, 1.2441390E-02
2566.789, 1.2872930E-02
2568.718, 1.2865980E-02
2570.646, 1.2946820E-02
2572.574, 1.4341440E-02
2574.503, 1.5110140E-02
2576.431, 1.5186970E-02
2578.360, 1.4467240E-02
2580.288, 1.3765690E-02
2582.217, 1.4408980E-02
2584.145, 1.4871950E-02
2586.074, 1.4240960E-02
2588.002, 1.4900410E-02
2589.931, 1.5182600E-02
2591.859, 1.5164740E-02
2593.788, 1.5007920E-02
2595.716, 1.5848450E-02
2597.645, 1.7812209E-02
2599.573, 1.5715040E-02
2601.501, 1.3765680E-02
2603.430, 1.5399800E-02
2605.358, 1.7576519E-02
2607.287, 1.8722150E-02
2609.215, 1.8063361E-02
2611.144, 1.4967810E-02
2613.072, 1.3340240E-02
2615.001, 1.4350500E-02
2616.929, 1.5087870E-02
2618.858, 1.5057750E-02
2620.786, 1.5202860E-02
2622.715, 1.4940450E-02
2624.643, 1.4683950E-02
2626.572, 1.4747990E-02
2628.500, 1.5061030E-02
2630.428, 1.5443150E-02
2632.357, 1.6142139E-02
2634.285, 1.6687280E-02
2636.214, 1.7096810E-02
2638.142, 1.7026180E-02
2640.071, 1.5900251E-02
2641.999, 1.5031140E-02
2643.928, 1.5226570E-02
2645.856, 1.5342960E-02
2647.785, 1.5336000E-02
2649.713, 1.5114530E-02
2651.642, 1.5696380E-02
2653.570, 1.6932471E-02
2655.499, 1.6686220E-02
2657.427, 1.5601210E-02
2659.355, 1.4876100E-02
2661.284, 1.4843120E-02
2663.212, 1.4831710E-02
2665.141, 1.4893260E-02
2667.069, 1.4836630E-02
2668.998, 1.4080760E-02
2670.926, 1.3778700E-02
2672.855, 1.4087750E-02
2674.783, 1.4078000E-02
2676.712, 1.4125140E-02
2678.640, 1.4949450E-02
2680.569, 1.5005470E-02
2682.497, 1.4057340E-02
2684.426, 1.3801090E-02
2686.354, 1.5068240E-02
2688.282, 1.5155040E-02
2690.211, 1.4317200E-02
2692.139, 1.4035730E-02
2694.068, 1.4353360E-02
2695.996, 1.4589730E-02
2697.925, 1.4740840E-02
2699.853, 1.4114430E-02
2701.782, 1.4165740E-02
2703.710, 1.4626970E-02
2705.639, 1.5186060E-02
2707.567, 1.5046280E-02
2709.496, 1.4849600E-02
2711.424, 1.4679740E-02
2713.353, 1.4689590E-02
2715.281, 1.4424800E-02
2717.209, 1.4722700E-02
2719.138, 1.4347020E-02
2721.066, 1.3589850E-02
2722.995, 1.3825010E-02
2724.923, 1.4060620E-02
2726.852, 1.4097350E-02
2728.780, 1.4278550E-02
2730.709, 1.4299680E-02
2732.637, 1.4778150E-02
2734.566, 1.4904340E-02
2736.494, 1.4173150E-02
2738.423, 1.4181890E-02
2740.351, 1.5085860E-02
2742.280, 1.5063180E-02
2744.208, 1.4698950E-02
2746.136, 1.4621000E-02
2748.065, 1.4029270E-02
2749.993, 1.4256480E-02
2751.922, 1.4580040E-02
2753.850, 1.5215140E-02
2755.779, 1.5917011E-02
2757.707, 1.5320210E-02
2759.636, 1.5170660E-02
2761.564, 1.4884120E-02
2763.493, 1.4333730E-02
2765.421, 1.4365400E-02
2767.350, 1.4404450E-02
2769.278, 1.4521800E-02
2771.207, 1.4267430E-02
2773.135, 1.3902650E-02
2775.063, 1.4046270E-02
2776.992, 1.4163520E-02
2778.920, 1.3984830E-02
2780.849, 1.4749840E-02
2782.777, 1.4821720E-02
2784.706, 1.4144780E-02
2786.634, 1.3895700E-02
2788.563, 1.4450920E-02
2790.491, 1.4688870E-02
2792.420, 1.4726750E-02
2794.348, 1.4912140E-02
2796.277, 1.4766550E-02
2798.205, 1.5268310E-02
2800.134, 1.5431510E-02
2802.062, 1.4664200E-02
2803.990, 1.4412780E-02
2805.919, 1.4393320E-02
2807.847, 1.4340370E-02
2809.776, 1.4907280E-02
2811.704, 1.4926260E-02
2813.633, 1.4068760E-02
2815.561, 1.3901310E-02
2817.490, 1.4827800E-02
2819.418, 1.5588130E-02
2821.347, 1.5969310E-02
2823.275, 1.6922571E-02
2825.204, 1.6405771E-02
2827.132, 1.6080109E-02
2829.061, 1.6717570E-02
2830.989, 1.7287889E-02
2832.917, 1.7611470E-02
2834.846, 1.7087771E-02
2836.774, 1.7387919E-02
2838.703, 1.7588779E-02
2840.631, 1.7573191E-02
2842.560, 1.7753920E-02
2844.488, 1.8169921E-02
2846.417, 1.8649610E-02
2848.345, 1.7715180E-02
2850.274, 1.6988739E-02
2852.202, 1.7588969E-02
2854.131, 1.8194521E-02
2856.059, 1.7763689E-02
2857.988, 1.7967019E-02
2859.916, 1.8504649E-02
2861.844, 1.8689791E-02
2863.773, 1.9131510E-02
2865.701, 1.9237731E-02
2867.630, 2.0075159E-02
2869.558, 1.9862499E-02
2871.487, 1.9887419E-02
2873.415, 2.0645579E-02
2875.344, 1.9885389E-02
2877.272, 1.9330511E-02
2879.201, 2.1535330E-02
2881.129, 2.2755651E-02
2883.058, 2.2895530E-02
2884.986, 2.2892769E-02
2886.915, 2.2178371E-02
2888.843, 2.1373419E-02
2890.771, 2.1180920E-02
2892.700, 2.2009030E-02
2894.628, 2.1911049E-02
2896.557, 2.2373419E-02
2898.485, 2.3466529E-02
2900.414, 2.2544200E-02
2902.342, 2.1798169E-02
2904.271, 2.2325860E-02
2906.199, 2.3156861E-02
2908.128, 2.2912180E-02
2910.056, 2.1921881E-02
2911.985, 2.2472311E-02
2913.913, 2.3228031E-02
2915.842, 2.3374340E-02
2917.770, 2.3659671E-02
2919.698, 2.2713190E-02
2921.627, 2.1448459E-02
2923.555, 2.1379869E-02
2925.484, 2.0583320E-02
2927.412, 2.0956039E-02
2929.341, 2.2077311E-02
2931.269, 2.2750130E-02
2933.198, 2.1723080E-02
2935.126, 2.1462420E-02
2937.055, 2.1815799E-02
2938.983, 2.1563530E-02
2940.912, 2.1698959E-02
2942.840, 2.2424741E-02
2944.769, 2.4012409E-02
2946.697, 2.4910230E-02
2948.625, 2.5338029E-02
2950.554, 2.4567900E-02
2952.482, 2.4153011E-02
2954.411, 2.4504639E-02
2956.339, 2.4259480E-02
2958.268, 2.3823431E-02
2960.196, 2.3576969E-02
2962.125, 2.4608411E-02
2964.053, 2.7202630E-02
2965.982, 2.7962361E-02
2967.910, 2.6991300E-02
2969.839, 2.6347211E-02
2971.767, 2.6279319E-02
2973.696, 2.7770810E-02
2975.624, 2.7938010E-02
2977.552, 2.6926531E-02
2979.481, 2.6984390E-02
2981.409, 2.7620399E-02
2983.338, 2.7576011E-02
2985.266, 2.8396269E-02
2987.195, 2.8740490E-02
2989.123, 2.9256450E-02
2991.052, 2.9747760E-02
2992.980, 2.9736159E-02
2994.909, 2.9963139E-02
2996.837, 2.9812230E-02
2998.766, 2.9257590E-02
3000.694, 2.8600780E-02
3002.623, 3.0002760E-02
3004.551, 3.0752851E-02
3006.479, 3.0285580E-02
3008.408, 3.0230099E-02
3010.336, 3.0780099E-02
3012.265, 3.2307241E-02
3014.193, 3.2544110E-02
3016.122, 3.2404728E-02
3018.050, 3.3762529E-02
3019.979, 3.3464331E-02
3021.907, 3.2507069E-02
3023.836, 3.4123290E-02
3025.764, 3.6374390E-02
3027.693, 3.7120569E-02
3029.621, 3.6708090E-02
3031.550, 3.6327150E-02
3033.478, 3.7022009E-02
3035.406, 3.8070008E-02
3037.335, 3.8376920E-02
3039.263, 3.8072269E-02
3041.192, 3.7924960E-02
3043.120, 3.8096171E-02
3045.049, 4.0271070E-02
3046.977, 4.1706301E-02
3048.906, 4.1649289E-02
3050.834, 4.1854940E-02
3052.763, 4.1368458E-02
3054.691, 4.2020161E-02
3056.620, 4.2482100E-02
3058.548, 4.2440109E-02
3060.477, 4.2892851E-02
3062.405, 4.3529820E-02
3064.333, 4.4290662E-02
3066.262, 4.5162670E-02
3068.190, 4.4435501E-02
3070.119, 4.5574971E-02
3072.047, 4.6801269E-02
3073.976, 4.6820719E-02
3075.904, 4.7031980E-02
3077.833, 4.6354018E-02
3079.761, 4.5984458E-02
3081.690, 4.7761109E-02
3083.618, 4.8836619E-02
3085.547, 4.7852751E-02
3087.475, 4.8051741E-02
3089.404, 4.9014360E-02
3091.332, 4.9683072E-02
3093.260, 5.0258521E-02
3095.189, 5.1360842E-02
3097.117, 5.3006791E-02
3099.046, 5.2847289E-02
3100.974, 5.2137259E-02
3102.903, 5.1160350E-02
3104.831, 5.1872000E-02
3106.760, 5.4179590E-02
3108.688, 5.4114249E-02
3110.617, 5.4102492E-02
3112.545, 5.4765739E-02
3114.474, 5.4250062E-02
3116.402, 5.3928740E-02
3118.331, 5.5869669E-02
3120.259, 5.7079941E-02
3122.188, 5.5941369E-02
3124.116, 5.5375248E-02
3126.044, 5.5840559E-02
3127.973, 5.7129242E-02
3129.901, 5.7504520E-02
3131.830, 5.8296029E-02
3133.758, 6.0795750E-02
3135.687, 6.2194370E-02
3137.615, 6.1962899E-02
3139.544, 6.2298220E-02
3141.472, 6.2378909E-02
3143.401, 6.4034283E-02
3145.329, 6.5987699E-02
3147.258, 6.7002267E-02
3149.186, 6.8844207E-02
3151.115, 6.8272397E-02
3153.043, 6.9241017E-02
3154.971, 7.2546653E-02
3156.900, 7.3365003E-02
3158.828, 7.2744817E-02
3160.757, 7.2759077E-02
3162.685, 7.5472787E-02
3164.614, 7.7907629E-02
3166.542, 7.8417547E-02
3168.471, 7.9125673E-02
3170.399, 7.8549437E-02
3172.328, 7.9098307E-02
3174.256, 8.2077302E-02
3176.185, 8.5597903E-02
3178.113, 8.7101057E-02
3180.042, 8.7285683E-02
3181.970, 8.8833258E-02
3183.898, 9.0436853E-02
3185.827, 9.3362004E-02
3187.755, 9.7390257E-02
3189.684, 9.9715993E-02
3191.612, 0.1009565
3193.541, 0.1017220
3195.469, 0.1034336
3197.398, 0.1065285
3199.326, 0.1103664
3201.255, 0.1126271
3203.183, 0.1136346
3205.112, 0.1156454
3207.040, 0.1183278
3208.969, 0.1225088
3210.897, 0.1265904
3212.825, 0.1281522
3214.754, 0.1310606
3216.682, 0.1352398
3218.611, 0.1374847
3220.539, 0.1406874
3222.468, 0.1452205
3224.396, 0.1491184
3226.325, 0.1513312
3228.253, 0.1558950
3230.182, 0.1621420
3232.110, 0.1656324
3234.039, 0.1698245
3235.967, 0.1766583
3237.896, 0.1839238
3239.824, 0.1906189
3241.752, 0.1941519
3243.681, 0.1988674
3245.609, 0.2081765
3247.538, 0.2169758
3249.466, 0.2252151
3251.395, 0.2338360
3253.323, 0.2440071
3255.252, 0.2549912
3257.180, 0.2648162
3259.109, 0.2736766
3261.037, 0.2819116
3262.966, 0.2905376
3264.894, 0.2997075
3266.823, 0.3061867
3268.751, 0.3131825
3270.679, 0.3218363
3272.608, 0.3262476
3274.536, 0.3290975
3276.465, 0.3314167
3278.393, 0.3311108
3280.322, 0.3304541
3282.250, 0.3273117
3284.179, 0.3189380
3286.107, 0.3079259
3288.036, 0.2992072
3289.964, 0.2878264
3291.893, 0.2712926
3293.821, 0.2552617
3295.750, 0.2431332
3297.678, 0.2311893
3299.606, 0.2171281
3301.535, 0.2050346
3303.463, 0.1962523
3305.392, 0.1860747
3307.320, 0.1745007
3309.249, 0.1666515
3311.177, 0.1595410
3313.106, 0.1524898
3315.034, 0.1448714
3316.963, 0.1386832
3318.891, 0.1344235
3320.820, 0.1308370
3322.748, 0.1269872
3324.677, 0.1248044
3326.605, 0.1218115
3328.533, 0.1181268
3330.462, 0.1153641
3332.390, 0.1133655
3334.319, 0.1121785
3336.247, 0.1094625
3338.176, 0.1064280
3340.104, 0.1081336
3342.033, 0.1083572
3343.961, 0.1069014
3345.890, 0.1064917
3347.818, 0.1070847
3349.747, 0.1061311
3351.675, 0.1031990
3353.604, 0.1018685
3355.532, 0.1024560
3357.460, 0.1028073
3359.389, 0.1022627
3361.317, 0.1005641
3363.246, 9.8807901E-02
3365.174, 9.8824114E-02
3367.103, 9.7328193E-02
3369.031, 9.6632227E-02
3370.960, 9.6621200E-02
3372.888, 9.7382203E-02
3374.817, 9.7705953E-02
3376.745, 9.5604502E-02
3378.674, 9.4391488E-02
3380.602, 9.3882732E-02
3382.531, 9.2462189E-02
3384.459, 9.2820309E-02
3386.387, 9.3332097E-02
3388.316, 9.2907429E-02
3390.244, 9.1499589E-02
3392.173, 9.0382621E-02
3394.101, 8.8736407E-02
3396.030, 8.6709253E-02
3397.958, 8.7324813E-02
3399.887, 8.7671168E-02
3401.815, 8.8757209E-02
3403.744, 9.0749443E-02
3405.672, 8.9302368E-02
3407.601, 8.6846381E-02
3409.529, 8.6005092E-02
3411.458, 8.5538343E-02
3413.386, 8.7674737E-02
3415.314, 8.7018259E-02
3417.243, 8.5943744E-02
3419.171, 8.4226698E-02
3421.100, 8.5028887E-02
3423.028, 8.6571120E-02
3424.957, 8.5747942E-02
3426.885, 8.4438950E-02
3428.814, 8.2530439E-02
3430.742, 8.1683919E-02
3432.671, 8.2492009E-02
3434.599, 8.3190873E-02
3436.528, 8.2273878E-02
3438.456, 7.9266913E-02
3440.385, 7.7930450E-02
3442.313, 7.7566229E-02
3444.241, 7.9459727E-02
3446.170, 7.9332396E-02
3448.098, 7.6053977E-02
3450.027, 7.7363133E-02
3451.955, 7.9778343E-02
3453.884, 7.9210617E-02
3455.812, 7.9478309E-02
3457.741, 8.0487557E-02
3459.669, 8.2245030E-02
3461.598, 8.1055053E-02
3463.526, 7.9738490E-02
3465.455, 8.0635853E-02
3467.383, 8.2244083E-02
3469.312, 8.3218127E-02
3471.240, 8.4621839E-02
3473.168, 8.3086282E-02
3475.097, 8.2410268E-02
3477.025, 8.4225692E-02
3478.954, 8.5552476E-02
3480.882, 8.6107373E-02
3482.811, 8.8049807E-02
3484.739, 8.8339061E-02
3486.668, 8.7091528E-02
3488.596, 8.5512191E-02
3490.525, 8.4361561E-02
3492.453, 8.4547266E-02
3494.382, 8.5813023E-02
3496.310, 8.6552657E-02
3498.239, 8.8081367E-02
3500.167, 8.8779211E-02
3502.095, 8.8298373E-02
3504.024, 8.7168589E-02
3505.952, 8.7246820E-02
3507.881, 8.6645558E-02
3509.809, 8.4895641E-02
3511.738, 8.3807088E-02
3513.666, 8.3561867E-02
3515.595, 8.4558293E-02
3517.523, 8.4374703E-02
3519.452, 8.5362777E-02
3521.380, 8.3924040E-02
3523.309, 8.1075549E-02
3525.237, 8.2268953E-02
3527.166, 8.5887663E-02
3529.094, 8.4432058E-02
3531.022, 8.1182741E-02
3532.951, 7.9256140E-02
3534.879, 7.7259578E-02
3536.808, 7.5009257E-02
3538.736, 7.5030692E-02
3540.665, 7.5541988E-02
3542.593, 7.4099183E-02
3544.522, 7.4048810E-02
3546.450, 7.5636908E-02
3548.379, 7.5738303E-02
3550.307, 7.3092610E-02
3552.236, 7.2974220E-02
3554.164, 7.2173618E-02
3556.093, 7.3022321E-02
3558.021, 7.4466899E-02
3559.949, 7.6209433E-02
3561.878, 7.4162632E-02
3563.806, 6.9327898E-02
3565.735, 6.7939691E-02
3567.663, 6.7805007E-02
3569.592, 6.5327913E-02
3571.520, 6.2613703E-02
3573.449, 5.7396170E-02
3575.377, 5.2590009E-02
3577.306, 5.0636120E-02
3579.234, 4.8187479E-02
3581.163, 4.7007829E-02
3583.091, 4.7507022E-02
3585.020, 4.4918239E-02
3586.948, 4.1404638E-02
3588.876, 4.2866580E-02
3590.805, 4.3299861E-02
3592.733, 4.1412130E-02
3594.662, 4.0386520E-02
3596.590, 4.1266311E-02
3598.519, 3.9599381E-02
3600.447, 3.8215458E-02
3602.376, 3.9074611E-02
3604.304, 3.7942279E-02
3606.233, 3.7062060E-02
3608.161, 3.6493171E-02
3610.090, 3.6307368E-02
3612.018, 3.6210891E-02
3613.947, 3.8452249E-02
3615.875, 4.1811999E-02
3617.803, 4.3048851E-02
3619.732, 4.1215122E-02
3621.660, 3.8192600E-02
3623.589, 3.6754530E-02
3625.517, 3.5187889E-02
3627.446, 3.3981320E-02
3629.374, 3.2140959E-02
3631.303, 3.0505680E-02
3633.231, 2.9655850E-02
3635.160, 3.1251580E-02
3637.088, 3.0956591E-02
3639.017, 2.6615839E-02
3640.945, 2.3662079E-02
3642.874, 2.4347780E-02
3644.802, 2.4250790E-02
3646.730, 2.6143340E-02
3648.659, 2.5678020E-02
3650.587, 2.3874920E-02
3652.516, 2.3219930E-02
3654.444, 2.1452900E-02
3656.373, 2.0581910E-02
3658.301, 2.2854790E-02
3660.230, 2.2847280E-02
3662.158, 2.0997429E-02
3664.087, 1.8517081E-02
3666.015, 1.6606331E-02
3667.944, 1.5473850E-02
3669.872, 1.7506151E-02
3671.801, 1.7571811E-02
3673.729, 1.4552720E-02
3675.657, 1.2241710E-02
3677.586, 1.5399370E-02
3679.514, 1.7979801E-02
3681.443, 1.8299880E-02
3683.371, 1.4999010E-02
3685.300, 1.3279570E-02
3687.228, 1.2950370E-02
3689.157, 1.0624880E-02
3691.085, 1.1722460E-02
3693.014, 1.1284290E-02
3694.942, 1.4141760E-02
3696.871, 1.7140130E-02
3698.799, 1.5313480E-02
3700.728, 1.2275660E-02
3702.656, 8.9031160E-03
3704.584, 1.0544270E-02
3706.513, 1.1557820E-02
3708.441, 1.0825770E-02
3710.370, 1.3127080E-02
3712.298, 1.5406120E-02
3714.227, 1.1486430E-02
3716.155, 8.9291371E-03
3718.084, 7.8884494E-03
3720.012, 7.9834592E-03
3721.941, 9.9990554E-03
3723.869, 9.7269043E-03
3725.798, 1.1288240E-02
3727.726, 1.0460830E-02
3729.655, 1.0566990E-02
3731.583, 1.2886540E-02
3733.511, 1.3421240E-02
3735.440, 1.2949640E-02
3737.368, 1.0894130E-02
3739.297, 9.1773616E-03
3741.225, 8.1052268E-03
3743.154, 9.5652984E-03
3745.082, 1.1403900E-02
3747.011, 1.2219150E-02
3748.939, 1.2475260E-02
3750.868, 1.0601200E-02
3752.796, 1.1277880E-02
3754.725, 1.3014110E-02
3756.653, 1.2387800E-02
3758.582, 1.3285350E-02
3760.510, 1.2408800E-02
3762.438, 1.2308270E-02
3764.367, 1.1861970E-02
3766.295, 1.2628090E-02
3768.224, 1.3511150E-02
3770.152, 1.0691160E-02
3772.081, 7.2995732E-03
3774.009, 4.5135710E-03
3775.938, 8.3171120E-03
3777.866, 9.8466650E-03
3779.795, 1.0260340E-02
3781.723, 1.3050730E-02
3783.652, 1.0770330E-02
3785.580, 8.2576685E-03
3787.509, 8.0306996E-03
3789.437, 1.0755200E-02
3791.365, 1.3929450E-02
3793.294, 1.0212500E-02
3795.222, 1.0686820E-02
3797.151, 1.1877200E-02
3799.079, 1.0635850E-02
3801.008, 1.1779540E-02
3802.936, 1.2582190E-02
3804.865, 1.1253210E-02
3806.793, 1.1304510E-02
3808.722, 1.3835660E-02
3810.650, 1.2573490E-02
3812.579, 1.2085790E-02
3814.507, 1.3705140E-02
3816.436, 1.2252280E-02
3818.364, 1.0899960E-02
3820.292, 1.1179050E-02
3822.221, 1.3854810E-02
3824.149, 1.4102030E-02
3826.078, 1.3416190E-02
3828.006, 1.4829680E-02
3829.935, 1.2185420E-02
3831.863, 1.1800100E-02
3833.792, 1.1412440E-02
3835.720, 9.3976539E-03
3837.649, 9.4714332E-03
3839.577, 1.3479170E-02
3841.506, 1.3365710E-02
3843.434, 1.0421170E-02
3845.363, 9.9674705E-03
3847.291, 1.0366600E-02
3849.219, 1.2413550E-02
3851.148, 1.1895470E-02
3853.076, 1.2304190E-02
3855.005, 1.3010610E-02
3856.933, 8.6100949E-03
3858.862, 7.5462381E-03
3860.790, 1.0464760E-02
3862.719, 1.3794610E-02
3864.647, 1.5321020E-02
3866.576, 1.2913710E-02
3868.504, 9.4454922E-03
3870.433, 8.6581483E-03
3872.361, 1.0407810E-02
3874.290, 1.0418420E-02
3876.218, 1.0025610E-02
3878.146, 8.2604578E-03
3880.075, 8.3201192E-03
3882.003, 9.0634143E-03
3883.932, 1.0606350E-02
3885.860, 1.1387770E-02
3887.789, 1.3527390E-02
3889.717, 1.1469530E-02
3891.646, 1.0511800E-02
3893.574, 1.1697960E-02
3895.503, 1.0537800E-02
3897.431, 9.0777520E-03
3899.360, 6.2137060E-03
3901.288, 9.8167509E-03
3903.217, 1.3267170E-02
3905.145, 1.3575650E-02
3907.073, 1.3305330E-02
3909.002, 9.5809735E-03
3910.930, 8.6161476E-03
3912.859, 1.2068460E-02
3914.787, 1.5113390E-02
3916.716, 1.5257010E-02
3918.644, 1.4146460E-02
3920.573, 1.0244880E-02
3922.501, 7.2305142E-03
3924.430, 7.0649702E-03
3926.358, 9.7567067E-03
3928.287, 8.5288016E-03
3930.215, 9.7272620E-03
3932.144, 1.4131740E-02
3934.072, 1.5807260E-02
3936.000, 1.4169930E-02
3937.929, 1.3699620E-02
3939.857, 1.5656199E-02
3941.786, 1.6347950E-02
3943.714, 1.5041820E-02
3945.643, 1.2156940E-02
3947.571, 1.2880430E-02
3949.500, 1.6889600E-02
3951.428, 1.9164180E-02
3953.357, 1.5510240E-02
3955.285, 1.2693820E-02
3957.214, 1.2820210E-02
3959.142, 1.2744650E-02
3961.071, 1.4920810E-02
3962.999, 1.4687950E-02
3964.927, 1.1049910E-02
3966.856, 1.2471310E-02
3968.784, 1.6618051E-02
3970.713, 1.7955840E-02
3972.641, 1.4112710E-02
3974.570, 1.0628990E-02
3976.498, 1.0168610E-02
3978.427, 8.0564283E-03
3980.355, 7.5690881E-03
3982.284, 1.0254550E-02
3984.212, 9.9981921E-03
3986.141, 9.7169122E-03
3988.069, 1.0275960E-02
3989.998, 7.3650228E-03
3991.926, 6.5808031E-03
3993.854, 9.5228050E-03
3995.783, 1.3898620E-02
3997.711, 1.2956220E-02
3999.640, 1.2962470E-02
##END=



