##NAMES=Diaboleite
##RRUFFID=R050372
##IDEAL CHEMISTRY=Cu^2+^Pb^2+^_2_Cl_2_(OH)_4_
##LOCALITY=Collins Vein, Mammoth mine, Tiger, Arizona
##OWNER=RRUFF
##SOURCE=Eugene Schlepp
##DESCRIPTION=Blue massive fragment
##STATUS=The identification of this mineral has been confirmed by X-ray diffraction and chemical analysis
##URL=rruff.info/R050372
##MEASURED CHEMISTRY=(Cu_0.91_Pb_0.09_)_Î£=1_Pb_2.00_Cl_2.00_(OH)_4_
399.1926, 4.5576721E-02
401.1211, 3.4998201E-02
403.0496, 3.5166461E-02
404.9780, 3.9146662E-02
406.9065, 4.4599552E-02
408.8350, 4.8728190E-02
410.7634, 5.1704191E-02
412.6919, 5.2475750E-02
414.6204, 5.2307490E-02
416.5488, 5.4945000E-02
418.4773, 5.8962230E-02
420.4058, 6.3276477E-02
422.3342, 6.8840884E-02
424.2627, 7.4549787E-02
426.1912, 8.2278192E-02
428.1196, 9.5027812E-02
430.0481, 0.1104229
431.9766, 0.1296406
433.9050, 0.1549955
435.8335, 0.1810434
437.7620, 0.1988990
439.6904, 0.2038447
441.6189, 0.1918408
443.5474, 0.1654988
445.4758, 0.1343204
447.4043, 0.1066839
449.3328, 8.6499117E-02
451.2612, 7.2048187E-02
453.1897, 6.2542543E-02
455.1182, 5.6533109E-02
457.0466, 5.2131820E-02
458.9751, 4.9236711E-02
460.9036, 4.8268940E-02
462.8320, 4.8231289E-02
464.7605, 4.9324781E-02
466.6890, 5.2526560E-02
468.6174, 5.6247871E-02
470.5459, 5.7133708E-02
472.4744, 5.4754701E-02
474.4028, 5.0238840E-02
476.3313, 4.5471951E-02
478.2598, 4.2457409E-02
480.1882, 3.9460309E-02
482.1167, 3.6744319E-02
484.0452, 3.5593081E-02
485.9736, 3.4554701E-02
487.9021, 3.3421271E-02
489.8306, 3.2361910E-02
491.7590, 3.1855669E-02
493.6875, 3.0824050E-02
495.6160, 2.9703010E-02
497.5444, 2.9293859E-02
499.4729, 2.9358679E-02
501.4014, 2.9724989E-02
503.3298, 2.9648021E-02
505.2583, 2.9266089E-02
507.1868, 2.9027861E-02
509.1152, 2.8835170E-02
511.0437, 2.8320361E-02
512.9722, 2.8284371E-02
514.9006, 2.8966609E-02
516.8291, 2.9583549E-02
518.7576, 2.9102821E-02
520.6860, 2.9000631E-02
522.6145, 2.8857620E-02
524.5430, 2.8683480E-02
526.4714, 2.8859410E-02
528.3999, 2.8718211E-02
530.3284, 2.9172519E-02
532.2568, 2.9371830E-02
534.1853, 2.8604081E-02
536.1138, 2.8181359E-02
538.0422, 2.8761281E-02
539.9707, 2.9733520E-02
541.8992, 2.9948089E-02
543.8276, 2.9628219E-02
545.7561, 3.0244799E-02
547.6846, 3.1572249E-02
549.6130, 3.2290999E-02
551.5415, 3.3162560E-02
553.4700, 3.3994440E-02
555.3984, 3.4818161E-02
557.3269, 3.5800230E-02
559.2554, 3.6921341E-02
561.1838, 3.8128830E-02
563.1123, 3.9368901E-02
565.0408, 4.0288068E-02
566.9692, 4.1288629E-02
568.8977, 4.3508101E-02
570.8262, 4.5533702E-02
572.7546, 4.7105908E-02
574.6831, 4.9060050E-02
576.6116, 5.1550690E-02
578.5400, 5.3924251E-02
580.4685, 5.6214221E-02
582.3970, 5.8791060E-02
584.3254, 6.1933670E-02
586.2539, 6.5270834E-02
588.1824, 6.8370022E-02
590.1108, 7.2384700E-02
592.0393, 7.6450400E-02
593.9678, 8.0140658E-02
595.8962, 8.3859622E-02
597.8247, 8.7220997E-02
599.7532, 9.0468943E-02
601.6816, 9.3273424E-02
603.6101, 9.5186137E-02
605.5386, 9.5721669E-02
607.4670, 9.6130468E-02
609.3955, 9.6611500E-02
611.3240, 9.7703792E-02
613.2524, 9.9390991E-02
615.1809, 0.1022865
617.1094, 0.1065349
619.0378, 0.1112089
620.9663, 0.1165883
622.8948, 0.1228975
624.8232, 0.1296998
626.7517, 0.1371901
628.6802, 0.1450787
630.6086, 0.1527581
632.5371, 0.1600576
634.4656, 0.1667175
636.3940, 0.1729156
638.3225, 0.1792790
640.2510, 0.1868455
642.1794, 0.1954625
644.1079, 0.2038205
646.0364, 0.2130793
647.9648, 0.2234190
649.8933, 0.2327907
651.8218, 0.2416977
653.7502, 0.2505113
655.6787, 0.2587306
657.6072, 0.2673041
659.5356, 0.2750697
661.4641, 0.2814716
663.3926, 0.2865725
665.3210, 0.2907422
667.2495, 0.2938849
669.1780, 0.2950203
671.1064, 0.2941116
673.0349, 0.2909607
674.9634, 0.2862468
676.8918, 0.2802249
678.8203, 0.2722884
680.7488, 0.2621436
682.6772, 0.2508629
684.6057, 0.2382071
686.5342, 0.2251441
688.4626, 0.2121103
690.3911, 0.1983809
692.3196, 0.1852879
694.2480, 0.1725010
696.1765, 0.1599272
698.1050, 0.1479003
700.0334, 0.1366353
701.9619, 0.1267528
703.8904, 0.1185453
705.8188, 0.1114261
707.7473, 0.1050486
709.6758, 9.9464841E-02
711.6042, 9.4914332E-02
713.5327, 9.0848893E-02
715.4612, 8.7064929E-02
717.3896, 8.3958052E-02
719.3181, 8.1270531E-02
721.2466, 7.9008549E-02
723.1750, 7.6786019E-02
725.1035, 7.4140489E-02
727.0320, 7.1274728E-02
728.9604, 6.8982571E-02
730.8889, 6.7017563E-02
732.8174, 6.5169729E-02
734.7458, 6.3019328E-02
736.6743, 6.0925800E-02
738.6028, 5.8909819E-02
740.5313, 5.7196289E-02
742.4597, 5.5722911E-02
744.3882, 5.4134831E-02
746.3167, 5.2850548E-02
748.2451, 5.1815651E-02
750.1736, 5.0762329E-02
752.1021, 4.9814790E-02
754.0305, 4.9345661E-02
755.9590, 4.9394701E-02
757.8875, 4.9596049E-02
759.8159, 4.9652141E-02
761.7444, 4.9207881E-02
763.6729, 4.9193829E-02
765.6013, 4.9411610E-02
767.5298, 4.9910150E-02
769.4583, 5.0904799E-02
771.3867, 5.1929530E-02
773.3152, 5.3093221E-02
775.2437, 5.4323390E-02
777.1721, 5.5640381E-02
779.1006, 5.6597300E-02
781.0291, 5.7431351E-02
782.9575, 5.8210950E-02
784.8860, 5.8691841E-02
786.8145, 5.8603790E-02
788.7429, 5.8229670E-02
790.6714, 5.7933372E-02
792.5999, 5.7788368E-02
794.5283, 5.7370741E-02
796.4568, 5.6699481E-02
798.3853, 5.6355741E-02
800.3137, 5.5591151E-02
802.2422, 5.4254550E-02
804.1707, 5.2972361E-02
806.0991, 5.2419811E-02
808.0276, 5.2439589E-02
809.9561, 5.2616239E-02
811.8845, 5.2673981E-02
813.8130, 5.3252839E-02
815.7415, 5.4311890E-02
817.6699, 5.5571679E-02
819.5984, 5.6908410E-02
821.5269, 5.8673181E-02
823.4553, 6.0705662E-02
825.3838, 6.3347347E-02
827.3123, 6.6251993E-02
829.2407, 6.9223203E-02
831.1692, 7.2984539E-02
833.0977, 7.7754870E-02
835.0261, 8.3379328E-02
836.9546, 8.8261023E-02
838.8831, 9.2078030E-02
840.8115, 9.6472427E-02
842.7400, 0.1011650
844.6685, 0.1055690
846.5969, 0.1092203
848.5254, 0.1125053
850.4539, 0.1150035
852.3823, 0.1160421
854.3108, 0.1156525
856.2393, 0.1138429
858.1677, 0.1106542
860.0962, 0.1068320
862.0247, 0.1020511
863.9531, 9.6930839E-02
865.8816, 9.1532864E-02
867.8101, 8.6103529E-02
869.7385, 8.0906063E-02
871.6670, 7.5903907E-02
873.5955, 7.1349710E-02
875.5239, 6.7003407E-02
877.4524, 6.2722191E-02
879.3809, 5.9186429E-02
881.3093, 5.5956438E-02
883.2378, 5.2978780E-02
885.1663, 5.0194360E-02
887.0947, 4.7904179E-02
889.0232, 4.5852829E-02
890.9517, 4.4086441E-02
892.8801, 4.2595290E-02
894.8085, 4.1200150E-02
896.7370, 4.0145699E-02
898.6655, 3.9400820E-02
900.5939, 3.8540699E-02
902.5224, 3.7656169E-02
904.4509, 3.6792580E-02
906.3793, 3.6177419E-02
908.3078, 3.5736870E-02
910.2363, 3.5664089E-02
912.1647, 3.5158470E-02
914.0932, 3.4868069E-02
916.0217, 3.4764942E-02
917.9501, 3.4288730E-02
919.8786, 3.4017950E-02
921.8071, 3.4006260E-02
923.7355, 3.3874400E-02
925.6640, 3.3932239E-02
927.5925, 3.4171220E-02
929.5209, 3.4108412E-02
931.4494, 3.3952340E-02
933.3779, 3.4078039E-02
935.3063, 3.4021288E-02
937.2348, 3.3828810E-02
939.1633, 3.3952389E-02
941.0917, 3.4277499E-02
943.0202, 3.4365010E-02
944.9487, 3.4628469E-02
946.8771, 3.4655511E-02
948.8056, 3.4604520E-02
950.7341, 3.5210229E-02
952.6625, 3.5774719E-02
954.5910, 3.6061931E-02
956.5195, 3.6688060E-02
958.4479, 3.7451949E-02
960.3764, 3.8017541E-02
962.3049, 3.8506899E-02
964.2333, 3.9172780E-02
966.1618, 4.0283691E-02
968.0903, 4.1311368E-02
970.0187, 4.1833159E-02
971.9472, 4.1787881E-02
973.8757, 4.1419391E-02
975.8041, 4.1121319E-02
977.7326, 4.0945072E-02
979.6611, 4.0715061E-02
981.5895, 4.0766291E-02
983.5180, 4.0912110E-02
985.4465, 4.1311260E-02
987.3749, 4.1863181E-02
989.3034, 4.2506661E-02
991.2319, 4.3172918E-02
993.1603, 4.3821990E-02
995.0888, 4.4529218E-02
997.0173, 4.5099478E-02
998.9457, 4.5705091E-02
1000.874, 4.6567962E-02
1002.803, 4.7190100E-02
1004.731, 4.7494091E-02
1006.660, 4.7827501E-02
1008.588, 4.8450820E-02
1010.517, 4.9164310E-02
1012.445, 5.0062992E-02
1014.373, 5.0872419E-02
1016.302, 5.1429331E-02
1018.230, 5.2308992E-02
1020.159, 5.3100020E-02
1022.087, 5.3525299E-02
1024.016, 5.4427911E-02
1025.944, 5.5582259E-02
1027.873, 5.6504350E-02
1029.801, 5.7322089E-02
1031.730, 5.8210731E-02
1033.658, 5.9189320E-02
1035.587, 6.0303949E-02
1037.515, 6.1335109E-02
1039.444, 6.2185541E-02
1041.372, 6.3129887E-02
1043.301, 6.4201340E-02
1045.229, 6.5157659E-02
1047.157, 6.5940097E-02
1049.086, 6.6970117E-02
1051.014, 6.8053283E-02
1052.943, 6.8922289E-02
1054.871, 6.9403604E-02
1056.800, 6.9833957E-02
1058.728, 7.0409477E-02
1060.657, 7.0988648E-02
1062.585, 7.1493492E-02
1064.514, 7.1608849E-02
1066.442, 7.1733251E-02
1068.371, 7.1731552E-02
1070.299, 7.1905322E-02
1072.228, 7.2244354E-02
1074.156, 7.2426587E-02
1076.084, 7.2675690E-02
1078.013, 7.3033333E-02
1079.941, 7.3117763E-02
1081.870, 7.3129952E-02
1083.798, 7.3123127E-02
1085.727, 7.2576098E-02
1087.655, 7.2312526E-02
1089.584, 7.2394110E-02
1091.512, 7.2117068E-02
1093.441, 7.1622692E-02
1095.369, 7.1151681E-02
1097.298, 7.0889480E-02
1099.226, 7.0761703E-02
1101.155, 7.0471317E-02
1103.083, 6.9829613E-02
1105.011, 6.9114797E-02
1106.940, 6.8849839E-02
1108.868, 6.8717502E-02
1110.797, 6.8205670E-02
1112.725, 6.7814343E-02
1114.654, 6.7396984E-02
1116.582, 6.6817626E-02
1118.511, 6.6406757E-02
1120.439, 6.6038087E-02
1122.368, 6.5359391E-02
1124.296, 6.4538762E-02
1126.225, 6.4141333E-02
1128.153, 6.3901432E-02
1130.082, 6.3483194E-02
1132.010, 6.2983818E-02
1133.938, 6.2744021E-02
1135.867, 6.2378060E-02
1137.795, 6.2090579E-02
1139.724, 6.1791249E-02
1141.652, 6.1498679E-02
1143.581, 6.1241079E-02
1145.509, 6.1073162E-02
1147.438, 6.0724881E-02
1149.366, 6.0546920E-02
1151.295, 6.0425431E-02
1153.223, 6.0403809E-02
1155.152, 6.0416579E-02
1157.080, 6.0741462E-02
1159.009, 6.1324831E-02
1160.937, 6.1701279E-02
1162.865, 6.1997551E-02
1164.794, 6.2210262E-02
1166.722, 6.2450889E-02
1168.651, 6.2673092E-02
1170.579, 6.2920563E-02
1172.508, 6.3162029E-02
1174.436, 6.3464239E-02
1176.365, 6.3674323E-02
1178.293, 6.3406147E-02
1180.222, 6.3305609E-02
1182.150, 6.3371196E-02
1184.079, 6.3467339E-02
1186.007, 6.3526534E-02
1187.936, 6.3500710E-02
1189.864, 6.3126244E-02
1191.792, 6.2436301E-02
1193.721, 6.2019508E-02
1195.649, 6.1474461E-02
1197.578, 6.0789660E-02
1199.506, 6.0048342E-02
1201.435, 5.9337921E-02
1203.363, 5.8769319E-02
1205.292, 5.8586281E-02
1207.220, 5.8367182E-02
1209.149, 5.8008142E-02
1211.077, 5.7136141E-02
1213.006, 5.6753390E-02
1214.934, 5.7009712E-02
1216.863, 5.7092130E-02
1218.791, 5.6739729E-02
1220.719, 5.6450080E-02
1222.648, 5.6344040E-02
1224.576, 5.6234650E-02
1226.505, 5.6066118E-02
1228.433, 5.5825029E-02
1230.362, 5.5780280E-02
1232.290, 5.5986561E-02
1234.219, 5.6053661E-02
1236.147, 5.6150429E-02
1238.076, 5.6147128E-02
1240.004, 5.5911951E-02
1241.933, 5.5732589E-02
1243.861, 5.5810351E-02
1245.790, 5.6328591E-02
1247.718, 5.6326929E-02
1249.646, 5.6172941E-02
1251.575, 5.6582171E-02
1253.503, 5.7023302E-02
1255.432, 5.7036702E-02
1257.360, 5.7085339E-02
1259.289, 5.7005782E-02
1261.217, 5.7073269E-02
1263.146, 5.7224501E-02
1265.074, 5.7456721E-02
1267.003, 5.7535779E-02
1268.931, 5.7779711E-02
1270.860, 5.8153260E-02
1272.788, 5.8338981E-02
1274.717, 5.8340549E-02
1276.645, 5.8529180E-02
1278.573, 5.8740191E-02
1280.502, 5.8787290E-02
1282.430, 5.8665931E-02
1284.359, 5.8644742E-02
1286.287, 5.8811881E-02
1288.216, 5.9105951E-02
1290.144, 5.9119549E-02
1292.073, 5.8818411E-02
1294.001, 5.8954481E-02
1295.930, 5.9425890E-02
1297.858, 5.9784081E-02
1299.787, 6.0104400E-02
1301.715, 6.0351148E-02
1303.644, 6.0450599E-02
1305.572, 6.0457189E-02
1307.500, 6.0944941E-02
1309.429, 6.1368551E-02
1311.357, 6.1770529E-02
1313.286, 6.2068012E-02
1315.214, 6.2356509E-02
1317.143, 6.2543459E-02
1319.071, 6.2865503E-02
1321.000, 6.3452668E-02
1322.928, 6.4039722E-02
1324.857, 6.4612627E-02
1326.785, 6.4899273E-02
1328.714, 6.5210119E-02
1330.642, 6.5878697E-02
1332.571, 6.6405401E-02
1334.499, 6.6865534E-02
1336.427, 6.7432784E-02
1338.356, 6.8030827E-02
1340.284, 6.8724386E-02
1342.213, 6.9133349E-02
1344.141, 6.9372497E-02
1346.070, 6.9737747E-02
1347.998, 6.9972642E-02
1349.927, 7.0107579E-02
1351.855, 7.0228383E-02
1353.784, 7.0613213E-02
1355.712, 7.1001269E-02
1357.641, 7.1098112E-02
1359.569, 7.0882171E-02
1361.498, 7.0550561E-02
1363.426, 7.0789970E-02
1365.354, 7.1177609E-02
1367.283, 7.1231149E-02
1369.211, 7.1226433E-02
1371.140, 7.1290687E-02
1373.068, 7.1438797E-02
1374.997, 7.1604364E-02
1376.925, 7.1697854E-02
1378.854, 7.1740948E-02
1380.782, 7.1662240E-02
1382.711, 7.1687877E-02
1384.639, 7.1553208E-02
1386.568, 7.1595266E-02
1388.496, 7.1837351E-02
1390.424, 7.1671978E-02
1392.353, 7.1659394E-02
1394.281, 7.1832463E-02
1396.210, 7.1844943E-02
1398.138, 7.1954377E-02
1400.067, 7.1932532E-02
1401.995, 7.1871318E-02
1403.924, 7.1964636E-02
1405.852, 7.1950957E-02
1407.781, 7.2044507E-02
1409.709, 7.1975321E-02
1411.638, 7.1773037E-02
1413.566, 7.1602352E-02
1415.495, 7.1375057E-02
1417.423, 7.1147718E-02
1419.351, 7.1257398E-02
1421.280, 7.1328320E-02
1423.208, 7.1217790E-02
1425.137, 7.1279489E-02
1427.065, 7.1160153E-02
1428.994, 7.1321629E-02
1430.922, 7.1511663E-02
1432.851, 7.1175233E-02
1434.779, 7.0822887E-02
1436.708, 7.1189657E-02
1438.636, 7.1308881E-02
1440.565, 7.1035363E-02
1442.493, 7.0730239E-02
1444.422, 7.0429251E-02
1446.350, 7.0577487E-02
1448.278, 7.0485778E-02
1450.207, 7.0285261E-02
1452.135, 7.0336983E-02
1454.064, 7.0326284E-02
1455.992, 7.0134029E-02
1457.921, 6.9920577E-02
1459.849, 6.9712803E-02
1461.778, 6.9540679E-02
1463.706, 6.9696613E-02
1465.635, 6.9593109E-02
1467.563, 6.9262639E-02
1469.492, 6.8953253E-02
1471.420, 6.8329491E-02
1473.349, 6.7753337E-02
1475.277, 6.7594983E-02
1477.205, 6.7692474E-02
1479.134, 6.7471460E-02
1481.062, 6.7374997E-02
1482.991, 6.7158490E-02
1484.919, 6.7092232E-02
1486.848, 6.7135736E-02
1488.776, 6.6991828E-02
1490.705, 6.7173503E-02
1492.633, 6.7510568E-02
1494.562, 6.7407563E-02
1496.490, 6.7536078E-02
1498.419, 6.7869723E-02
1500.347, 6.8090491E-02
1502.276, 6.8529777E-02
1504.204, 6.9067933E-02
1506.132, 6.9332287E-02
1508.061, 6.9518633E-02
1509.989, 6.9776177E-02
1511.918, 7.0231862E-02
1513.846, 7.0465982E-02
1515.775, 7.0815213E-02
1517.703, 7.1356423E-02
1519.632, 7.1484059E-02
1521.560, 7.1656287E-02
1523.489, 7.2231703E-02
1525.417, 7.2485633E-02
1527.346, 7.2730400E-02
1529.274, 7.3114902E-02
1531.203, 7.3208801E-02
1533.131, 7.3324822E-02
1535.059, 7.3488370E-02
1536.988, 7.3715709E-02
1538.916, 7.4078403E-02
1540.845, 7.3800527E-02
1542.773, 7.3538460E-02
1544.702, 7.3484570E-02
1546.630, 7.3707730E-02
1548.559, 7.3665477E-02
1550.487, 7.3390469E-02
1552.416, 7.3165588E-02
1554.344, 7.3130429E-02
1556.273, 7.2844930E-02
1558.201, 7.2767653E-02
1560.130, 7.2721466E-02
1562.058, 7.2423212E-02
1563.986, 7.2164163E-02
1565.915, 7.2123803E-02
1567.843, 7.2038837E-02
1569.772, 7.1747802E-02
1571.700, 7.1544357E-02
1573.629, 7.1631730E-02
1575.557, 7.1286879E-02
1577.486, 7.1190223E-02
1579.414, 7.1361743E-02
1581.343, 7.1077973E-02
1583.271, 7.0484683E-02
1585.200, 7.0445247E-02
1587.128, 7.0561193E-02
1589.057, 7.0429809E-02
1590.985, 7.0073023E-02
1592.913, 7.0072681E-02
1594.842, 7.0196994E-02
1596.770, 7.0040621E-02
1598.699, 6.9827467E-02
1600.627, 7.0002787E-02
1602.556, 7.0190601E-02
1604.484, 7.0240192E-02
1606.413, 7.0079468E-02
1608.341, 7.0129357E-02
1610.270, 6.9876567E-02
1612.198, 6.9748484E-02
1614.127, 7.0015810E-02
1616.055, 6.9961488E-02
1617.984, 6.9797799E-02
1619.912, 7.0097983E-02
1621.840, 6.9975220E-02
1623.769, 6.9615990E-02
1625.697, 6.9595113E-02
1627.626, 6.9366217E-02
1629.554, 6.9183357E-02
1631.483, 6.9066986E-02
1633.411, 6.8994664E-02
1635.340, 6.8986781E-02
1637.268, 6.8941891E-02
1639.197, 6.8963312E-02
1641.125, 6.8963148E-02
1643.054, 6.8847388E-02
1644.982, 6.8753839E-02
1646.911, 6.8697780E-02
1648.839, 6.8704732E-02
1650.767, 6.8612628E-02
1652.696, 6.8650410E-02
1654.624, 6.8548352E-02
1656.553, 6.8424061E-02
1658.481, 6.8132617E-02
1660.410, 6.7817837E-02
1662.338, 6.7596592E-02
1664.267, 6.7186847E-02
1666.195, 6.6987693E-02
1668.124, 6.7342684E-02
1670.052, 6.7536220E-02
1671.981, 6.7140870E-02
1673.909, 6.6964112E-02
1675.838, 6.6543393E-02
1677.766, 6.6454180E-02
1679.694, 6.6449597E-02
1681.623, 6.6234887E-02
1683.551, 6.6246159E-02
1685.480, 6.6152088E-02
1687.408, 6.6024430E-02
1689.337, 6.5854810E-02
1691.265, 6.5806478E-02
1693.194, 6.5735057E-02
1695.122, 6.5936267E-02
1697.051, 6.5956563E-02
1698.979, 6.5546788E-02
1700.908, 6.5546177E-02
1702.836, 6.5381780E-02
1704.765, 6.4886063E-02
1706.693, 6.4654343E-02
1708.621, 6.4545617E-02
1710.550, 6.4331271E-02
1712.478, 6.4417899E-02
1714.407, 6.5047354E-02
1716.335, 6.5805927E-02
1718.264, 6.5581493E-02
1720.192, 6.5346293E-02
1722.121, 6.5154053E-02
1724.049, 6.4939067E-02
1725.978, 6.5196529E-02
1727.906, 6.5452330E-02
1729.835, 6.5558784E-02
1731.763, 6.5129757E-02
1733.692, 6.4649373E-02
1735.620, 6.4770222E-02
1737.548, 6.4749964E-02
1739.477, 6.4112663E-02
1741.405, 6.3473374E-02
1743.334, 6.3387759E-02
1745.262, 6.3016906E-02
1747.191, 6.2436521E-02
1749.119, 6.2415771E-02
1751.048, 6.2005281E-02
1752.976, 6.1192840E-02
1754.905, 6.1046939E-02
1756.833, 6.1229199E-02
1758.762, 6.1327159E-02
1760.690, 6.1212741E-02
1762.619, 6.1195079E-02
1764.547, 6.1080091E-02
1766.475, 6.1058171E-02
1768.404, 6.1158080E-02
1770.332, 6.1159801E-02
1772.261, 6.1611261E-02
1774.189, 6.1478231E-02
1776.118, 6.0940359E-02
1778.046, 6.0875520E-02
1779.975, 6.0823180E-02
1781.903, 6.1601859E-02
1783.832, 6.2074091E-02
1785.760, 6.1487470E-02
1787.689, 6.1322369E-02
1789.617, 6.1689150E-02
1791.546, 6.1852101E-02
1793.474, 6.1478309E-02
1795.402, 6.1195720E-02
1797.331, 6.1233159E-02
1799.259, 6.1865740E-02
1801.188, 6.2590323E-02
1803.116, 6.2555470E-02
1805.045, 6.2388729E-02
1806.973, 6.2529624E-02
1808.902, 6.2406130E-02
1810.830, 6.2506333E-02
1812.759, 6.2614188E-02
1814.687, 6.2385660E-02
1816.616, 6.2459782E-02
1818.544, 6.2649943E-02
1820.473, 6.3002653E-02
1822.401, 6.3350163E-02
1824.329, 6.3298419E-02
1826.258, 6.2753707E-02
1828.186, 6.2885411E-02
1830.115, 6.3357949E-02
1832.043, 6.3449167E-02
1833.972, 6.3129537E-02
1835.900, 6.3006431E-02
1837.829, 6.3591763E-02
1839.757, 6.3749932E-02
1841.686, 6.3988343E-02
1843.614, 6.4661272E-02
1845.543, 6.4169250E-02
1847.471, 6.3892260E-02
1849.400, 6.3034333E-02
1851.328, 6.2768117E-02
1853.256, 6.4013481E-02
1855.185, 6.4602941E-02
1857.113, 6.4116247E-02
1859.042, 6.4188957E-02
1860.970, 6.4419083E-02
1862.899, 6.4656913E-02
1864.827, 6.4887643E-02
1866.756, 6.4417541E-02
1868.684, 6.4333797E-02
1870.613, 6.4517893E-02
1872.541, 6.5053947E-02
1874.470, 6.5668263E-02
1876.398, 6.6041648E-02
1878.327, 6.5966927E-02
1880.255, 6.6031143E-02
1882.183, 6.6302687E-02
1884.112, 6.5796360E-02
1886.040, 6.5488666E-02
1887.969, 6.5260239E-02
1889.897, 6.5959036E-02
1891.826, 6.7123927E-02
1893.754, 6.7134760E-02
1895.683, 6.6657864E-02
1897.611, 6.6377081E-02
1899.540, 6.7204364E-02
1901.468, 6.7874297E-02
1903.397, 6.7968130E-02
1905.325, 6.7049973E-02
1907.254, 6.7205071E-02
1909.182, 6.8138182E-02
1911.110, 6.7720711E-02
1913.039, 6.6796519E-02
1914.967, 6.7085497E-02
1916.896, 6.8291917E-02
1918.824, 6.7896508E-02
1920.753, 6.8009287E-02
1922.681, 6.8333887E-02
1924.610, 6.8357103E-02
1926.538, 6.8899632E-02
1928.467, 6.8064973E-02
1930.395, 6.6692613E-02
1932.324, 6.8262279E-02
1934.252, 6.9251917E-02
1936.181, 6.8960242E-02
1938.109, 6.7978002E-02
1940.037, 6.7611113E-02
1941.966, 6.7058928E-02
1943.894, 6.7297518E-02
1945.823, 6.8898842E-02
1947.751, 6.9039389E-02
1949.680, 6.7738637E-02
1951.608, 6.7872897E-02
1953.537, 6.9035403E-02
1955.465, 7.0027463E-02
1957.394, 7.0072070E-02
1959.322, 6.8147853E-02
1961.251, 6.6381089E-02
1963.179, 6.6244282E-02
1965.108, 6.8077393E-02
1967.036, 7.0476852E-02
1968.964, 7.2217941E-02
1970.893, 7.3276743E-02
1972.821, 7.1369320E-02
1974.750, 7.1482457E-02
1976.678, 7.5205088E-02
1978.607, 7.6947890E-02
1980.535, 7.4474789E-02
1982.464, 7.3439218E-02
1984.392, 7.4026942E-02
1986.321, 7.2834700E-02
1988.249, 7.2252490E-02
1990.178, 7.2420083E-02
1992.106, 7.2952121E-02
1994.035, 7.3946223E-02
1995.963, 7.4972428E-02
1997.891, 7.4315093E-02
1999.820, 7.1979024E-02
2001.748, 7.0993438E-02
2003.677, 7.1374103E-02
2005.605, 7.1941033E-02
2007.534, 6.9287211E-02
2009.462, 6.9639221E-02
2011.391, 7.0969559E-02
2013.319, 7.0546813E-02
2015.248, 7.2944283E-02
2017.176, 7.4784152E-02
2019.105, 7.3713541E-02
2021.033, 7.0682377E-02
2022.962, 6.9651112E-02
2024.890, 7.1821608E-02
2026.818, 7.4493527E-02
2028.747, 7.5488433E-02
2030.675, 7.4608423E-02
2032.604, 7.4900948E-02
2034.532, 7.3877104E-02
2036.461, 7.2665639E-02
2038.389, 7.5235158E-02
2040.318, 7.6201260E-02
2042.246, 7.7165604E-02
2044.175, 7.8097843E-02
2046.103, 7.8670323E-02
2048.032, 7.9383351E-02
2049.960, 8.0449268E-02
2051.889, 7.9335213E-02
2053.817, 7.5847410E-02
2055.746, 7.3988169E-02
2057.674, 7.4608833E-02
2059.603, 7.6703258E-02
2061.531, 7.9400532E-02
2063.459, 7.8467518E-02
2065.388, 7.6798670E-02
2067.316, 7.6513909E-02
2069.245, 7.7011026E-02
2071.173, 7.7033982E-02
2073.102, 7.6177292E-02
2075.030, 7.5499699E-02
2076.959, 7.5981759E-02
2078.887, 7.7484637E-02
2080.816, 7.7945217E-02
2082.744, 7.8531623E-02
2084.673, 7.8468807E-02
2086.601, 7.7911519E-02
2088.530, 7.6298840E-02
2090.458, 7.6675773E-02
2092.386, 7.7019699E-02
2094.315, 7.6787107E-02
2096.243, 7.7822737E-02
2098.172, 7.8729659E-02
2100.100, 7.8726918E-02
2102.029, 7.8908183E-02
2103.957, 7.9325698E-02
2105.886, 8.0217369E-02
2107.814, 7.9886369E-02
2109.743, 7.8805633E-02
2111.671, 7.8844413E-02
2113.600, 8.0507450E-02
2115.528, 7.9939879E-02
2117.457, 7.8862123E-02
2119.385, 7.8257672E-02
2121.313, 7.6912113E-02
2123.242, 7.6884218E-02
2125.170, 7.7202372E-02
2127.099, 7.8087278E-02
2129.027, 7.8920737E-02
2130.956, 7.7634819E-02
2132.884, 7.6577142E-02
2134.813, 7.9649433E-02
2136.741, 8.1179179E-02
2138.670, 7.9106472E-02
2140.598, 7.9262771E-02
2142.527, 8.0060773E-02
2144.455, 8.1266843E-02
2146.384, 8.1349231E-02
2148.312, 8.1960678E-02
2150.240, 8.1246667E-02
2152.169, 7.9193719E-02
2154.097, 7.6457873E-02
2156.026, 7.3047109E-02
2157.954, 7.6519191E-02
2159.883, 8.1236109E-02
2161.811, 8.3767623E-02
2163.740, 8.1875153E-02
2165.668, 8.0749877E-02
2167.597, 8.2695000E-02
2169.525, 8.4253602E-02
2171.454, 8.2311727E-02
2173.382, 7.9577148E-02
2175.311, 7.9777397E-02
2177.239, 8.2697779E-02
2179.167, 8.3061308E-02
2181.096, 8.2538143E-02
2183.024, 8.4253952E-02
2184.953, 8.4472567E-02
2186.881, 8.2439862E-02
2188.810, 8.3062626E-02
2190.738, 8.4214963E-02
2192.667, 8.2917906E-02
2194.595, 8.2522422E-02
2196.524, 8.2952373E-02
2198.452, 8.6202569E-02
2200.381, 8.7145098E-02
2202.309, 8.4823117E-02
2204.238, 8.4311403E-02
2206.166, 8.6049922E-02
2208.094, 8.5617751E-02
2210.023, 8.4722377E-02
2211.951, 8.4101528E-02
2213.880, 8.3281569E-02
2215.808, 8.3374918E-02
2217.737, 8.5019380E-02
2219.665, 8.4839329E-02
2221.594, 8.6249679E-02
2223.522, 8.6829327E-02
2225.451, 8.6141832E-02
2227.379, 8.5079677E-02
2229.308, 8.4515654E-02
2231.236, 8.5048139E-02
2233.165, 8.7919749E-02
2235.093, 8.8004351E-02
2237.021, 8.6601138E-02
2238.950, 8.7598667E-02
2240.878, 8.8625848E-02
2242.807, 8.7658420E-02
2244.735, 8.6774789E-02
2246.664, 8.7406069E-02
2248.592, 8.7432697E-02
2250.521, 8.8022493E-02
2252.449, 8.8881083E-02
2254.378, 8.8969298E-02
2256.306, 8.8843688E-02
2258.235, 8.8958867E-02
2260.163, 8.8375777E-02
2262.092, 8.7793753E-02
2264.020, 8.8640288E-02
2265.948, 8.9057893E-02
2267.877, 8.8314712E-02
2269.805, 8.7133713E-02
2271.734, 8.6864658E-02
2273.662, 8.8977650E-02
2275.591, 9.0832882E-02
2277.519, 9.0543613E-02
2279.448, 9.0423562E-02
2281.376, 9.1002569E-02
2283.305, 9.2073373E-02
2285.233, 9.2498086E-02
2287.162, 9.2253678E-02
2289.090, 9.1105931E-02
2291.019, 9.1164298E-02
2292.947, 9.1016322E-02
2294.875, 9.0987660E-02
2296.804, 9.1730602E-02
2298.732, 9.2059337E-02
2300.661, 9.2239223E-02
2302.589, 9.2442311E-02
2304.518, 9.2791468E-02
2306.446, 9.3366191E-02
2308.375, 9.3206942E-02
2310.303, 9.2946313E-02
2312.232, 9.3058437E-02
2314.160, 9.3409158E-02
2316.089, 9.3441091E-02
2318.017, 9.2956223E-02
2319.946, 9.3022257E-02
2321.874, 9.3965128E-02
2323.802, 9.4804779E-02
2325.731, 9.3294121E-02
2327.659, 9.2562973E-02
2329.588, 9.1544390E-02
2331.516, 9.1635913E-02
2333.445, 9.3160242E-02
2335.373, 9.3534872E-02
2337.302, 9.3214892E-02
2339.230, 9.3949467E-02
2341.159, 9.4931200E-02
2343.087, 9.4236203E-02
2345.016, 9.3448780E-02
2346.944, 9.4052523E-02
2348.873, 9.3847007E-02
2350.801, 9.3496293E-02
2352.729, 9.3790449E-02
2354.658, 9.4218113E-02
2356.586, 9.4564401E-02
2358.515, 9.5641159E-02
2360.443, 9.6422069E-02
2362.372, 9.6030653E-02
2364.300, 9.5500693E-02
2366.229, 9.5687263E-02
2368.157, 9.5877893E-02
2370.086, 9.4741389E-02
2372.014, 9.4388828E-02
2373.942, 9.4600387E-02
2375.871, 9.5150903E-02
2377.799, 9.5750779E-02
2379.728, 9.5854491E-02
2381.656, 9.6057288E-02
2383.585, 9.6186191E-02
2385.513, 9.5843770E-02
2387.442, 9.6775793E-02
2389.370, 9.6744113E-02
2391.299, 9.7042181E-02
2393.227, 9.6886523E-02
2395.156, 9.5850721E-02
2397.084, 9.5978327E-02
2399.012, 9.6411847E-02
2400.941, 9.7042508E-02
2402.869, 9.7628877E-02
2404.798, 9.7612999E-02
2406.726, 9.7605132E-02
2408.655, 9.8346747E-02
2410.583, 9.9227257E-02
2412.512, 9.8525569E-02
2414.440, 9.8539896E-02
2416.369, 9.9047117E-02
2418.297, 9.9196613E-02
2420.226, 9.8740697E-02
2422.154, 9.8830141E-02
2424.083, 9.9315912E-02
2426.011, 9.9211998E-02
2427.939, 9.8354332E-02
2429.868, 9.8462239E-02
2431.796, 0.1001829
2433.725, 9.9910632E-02
2435.653, 9.9659428E-02
2437.582, 0.1002290
2439.510, 9.9850021E-02
2441.439, 0.1001941
2443.367, 0.1001715
2445.296, 0.1006783
2447.224, 0.1011680
2449.153, 0.1019632
2451.081, 0.1025283
2453.010, 0.1021658
2454.938, 0.1015957
2456.866, 0.1017092
2458.795, 0.1016431
2460.723, 0.1017014
2462.652, 0.1014223
2464.580, 0.1013106
2466.509, 0.1010019
2468.437, 0.1013314
2470.366, 0.1011948
2472.294, 0.1011055
2474.223, 0.1014122
2476.151, 0.1016775
2478.080, 0.1021461
2480.008, 0.1033949
2481.937, 0.1032121
2483.865, 0.1026085
2485.793, 0.1026105
2487.722, 0.1023796
2489.650, 0.1024590
2491.579, 0.1022722
2493.507, 0.1024141
2495.436, 0.1040709
2497.364, 0.1041183
2499.293, 0.1034790
2501.221, 0.1031521
2503.150, 0.1035512
2505.078, 0.1044133
2507.007, 0.1046706
2508.935, 0.1046123
2510.864, 0.1060397
2512.792, 0.1056240
2514.720, 0.1039234
2516.649, 0.1046475
2518.577, 0.1061510
2520.506, 0.1066969
2522.434, 0.1069557
2524.363, 0.1066206
2526.291, 0.1073265
2528.220, 0.1080955
2530.148, 0.1081071
2532.077, 0.1074008
2534.005, 0.1061744
2535.934, 0.1063566
2537.862, 0.1070011
2539.791, 0.1074677
2541.719, 0.1079343
2543.647, 0.1080413
2545.576, 0.1076525
2547.504, 0.1079005
2549.433, 0.1080905
2551.361, 0.1079187
2553.290, 0.1069084
2555.218, 0.1067704
2557.147, 0.1079465
2559.075, 0.1085523
2561.004, 0.1095534
2562.932, 0.1099964
2564.861, 0.1090796
2566.789, 0.1090751
2568.718, 0.1103470
2570.646, 0.1108753
2572.574, 0.1102967
2574.503, 0.1106874
2576.431, 0.1105537
2578.360, 0.1107553
2580.288, 0.1109566
2582.217, 0.1098783
2584.145, 0.1086805
2586.074, 0.1099993
2588.002, 0.1113603
2589.931, 0.1116474
2591.859, 0.1118087
2593.788, 0.1112798
2595.716, 0.1108120
2597.645, 0.1109504
2599.573, 0.1111698
2601.501, 0.1115367
2603.430, 0.1113448
2605.358, 0.1115596
2607.287, 0.1114146
2609.215, 0.1119023
2611.144, 0.1138484
2613.072, 0.1141139
2615.001, 0.1133804
2616.929, 0.1131988
2618.858, 0.1134665
2620.786, 0.1129183
2622.715, 0.1128002
2624.643, 0.1131984
2626.572, 0.1138560
2628.500, 0.1144859
2630.428, 0.1143357
2632.357, 0.1141530
2634.285, 0.1153532
2636.214, 0.1149763
2638.142, 0.1140799
2640.071, 0.1143398
2641.999, 0.1151855
2643.928, 0.1155926
2645.856, 0.1155998
2647.785, 0.1162115
2649.713, 0.1160305
2651.642, 0.1150102
2653.570, 0.1142932
2655.499, 0.1144963
2657.427, 0.1159208
2659.355, 0.1168029
2661.284, 0.1161021
2663.212, 0.1156958
2665.141, 0.1161112
2667.069, 0.1154049
2668.998, 0.1154267
2670.926, 0.1165357
2672.855, 0.1171220
2674.783, 0.1171776
2676.712, 0.1166593
2678.640, 0.1166663
2680.569, 0.1163942
2682.497, 0.1158858
2684.426, 0.1165839
2686.354, 0.1172999
2688.282, 0.1169920
2690.211, 0.1175260
2692.139, 0.1180603
2694.068, 0.1174647
2695.996, 0.1173305
2697.925, 0.1177678
2699.853, 0.1182353
2701.782, 0.1184733
2703.710, 0.1188825
2705.639, 0.1189757
2707.567, 0.1187078
2709.496, 0.1189490
2711.424, 0.1202354
2713.353, 0.1210340
2715.281, 0.1216183
2717.209, 0.1215092
2719.138, 0.1200024
2721.066, 0.1194803
2722.995, 0.1203995
2724.923, 0.1208942
2726.852, 0.1212707
2728.780, 0.1211308
2730.709, 0.1211706
2732.637, 0.1221127
2734.566, 0.1221015
2736.494, 0.1220967
2738.423, 0.1225496
2740.351, 0.1232241
2742.280, 0.1231743
2744.208, 0.1223564
2746.136, 0.1227334
2748.065, 0.1232327
2749.993, 0.1238504
2751.922, 0.1237546
2753.850, 0.1233420
2755.779, 0.1235859
2757.707, 0.1246196
2759.636, 0.1240721
2761.564, 0.1241746
2763.493, 0.1243120
2765.421, 0.1247220
2767.350, 0.1249682
2769.278, 0.1252150
2771.207, 0.1263147
2773.135, 0.1255573
2775.063, 0.1250327
2776.992, 0.1256076
2778.920, 0.1255568
2780.849, 0.1257318
2782.777, 0.1261823
2784.706, 0.1262021
2786.634, 0.1266260
2788.563, 0.1264708
2790.491, 0.1263690
2792.420, 0.1275248
2794.348, 0.1279898
2796.277, 0.1275476
2798.205, 0.1271835
2800.134, 0.1278664
2802.062, 0.1291590
2803.990, 0.1300306
2805.919, 0.1296582
2807.847, 0.1288234
2809.776, 0.1288428
2811.704, 0.1296248
2813.633, 0.1297753
2815.561, 0.1302471
2817.490, 0.1315074
2819.418, 0.1310952
2821.347, 0.1305767
2823.275, 0.1306546
2825.204, 0.1318341
2827.132, 0.1326243
2829.061, 0.1323076
2830.989, 0.1325704
2832.917, 0.1335415
2834.846, 0.1349301
2836.774, 0.1349618
2838.703, 0.1353387
2840.631, 0.1365310
2842.560, 0.1368700
2844.488, 0.1380449
2846.417, 0.1400326
2848.345, 0.1421412
2850.274, 0.1428181
2852.202, 0.1421366
2854.131, 0.1421165
2856.059, 0.1434774
2857.988, 0.1428803
2859.916, 0.1414858
2861.844, 0.1411842
2863.773, 0.1403939
2865.701, 0.1386395
2867.630, 0.1377925
2869.558, 0.1390481
2871.487, 0.1409344
2873.415, 0.1408194
2875.344, 0.1398880
2877.272, 0.1393591
2879.201, 0.1398186
2881.129, 0.1410472
2883.058, 0.1413442
2884.986, 0.1409725
2886.915, 0.1409834
2888.843, 0.1408604
2890.771, 0.1414496
2892.700, 0.1433612
2894.628, 0.1440728
2896.557, 0.1447591
2898.485, 0.1452582
2900.414, 0.1452489
2902.342, 0.1456215
2904.271, 0.1468388
2906.199, 0.1481089
2908.128, 0.1492436
2910.056, 0.1505214
2911.985, 0.1515430
2913.913, 0.1530681
2915.842, 0.1554120
2917.770, 0.1585492
2919.698, 0.1595270
2921.627, 0.1599693
2923.555, 0.1599587
2925.484, 0.1594611
2927.412, 0.1587258
2929.341, 0.1570451
2931.269, 0.1558775
2933.198, 0.1540351
2935.126, 0.1521796
2937.055, 0.1515634
2938.983, 0.1510432
2940.912, 0.1489260
2942.840, 0.1484418
2944.769, 0.1487527
2946.697, 0.1491530
2948.625, 0.1495666
2950.554, 0.1491874
2952.482, 0.1497114
2954.411, 0.1507811
2956.339, 0.1506462
2958.268, 0.1500879
2960.196, 0.1499012
2962.125, 0.1499122
2964.053, 0.1487552
2965.982, 0.1491200
2967.910, 0.1493437
2969.839, 0.1479308
2971.767, 0.1473022
2973.696, 0.1477207
2975.624, 0.1480141
2977.552, 0.1478842
2979.481, 0.1474517
2981.409, 0.1473131
2983.338, 0.1476889
2985.266, 0.1487829
2987.195, 0.1491150
2989.123, 0.1487432
2991.052, 0.1485357
2992.980, 0.1487582
2994.909, 0.1486644
2996.837, 0.1484386
2998.766, 0.1481203
3000.694, 0.1483504
3002.623, 0.1491150
3004.551, 0.1493853
3006.479, 0.1490463
3008.408, 0.1492614
3010.336, 0.1507508
3012.265, 0.1512254
3014.193, 0.1506334
3016.122, 0.1507865
3018.050, 0.1514603
3019.979, 0.1534081
3021.907, 0.1540071
3023.836, 0.1538607
3025.764, 0.1542720
3027.693, 0.1539966
3029.621, 0.1539877
3031.550, 0.1558147
3033.478, 0.1559862
3035.406, 0.1560563
3037.335, 0.1555666
3039.263, 0.1551620
3041.192, 0.1577237
3043.120, 0.1587609
3045.049, 0.1570556
3046.977, 0.1568376
3048.906, 0.1571030
3050.834, 0.1582376
3052.763, 0.1592651
3054.691, 0.1590247
3056.620, 0.1585999
3058.548, 0.1589647
3060.477, 0.1597438
3062.405, 0.1602313
3064.333, 0.1601770
3066.262, 0.1602048
3068.190, 0.1608831
3070.119, 0.1620461
3072.047, 0.1638528
3073.976, 0.1635989
3075.904, 0.1620508
3077.833, 0.1614520
3079.761, 0.1621075
3081.690, 0.1630917
3083.618, 0.1639065
3085.547, 0.1649547
3087.475, 0.1651307
3089.404, 0.1655536
3091.332, 0.1655423
3093.260, 0.1662116
3095.189, 0.1681170
3097.117, 0.1690434
3099.046, 0.1675571
3100.974, 0.1681334
3102.903, 0.1709014
3104.831, 0.1694964
3106.760, 0.1670341
3108.688, 0.1687730
3110.617, 0.1707492
3112.545, 0.1712190
3114.474, 0.1716793
3116.402, 0.1725449
3118.331, 0.1734819
3120.259, 0.1740344
3122.188, 0.1737956
3124.116, 0.1733084
3126.044, 0.1746340
3127.973, 0.1763551
3129.901, 0.1760207
3131.830, 0.1763746
3133.758, 0.1768306
3135.687, 0.1781217
3137.615, 0.1798474
3139.544, 0.1798652
3141.472, 0.1802480
3143.401, 0.1815833
3145.329, 0.1829086
3147.258, 0.1820910
3149.186, 0.1819413
3151.115, 0.1827088
3153.043, 0.1831643
3154.971, 0.1833301
3156.900, 0.1844874
3158.828, 0.1859431
3160.757, 0.1870825
3162.685, 0.1881904
3164.614, 0.1893772
3166.542, 0.1884749
3168.471, 0.1878016
3170.399, 0.1902332
3172.328, 0.1902046
3174.256, 0.1895185
3176.185, 0.1899581
3178.113, 0.1934154
3180.042, 0.1962290
3181.970, 0.1956642
3183.898, 0.1958671
3185.827, 0.1974568
3187.755, 0.2004912
3189.684, 0.2017527
3191.612, 0.2013485
3193.541, 0.2016696
3195.469, 0.2022468
3197.398, 0.2049818
3199.326, 0.2079624
3201.255, 0.2077965
3203.183, 0.2060089
3205.112, 0.2051080
3207.040, 0.2063307
3208.969, 0.2069249
3210.897, 0.2082690
3212.825, 0.2097301
3214.754, 0.2116798
3216.682, 0.2137279
3218.611, 0.2163093
3220.539, 0.2174606
3222.468, 0.2167179
3224.396, 0.2174032
3226.325, 0.2195802
3228.253, 0.2218979
3230.182, 0.2229996
3232.110, 0.2248531
3234.039, 0.2272529
3235.967, 0.2291459
3237.896, 0.2296598
3239.824, 0.2290204
3241.752, 0.2319651
3243.681, 0.2335974
3245.609, 0.2325599
3247.538, 0.2353544
3249.466, 0.2395633
3251.395, 0.2415283
3253.323, 0.2420159
3255.252, 0.2435527
3257.180, 0.2455084
3259.109, 0.2474548
3261.037, 0.2485902
3262.966, 0.2506850
3264.894, 0.2535464
3266.823, 0.2557965
3268.751, 0.2575239
3270.679, 0.2605015
3272.608, 0.2615326
3274.536, 0.2634799
3276.465, 0.2694924
3278.393, 0.2747675
3280.322, 0.2769535
3282.250, 0.2793797
3284.179, 0.2803887
3286.107, 0.2846877
3288.036, 0.2892409
3289.964, 0.2909026
3291.893, 0.2925810
3293.821, 0.2951886
3295.750, 0.2987443
3297.678, 0.3039041
3299.606, 0.3080583
3301.535, 0.3105269
3303.463, 0.3139911
3305.392, 0.3186819
3307.320, 0.3244271
3309.249, 0.3292996
3311.177, 0.3358427
3313.106, 0.3413684
3315.034, 0.3455366
3316.963, 0.3508889
3318.891, 0.3542378
3320.820, 0.3590550
3322.748, 0.3671248
3324.677, 0.3732933
3326.605, 0.3783038
3328.533, 0.3833008
3330.462, 0.3868514
3332.390, 0.3894371
3334.319, 0.3900368
3336.247, 0.3905590
3338.176, 0.3932326
3340.104, 0.3931901
3342.033, 0.3909867
3343.961, 0.3910362
3345.890, 0.3919269
3347.818, 0.3927049
3349.747, 0.3941666
3351.675, 0.3956775
3353.604, 0.3965792
3355.532, 0.3992428
3357.460, 0.4042332
3359.389, 0.4053726
3361.317, 0.4074221
3363.246, 0.4095373
3365.174, 0.4107755
3367.103, 0.4133484
3369.031, 0.4170691
3370.960, 0.4187603
3372.888, 0.4212967
3374.817, 0.4289351
3376.745, 0.4362574
3378.674, 0.4388167
3380.602, 0.4457910
3382.531, 0.4563211
3384.459, 0.4658314
3386.387, 0.4747981
3388.316, 0.4828999
3390.244, 0.4924283
3392.173, 0.5020242
3394.101, 0.5113328
3396.030, 0.5210726
3397.958, 0.5331868
3399.887, 0.5458610
3401.815, 0.5594249
3403.744, 0.5739529
3405.672, 0.5897329
3407.601, 0.6053628
3409.529, 0.6228823
3411.458, 0.6430379
3413.386, 0.6665418
3415.314, 0.6927832
3417.243, 0.7202788
3419.171, 0.7542986
3421.100, 0.7918500
3423.028, 0.8240392
3424.957, 0.8524341
3426.885, 0.8827145
3428.814, 0.9099459
3430.742, 0.9330092
3432.671, 0.9437279
3434.599, 0.9363840
3436.528, 0.9066480
3438.456, 0.8561105
3440.385, 0.8007447
3442.313, 0.7536356
3444.241, 0.7226647
3446.170, 0.7104155
3448.098, 0.7102274
3450.027, 0.7133992
3451.955, 0.7140563
3453.884, 0.7119914
3455.812, 0.7039672
3457.741, 0.6885511
3459.669, 0.6668392
3461.598, 0.6481005
3463.526, 0.6322676
3465.455, 0.6104546
3467.383, 0.5865185
3469.312, 0.5619808
3471.240, 0.5336238
3473.168, 0.5065004
3475.097, 0.4829923
3477.025, 0.4573567
3478.954, 0.4314993
3480.882, 0.4074628
3482.811, 0.3814344
3484.739, 0.3563141
3486.668, 0.3365397
3488.596, 0.3197008
3490.525, 0.3050712
3492.453, 0.2930552
3494.382, 0.2789915
3496.310, 0.2667389
3498.239, 0.2593881
3500.167, 0.2538843
3502.095, 0.2499900
3504.024, 0.2432991
3505.952, 0.2374847
3507.881, 0.2317540
3509.809, 0.2236721
3511.738, 0.2188039
3513.666, 0.2146752
3515.595, 0.2115509
3517.523, 0.2092037
3519.452, 0.2022196
3521.380, 0.1999346
3523.309, 0.1998579
3525.237, 0.1950375
3527.166, 0.1891241
3529.094, 0.1833620
3531.022, 0.1770497
3532.951, 0.1712513
3534.879, 0.1648703
3536.808, 0.1606986
3538.736, 0.1540554
3540.665, 0.1449233
3542.593, 0.1392362
3544.522, 0.1380067
3546.450, 0.1372676
3548.379, 0.1330387
3550.307, 0.1286575
3552.236, 0.1280189
3554.164, 0.1284867
3556.093, 0.1262076
3558.021, 0.1216923
3559.949, 0.1202976
3561.878, 0.1220440
3563.806, 0.1218526
3565.735, 0.1196843
3567.663, 0.1185402
3569.592, 0.1191940
3571.520, 0.1188259
3573.449, 0.1174589
3575.377, 0.1164510
3577.306, 0.1151383
3579.234, 0.1144790
3581.163, 0.1148582
3583.091, 0.1130223
3585.020, 0.1115217
3586.948, 0.1123450
3588.876, 0.1136224
3590.805, 0.1147540
3592.733, 0.1171029
3594.662, 0.1181406
3596.590, 0.1147254
3598.519, 0.1108090
3600.447, 0.1130011
3602.376, 0.1135103
3604.304, 0.1127427
3606.233, 0.1145244
3608.161, 0.1172392
3610.090, 0.1173225
3612.018, 0.1164020
3613.947, 0.1169301
3615.875, 0.1161231
3617.803, 0.1159140
3619.732, 0.1160362
3621.660, 0.1163588
3623.589, 0.1167799
3625.517, 0.1191389
3627.446, 0.1223686
3629.374, 0.1209574
3631.303, 0.1188053
3633.231, 0.1204700
3635.160, 0.1228548
3637.088, 0.1210509
3639.017, 0.1202210
3640.945, 0.1219303
3642.874, 0.1210837
3644.802, 0.1210591
3646.730, 0.1226926
3648.659, 0.1245256
3650.587, 0.1231525
3652.516, 0.1233030
3654.444, 0.1244761
3656.373, 0.1244299
3658.301, 0.1235609
3660.230, 0.1249623
3662.158, 0.1260452
3664.087, 0.1250278
3666.015, 0.1253220
3667.944, 0.1271982
3669.872, 0.1314729
3671.801, 0.1341562
3673.729, 0.1354784
3675.657, 0.1350766
3677.586, 0.1337675
3679.514, 0.1336673
3681.443, 0.1335182
3683.371, 0.1345826
3685.300, 0.1332566
3687.228, 0.1328603
3689.157, 0.1334925
3691.085, 0.1342115
3693.014, 0.1345770
3694.942, 0.1366766
3696.871, 0.1401372
3698.799, 0.1392045
3700.728, 0.1380481
3702.656, 0.1378567
3704.584, 0.1374124
3706.513, 0.1377073
3708.441, 0.1386905
3710.370, 0.1406173
3712.298, 0.1419390
3714.227, 0.1432265
3716.155, 0.1423166
3718.084, 0.1409371
3720.012, 0.1398848
3721.941, 0.1395600
3723.869, 0.1412970
3725.798, 0.1405210
3727.726, 0.1380051
3729.655, 0.1405149
3731.583, 0.1431712
3733.511, 0.1434347
3735.440, 0.1418800
3737.368, 0.1418584
3739.297, 0.1428697
3741.225, 0.1435005
3743.154, 0.1453178
3745.082, 0.1433320
3747.011, 0.1410034
3748.939, 0.1424463
3750.868, 0.1443572
3752.796, 0.1457679
3754.725, 0.1461458
3756.653, 0.1455404
3758.582, 0.1444042
3760.510, 0.1449880
3762.438, 0.1440354
3764.367, 0.1447179
3766.295, 0.1448675
3768.224, 0.1447221
3770.152, 0.1468129
3772.081, 0.1476342
3774.009, 0.1515160
3775.938, 0.1553340
3777.866, 0.1524234
3779.795, 0.1478694
3781.723, 0.1461556
3783.652, 0.1487274
3785.580, 0.1508277
3787.509, 0.1516841
3789.437, 0.1508450
3791.365, 0.1502075
3793.294, 0.1503291
3795.222, 0.1524215
3797.151, 0.1556352
3799.079, 0.1551667
3801.008, 0.1539999
3802.936, 0.1557189
3804.865, 0.1547966
3806.793, 0.1523105
3808.722, 0.1523073
3810.650, 0.1539239
3812.579, 0.1556163
3814.507, 0.1575673
3816.436, 0.1588662
3818.364, 0.1585802
3820.292, 0.1582752
3822.221, 0.1586483
3824.149, 0.1596003
3826.078, 0.1614543
3828.006, 0.1583123
3829.935, 0.1555838
3831.863, 0.1589743
3833.792, 0.1597459
3835.720, 0.1568767
3837.649, 0.1566843
3839.577, 0.1600249
3841.506, 0.1630856
3843.434, 0.1633506
3845.363, 0.1602283
3847.291, 0.1560577
3849.219, 0.1568365
3851.148, 0.1611285
3853.076, 0.1600096
3855.005, 0.1575469
3856.933, 0.1607615
3858.862, 0.1612636
3860.790, 0.1572743
3862.719, 0.1572250
3864.647, 0.1593657
3866.576, 0.1607306
3868.504, 0.1609983
3870.433, 0.1625937
3872.361, 0.1627999
3874.290, 0.1630405
3876.218, 0.1620057
3878.146, 0.1645723
3880.075, 0.1638747
3882.003, 0.1634710
3883.932, 0.1646048
3885.860, 0.1621176
3887.789, 0.1636868
3889.717, 0.1642174
3891.646, 0.1645213
3893.574, 0.1655344
3895.503, 0.1659904
3897.431, 0.1661983
3899.360, 0.1637376
3901.288, 0.1663845
3903.217, 0.1660668
3905.145, 0.1646772
3907.073, 0.1649324
3909.002, 0.1678133
3910.930, 0.1704857
3912.859, 0.1663284
3914.787, 0.1654986
3916.716, 0.1688328
3918.644, 0.1710920
3920.573, 0.1712111
3922.501, 0.1714580
3924.430, 0.1708600
3926.358, 0.1710640
3928.287, 0.1712162
3930.215, 0.1694891
3932.144, 0.1673864
3934.072, 0.1706065
3936.000, 0.1705518
3937.929, 0.1697513
3939.857, 0.1715673
3941.786, 0.1712498
3943.714, 0.1707761
3945.643, 0.1707275
3947.571, 0.1689673
3949.500, 0.1702957
3951.428, 0.1743321
3953.357, 0.1736932
3955.285, 0.1722070
3957.214, 0.1702080
3959.142, 0.1698251
3961.071, 0.1713918
3962.999, 0.1725742
3964.927, 0.1726012
3966.856, 0.1724129
3968.784, 0.1706151
3970.713, 0.1687000
3972.641, 0.1690206
3974.570, 0.1718514
3976.498, 0.1700725
3978.427, 0.1700506
3980.355, 0.1738448
3982.284, 0.1775586
3984.212, 0.1769971
3986.141, 0.1793764
3988.069, 0.1790560
3989.998, 0.1748757
3991.926, 0.1751815
3993.854, 0.1785674
3995.783, 0.1812807
3997.711, 0.1781688
3999.640, 0.1782547
##END=



