##NAMES=Diopside
##RRUFFID=R060061
##IDEAL CHEMISTRY=CaMgSi_2_O_6_
##LOCALITY=Oka, near Montreal, Quebec, Canada
##OWNER=RRUFF
##SOURCE=University of Arizona Mineral Museum
##DESCRIPTION=Pale green prismatic single crystal
##STATUS=The identification of this mineral is confirmed by single-crystal X-ray diffraction and chemical analysis.
##URL=rruff.info/R060061
##MEASURED CHEMISTRY=(Ca_0.99_Mn_0.01_)_Σ=1_(Mg_0.92_Fe^2+^_0.06_Mn_0.02_)_Σ=1_(Si_1.99_Al_0.01_)_Σ=2_O_6_
3.741225e+002, 1.691596e-001
3.760510e+002, 1.768998e-001
3.779795e+002, 1.779516e-001
3.799079e+002, 1.749229e-001
3.818364e+002, 1.849406e-001
3.837649e+002, 1.972538e-001
3.856933e+002, 1.969669e-001
3.876218e+002, 1.877206e-001
3.895503e+002, 1.842791e-001
3.914787e+002, 1.833224e-001
3.934072e+002, 1.767255e-001
3.953357e+002, 1.704113e-001
3.972641e+002, 1.698262e-001
3.991926e+002, 1.710396e-001
4.011211e+002, 1.658157e-001
4.030495e+002, 1.608479e-001
4.049780e+002, 1.586268e-001
4.069065e+002, 1.575365e-001
4.088349e+002, 1.521014e-001
4.107634e+002, 1.412621e-001
4.126919e+002, 1.298969e-001
4.146203e+002, 1.194080e-001
4.165488e+002, 1.104534e-001
4.184773e+002, 1.056044e-001
4.204057e+002, 1.061008e-001
4.223342e+002, 1.104759e-001
4.242627e+002, 1.174070e-001
4.261911e+002, 1.235927e-001
4.281196e+002, 1.255837e-001
4.300481e+002, 1.262985e-001
4.319765e+002, 1.259045e-001
4.339050e+002, 1.276941e-001
4.358335e+002, 1.331915e-001
4.377619e+002, 1.391760e-001
4.396904e+002, 1.455410e-001
4.416189e+002, 1.529514e-001
4.435473e+002, 1.588323e-001
4.454758e+002, 1.646064e-001
4.474043e+002, 1.711099e-001
4.493327e+002, 1.762444e-001
4.512612e+002, 1.803155e-001
4.531897e+002, 1.849615e-001
4.551181e+002, 1.882971e-001
4.570466e+002, 1.898903e-001
4.589751e+002, 1.905993e-001
4.609035e+002, 1.904384e-001
4.628320e+002, 1.915519e-001
4.647605e+002, 1.941958e-001
4.666889e+002, 1.966866e-001
4.686174e+002, 1.976855e-001
4.705459e+002, 1.976954e-001
4.724743e+002, 1.968157e-001
4.744028e+002, 1.953758e-001
4.763313e+002, 1.935387e-001
4.782597e+002, 1.906488e-001
4.801882e+002, 1.864725e-001
4.821167e+002, 1.819050e-001
4.840451e+002, 1.768098e-001
4.859736e+002, 1.714236e-001
4.879021e+002, 1.656526e-001
4.898305e+002, 1.604828e-001
4.917590e+002, 1.577699e-001
4.936875e+002, 1.585366e-001
4.956159e+002, 1.616510e-001
4.975444e+002, 1.655230e-001
4.994729e+002, 1.690639e-001
5.014013e+002, 1.719486e-001
5.033298e+002, 1.731230e-001
5.052583e+002, 1.718100e-001
5.071867e+002, 1.701298e-001
5.091152e+002, 1.674907e-001
5.110437e+002, 1.631317e-001
5.129721e+002, 1.576839e-001
5.149006e+002, 1.512696e-001
5.168290e+002, 1.450206e-001
5.187575e+002, 1.389940e-001
5.206860e+002, 1.333025e-001
5.226144e+002, 1.280076e-001
5.245429e+002, 1.229675e-001
5.264714e+002, 1.181168e-001
5.283998e+002, 1.138184e-001
5.303283e+002, 1.100049e-001
5.322568e+002, 1.062021e-001
5.341852e+002, 1.024613e-001
5.361137e+002, 9.913924e-002
5.380422e+002, 9.613078e-002
5.399706e+002, 9.303439e-002
5.418991e+002, 8.986802e-002
5.438276e+002, 8.647515e-002
5.457560e+002, 8.323676e-002
5.476845e+002, 8.013528e-002
5.496130e+002, 7.653964e-002
5.515414e+002, 7.276348e-002
5.534699e+002, 6.929770e-002
5.553984e+002, 6.620710e-002
5.573268e+002, 6.281652e-002
5.592553e+002, 5.919101e-002
5.611838e+002, 5.603592e-002
5.631122e+002, 5.251972e-002
5.650407e+002, 4.921002e-002
5.669692e+002, 4.650024e-002
5.688976e+002, 4.365373e-002
5.708261e+002, 4.070431e-002
5.727546e+002, 3.758338e-002
5.746830e+002, 3.439688e-002
5.766115e+002, 3.153789e-002
5.785400e+002, 2.920228e-002
5.804684e+002, 2.726908e-002
5.823969e+002, 2.531410e-002
5.843254e+002, 2.388001e-002
5.862538e+002, 2.325501e-002
5.881823e+002, 2.262110e-002
5.901108e+002, 2.197704e-002
5.920392e+002, 2.183075e-002
5.939677e+002, 2.213187e-002
5.958962e+002, 2.274368e-002
5.978246e+002, 2.338738e-002
5.997531e+002, 2.428754e-002
6.016816e+002, 2.527037e-002
6.036100e+002, 2.611029e-002
6.055385e+002, 2.703732e-002
6.074670e+002, 2.825622e-002
6.093954e+002, 2.929179e-002
6.113239e+002, 3.050066e-002
6.132524e+002, 3.219018e-002
6.151808e+002, 3.433592e-002
6.171093e+002, 3.713211e-002
6.190378e+002, 4.067114e-002
6.209662e+002, 4.517939e-002
6.228947e+002, 5.020404e-002
6.248232e+002, 5.554224e-002
6.267516e+002, 6.085847e-002
6.286801e+002, 6.522340e-002
6.306086e+002, 6.765222e-002
6.325370e+002, 6.750616e-002
6.344655e+002, 6.474246e-002
6.363940e+002, 5.960640e-002
6.383224e+002, 5.314887e-002
6.402509e+002, 4.646987e-002
6.421794e+002, 4.043161e-002
6.441078e+002, 3.543851e-002
6.460363e+002, 3.164906e-002
6.479648e+002, 2.876347e-002
6.498932e+002, 2.665446e-002
6.518217e+002, 2.539142e-002
6.537502e+002, 2.512117e-002
6.556786e+002, 2.546577e-002
6.576071e+002, 2.625441e-002
6.595356e+002, 2.748202e-002
6.614641e+002, 2.964424e-002
6.633925e+002, 3.305650e-002
6.653210e+002, 3.753730e-002
6.672495e+002, 4.285717e-002
6.691779e+002, 4.850508e-002
6.711064e+002, 5.172694e-002
6.730349e+002, 5.025595e-002
6.749633e+002, 4.464961e-002
6.768918e+002, 3.776632e-002
6.788203e+002, 3.168445e-002
6.807487e+002, 2.746731e-002
6.826772e+002, 2.458684e-002
6.846057e+002, 2.272929e-002
6.865341e+002, 2.160477e-002
6.884626e+002, 2.089525e-002
6.903911e+002, 2.045933e-002
6.923195e+002, 2.019802e-002
6.942480e+002, 2.022842e-002
6.961765e+002, 2.031076e-002
6.981049e+002, 2.023805e-002
7.000334e+002, 2.029893e-002
7.019619e+002, 2.045437e-002
7.038903e+002, 2.070506e-002
7.058188e+002, 2.115845e-002
7.077473e+002, 2.193961e-002
7.096757e+002, 2.326276e-002
7.116042e+002, 2.491722e-002
7.135327e+002, 2.532712e-002
7.154611e+002, 2.416897e-002
7.173896e+002, 2.302264e-002
7.193181e+002, 2.253733e-002
7.212465e+002, 2.252661e-002
7.231750e+002, 2.290396e-002
7.251035e+002, 2.346798e-002
7.270319e+002, 2.380333e-002
7.289604e+002, 2.414797e-002
7.308889e+002, 2.454017e-002
7.328173e+002, 2.509234e-002
7.347458e+002, 2.584759e-002
7.366743e+002, 2.673096e-002
7.386027e+002, 2.765085e-002
7.405312e+002, 2.844971e-002
7.424597e+002, 2.928242e-002
7.443881e+002, 3.026667e-002
7.463166e+002, 3.131697e-002
7.482451e+002, 3.216981e-002
7.501735e+002, 3.309138e-002
7.521020e+002, 3.420848e-002
7.540305e+002, 3.546049e-002
7.559589e+002, 3.664870e-002
7.578874e+002, 3.781822e-002
7.598159e+002, 3.905416e-002
7.617443e+002, 4.030117e-002
7.636728e+002, 4.168082e-002
7.656013e+002, 4.302762e-002
7.675297e+002, 4.454976e-002
7.694582e+002, 4.599686e-002
7.713867e+002, 4.750036e-002
7.733151e+002, 4.914349e-002
7.752436e+002, 5.072727e-002
7.771721e+002, 5.248380e-002
7.791005e+002, 5.439045e-002
7.810290e+002, 5.612847e-002
7.829575e+002, 5.806283e-002
7.848859e+002, 6.006429e-002
7.868144e+002, 6.212515e-002
7.887429e+002, 6.431717e-002
7.906713e+002, 6.658260e-002
7.925998e+002, 6.890533e-002
7.945283e+002, 7.142535e-002
7.964567e+002, 7.429484e-002
7.983852e+002, 7.735457e-002
8.003137e+002, 8.036989e-002
8.022421e+002, 8.333223e-002
8.041706e+002, 8.662270e-002
8.060991e+002, 9.020120e-002
8.080275e+002, 9.392349e-002
8.099560e+002, 9.800719e-002
8.118845e+002, 1.021605e-001
8.138129e+002, 1.062193e-001
8.157414e+002, 1.105051e-001
8.176699e+002, 1.152256e-001
8.195983e+002, 1.200280e-001
8.215268e+002, 1.248627e-001
8.234553e+002, 1.298784e-001
8.253837e+002, 1.351885e-001
8.273122e+002, 1.406138e-001
8.292407e+002, 1.462038e-001
8.311691e+002, 1.521031e-001
8.330976e+002, 1.582367e-001
8.350261e+002, 1.647525e-001
8.369545e+002, 1.714574e-001
8.388830e+002, 1.786624e-001
8.408115e+002, 1.860544e-001
8.427399e+002, 1.930341e-001
8.446684e+002, 1.999043e-001
8.465969e+002, 2.066017e-001
8.485253e+002, 2.118104e-001
8.504538e+002, 2.155859e-001
8.523823e+002, 2.185276e-001
8.543107e+002, 2.205695e-001
8.562392e+002, 2.217621e-001
8.581677e+002, 2.223381e-001
8.600961e+002, 2.222516e-001
8.620246e+002, 2.218761e-001
8.639531e+002, 2.213786e-001
8.658815e+002, 2.205853e-001
8.678100e+002, 2.199360e-001
8.697385e+002, 2.195842e-001
8.716669e+002, 2.186977e-001
8.735954e+002, 2.159791e-001
8.755239e+002, 2.111976e-001
8.774523e+002, 2.050870e-001
8.793808e+002, 1.983714e-001
8.813093e+002, 1.922721e-001
8.832377e+002, 1.871261e-001
8.851662e+002, 1.822557e-001
8.870947e+002, 1.786894e-001
8.890231e+002, 1.765766e-001
8.909516e+002, 1.751971e-001
8.928801e+002, 1.741662e-001
8.948085e+002, 1.731278e-001
8.967370e+002, 1.723340e-001
8.986655e+002, 1.717101e-001
9.005939e+002, 1.713938e-001
9.025224e+002, 1.714126e-001
9.044509e+002, 1.716004e-001
9.063793e+002, 1.719049e-001
9.083078e+002, 1.723927e-001
9.102363e+002, 1.730175e-001
9.121647e+002, 1.735101e-001
9.140932e+002, 1.733067e-001
9.160217e+002, 1.724081e-001
9.179501e+002, 1.705045e-001
9.198786e+002, 1.672679e-001
9.218071e+002, 1.623777e-001
9.237355e+002, 1.557875e-001
9.256640e+002, 1.476810e-001
9.275925e+002, 1.385903e-001
9.295209e+002, 1.294088e-001
9.314494e+002, 1.215612e-001
9.333779e+002, 1.164107e-001
9.353063e+002, 1.145413e-001
9.372348e+002, 1.153971e-001
9.391633e+002, 1.187823e-001
9.410917e+002, 1.242841e-001
9.430202e+002, 1.311200e-001
9.449487e+002, 1.388641e-001
9.468771e+002, 1.472367e-001
9.488056e+002, 1.557804e-001
9.507341e+002, 1.640471e-001
9.526625e+002, 1.715695e-001
9.545910e+002, 1.776739e-001
9.565195e+002, 1.820772e-001
9.584479e+002, 1.851135e-001
9.603764e+002, 1.865800e-001
9.623049e+002, 1.859998e-001
9.642333e+002, 1.829035e-001
9.661618e+002, 1.777581e-001
9.680903e+002, 1.712116e-001
9.700187e+002, 1.637136e-001
9.719472e+002, 1.556308e-001
9.738757e+002, 1.474776e-001
9.758041e+002, 1.394646e-001
9.777326e+002, 1.315946e-001
9.796611e+002, 1.244072e-001
9.815895e+002, 1.180701e-001
9.835180e+002, 1.123142e-001
9.854465e+002, 1.071482e-001
9.873749e+002, 1.021875e-001
9.893034e+002, 9.768696e-002
9.912319e+002, 9.330948e-002
9.931603e+002, 8.865976e-002
9.950888e+002, 8.389176e-002
9.970173e+002, 7.928725e-002
9.989457e+002, 7.484267e-002
1.000874e+003, 7.052436e-002
1.002803e+003, 6.642224e-002
1.004731e+003, 6.295080e-002
1.006660e+003, 6.016717e-002
1.008588e+003, 5.792008e-002
1.010517e+003, 5.637805e-002
1.012445e+003, 5.565540e-002
1.014373e+003, 5.552113e-002
1.016302e+003, 5.591245e-002
1.018230e+003, 5.691831e-002
1.020159e+003, 5.883345e-002
1.022087e+003, 6.158362e-002
1.024016e+003, 6.501068e-002
1.025944e+003, 6.897157e-002
1.027873e+003, 7.345842e-002
1.029801e+003, 7.834291e-002
1.031730e+003, 8.337964e-002
1.033658e+003, 8.872470e-002
1.035587e+003, 9.485110e-002
1.037515e+003, 1.015183e-001
1.039443e+003, 1.083457e-001
1.041372e+003, 1.156107e-001
1.043300e+003, 1.232331e-001
1.045229e+003, 1.310043e-001
1.047157e+003, 1.391793e-001
1.049086e+003, 1.475173e-001
1.051014e+003, 1.558872e-001
1.052943e+003, 1.637493e-001
1.054871e+003, 1.709408e-001
1.056800e+003, 1.768840e-001
1.058728e+003, 1.817110e-001
1.060657e+003, 1.854191e-001
1.062585e+003, 1.880651e-001
1.064514e+003, 1.895684e-001
1.066442e+003, 1.897213e-001
1.068370e+003, 1.881578e-001
1.070299e+003, 1.850770e-001
1.072227e+003, 1.805927e-001
1.074156e+003, 1.747537e-001
1.076084e+003, 1.678268e-001
1.078013e+003, 1.603804e-001
1.079941e+003, 1.527014e-001
1.081870e+003, 1.449547e-001
1.083798e+003, 1.374283e-001
1.085727e+003, 1.301886e-001
1.087655e+003, 1.230777e-001
1.089584e+003, 1.161405e-001
1.091512e+003, 1.093630e-001
1.093441e+003, 1.029430e-001
1.095369e+003, 9.684860e-002
1.097297e+003, 9.100620e-002
1.099226e+003, 8.548598e-002
1.101154e+003, 8.019004e-002
1.103083e+003, 7.512597e-002
1.105011e+003, 7.027964e-002
1.106940e+003, 6.543112e-002
1.108868e+003, 6.060273e-002
1.110797e+003, 5.596212e-002
1.112725e+003, 5.123870e-002
1.114654e+003, 4.653894e-002
1.116582e+003, 4.221750e-002
1.118511e+003, 3.831135e-002
1.120439e+003, 3.488480e-002
1.122368e+003, 3.180779e-002
1.124296e+003, 2.895320e-002
1.126224e+003, 2.623191e-002
1.128153e+003, 2.370449e-002
1.130081e+003, 2.123811e-002
1.132010e+003, 1.898278e-002
1.133938e+003, 1.700221e-002
1.135867e+003, 1.526626e-002
1.137795e+003, 1.363015e-002
1.139724e+003, 1.217691e-002
1.141652e+003, 1.115622e-002
1.143581e+003, 1.034171e-002
1.145509e+003, 9.650998e-003
1.147438e+003, 9.156898e-003
1.149366e+003, 8.793406e-003
1.151295e+003, 8.478825e-003
1.153223e+003, 8.014632e-003
1.155151e+003, 7.580847e-003
1.157080e+003, 7.167549e-003
1.159008e+003, 6.853618e-003
1.160937e+003, 6.671361e-003
1.162865e+003, 6.400415e-003
1.164794e+003, 6.004995e-003
1.166722e+003, 5.633260e-003
1.168651e+003, 5.391948e-003
1.170579e+003, 5.187936e-003
1.172508e+003, 5.011915e-003
1.174436e+003, 4.914673e-003
1.176365e+003, 4.786612e-003
1.178293e+003, 4.668662e-003
1.180222e+003, 4.513012e-003
1.182150e+003, 4.436442e-003
1.184078e+003, 4.307900e-003
1.186007e+003, 4.197136e-003
1.187935e+003, 4.073561e-003
1.189864e+003, 4.081423e-003
1.191792e+003, 4.035326e-003
1.193721e+003, 3.889386e-003
1.195649e+003, 3.819140e-003
1.197578e+003, 3.760327e-003
1.199506e+003, 3.766323e-003
1.201435e+003, 3.790803e-003
1.203363e+003, 3.777910e-003
1.205292e+003, 3.770309e-003
1.207220e+003, 3.758112e-003
1.209149e+003, 3.710511e-003
1.211077e+003, 3.690709e-003
1.213005e+003, 3.699562e-003
1.214934e+003, 3.654471e-003
1.216862e+003, 3.668574e-003
1.218791e+003, 3.680428e-003
1.220719e+003, 3.655322e-003
1.222648e+003, 3.561475e-003
1.224576e+003, 3.520797e-003
1.226505e+003, 3.517774e-003
1.228433e+003, 3.543610e-003
1.230362e+003, 3.683691e-003
1.232290e+003, 3.816664e-003
1.234219e+003, 3.758206e-003
1.236147e+003, 3.708917e-003
1.238076e+003, 3.700480e-003
1.240004e+003, 3.688687e-003
1.241932e+003, 3.717607e-003
1.243861e+003, 3.758057e-003
1.245789e+003, 3.830332e-003
1.247718e+003, 3.799775e-003
1.249646e+003, 3.769897e-003
1.251575e+003, 3.758538e-003
1.253503e+003, 3.863563e-003
1.255432e+003, 3.947962e-003
1.257360e+003, 4.025563e-003
1.259289e+003, 4.049206e-003
1.261217e+003, 4.121533e-003
1.263146e+003, 4.079369e-003
1.265074e+003, 4.042891e-003
1.267003e+003, 4.057582e-003
1.268931e+003, 4.154136e-003
1.270859e+003, 4.287472e-003
1.272788e+003, 4.300043e-003
1.274716e+003, 4.349196e-003
1.276645e+003, 4.429607e-003
1.278573e+003, 4.505338e-003
1.280502e+003, 4.549717e-003
1.282430e+003, 4.640786e-003
1.284359e+003, 4.733666e-003
1.286287e+003, 4.777597e-003
1.288216e+003, 4.855996e-003
1.290144e+003, 4.907539e-003
1.292073e+003, 4.934554e-003
1.294001e+003, 5.037763e-003
1.295930e+003, 5.209049e-003
1.297858e+003, 5.330253e-003
1.299786e+003, 5.535053e-003
1.301715e+003, 5.665177e-003
1.303643e+003, 5.813973e-003
1.305572e+003, 5.943241e-003
1.307500e+003, 6.053452e-003
1.309429e+003, 6.184461e-003
1.311357e+003, 6.286731e-003
1.313286e+003, 6.421765e-003
1.315214e+003, 6.515145e-003
1.317143e+003, 6.741245e-003
1.319071e+003, 6.998099e-003
1.321000e+003, 7.140636e-003
1.322928e+003, 7.199784e-003
1.324857e+003, 7.348347e-003
1.326785e+003, 7.549945e-003
1.328714e+003, 7.624522e-003
1.330642e+003, 7.814307e-003
1.332570e+003, 8.054266e-003
1.334499e+003, 8.307045e-003
1.336427e+003, 8.635091e-003
1.338356e+003, 8.848494e-003
1.340284e+003, 9.143382e-003
1.342213e+003, 9.498568e-003
1.344141e+003, 9.843023e-003
1.346070e+003, 1.016751e-002
1.347998e+003, 1.040722e-002
1.349927e+003, 1.071844e-002
1.351855e+003, 1.120754e-002
1.353784e+003, 1.178362e-002
1.355712e+003, 1.234078e-002
1.357641e+003, 1.288315e-002
1.359569e+003, 1.342269e-002
1.361497e+003, 1.401932e-002
1.363426e+003, 1.467460e-002
1.365354e+003, 1.539039e-002
1.367283e+003, 1.620635e-002
1.369211e+003, 1.706688e-002
1.371140e+003, 1.793803e-002
1.373068e+003, 1.888213e-002
1.374997e+003, 1.992753e-002
1.376925e+003, 2.113543e-002
1.378854e+003, 2.242565e-002
1.380782e+003, 2.357867e-002
1.382711e+003, 2.481900e-002
1.384639e+003, 2.626587e-002
1.386568e+003, 2.790711e-002
1.388496e+003, 2.987101e-002
1.390424e+003, 3.180714e-002
1.392353e+003, 3.355731e-002
1.394281e+003, 3.530421e-002
1.396210e+003, 3.707128e-002
1.398138e+003, 3.875011e-002
1.400067e+003, 4.020885e-002
1.401995e+003, 4.177412e-002
1.403924e+003, 4.354217e-002
1.405852e+003, 4.530212e-002
1.407781e+003, 4.696152e-002
1.409709e+003, 4.861994e-002
1.411638e+003, 5.015484e-002
1.413566e+003, 5.126980e-002
1.415495e+003, 5.195168e-002
1.417423e+003, 5.249531e-002
1.419351e+003, 5.299954e-002
1.421280e+003, 5.335696e-002
1.423208e+003, 5.355092e-002
1.425137e+003, 5.376206e-002
1.427065e+003, 5.394127e-002
1.428994e+003, 5.404324e-002
1.430922e+003, 5.410552e-002
1.432851e+003, 5.395303e-002
1.434779e+003, 5.366516e-002
1.436708e+003, 5.348923e-002
1.438636e+003, 5.342498e-002
1.440565e+003, 5.345516e-002
1.442493e+003, 5.335043e-002
1.444422e+003, 5.310165e-002
1.446350e+003, 5.278349e-002
1.448278e+003, 5.247724e-002
1.450207e+003, 5.214267e-002
1.452135e+003, 5.168590e-002
1.454064e+003, 5.101680e-002
1.455992e+003, 5.032394e-002
1.457921e+003, 4.977356e-002
1.459849e+003, 4.923236e-002
1.461778e+003, 4.848960e-002
1.463706e+003, 4.774893e-002
1.465635e+003, 4.701030e-002
1.467563e+003, 4.622999e-002
1.469492e+003, 4.551608e-002
1.471420e+003, 4.484684e-002
1.473349e+003, 4.415701e-002
1.475277e+003, 4.338601e-002
1.477205e+003, 4.264358e-002
1.479134e+003, 4.201714e-002
1.481062e+003, 4.119515e-002
1.482991e+003, 4.028445e-002
1.484919e+003, 3.945626e-002
1.486848e+003, 3.863802e-002
1.488776e+003, 3.777336e-002
1.490705e+003, 3.684042e-002
1.492633e+003, 3.590691e-002
1.494562e+003, 3.500418e-002
1.496490e+003, 3.408685e-002
1.498419e+003, 3.316042e-002
1.500347e+003, 3.215382e-002
1.502276e+003, 3.103776e-002
1.504204e+003, 3.000689e-002
1.506132e+003, 2.894514e-002
1.508061e+003, 2.792815e-002
1.509989e+003, 2.710300e-002
1.511918e+003, 2.619217e-002
1.513846e+003, 2.527815e-002
1.515775e+003, 2.431831e-002
1.517703e+003, 2.342961e-002
1.519632e+003, 2.255033e-002
1.521560e+003, 2.167999e-002
1.523489e+003, 2.092592e-002
1.525417e+003, 2.031733e-002
1.527346e+003, 1.972995e-002
1.529274e+003, 1.893218e-002
1.531203e+003, 1.811964e-002
1.533131e+003, 1.739411e-002
1.535059e+003, 1.680643e-002
1.536988e+003, 1.613716e-002
1.538916e+003, 1.546145e-002
1.540845e+003, 1.490885e-002
1.542773e+003, 1.421786e-002
1.544702e+003, 1.351369e-002
1.546630e+003, 1.311610e-002
1.548559e+003, 1.283491e-002
1.550487e+003, 1.230634e-002
1.552416e+003, 1.176293e-002
1.554344e+003, 1.149654e-002
1.556273e+003, 1.120478e-002
1.558201e+003, 1.063820e-002
1.560130e+003, 1.028515e-002
1.562058e+003, 1.023224e-002
1.563986e+003, 9.967215e-003
1.565915e+003, 9.602842e-003
1.567843e+003, 9.448679e-003
1.569772e+003, 9.382523e-003
1.571700e+003, 9.202640e-003
1.573629e+003, 8.901093e-003
1.575557e+003, 8.581907e-003
1.577486e+003, 8.527374e-003
1.579414e+003, 8.450965e-003
1.581343e+003, 8.327790e-003
1.583271e+003, 8.215411e-003
1.585200e+003, 8.025859e-003
1.587128e+003, 7.941784e-003
1.589057e+003, 7.812972e-003
1.590985e+003, 7.791487e-003
1.592913e+003, 7.636769e-003
1.594842e+003, 7.345067e-003
1.596770e+003, 7.078370e-003
1.598699e+003, 6.831711e-003
1.600627e+003, 6.722194e-003
1.602556e+003, 6.679205e-003
1.604484e+003, 6.536709e-003
1.606413e+003, 6.450235e-003
1.608341e+003, 6.314558e-003
1.610270e+003, 6.214255e-003
1.612198e+003, 6.264931e-003
1.614127e+003, 6.200668e-003
1.616055e+003, 5.974855e-003
1.617984e+003, 6.024926e-003
1.619912e+003, 6.131084e-003
1.621840e+003, 5.966954e-003
1.623769e+003, 5.870052e-003
1.625697e+003, 5.871874e-003
1.627626e+003, 5.934152e-003
1.629554e+003, 6.006044e-003
1.631483e+003, 5.988576e-003
1.633411e+003, 5.929408e-003
1.635340e+003, 5.865610e-003
1.637268e+003, 5.918923e-003
1.639197e+003, 5.956576e-003
1.641125e+003, 5.989308e-003
1.643054e+003, 6.080026e-003
1.644982e+003, 5.997466e-003
1.646911e+003, 5.840929e-003
1.648839e+003, 5.806251e-003
1.650767e+003, 5.639600e-003
1.652696e+003, 5.463757e-003
1.654624e+003, 5.592624e-003
1.656553e+003, 5.720529e-003
1.658481e+003, 5.755561e-003
1.660410e+003, 5.669770e-003
1.662338e+003, 5.440748e-003
1.664267e+003, 5.328072e-003
1.666195e+003, 5.229708e-003
1.668124e+003, 5.089645e-003
1.670052e+003, 5.132321e-003
1.671981e+003, 5.174415e-003
1.673909e+003, 5.108230e-003
1.675838e+003, 5.030031e-003
1.677766e+003, 4.988478e-003
1.679694e+003, 4.929730e-003
1.681623e+003, 4.825851e-003
1.683551e+003, 4.621701e-003
1.685480e+003, 4.486072e-003
1.687408e+003, 4.649872e-003
1.689337e+003, 4.652722e-003
1.691265e+003, 4.477156e-003
1.693194e+003, 4.413754e-003
1.695122e+003, 4.291499e-003
1.697051e+003, 4.356689e-003
1.698979e+003, 4.365731e-003
1.700908e+003, 4.225075e-003
1.702836e+003, 4.231866e-003
1.704765e+003, 4.259568e-003
1.706693e+003, 4.174544e-003
1.708621e+003, 4.019477e-003
1.710550e+003, 3.822046e-003
1.712478e+003, 3.698170e-003
1.714407e+003, 3.717821e-003
1.716335e+003, 3.706016e-003
1.718264e+003, 3.807069e-003
1.720192e+003, 4.096190e-003
1.722121e+003, 4.124318e-003
1.724049e+003, 3.994325e-003
1.725978e+003, 4.035031e-003
1.727906e+003, 3.946830e-003
1.729835e+003, 3.849735e-003
1.731763e+003, 3.603431e-003
1.733692e+003, 3.283030e-003
1.735620e+003, 3.173033e-003
1.737548e+003, 2.972051e-003
1.739477e+003, 2.797747e-003
1.741405e+003, 2.792700e-003
1.743334e+003, 2.664156e-003
1.745262e+003, 2.671820e-003
1.747191e+003, 2.665495e-003
1.749119e+003, 2.743013e-003
1.751048e+003, 2.957396e-003
1.752976e+003, 3.340708e-003
1.754905e+003, 3.519804e-003
1.756833e+003, 3.633055e-003
1.758762e+003, 3.825742e-003
1.760690e+003, 3.935087e-003
1.762619e+003, 3.904777e-003
1.764547e+003, 3.999454e-003
1.766475e+003, 4.132235e-003
1.768404e+003, 4.157737e-003
1.770332e+003, 4.187060e-003
1.772261e+003, 4.079644e-003
1.774189e+003, 4.232040e-003
1.776118e+003, 4.461784e-003
1.778046e+003, 4.462203e-003
1.779975e+003, 4.380639e-003
1.781903e+003, 4.476969e-003
1.783832e+003, 4.783948e-003
1.785760e+003, 4.982417e-003
1.787689e+003, 5.080757e-003
1.789617e+003, 5.156930e-003
1.791546e+003, 5.352315e-003
1.793474e+003, 5.490642e-003
1.795402e+003, 5.690877e-003
1.797331e+003, 5.498113e-003
1.799259e+003, 5.124565e-003
1.801188e+003, 5.004351e-003
1.803116e+003, 5.046348e-003
1.805045e+003, 4.938849e-003
1.806973e+003, 4.668729e-003
1.808902e+003, 4.512404e-003
1.810830e+003, 4.522304e-003
1.812759e+003, 4.475130e-003
1.814687e+003, 4.157424e-003
1.816616e+003, 3.889253e-003
1.818544e+003, 4.298608e-003
1.820473e+003, 4.454945e-003
1.822401e+003, 4.121219e-003
1.824329e+003, 3.981668e-003
1.826258e+003, 4.089779e-003
1.828186e+003, 4.201773e-003
1.830115e+003, 4.269263e-003
1.832043e+003, 4.473925e-003
1.833972e+003, 4.586885e-003
1.835900e+003, 4.325695e-003
1.837829e+003, 4.197351e-003
1.839757e+003, 4.129471e-003
1.841686e+003, 4.182215e-003
1.843614e+003, 4.168011e-003
1.845543e+003, 4.310219e-003
1.847471e+003, 4.474223e-003
1.849400e+003, 4.638960e-003
1.851328e+003, 4.653014e-003
1.853256e+003, 4.469161e-003
1.855185e+003, 4.642656e-003
1.857113e+003, 4.672014e-003
1.859042e+003, 4.511238e-003
1.860970e+003, 4.716869e-003
1.862899e+003, 4.750588e-003
1.864827e+003, 4.871330e-003
1.866756e+003, 5.009193e-003
1.868684e+003, 4.853169e-003
1.870613e+003, 4.688372e-003
1.872541e+003, 4.720189e-003
1.874470e+003, 4.755310e-003
1.876398e+003, 4.572932e-003
1.878327e+003, 4.610153e-003
1.880255e+003, 4.446887e-003
1.882183e+003, 4.120710e-003
1.884112e+003, 4.247380e-003
1.886040e+003, 4.446896e-003
1.887969e+003, 4.390114e-003
1.889897e+003, 4.590111e-003
1.891826e+003, 4.718690e-003
1.893754e+003, 4.680005e-003
1.895683e+003, 4.391244e-003
1.897611e+003, 4.012446e-003
1.899540e+003, 4.087923e-003
1.901468e+003, 4.055379e-003
1.903397e+003, 4.108998e-003
1.905325e+003, 4.236196e-003
1.907254e+003, 4.282975e-003
1.909182e+003, 3.950286e-003
1.911110e+003, 3.912674e-003
1.913039e+003, 3.783969e-003
1.914967e+003, 4.030612e-003
1.916896e+003, 4.228971e-003
1.918824e+003, 4.315923e-003
1.920753e+003, 3.846796e-003
1.922681e+003, 3.727440e-003
1.924610e+003, 4.121460e-003
1.926538e+003, 4.286464e-003
1.928467e+003, 4.182527e-003
1.930395e+003, 4.039744e-003
1.932324e+003, 4.112419e-003
1.934252e+003, 3.793038e-003
1.936181e+003, 3.759045e-003
1.938109e+003, 3.860037e-003
1.940037e+003, 3.639619e-003
1.941966e+003, 3.789615e-003
1.943894e+003, 4.086351e-003
1.945823e+003, 3.744343e-003
1.947751e+003, 4.133294e-003
1.949680e+003, 4.811686e-003
1.951608e+003, 4.540144e-003
1.953537e+003, 4.483384e-003
1.955465e+003, 4.070940e-003
1.957394e+003, 3.274901e-003
1.959322e+003, 3.195282e-003
1.961251e+003, 4.146905e-003
1.963179e+003, 4.541064e-003
1.965108e+003, 4.419153e-003
1.967036e+003, 4.008312e-003
1.968964e+003, 3.703854e-003
1.970893e+003, 3.714926e-003
1.972821e+003, 3.816749e-003
1.974750e+003, 4.759400e-003
1.976678e+003, 7.064074e-003
1.978607e+003, 8.640076e-003
1.980535e+003, 7.879357e-003
1.982464e+003, 6.892744e-003
1.984392e+003, 6.857058e-003
1.986321e+003, 6.629162e-003
1.988249e+003, 5.855241e-003
1.990178e+003, 5.486162e-003
1.992106e+003, 5.774072e-003
1.994035e+003, 5.861544e-003
1.995963e+003, 5.491642e-003
1.997891e+003, 5.271158e-003
1.999820e+003, 5.442820e-003
2.001748e+003, 5.124755e-003
2.003677e+003, 4.594675e-003
2.005605e+003, 4.807234e-003
2.007534e+003, 5.272955e-003
2.009462e+003, 6.154835e-003
2.011391e+003, 7.751087e-003
2.013319e+003, 8.243921e-003
2.015248e+003, 8.029347e-003
2.017176e+003, 7.216190e-003
2.019105e+003, 6.570591e-003
2.021033e+003, 5.861440e-003
2.022962e+003, 5.804342e-003
2.024890e+003, 6.145992e-003
2.026818e+003, 6.718895e-003
2.028747e+003, 7.402084e-003
2.030675e+003, 7.364182e-003
2.032604e+003, 7.045154e-003
2.034532e+003, 7.047873e-003
2.036461e+003, 6.772567e-003
2.038389e+003, 6.842126e-003
2.040318e+003, 6.901564e-003
2.042246e+003, 6.803732e-003
2.044175e+003, 6.777334e-003
2.046103e+003, 7.101228e-003
2.048031e+003, 7.903369e-003
2.049960e+003, 8.990929e-003
2.051888e+003, 8.503068e-003
2.053817e+003, 7.760465e-003
2.055745e+003, 7.174221e-003
2.057674e+003, 7.052568e-003
2.059602e+003, 7.013568e-003
2.061531e+003, 6.625788e-003
2.063459e+003, 6.370606e-003
2.065388e+003, 6.063940e-003
2.067316e+003, 6.437261e-003
2.069245e+003, 6.791517e-003
2.071173e+003, 6.469192e-003
2.073102e+003, 5.965292e-003
2.075030e+003, 6.061284e-003
2.076958e+003, 6.305908e-003
2.078887e+003, 6.988761e-003
2.080815e+003, 7.171458e-003
2.082744e+003, 6.312986e-003
2.084672e+003, 5.917439e-003
2.086601e+003, 5.931960e-003
2.088529e+003, 5.628743e-003
2.090458e+003, 5.046898e-003
2.092386e+003, 4.892552e-003
2.094315e+003, 5.308940e-003
2.096243e+003, 6.017014e-003
2.098172e+003, 6.191962e-003
2.100100e+003, 6.187757e-003
2.102029e+003, 5.925513e-003
2.103957e+003, 5.932761e-003
2.105885e+003, 5.987536e-003
2.107814e+003, 6.247438e-003
2.109742e+003, 5.793801e-003
2.111671e+003, 5.624116e-003
2.113599e+003, 5.902298e-003
2.115528e+003, 5.912989e-003
2.117456e+003, 5.633066e-003
2.119385e+003, 5.316661e-003
2.121313e+003, 4.696397e-003
2.123242e+003, 4.346888e-003
2.125170e+003, 4.109961e-003
2.127099e+003, 3.610782e-003
2.129027e+003, 3.579006e-003
2.130956e+003, 3.415275e-003
2.132884e+003, 3.451910e-003
2.134813e+003, 3.717685e-003
2.136741e+003, 3.188288e-003
2.138669e+003, 3.397882e-003
2.140598e+003, 3.790822e-003
2.142526e+003, 3.237898e-003
2.144455e+003, 2.150894e-003
2.146383e+003, 1.816995e-003
2.148312e+003, 1.667887e-003
2.150240e+003, 1.809344e-003
2.152169e+003, 1.781183e-003
2.154097e+003, 7.960622e-004
2.156026e+003, 2.923768e-004
2.157954e+003, 2.798357e-003
2.159883e+003, 6.185219e-003
2.161811e+003, 7.429365e-003
2.163740e+003, 6.855505e-003
2.165668e+003, 6.398979e-003
2.167596e+003, 6.230108e-003
2.169525e+003, 5.301140e-003
2.171453e+003, 4.990829e-003
2.173382e+003, 6.066675e-003
2.175310e+003, 6.477346e-003
2.177239e+003, 6.219504e-003
2.179167e+003, 6.006574e-003
2.181096e+003, 6.290073e-003
2.183024e+003, 7.057165e-003
2.184953e+003, 7.617587e-003
2.186881e+003, 7.295560e-003
2.188810e+003, 7.154110e-003
2.190738e+003, 7.488191e-003
2.192667e+003, 7.395963e-003
2.194595e+003, 7.740167e-003
2.196523e+003, 8.450707e-003
2.198452e+003, 8.440350e-003
2.200380e+003, 8.630232e-003
2.202309e+003, 8.328021e-003
2.204237e+003, 7.823756e-003
2.206166e+003, 7.508109e-003
2.208094e+003, 7.755586e-003
2.210023e+003, 7.542077e-003
2.211951e+003, 7.415854e-003
2.213880e+003, 8.071302e-003
2.215808e+003, 8.243413e-003
2.217737e+003, 8.386141e-003
2.219665e+003, 9.098487e-003
2.221594e+003, 9.112935e-003
2.223522e+003, 9.001763e-003
2.225450e+003, 9.367805e-003
2.227379e+003, 9.181505e-003
2.229307e+003, 8.671430e-003
2.231236e+003, 9.133459e-003
2.233164e+003, 9.955393e-003
2.235093e+003, 1.042063e-002
2.237021e+003, 9.883264e-003
2.238950e+003, 9.176625e-003
2.240878e+003, 9.307967e-003
2.242807e+003, 9.552616e-003
2.244735e+003, 9.579774e-003
2.246664e+003, 9.380684e-003
2.248592e+003, 9.186628e-003
2.250521e+003, 9.333584e-003
2.252449e+003, 9.573157e-003
2.254377e+003, 9.983605e-003
2.256306e+003, 1.023685e-002
2.258234e+003, 1.009645e-002
2.260163e+003, 9.802238e-003
2.262091e+003, 9.824675e-003
2.264020e+003, 9.880785e-003
2.265948e+003, 9.634695e-003
2.267877e+003, 9.738252e-003
2.269805e+003, 1.022289e-002
2.271734e+003, 1.024255e-002
2.273662e+003, 1.036913e-002
2.275591e+003, 1.032772e-002
2.277519e+003, 1.029168e-002
2.279448e+003, 1.041776e-002
2.281376e+003, 1.080626e-002
2.283304e+003, 1.127545e-002
2.285233e+003, 1.109084e-002
2.287161e+003, 1.059889e-002
2.289090e+003, 1.078121e-002
2.291018e+003, 1.082671e-002
2.292947e+003, 1.034186e-002
2.294875e+003, 1.019049e-002
2.296804e+003, 1.045460e-002
2.298732e+003, 1.026256e-002
2.300661e+003, 1.027781e-002
2.302589e+003, 1.017318e-002
2.304518e+003, 9.991245e-003
2.306446e+003, 9.947942e-003
2.308375e+003, 9.906596e-003
2.310303e+003, 9.882160e-003
2.312231e+003, 1.013329e-002
2.314160e+003, 1.022347e-002
2.316088e+003, 1.034498e-002
2.318017e+003, 1.038646e-002
2.319945e+003, 1.071957e-002
2.321874e+003, 1.132456e-002
2.323802e+003, 1.132657e-002
2.325731e+003, 1.022146e-002
2.327659e+003, 9.198968e-003
2.329588e+003, 8.944472e-003
2.331516e+003, 8.789862e-003
2.333445e+003, 8.699642e-003
2.335373e+003, 8.941528e-003
2.337302e+003, 9.222940e-003
2.339230e+003, 9.234075e-003
2.341158e+003, 9.054177e-003
2.343087e+003, 9.037556e-003
2.345015e+003, 8.979707e-003
2.346944e+003, 9.060043e-003
2.348872e+003, 9.084739e-003
2.350801e+003, 9.062498e-003
2.352729e+003, 8.811114e-003
2.354658e+003, 8.606897e-003
2.356586e+003, 8.545442e-003
2.358515e+003, 8.381150e-003
2.360443e+003, 8.427709e-003
2.362372e+003, 8.687890e-003
2.364300e+003, 8.448004e-003
2.366229e+003, 8.265160e-003
2.368157e+003, 8.427929e-003
2.370085e+003, 8.342215e-003
2.372014e+003, 8.286886e-003
2.373942e+003, 8.530139e-003
2.375871e+003, 8.770348e-003
2.377799e+003, 8.823946e-003
2.379728e+003, 8.783435e-003
2.381656e+003, 9.088689e-003
2.383585e+003, 9.290933e-003
2.385513e+003, 9.160641e-003
2.387442e+003, 8.995303e-003
2.389370e+003, 8.978723e-003
2.391299e+003, 9.149035e-003
2.393227e+003, 9.332417e-003
2.395156e+003, 9.214435e-003
2.397084e+003, 9.361124e-003
2.399012e+003, 9.495957e-003
2.400941e+003, 9.583234e-003
2.402869e+003, 9.368826e-003
2.404798e+003, 9.208478e-003
2.406726e+003, 9.451356e-003
2.408655e+003, 9.460719e-003
2.410583e+003, 9.679568e-003
2.412512e+003, 9.837759e-003
2.414440e+003, 1.007478e-002
2.416369e+003, 9.996203e-003
2.418297e+003, 9.739156e-003
2.420226e+003, 9.686079e-003
2.422154e+003, 9.618803e-003
2.424083e+003, 9.753285e-003
2.426011e+003, 9.817379e-003
2.427939e+003, 9.930687e-003
2.429868e+003, 1.006241e-002
2.431796e+003, 1.013254e-002
2.433725e+003, 9.962043e-003
2.435653e+003, 9.855702e-003
2.437582e+003, 9.996374e-003
2.439510e+003, 1.000100e-002
2.441439e+003, 1.015155e-002
2.443367e+003, 1.020155e-002
2.445296e+003, 1.021375e-002
2.447224e+003, 1.038054e-002
2.449153e+003, 1.071194e-002
2.451081e+003, 1.080665e-002
2.453010e+003, 1.042322e-002
2.454938e+003, 1.019239e-002
2.456866e+003, 1.023588e-002
2.458795e+003, 1.045744e-002
2.460723e+003, 1.073785e-002
2.462652e+003, 1.068238e-002
2.464580e+003, 1.025531e-002
2.466509e+003, 9.903127e-003
2.468437e+003, 1.029616e-002
2.470366e+003, 1.050684e-002
2.472294e+003, 1.029177e-002
2.474223e+003, 1.058148e-002
2.476151e+003, 1.076661e-002
2.478080e+003, 1.053880e-002
2.480008e+003, 1.040153e-002
2.481937e+003, 1.018393e-002
2.483865e+003, 1.006579e-002
2.485793e+003, 1.022024e-002
2.487722e+003, 1.068823e-002
2.489650e+003, 1.067401e-002
2.491579e+003, 1.062139e-002
2.493507e+003, 1.070351e-002
2.495436e+003, 1.061231e-002
2.497364e+003, 1.064406e-002
2.499293e+003, 1.081784e-002
2.501221e+003, 1.095207e-002
2.503150e+003, 1.099434e-002
2.505078e+003, 1.076770e-002
2.507007e+003, 1.082479e-002
2.508935e+003, 1.103898e-002
2.510864e+003, 1.124202e-002
2.512792e+003, 1.135427e-002
2.514720e+003, 1.128685e-002
2.516649e+003, 1.099172e-002
2.518577e+003, 1.071853e-002
2.520506e+003, 1.088443e-002
2.522434e+003, 1.088404e-002
2.524363e+003, 1.075347e-002
2.526291e+003, 1.053734e-002
2.528220e+003, 1.060820e-002
2.530148e+003, 1.061771e-002
2.532077e+003, 1.046297e-002
2.534005e+003, 1.052127e-002
2.535934e+003, 1.078649e-002
2.537862e+003, 1.083560e-002
2.539791e+003, 1.098192e-002
2.541719e+003, 1.068551e-002
2.543647e+003, 1.051609e-002
2.545576e+003, 1.072110e-002
2.547504e+003, 1.097051e-002
2.549433e+003, 1.097222e-002
2.551361e+003, 1.070203e-002
2.553290e+003, 1.055635e-002
2.555218e+003, 1.063576e-002
2.557147e+003, 1.063221e-002
2.559075e+003, 1.058371e-002
2.561004e+003, 1.084458e-002
2.562932e+003, 1.076114e-002
2.564861e+003, 1.063553e-002
2.566789e+003, 1.070464e-002
2.568718e+003, 1.065681e-002
2.570646e+003, 1.059040e-002
2.572574e+003, 1.079334e-002
2.574503e+003, 1.093844e-002
2.576431e+003, 1.092946e-002
2.578360e+003, 1.091467e-002
2.580288e+003, 1.083303e-002
2.582217e+003, 1.091687e-002
2.584145e+003, 1.115197e-002
2.586074e+003, 1.121618e-002
2.588002e+003, 1.114121e-002
2.589931e+003, 1.131617e-002
2.591859e+003, 1.124355e-002
2.593788e+003, 1.111275e-002
2.595716e+003, 1.102710e-002
2.597645e+003, 1.111063e-002
2.599573e+003, 1.136505e-002
2.601501e+003, 1.115894e-002
2.603430e+003, 1.109872e-002
2.605358e+003, 1.121127e-002
2.607287e+003, 1.117025e-002
2.609215e+003, 1.107591e-002
2.611144e+003, 1.116078e-002
2.613072e+003, 1.121464e-002
2.615001e+003, 1.135364e-002
2.616929e+003, 1.154723e-002
2.618858e+003, 1.144721e-002
2.620786e+003, 1.164360e-002
2.622715e+003, 1.184776e-002
2.624643e+003, 1.158100e-002
2.626572e+003, 1.138475e-002
2.628500e+003, 1.147982e-002
2.630428e+003, 1.163411e-002
2.632357e+003, 1.179312e-002
2.634285e+003, 1.180588e-002
2.636214e+003, 1.171743e-002
2.638142e+003, 1.166328e-002
2.640071e+003, 1.175441e-002
2.641999e+003, 1.169037e-002
2.643928e+003, 1.171507e-002
2.645856e+003, 1.176761e-002
2.647785e+003, 1.157835e-002
2.649713e+003, 1.133059e-002
2.651642e+003, 1.137874e-002
2.653570e+003, 1.168636e-002
2.655499e+003, 1.166567e-002
2.657427e+003, 1.138820e-002
2.659355e+003, 1.101911e-002
2.661284e+003, 1.099948e-002
2.663212e+003, 1.103166e-002
2.665141e+003, 1.091865e-002
2.667069e+003, 1.097533e-002
2.668998e+003, 1.101493e-002
2.670926e+003, 1.091656e-002
2.672855e+003, 1.070559e-002
2.674783e+003, 1.046850e-002
2.676712e+003, 1.068465e-002
2.678640e+003, 1.073317e-002
2.680569e+003, 1.042548e-002
2.682497e+003, 1.054614e-002
2.684426e+003, 1.083789e-002
2.686354e+003, 1.088204e-002
2.688282e+003, 1.093443e-002
2.690211e+003, 1.076654e-002
2.692139e+003, 1.041851e-002
2.694068e+003, 1.040929e-002
2.695996e+003, 1.056714e-002
2.697925e+003, 1.058009e-002
2.699853e+003, 1.053772e-002
2.701782e+003, 1.096189e-002
2.703710e+003, 1.111311e-002
2.705639e+003, 1.104020e-002
2.707567e+003, 1.095831e-002
2.709496e+003, 1.092359e-002
2.711424e+003, 1.089870e-002
2.713353e+003, 1.074230e-002
2.715281e+003, 1.061282e-002
2.717209e+003, 1.050634e-002
2.719138e+003, 1.058431e-002
2.721066e+003, 1.083680e-002
2.722995e+003, 1.102622e-002
2.724923e+003, 1.099236e-002
2.726852e+003, 1.070441e-002
2.728780e+003, 1.062775e-002
2.730709e+003, 1.085290e-002
2.732637e+003, 1.124118e-002
2.734566e+003, 1.129483e-002
2.736494e+003, 1.110003e-002
2.738423e+003, 1.110527e-002
2.740351e+003, 1.115294e-002
2.742280e+003, 1.119782e-002
2.744208e+003, 1.100441e-002
2.746136e+003, 1.090808e-002
2.748065e+003, 1.128462e-002
2.749993e+003, 1.137061e-002
2.751922e+003, 1.122365e-002
2.753850e+003, 1.121215e-002
2.755779e+003, 1.134008e-002
2.757707e+003, 1.133093e-002
2.759636e+003, 1.113633e-002
2.761564e+003, 1.076882e-002
2.763493e+003, 1.082140e-002
2.765421e+003, 1.109312e-002
2.767350e+003, 1.106391e-002
2.769278e+003, 1.091983e-002
2.771207e+003, 1.088553e-002
2.773135e+003, 1.085312e-002
2.775063e+003, 1.088876e-002
2.776992e+003, 1.088061e-002
2.778920e+003, 1.069212e-002
2.780849e+003, 1.058360e-002
2.782777e+003, 1.081055e-002
2.784706e+003, 1.110107e-002
2.786634e+003, 1.102860e-002
2.788563e+003, 1.076053e-002
2.790491e+003, 1.090714e-002
2.792420e+003, 1.103706e-002
2.794348e+003, 1.086948e-002
2.796277e+003, 1.103861e-002
2.798205e+003, 1.133973e-002
2.800134e+003, 1.116287e-002
2.802062e+003, 1.079692e-002
2.803990e+003, 1.074687e-002
2.805919e+003, 1.085845e-002
2.807847e+003, 1.065884e-002
2.809776e+003, 1.056838e-002
2.811704e+003, 1.076357e-002
2.813633e+003, 1.073208e-002
2.815561e+003, 1.055027e-002
2.817490e+003, 1.071690e-002
2.819418e+003, 1.080112e-002
2.821347e+003, 1.066071e-002
2.823275e+003, 1.068940e-002
2.825204e+003, 1.092569e-002
2.827132e+003, 1.097481e-002
2.829061e+003, 1.087446e-002
2.830989e+003, 1.091260e-002
2.832917e+003, 1.092409e-002
2.834846e+003, 1.064420e-002
2.836774e+003, 1.045680e-002
2.838703e+003, 1.050894e-002
2.840631e+003, 1.040519e-002
2.842560e+003, 1.010017e-002
2.844488e+003, 9.674720e-003
2.846417e+003, 9.004473e-003
2.848345e+003, 8.110507e-003
2.850274e+003, 7.459091e-003
2.852202e+003, 7.083211e-003
2.854131e+003, 7.018168e-003
2.856059e+003, 7.242560e-003
2.857988e+003, 7.748829e-003
2.859916e+003, 8.398122e-003
2.861844e+003, 9.117961e-003
2.863773e+003, 9.434301e-003
2.865701e+003, 9.441108e-003
2.867630e+003, 9.733260e-003
2.869558e+003, 9.763070e-003
2.871487e+003, 9.835104e-003
2.873415e+003, 9.737673e-003
2.875344e+003, 9.930567e-003
2.877272e+003, 1.033290e-002
2.879201e+003, 1.006136e-002
2.881129e+003, 9.977911e-003
2.883058e+003, 9.902532e-003
2.884986e+003, 9.772035e-003
2.886915e+003, 9.908602e-003
2.888843e+003, 9.917995e-003
2.890771e+003, 1.000019e-002
2.892700e+003, 9.534785e-003
2.894628e+003, 9.560841e-003
2.896557e+003, 9.673378e-003
2.898485e+003, 9.316058e-003
2.900414e+003, 9.054087e-003
2.902342e+003, 9.007782e-003
2.904271e+003, 9.127730e-003
2.906199e+003, 8.964817e-003
2.908128e+003, 8.674023e-003
2.910056e+003, 8.154440e-003
2.911985e+003, 7.508190e-003
2.913913e+003, 7.053154e-003
2.915842e+003, 6.558436e-003
2.917770e+003, 5.940485e-003
2.919698e+003, 5.590454e-003
2.921627e+003, 5.285356e-003
2.923555e+003, 5.018340e-003
2.925484e+003, 4.926748e-003
2.927412e+003, 5.318066e-003
2.929341e+003, 5.720831e-003
2.931269e+003, 6.240197e-003
2.933198e+003, 6.912484e-003
2.935126e+003, 7.192879e-003
2.937055e+003, 7.640306e-003
2.938983e+003, 8.361334e-003
2.940912e+003, 8.929435e-003
2.942840e+003, 8.862411e-003
2.944769e+003, 8.879500e-003
2.946697e+003, 9.076921e-003
2.948625e+003, 9.190786e-003
2.950554e+003, 9.231533e-003
2.952482e+003, 9.299428e-003
2.954411e+003, 9.100209e-003
2.956339e+003, 9.047724e-003
2.958268e+003, 9.758009e-003
2.960196e+003, 1.012898e-002
2.962125e+003, 1.002151e-002
2.964053e+003, 9.966745e-003
2.965982e+003, 1.015011e-002
2.967910e+003, 1.031013e-002
2.969839e+003, 1.058495e-002
2.971767e+003, 1.077876e-002
2.973696e+003, 1.075055e-002
2.975624e+003, 1.079290e-002
2.977552e+003, 1.101050e-002
2.979481e+003, 1.113819e-002
2.981409e+003, 1.121663e-002
2.983338e+003, 1.133733e-002
2.985266e+003, 1.134175e-002
2.987195e+003, 1.117463e-002
2.989123e+003, 1.108193e-002
2.991052e+003, 1.128479e-002
2.992980e+003, 1.129265e-002
2.994909e+003, 1.101966e-002
2.996837e+003, 1.105397e-002
2.998766e+003, 1.151960e-002
3.000694e+003, 1.137192e-002
3.002623e+003, 1.103652e-002
3.004551e+003, 1.122352e-002
3.006479e+003, 1.162824e-002
3.008408e+003, 1.185675e-002
3.010336e+003, 1.181693e-002
3.012265e+003, 1.119437e-002
3.014193e+003, 1.140057e-002
3.016122e+003, 1.192540e-002
3.018050e+003, 1.182756e-002
3.019979e+003, 1.175281e-002
3.021907e+003, 1.158512e-002
3.023836e+003, 1.151891e-002
3.025764e+003, 1.156771e-002
3.027693e+003, 1.166139e-002
3.029621e+003, 1.169543e-002
3.031550e+003, 1.195695e-002
3.033478e+003, 1.204446e-002
3.035406e+003, 1.216467e-002
3.037335e+003, 1.224368e-002
3.039263e+003, 1.214105e-002
3.041192e+003, 1.193499e-002
3.043120e+003, 1.192473e-002
3.045049e+003, 1.213397e-002
3.046977e+003, 1.250838e-002
3.048906e+003, 1.252331e-002
3.050834e+003, 1.244029e-002
3.052763e+003, 1.254596e-002
3.054691e+003, 1.253833e-002
3.056620e+003, 1.253938e-002
3.058548e+003, 1.255658e-002
3.060477e+003, 1.233939e-002
3.062405e+003, 1.238186e-002
3.064333e+003, 1.236484e-002
3.066262e+003, 1.224976e-002
3.068190e+003, 1.229366e-002
3.070119e+003, 1.250456e-002
3.072047e+003, 1.259994e-002
3.073976e+003, 1.242051e-002
3.075904e+003, 1.255976e-002
3.077833e+003, 1.275807e-002
3.079761e+003, 1.254158e-002
3.081690e+003, 1.251931e-002
3.083618e+003, 1.277879e-002
3.085547e+003, 1.267633e-002
3.087475e+003, 1.276633e-002
3.089404e+003, 1.301210e-002
3.091332e+003, 1.307089e-002
3.093260e+003, 1.334420e-002
3.095189e+003, 1.327854e-002
3.097117e+003, 1.311239e-002
3.099046e+003, 1.331382e-002
3.100974e+003, 1.341911e-002
3.102903e+003, 1.327553e-002
3.104831e+003, 1.311713e-002
3.106760e+003, 1.328170e-002
3.108688e+003, 1.342672e-002
3.110617e+003, 1.319823e-002
3.112545e+003, 1.332627e-002
3.114474e+003, 1.346134e-002
3.116402e+003, 1.351064e-002
3.118331e+003, 1.355906e-002
3.120259e+003, 1.350123e-002
3.122188e+003, 1.327208e-002
3.124116e+003, 1.324701e-002
3.126044e+003, 1.379854e-002
3.127973e+003, 1.400650e-002
3.129901e+003, 1.382307e-002
3.131830e+003, 1.398043e-002
3.133758e+003, 1.434250e-002
3.135687e+003, 1.402396e-002
3.137615e+003, 1.364598e-002
3.139544e+003, 1.375112e-002
3.141472e+003, 1.386585e-002
3.143401e+003, 1.377176e-002
3.145329e+003, 1.397454e-002
3.147258e+003, 1.378873e-002
3.149186e+003, 1.354843e-002
3.151115e+003, 1.323018e-002
3.153043e+003, 1.336790e-002
3.154971e+003, 1.356693e-002
3.156900e+003, 1.404475e-002
3.158828e+003, 1.458022e-002
3.160757e+003, 1.442557e-002
3.162685e+003, 1.401485e-002
3.164614e+003, 1.375000e-002
3.166542e+003, 1.394213e-002
3.168471e+003, 1.394308e-002
3.170399e+003, 1.401521e-002
3.172328e+003, 1.388165e-002
3.174256e+003, 1.414942e-002
3.176185e+003, 1.471419e-002
3.178113e+003, 1.486925e-002
3.180042e+003, 1.497464e-002
3.181970e+003, 1.487286e-002
3.183898e+003, 1.419114e-002
3.185827e+003, 1.390348e-002
3.187755e+003, 1.403372e-002
3.189684e+003, 1.430346e-002
3.191612e+003, 1.429884e-002
3.193541e+003, 1.419521e-002
3.195469e+003, 1.427533e-002
3.197398e+003, 1.431219e-002
3.199326e+003, 1.434661e-002
3.201255e+003, 1.447302e-002
3.203183e+003, 1.460699e-002
3.205112e+003, 1.448860e-002
3.207040e+003, 1.395174e-002
3.208969e+003, 1.380751e-002
3.210897e+003, 1.464241e-002
3.212825e+003, 1.458589e-002
3.214754e+003, 1.439606e-002
3.216682e+003, 1.417338e-002
3.218611e+003, 1.403913e-002
3.220539e+003, 1.412017e-002
3.222468e+003, 1.407889e-002
3.224396e+003, 1.452323e-002
3.226325e+003, 1.481158e-002
3.228253e+003, 1.473534e-002
3.230182e+003, 1.446315e-002
3.232110e+003, 1.465595e-002
3.234039e+003, 1.492121e-002
3.235967e+003, 1.473483e-002
3.237896e+003, 1.492574e-002
3.239824e+003, 1.492116e-002
3.241752e+003, 1.502805e-002
3.243681e+003, 1.493508e-002
3.245609e+003, 1.446994e-002
3.247538e+003, 1.401384e-002
3.249466e+003, 1.409088e-002
3.251395e+003, 1.485631e-002
3.253323e+003, 1.503222e-002
3.255252e+003, 1.488644e-002
3.257180e+003, 1.508404e-002
3.259109e+003, 1.520800e-002
3.261037e+003, 1.494057e-002
3.262966e+003, 1.472641e-002
3.264894e+003, 1.455813e-002
3.266823e+003, 1.465333e-002
3.268751e+003, 1.500868e-002
3.270679e+003, 1.493494e-002
3.272608e+003, 1.448915e-002
3.274536e+003, 1.432757e-002
3.276465e+003, 1.431537e-002
3.278393e+003, 1.414362e-002
3.280322e+003, 1.441420e-002
3.282250e+003, 1.484051e-002
3.284179e+003, 1.495290e-002
3.286107e+003, 1.451337e-002
3.288036e+003, 1.441897e-002
3.289964e+003, 1.465228e-002
3.291893e+003, 1.513334e-002
3.293821e+003, 1.509719e-002
3.295750e+003, 1.476162e-002
3.297678e+003, 1.490449e-002
3.299606e+003, 1.524000e-002
3.301535e+003, 1.538245e-002
3.303463e+003, 1.537284e-002
3.305392e+003, 1.501852e-002
3.307320e+003, 1.474558e-002
3.309249e+003, 1.509396e-002
3.311177e+003, 1.537772e-002
3.313106e+003, 1.537844e-002
3.315034e+003, 1.508344e-002
3.316963e+003, 1.498170e-002
3.318891e+003, 1.543803e-002
3.320820e+003, 1.520111e-002
3.322748e+003, 1.479564e-002
3.324677e+003, 1.445512e-002
3.326605e+003, 1.460478e-002
3.328533e+003, 1.506851e-002
3.330462e+003, 1.516119e-002
3.332390e+003, 1.504967e-002
3.334319e+003, 1.476580e-002
3.336247e+003, 1.493995e-002
3.338176e+003, 1.504468e-002
3.340104e+003, 1.496981e-002
3.342033e+003, 1.521151e-002
3.343961e+003, 1.518456e-002
3.345890e+003, 1.509819e-002
3.347818e+003, 1.490469e-002
3.349747e+003, 1.472219e-002
3.351675e+003, 1.503885e-002
3.353604e+003, 1.507207e-002
3.355532e+003, 1.504219e-002
3.357460e+003, 1.484301e-002
3.359389e+003, 1.485477e-002
3.361317e+003, 1.501811e-002
3.363246e+003, 1.463123e-002
3.365174e+003, 1.434107e-002
3.367103e+003, 1.435085e-002
3.369031e+003, 1.449828e-002
3.370960e+003, 1.460234e-002
3.372888e+003, 1.465684e-002
3.374817e+003, 1.444272e-002
3.376745e+003, 1.446406e-002
3.378674e+003, 1.498997e-002
3.380602e+003, 1.523798e-002
3.382531e+003, 1.503320e-002
3.384459e+003, 1.497638e-002
3.386387e+003, 1.491542e-002
3.388316e+003, 1.498049e-002
3.390244e+003, 1.498525e-002
3.392173e+003, 1.470266e-002
3.394101e+003, 1.532165e-002
3.396030e+003, 1.552137e-002
3.397958e+003, 1.494956e-002
3.399887e+003, 1.482933e-002
3.401815e+003, 1.465511e-002
3.403744e+003, 1.500412e-002
3.405672e+003, 1.545588e-002
3.407601e+003, 1.526998e-002
3.409529e+003, 1.520990e-002
3.411458e+003, 1.544588e-002
3.413386e+003, 1.557756e-002
3.415314e+003, 1.520284e-002
3.417243e+003, 1.481554e-002
3.419171e+003, 1.515508e-002
3.421100e+003, 1.529142e-002
3.423028e+003, 1.477254e-002
3.424957e+003, 1.471860e-002
3.426885e+003, 1.538434e-002
3.428814e+003, 1.568962e-002
3.430742e+003, 1.528734e-002
3.432671e+003, 1.504968e-002
3.434599e+003, 1.468214e-002
3.436528e+003, 1.471142e-002
3.438456e+003, 1.422453e-002
3.440385e+003, 1.422501e-002
3.442313e+003, 1.475709e-002
3.444241e+003, 1.460780e-002
3.446170e+003, 1.507426e-002
3.448098e+003, 1.559828e-002
3.450027e+003, 1.536640e-002
3.451955e+003, 1.532967e-002
3.453884e+003, 1.511487e-002
3.455812e+003, 1.465863e-002
3.457741e+003, 1.488025e-002
3.459669e+003, 1.518355e-002
3.461598e+003, 1.465740e-002
3.463526e+003, 1.502541e-002
3.465455e+003, 1.565505e-002
3.467383e+003, 1.527954e-002
3.469312e+003, 1.504953e-002
3.471240e+003, 1.442210e-002
3.473168e+003, 1.453583e-002
3.475097e+003, 1.502166e-002
3.477025e+003, 1.488337e-002
3.478954e+003, 1.484248e-002
3.480882e+003, 1.533914e-002
3.482811e+003, 1.558231e-002
3.484739e+003, 1.516226e-002
3.486668e+003, 1.510681e-002
3.488596e+003, 1.498077e-002
3.490525e+003, 1.500679e-002
3.492453e+003, 1.500104e-002
3.494382e+003, 1.530482e-002
3.496310e+003, 1.532262e-002
3.498239e+003, 1.526853e-002
3.500167e+003, 1.491792e-002
3.502095e+003, 1.495964e-002
3.504024e+003, 1.521680e-002
3.505952e+003, 1.523478e-002
3.507881e+003, 1.487162e-002
3.509809e+003, 1.488894e-002
3.511738e+003, 1.489581e-002
3.513666e+003, 1.527352e-002
3.515595e+003, 1.502071e-002
3.517523e+003, 1.489711e-002
3.519452e+003, 1.467154e-002
3.521380e+003, 1.474353e-002
3.523309e+003, 1.528351e-002
3.525237e+003, 1.514228e-002
3.527166e+003, 1.514747e-002
3.529094e+003, 1.554337e-002
3.531022e+003, 1.559948e-002
3.532951e+003, 1.519260e-002
3.534879e+003, 1.510542e-002
3.536808e+003, 1.486608e-002
3.538736e+003, 1.452614e-002
3.540665e+003, 1.518175e-002
3.542593e+003, 1.567717e-002
3.544522e+003, 1.453205e-002
3.546450e+003, 1.383726e-002
3.548379e+003, 1.444945e-002
3.550307e+003, 1.456676e-002
3.552236e+003, 1.422526e-002
3.554164e+003, 1.461703e-002
3.556093e+003, 1.495113e-002
3.558021e+003, 1.458204e-002
3.559949e+003, 1.480451e-002
3.561878e+003, 1.508052e-002
3.563806e+003, 1.479775e-002
3.565735e+003, 1.472045e-002
3.567663e+003, 1.488582e-002
3.569592e+003, 1.465109e-002
3.571520e+003, 1.424189e-002
3.573449e+003, 1.423391e-002
3.575377e+003, 1.441494e-002
3.577306e+003, 1.411574e-002
3.579234e+003, 1.395987e-002
3.581163e+003, 1.490501e-002
3.583091e+003, 1.486878e-002
3.585020e+003, 1.410740e-002
3.586948e+003, 1.410825e-002
3.588876e+003, 1.413106e-002
3.590805e+003, 1.413755e-002
3.592733e+003, 1.393144e-002
3.594662e+003, 1.407999e-002
3.596590e+003, 1.457882e-002
3.598519e+003, 1.463946e-002
3.600447e+003, 1.421312e-002
3.602376e+003, 1.426010e-002
3.604304e+003, 1.460038e-002
3.606233e+003, 1.415343e-002
3.608161e+003, 1.380755e-002
3.610090e+003, 1.387477e-002
3.612018e+003, 1.398300e-002
3.613947e+003, 1.434798e-002
3.615875e+003, 1.507059e-002
3.617803e+003, 1.473662e-002
3.619732e+003, 1.433555e-002
3.621660e+003, 1.480414e-002
3.623589e+003, 1.478886e-002
3.625517e+003, 1.445856e-002
3.627446e+003, 1.440716e-002
3.629374e+003, 1.389425e-002
3.631303e+003, 1.418095e-002
3.633231e+003, 1.471998e-002
3.635160e+003, 1.424544e-002
3.637088e+003, 1.341500e-002
3.639017e+003, 1.327484e-002
3.640945e+003, 1.355086e-002
3.642874e+003, 1.410157e-002
3.644802e+003, 1.483722e-002
3.646730e+003, 1.470565e-002
3.648659e+003, 1.375852e-002
3.650587e+003, 1.329902e-002
3.652516e+003, 1.366634e-002
3.654444e+003, 1.403570e-002
3.656373e+003, 1.423989e-002
3.658301e+003, 1.431930e-002
3.660230e+003, 1.365256e-002
3.662158e+003, 1.341865e-002
3.664087e+003, 1.386469e-002
3.666015e+003, 1.430408e-002
3.667944e+003, 1.463916e-002
3.669872e+003, 1.471372e-002
3.671801e+003, 1.466054e-002
3.673729e+003, 1.432379e-002
3.675657e+003, 1.328771e-002
3.677586e+003, 1.298076e-002
3.679514e+003, 1.363604e-002
3.681443e+003, 1.453979e-002
3.683371e+003, 1.381082e-002
3.685300e+003, 1.344550e-002
3.687228e+003, 1.397622e-002
3.689157e+003, 1.401014e-002
3.691085e+003, 1.372952e-002
3.693014e+003, 1.358822e-002
3.694942e+003, 1.303175e-002
3.696871e+003, 1.357668e-002
3.698799e+003, 1.449651e-002
3.700728e+003, 1.505191e-002
3.702656e+003, 1.473296e-002
3.704584e+003, 1.442749e-002
3.706513e+003, 1.363405e-002
3.708441e+003, 1.382083e-002
3.710370e+003, 1.481868e-002
3.712298e+003, 1.458964e-002
3.714227e+003, 1.407907e-002
3.716155e+003, 1.441269e-002
3.718084e+003, 1.437491e-002
3.720012e+003, 1.420913e-002
3.721941e+003, 1.370361e-002
3.723869e+003, 1.386003e-002
3.725798e+003, 1.486783e-002
3.727726e+003, 1.494295e-002
3.729655e+003, 1.484739e-002
3.731583e+003, 1.419348e-002
3.733511e+003, 1.351533e-002
3.735440e+003, 1.357658e-002
3.737368e+003, 1.475480e-002
3.739297e+003, 1.522405e-002
3.741225e+003, 1.456607e-002
3.743154e+003, 1.437508e-002
3.745082e+003, 1.430722e-002
3.747011e+003, 1.429664e-002
3.748939e+003, 1.415586e-002
3.750868e+003, 1.394398e-002
3.752796e+003, 1.350647e-002
3.754725e+003, 1.414172e-002
3.756653e+003, 1.467034e-002
3.758582e+003, 1.491297e-002
3.760510e+003, 1.464347e-002
3.762438e+003, 1.446178e-002
3.764367e+003, 1.454404e-002
3.766295e+003, 1.456606e-002
3.768224e+003, 1.371735e-002
3.770152e+003, 1.394241e-002
3.772081e+003, 1.459932e-002
3.774009e+003, 1.460397e-002
3.775938e+003, 1.453857e-002
3.777866e+003, 1.479137e-002
3.779795e+003, 1.448968e-002
3.781723e+003, 1.386749e-002
3.783652e+003, 1.442928e-002
3.785580e+003, 1.416761e-002
3.787509e+003, 1.385116e-002
3.789437e+003, 1.430294e-002
3.791365e+003, 1.499018e-002
3.793294e+003, 1.510546e-002
3.795222e+003, 1.413544e-002
3.797151e+003, 1.402483e-002
3.799079e+003, 1.391742e-002
3.801008e+003, 1.393360e-002
3.802936e+003, 1.479391e-002
3.804865e+003, 1.477773e-002
3.806793e+003, 1.411017e-002
3.808722e+003, 1.416426e-002
3.810650e+003, 1.443516e-002
3.812579e+003, 1.417562e-002
3.814507e+003, 1.361418e-002
3.816436e+003, 1.395052e-002
3.818364e+003, 1.486354e-002
3.820292e+003, 1.504881e-002
3.822221e+003, 1.430011e-002
3.824149e+003, 1.427062e-002
3.826078e+003, 1.477514e-002
3.828006e+003, 1.484731e-002
3.829935e+003, 1.439146e-002
3.831863e+003, 1.420006e-002
3.833792e+003, 1.420871e-002
3.835720e+003, 1.416508e-002
3.837649e+003, 1.412754e-002
3.839577e+003, 1.406008e-002
3.841506e+003, 1.449333e-002
3.843434e+003, 1.483306e-002
3.845363e+003, 1.423872e-002
3.847291e+003, 1.391494e-002
3.849219e+003, 1.428897e-002
3.851148e+003, 1.433575e-002
3.853076e+003, 1.387348e-002
3.855005e+003, 1.387641e-002
3.856933e+003, 1.423850e-002
3.858862e+003, 1.441930e-002
3.860790e+003, 1.478212e-002
3.862719e+003, 1.460576e-002
3.864647e+003, 1.420657e-002
3.866576e+003, 1.479529e-002
3.868504e+003, 1.491540e-002
3.870433e+003, 1.413168e-002
3.872361e+003, 1.392249e-002
3.874290e+003, 1.377707e-002
3.876218e+003, 1.382365e-002
3.878146e+003, 1.454401e-002
3.880075e+003, 1.468025e-002
3.882003e+003, 1.390971e-002
3.883932e+003, 1.380747e-002
3.885860e+003, 1.441597e-002
3.887789e+003, 1.407261e-002
3.889717e+003, 1.400718e-002
3.891646e+003, 1.429926e-002
3.893574e+003, 1.392958e-002
3.895503e+003, 1.394270e-002
3.897431e+003, 1.461455e-002
3.899360e+003, 1.411957e-002
3.901288e+003, 1.385960e-002
3.903217e+003, 1.414484e-002
3.905145e+003, 1.422814e-002
3.907073e+003, 1.388440e-002
3.909002e+003, 1.390285e-002
3.910930e+003, 1.453131e-002
3.912859e+003, 1.487873e-002
3.914787e+003, 1.470901e-002
3.916716e+003, 1.421377e-002
3.918644e+003, 1.340158e-002
3.920573e+003, 1.346616e-002
3.922501e+003, 1.358333e-002
3.924430e+003, 1.367939e-002
3.926358e+003, 1.385409e-002
3.928287e+003, 1.423950e-002
3.930215e+003, 1.436308e-002
3.932144e+003, 1.386867e-002
3.934072e+003, 1.390857e-002
3.936000e+003, 1.454134e-002
3.937929e+003, 1.452726e-002
3.939857e+003, 1.442074e-002
3.941786e+003, 1.384900e-002
3.943714e+003, 1.366502e-002
3.945643e+003, 1.405534e-002
3.947571e+003, 1.414211e-002
3.949500e+003, 1.375532e-002
3.951428e+003, 1.361447e-002
3.953357e+003, 1.415843e-002
3.955285e+003, 1.433975e-002
3.957214e+003, 1.449971e-002
3.959142e+003, 1.403678e-002
3.961071e+003, 1.370489e-002
3.962999e+003, 1.369804e-002
3.964927e+003, 1.378985e-002
3.966856e+003, 1.404763e-002
3.968784e+003, 1.465076e-002
3.970713e+003, 1.453154e-002
3.972641e+003, 1.445828e-002
3.974570e+003, 1.486134e-002
3.976498e+003, 1.501699e-002
3.978427e+003, 1.459494e-002
3.980355e+003, 1.425343e-002
3.982284e+003, 1.416240e-002
3.984212e+003, 1.423500e-002
3.986141e+003, 1.458815e-002
3.988069e+003, 1.449272e-002
3.989998e+003, 1.412500e-002
3.991926e+003, 1.430918e-002
3.993854e+003, 1.420826e-002
3.995783e+003, 1.422165e-002
3.997711e+003, 1.396916e-002
3.999640e+003, 1.350677e-002
##END=



