##NAMES=Diopside
##RRUFFID=R040009
##IDEAL CHEMISTRY=CaMgSi_2_O_6_
##LOCALITY=Otter Lake, Quebec, Canada
##OWNER=RRUFF
##SOURCE=University of Arizona Mineral Museum
##DESCRIPTION=Green square prismatic crystal associated with pale orange calcite
##STATUS=The identification of this mineral has been confirmed by X-ray diffraction and chemical analysis
##URL=rruff.info/R040009
##MEASURED CHEMISTRY=(Ca_0.97_Fe_0.02_Na_0.01_)_Σ=1_(Mg_0.97_Fe_0.02_Al_0.01_)_Σ=1_Si_2.00_O_6_; trace amounts of Mn and Ti
3.741225e+002, 2.040126e-001
3.760510e+002, 1.990032e-001
3.779795e+002, 2.006127e-001
3.799079e+002, 2.161377e-001
3.818364e+002, 2.252662e-001
3.837649e+002, 2.208621e-001
3.856933e+002, 2.307739e-001
3.876218e+002, 2.287217e-001
3.895503e+002, 2.155752e-001
3.914787e+002, 2.127819e-001
3.934072e+002, 2.195416e-001
3.953357e+002, 2.214915e-001
3.972641e+002, 2.158724e-001
3.991926e+002, 2.022901e-001
4.011211e+002, 1.997431e-001
4.030495e+002, 1.971973e-001
4.049780e+002, 1.892529e-001
4.069065e+002, 1.847642e-001
4.088349e+002, 1.812477e-001
4.107634e+002, 1.731806e-001
4.126919e+002, 1.625696e-001
4.146203e+002, 1.500912e-001
4.165488e+002, 1.390986e-001
4.184773e+002, 1.340048e-001
4.204057e+002, 1.338364e-001
4.223342e+002, 1.360138e-001
4.242627e+002, 1.436125e-001
4.261911e+002, 1.531511e-001
4.281196e+002, 1.600828e-001
4.300481e+002, 1.620480e-001
4.319765e+002, 1.625070e-001
4.339050e+002, 1.638096e-001
4.358335e+002, 1.686348e-001
4.377619e+002, 1.748694e-001
4.396904e+002, 1.816687e-001
4.416189e+002, 1.895059e-001
4.435473e+002, 1.978171e-001
4.454758e+002, 2.055467e-001
4.474043e+002, 2.135945e-001
4.493327e+002, 2.201651e-001
4.512612e+002, 2.226933e-001
4.531897e+002, 2.249025e-001
4.551181e+002, 2.287222e-001
4.570466e+002, 2.309985e-001
4.589751e+002, 2.324725e-001
4.609035e+002, 2.342416e-001
4.628320e+002, 2.343993e-001
4.647605e+002, 2.330935e-001
4.666889e+002, 2.328894e-001
4.686174e+002, 2.334486e-001
4.705459e+002, 2.333549e-001
4.724743e+002, 2.312529e-001
4.744028e+002, 2.294794e-001
4.763313e+002, 2.257673e-001
4.782597e+002, 2.216225e-001
4.801882e+002, 2.183369e-001
4.821167e+002, 2.129731e-001
4.840451e+002, 2.064403e-001
4.859736e+002, 1.995853e-001
4.879021e+002, 1.929636e-001
4.898305e+002, 1.873016e-001
4.917590e+002, 1.841040e-001
4.936875e+002, 1.836916e-001
4.956159e+002, 1.866583e-001
4.975444e+002, 1.920821e-001
4.994729e+002, 1.956277e-001
5.014013e+002, 1.975985e-001
5.033298e+002, 1.980231e-001
5.052583e+002, 1.964900e-001
5.071867e+002, 1.932925e-001
5.091152e+002, 1.891921e-001
5.110437e+002, 1.834020e-001
5.129721e+002, 1.754235e-001
5.149006e+002, 1.675347e-001
5.168290e+002, 1.597466e-001
5.187575e+002, 1.511682e-001
5.206860e+002, 1.435017e-001
5.226144e+002, 1.369860e-001
5.245429e+002, 1.312902e-001
5.264714e+002, 1.264090e-001
5.283998e+002, 1.213953e-001
5.303283e+002, 1.166619e-001
5.322568e+002, 1.125242e-001
5.341852e+002, 1.091330e-001
5.361137e+002, 1.060711e-001
5.380422e+002, 1.023332e-001
5.399706e+002, 9.857133e-002
5.418991e+002, 9.499864e-002
5.438276e+002, 9.149625e-002
5.457560e+002, 8.848102e-002
5.476845e+002, 8.551700e-002
5.496130e+002, 8.199394e-002
5.515414e+002, 7.838741e-002
5.534699e+002, 7.474414e-002
5.553984e+002, 7.095837e-002
5.573268e+002, 6.761145e-002
5.592553e+002, 6.374411e-002
5.611838e+002, 5.971819e-002
5.631122e+002, 5.597540e-002
5.650407e+002, 5.251407e-002
5.669692e+002, 4.921944e-002
5.688976e+002, 4.566867e-002
5.708261e+002, 4.255993e-002
5.727546e+002, 3.934941e-002
5.746830e+002, 3.590233e-002
5.766115e+002, 3.294691e-002
5.785400e+002, 3.016862e-002
5.804684e+002, 2.774391e-002
5.823969e+002, 2.588544e-002
5.843254e+002, 2.424386e-002
5.862538e+002, 2.273250e-002
5.881823e+002, 2.203483e-002
5.901108e+002, 2.157681e-002
5.920392e+002, 2.139995e-002
5.939677e+002, 2.118297e-002
5.958962e+002, 2.082556e-002
5.978246e+002, 2.085910e-002
5.997531e+002, 2.136121e-002
6.016816e+002, 2.193878e-002
6.036100e+002, 2.220785e-002
6.055385e+002, 2.291901e-002
6.074670e+002, 2.409319e-002
6.093954e+002, 2.545482e-002
6.113239e+002, 2.693224e-002
6.132524e+002, 2.911453e-002
6.151808e+002, 3.167785e-002
6.171093e+002, 3.490596e-002
6.190378e+002, 3.908939e-002
6.209662e+002, 4.403881e-002
6.228947e+002, 5.017508e-002
6.248232e+002, 5.742497e-002
6.267516e+002, 6.521806e-002
6.286801e+002, 7.227866e-002
6.306086e+002, 7.729608e-002
6.325370e+002, 7.902054e-002
6.344655e+002, 7.692774e-002
6.363940e+002, 7.180195e-002
6.383224e+002, 6.424057e-002
6.402509e+002, 5.569304e-002
6.421794e+002, 4.754952e-002
6.441078e+002, 4.081819e-002
6.460363e+002, 3.540102e-002
6.479648e+002, 3.103714e-002
6.498932e+002, 2.794458e-002
6.518217e+002, 2.611075e-002
6.537502e+002, 2.521718e-002
6.556786e+002, 2.532571e-002
6.576071e+002, 2.613144e-002
6.595356e+002, 2.752444e-002
6.614641e+002, 2.995026e-002
6.633925e+002, 3.375375e-002
6.653210e+002, 3.909175e-002
6.672495e+002, 4.590693e-002
6.691779e+002, 5.311600e-002
6.711064e+002, 5.831060e-002
6.730349e+002, 5.872407e-002
6.749633e+002, 5.335620e-002
6.768918e+002, 4.517823e-002
6.788203e+002, 3.729756e-002
6.807487e+002, 3.097006e-002
6.826772e+002, 2.676131e-002
6.846057e+002, 2.412734e-002
6.865341e+002, 2.235541e-002
6.884626e+002, 2.124140e-002
6.903911e+002, 2.051533e-002
6.923195e+002, 2.006805e-002
6.942480e+002, 1.980097e-002
6.961765e+002, 1.964581e-002
6.981049e+002, 1.951488e-002
7.000334e+002, 1.929537e-002
7.019619e+002, 1.922858e-002
7.038903e+002, 1.942095e-002
7.058188e+002, 1.948893e-002
7.077473e+002, 1.952342e-002
7.096757e+002, 1.947941e-002
7.116042e+002, 1.960059e-002
7.135327e+002, 1.981981e-002
7.154611e+002, 1.991366e-002
7.173896e+002, 2.001098e-002
7.193181e+002, 2.011202e-002
7.212465e+002, 2.027402e-002
7.231750e+002, 2.050588e-002
7.251035e+002, 2.071915e-002
7.270319e+002, 2.106240e-002
7.289604e+002, 2.141280e-002
7.308889e+002, 2.193525e-002
7.328173e+002, 2.251858e-002
7.347458e+002, 2.307399e-002
7.366743e+002, 2.361725e-002
7.386027e+002, 2.430471e-002
7.405312e+002, 2.507862e-002
7.424597e+002, 2.585226e-002
7.443881e+002, 2.674271e-002
7.463166e+002, 2.774808e-002
7.482451e+002, 2.884960e-002
7.501735e+002, 2.979940e-002
7.521020e+002, 3.078040e-002
7.540305e+002, 3.211220e-002
7.559589e+002, 3.340368e-002
7.578874e+002, 3.467213e-002
7.598159e+002, 3.595698e-002
7.617443e+002, 3.726088e-002
7.636728e+002, 3.872269e-002
7.656013e+002, 4.037763e-002
7.675297e+002, 4.205809e-002
7.694582e+002, 4.343170e-002
7.713867e+002, 4.486933e-002
7.733151e+002, 4.690152e-002
7.752436e+002, 4.907168e-002
7.771721e+002, 5.129435e-002
7.791005e+002, 5.350950e-002
7.810290e+002, 5.570614e-002
7.829575e+002, 5.810647e-002
7.848859e+002, 6.090224e-002
7.868144e+002, 6.372148e-002
7.887429e+002, 6.661261e-002
7.906713e+002, 6.966772e-002
7.925998e+002, 7.271692e-002
7.945283e+002, 7.591678e-002
7.964567e+002, 7.944161e-002
7.983852e+002, 8.307829e-002
8.003137e+002, 8.699077e-002
8.022421e+002, 9.106071e-002
8.041706e+002, 9.528069e-002
8.060991e+002, 9.954287e-002
8.080275e+002, 1.039478e-001
8.099560e+002, 1.088004e-001
8.118845e+002, 1.138486e-001
8.138129e+002, 1.190045e-001
8.157414e+002, 1.244048e-001
8.176699e+002, 1.299807e-001
8.195983e+002, 1.359439e-001
8.215268e+002, 1.420751e-001
8.234553e+002, 1.483886e-001
8.253837e+002, 1.548225e-001
8.273122e+002, 1.616530e-001
8.292407e+002, 1.689138e-001
8.311691e+002, 1.763295e-001
8.330976e+002, 1.839146e-001
8.350261e+002, 1.916439e-001
8.369545e+002, 1.997992e-001
8.388830e+002, 2.082869e-001
8.408115e+002, 2.171276e-001
8.427399e+002, 2.259166e-001
8.446684e+002, 2.341859e-001
8.465969e+002, 2.419610e-001
8.485253e+002, 2.489670e-001
8.504538e+002, 2.547367e-001
8.523823e+002, 2.590041e-001
8.543107e+002, 2.618427e-001
8.562392e+002, 2.633024e-001
8.581677e+002, 2.638508e-001
8.600961e+002, 2.638677e-001
8.620246e+002, 2.632100e-001
8.639531e+002, 2.619173e-001
8.658815e+002, 2.601262e-001
8.678100e+002, 2.577443e-001
8.697385e+002, 2.548276e-001
8.716669e+002, 2.514679e-001
8.735954e+002, 2.476106e-001
8.755239e+002, 2.432713e-001
8.774523e+002, 2.386761e-001
8.793808e+002, 2.340129e-001
8.813093e+002, 2.298185e-001
8.832377e+002, 2.262822e-001
8.851662e+002, 2.229317e-001
8.870947e+002, 2.195416e-001
8.890231e+002, 2.165277e-001
8.909516e+002, 2.139129e-001
8.928801e+002, 2.112389e-001
8.948085e+002, 2.088152e-001
8.967370e+002, 2.067446e-001
8.986655e+002, 2.047707e-001
9.005939e+002, 2.032695e-001
9.025224e+002, 2.019465e-001
9.044509e+002, 2.009215e-001
9.063793e+002, 2.001934e-001
9.083078e+002, 1.997689e-001
9.102363e+002, 1.996653e-001
9.121647e+002, 1.996313e-001
9.140932e+002, 1.994267e-001
9.160217e+002, 1.985769e-001
9.179501e+002, 1.965697e-001
9.198786e+002, 1.929086e-001
9.218071e+002, 1.874056e-001
9.237355e+002, 1.797836e-001
9.256640e+002, 1.702012e-001
9.275925e+002, 1.593938e-001
9.295209e+002, 1.481523e-001
9.314494e+002, 1.382572e-001
9.333779e+002, 1.311786e-001
9.353063e+002, 1.276474e-001
9.372348e+002, 1.278539e-001
9.391633e+002, 1.315450e-001
9.410917e+002, 1.379905e-001
9.430202e+002, 1.465163e-001
9.449487e+002, 1.566143e-001
9.468771e+002, 1.676312e-001
9.488056e+002, 1.790731e-001
9.507341e+002, 1.904603e-001
9.526625e+002, 2.011050e-001
9.545910e+002, 2.097799e-001
9.565195e+002, 2.157535e-001
9.584479e+002, 2.193369e-001
9.603764e+002, 2.205885e-001
9.623049e+002, 2.193088e-001
9.642333e+002, 2.155022e-001
9.661618e+002, 2.091083e-001
9.680903e+002, 2.007109e-001
9.700187e+002, 1.913176e-001
9.719472e+002, 1.813025e-001
9.738757e+002, 1.712630e-001
9.758041e+002, 1.614935e-001
9.777326e+002, 1.524268e-001
9.796611e+002, 1.444309e-001
9.815895e+002, 1.375796e-001
9.835180e+002, 1.311904e-001
9.854465e+002, 1.252386e-001
9.873749e+002, 1.200978e-001
9.893034e+002, 1.154467e-001
9.912319e+002, 1.110907e-001
9.931603e+002, 1.072104e-001
9.950888e+002, 1.033997e-001
9.970173e+002, 9.970326e-002
9.989457e+002, 9.604417e-002
1.000874e+003, 9.214978e-002
1.002803e+003, 8.840127e-002
1.004731e+003, 8.522383e-002
1.006660e+003, 8.273388e-002
1.008588e+003, 8.081467e-002
1.010517e+003, 7.955394e-002
1.012445e+003, 7.896971e-002
1.014373e+003, 7.890233e-002
1.016302e+003, 7.914289e-002
1.018230e+003, 8.005786e-002
1.020159e+003, 8.180185e-002
1.022087e+003, 8.438318e-002
1.024016e+003, 8.793760e-002
1.025944e+003, 9.192858e-002
1.027873e+003, 9.613932e-002
1.029801e+003, 1.005509e-001
1.031730e+003, 1.050966e-001
1.033658e+003, 1.097565e-001
1.035587e+003, 1.150119e-001
1.037515e+003, 1.208254e-001
1.039443e+003, 1.271291e-001
1.041372e+003, 1.337470e-001
1.043300e+003, 1.406305e-001
1.045229e+003, 1.480229e-001
1.047157e+003, 1.556062e-001
1.049086e+003, 1.635644e-001
1.051014e+003, 1.722633e-001
1.052943e+003, 1.807177e-001
1.054871e+003, 1.883803e-001
1.056800e+003, 1.951676e-001
1.058728e+003, 2.007787e-001
1.060657e+003, 2.054178e-001
1.062585e+003, 2.090724e-001
1.064514e+003, 2.114533e-001
1.066442e+003, 2.124618e-001
1.068370e+003, 2.117683e-001
1.070299e+003, 2.092936e-001
1.072227e+003, 2.048547e-001
1.074156e+003, 1.985876e-001
1.076084e+003, 1.910824e-001
1.078013e+003, 1.829305e-001
1.079941e+003, 1.739583e-001
1.081870e+003, 1.646884e-001
1.083798e+003, 1.557279e-001
1.085727e+003, 1.469985e-001
1.087655e+003, 1.384112e-001
1.089584e+003, 1.302154e-001
1.091512e+003, 1.224871e-001
1.093441e+003, 1.151156e-001
1.095369e+003, 1.081792e-001
1.097297e+003, 1.015657e-001
1.099226e+003, 9.529674e-002
1.101154e+003, 8.945202e-002
1.103083e+003, 8.398157e-002
1.105011e+003, 7.854547e-002
1.106940e+003, 7.295749e-002
1.108868e+003, 6.758820e-002
1.110797e+003, 6.255469e-002
1.112725e+003, 5.753285e-002
1.114654e+003, 5.252684e-002
1.116582e+003, 4.777537e-002
1.118511e+003, 4.331875e-002
1.120439e+003, 3.927884e-002
1.122368e+003, 3.558389e-002
1.124296e+003, 3.236256e-002
1.126224e+003, 2.947479e-002
1.128153e+003, 2.664549e-002
1.130081e+003, 2.392176e-002
1.132010e+003, 2.152845e-002
1.133938e+003, 1.921833e-002
1.135867e+003, 1.700707e-002
1.137795e+003, 1.518637e-002
1.139724e+003, 1.378603e-002
1.141652e+003, 1.263450e-002
1.143581e+003, 1.168936e-002
1.145509e+003, 1.077861e-002
1.147438e+003, 9.982965e-003
1.149366e+003, 9.438000e-003
1.151295e+003, 9.127818e-003
1.153223e+003, 8.779813e-003
1.155151e+003, 8.243358e-003
1.157080e+003, 7.703527e-003
1.159008e+003, 7.388362e-003
1.160937e+003, 7.103101e-003
1.162865e+003, 6.769616e-003
1.164794e+003, 6.542296e-003
1.166722e+003, 6.386797e-003
1.168651e+003, 6.133909e-003
1.170579e+003, 5.783068e-003
1.172508e+003, 5.561007e-003
1.174436e+003, 5.321853e-003
1.176365e+003, 5.034137e-003
1.178293e+003, 4.892860e-003
1.180222e+003, 4.744152e-003
1.182150e+003, 4.580159e-003
1.184078e+003, 4.374470e-003
1.186007e+003, 4.214054e-003
1.187935e+003, 3.978015e-003
1.189864e+003, 3.782445e-003
1.191792e+003, 3.701824e-003
1.193721e+003, 3.596682e-003
1.195649e+003, 3.465878e-003
1.197578e+003, 3.314423e-003
1.199506e+003, 3.233491e-003
1.201435e+003, 3.058548e-003
1.203363e+003, 3.009356e-003
1.205292e+003, 3.100706e-003
1.207220e+003, 3.027571e-003
1.209149e+003, 2.839103e-003
1.211077e+003, 2.606816e-003
1.213005e+003, 2.491624e-003
1.214934e+003, 2.408389e-003
1.216862e+003, 2.371305e-003
1.218791e+003, 2.317910e-003
1.220719e+003, 2.218684e-003
1.222648e+003, 2.042450e-003
1.224576e+003, 1.843559e-003
1.226505e+003, 1.800179e-003
1.228433e+003, 1.826779e-003
1.230362e+003, 1.834965e-003
1.232290e+003, 1.765409e-003
1.234219e+003, 1.671391e-003
1.236147e+003, 1.583127e-003
1.238076e+003, 1.468227e-003
1.240004e+003, 1.529514e-003
1.241932e+003, 1.623142e-003
1.243861e+003, 1.527286e-003
1.245789e+003, 1.444925e-003
1.247718e+003, 1.431742e-003
1.249646e+003, 1.354998e-003
1.251575e+003, 1.317347e-003
1.253503e+003, 1.308177e-003
1.255432e+003, 1.256194e-003
1.257360e+003, 1.190230e-003
1.259289e+003, 1.211459e-003
1.261217e+003, 1.322008e-003
1.263146e+003, 1.240127e-003
1.265074e+003, 1.131498e-003
1.267003e+003, 1.052838e-003
1.268931e+003, 9.841381e-004
1.270859e+003, 1.024824e-003
1.272788e+003, 1.105014e-003
1.274716e+003, 1.068643e-003
1.276645e+003, 9.131290e-004
1.278573e+003, 9.415395e-004
1.280502e+003, 1.147721e-003
1.282430e+003, 1.222010e-003
1.284359e+003, 1.288551e-003
1.286287e+003, 1.279336e-003
1.288216e+003, 1.158826e-003
1.290144e+003, 1.046285e-003
1.292073e+003, 1.051838e-003
1.294001e+003, 1.056888e-003
1.295930e+003, 9.790531e-004
1.297858e+003, 1.036084e-003
1.299786e+003, 1.151541e-003
1.301715e+003, 1.249291e-003
1.303643e+003, 1.274692e-003
1.305572e+003, 1.217616e-003
1.307500e+003, 1.286062e-003
1.309429e+003, 1.284828e-003
1.311357e+003, 1.254147e-003
1.313286e+003, 1.358354e-003
1.315214e+003, 1.492634e-003
1.317143e+003, 1.622168e-003
1.319071e+003, 1.724528e-003
1.321000e+003, 1.664800e-003
1.322928e+003, 1.511848e-003
1.324857e+003, 1.601689e-003
1.326785e+003, 1.652560e-003
1.328714e+003, 1.575846e-003
1.330642e+003, 1.677969e-003
1.332570e+003, 1.797804e-003
1.334499e+003, 1.815752e-003
1.336427e+003, 1.966625e-003
1.338356e+003, 2.088145e-003
1.340284e+003, 2.152306e-003
1.342213e+003, 2.192587e-003
1.344141e+003, 2.307599e-003
1.346070e+003, 2.342075e-003
1.347998e+003, 2.426559e-003
1.349927e+003, 2.617129e-003
1.351855e+003, 2.698035e-003
1.353784e+003, 2.813471e-003
1.355712e+003, 2.982608e-003
1.357641e+003, 3.044996e-003
1.359569e+003, 3.235004e-003
1.361497e+003, 3.472334e-003
1.363426e+003, 3.631866e-003
1.365354e+003, 3.728319e-003
1.367283e+003, 3.837356e-003
1.369211e+003, 3.952869e-003
1.371140e+003, 4.080377e-003
1.373068e+003, 4.238538e-003
1.374997e+003, 4.427276e-003
1.376925e+003, 4.494940e-003
1.378854e+003, 4.484849e-003
1.380782e+003, 4.519009e-003
1.382711e+003, 4.654863e-003
1.384639e+003, 4.760262e-003
1.386568e+003, 5.002876e-003
1.388496e+003, 5.186189e-003
1.390424e+003, 5.348338e-003
1.392353e+003, 5.592808e-003
1.394281e+003, 5.830424e-003
1.396210e+003, 5.997929e-003
1.398138e+003, 6.156136e-003
1.400067e+003, 6.391345e-003
1.401995e+003, 6.728614e-003
1.403924e+003, 7.038589e-003
1.405852e+003, 7.362267e-003
1.407781e+003, 7.612860e-003
1.409709e+003, 7.884270e-003
1.411638e+003, 8.087019e-003
1.413566e+003, 8.330898e-003
1.415495e+003, 8.634905e-003
1.417423e+003, 8.945854e-003
1.419351e+003, 9.237664e-003
1.421280e+003, 9.304570e-003
1.423208e+003, 9.355593e-003
1.425137e+003, 9.460897e-003
1.427065e+003, 9.505196e-003
1.428994e+003, 9.568335e-003
1.430922e+003, 9.765830e-003
1.432851e+003, 9.846804e-003
1.434779e+003, 9.961491e-003
1.436708e+003, 1.019104e-002
1.438636e+003, 1.005918e-002
1.440565e+003, 9.905780e-003
1.442493e+003, 9.991834e-003
1.444422e+003, 1.011043e-002
1.446350e+003, 1.008604e-002
1.448278e+003, 1.006253e-002
1.450207e+003, 1.004790e-002
1.452135e+003, 1.011925e-002
1.454064e+003, 1.009347e-002
1.455992e+003, 1.040178e-002
1.457921e+003, 1.042052e-002
1.459849e+003, 9.923257e-003
1.461778e+003, 9.672715e-003
1.463706e+003, 9.791260e-003
1.465635e+003, 9.887804e-003
1.467563e+003, 9.642916e-003
1.469492e+003, 9.508641e-003
1.471420e+003, 9.522357e-003
1.473349e+003, 9.418800e-003
1.475277e+003, 9.142679e-003
1.477205e+003, 8.808670e-003
1.479134e+003, 8.449559e-003
1.481062e+003, 8.292334e-003
1.482991e+003, 8.123618e-003
1.484919e+003, 7.954882e-003
1.486848e+003, 7.955638e-003
1.488776e+003, 8.041820e-003
1.490705e+003, 8.013680e-003
1.492633e+003, 7.719224e-003
1.494562e+003, 7.610638e-003
1.496490e+003, 7.744390e-003
1.498419e+003, 7.561663e-003
1.500347e+003, 7.354213e-003
1.502276e+003, 7.287252e-003
1.504204e+003, 7.427811e-003
1.506132e+003, 7.661279e-003
1.508061e+003, 7.445391e-003
1.509989e+003, 7.028407e-003
1.511918e+003, 6.842212e-003
1.513846e+003, 6.756722e-003
1.515775e+003, 6.820184e-003
1.517703e+003, 6.917788e-003
1.519632e+003, 7.019598e-003
1.521560e+003, 7.106828e-003
1.523489e+003, 6.929313e-003
1.525417e+003, 6.954940e-003
1.527346e+003, 6.917298e-003
1.529274e+003, 6.831160e-003
1.531203e+003, 6.915028e-003
1.533131e+003, 7.161591e-003
1.535059e+003, 7.148030e-003
1.536988e+003, 7.519033e-003
1.538916e+003, 8.338474e-003
1.540845e+003, 8.352181e-003
1.542773e+003, 8.127579e-003
1.544702e+003, 8.048326e-003
1.546630e+003, 7.805841e-003
1.548559e+003, 7.808306e-003
1.550487e+003, 7.940752e-003
1.552416e+003, 8.143493e-003
1.554344e+003, 8.385356e-003
1.556273e+003, 8.623592e-003
1.558201e+003, 9.199219e-003
1.560130e+003, 9.174292e-003
1.562058e+003, 8.529115e-003
1.563986e+003, 8.449075e-003
1.565915e+003, 8.483134e-003
1.567843e+003, 8.509993e-003
1.569772e+003, 8.746387e-003
1.571700e+003, 8.759717e-003
1.573629e+003, 8.785042e-003
1.575557e+003, 9.170460e-003
1.577486e+003, 9.145292e-003
1.579414e+003, 8.994944e-003
1.581343e+003, 8.995469e-003
1.583271e+003, 8.730848e-003
1.585200e+003, 8.703130e-003
1.587128e+003, 8.706209e-003
1.589057e+003, 8.693273e-003
1.590985e+003, 8.785613e-003
1.592913e+003, 8.748367e-003
1.594842e+003, 8.718395e-003
1.596770e+003, 8.787178e-003
1.598699e+003, 8.805409e-003
1.600627e+003, 8.813453e-003
1.602556e+003, 8.684589e-003
1.604484e+003, 8.519358e-003
1.606413e+003, 8.393614e-003
1.608341e+003, 8.344040e-003
1.610270e+003, 8.294652e-003
1.612198e+003, 8.225290e-003
1.614127e+003, 8.390022e-003
1.616055e+003, 8.661296e-003
1.617984e+003, 8.175343e-003
1.619912e+003, 7.775061e-003
1.621840e+003, 7.841372e-003
1.623769e+003, 7.843079e-003
1.625697e+003, 7.689443e-003
1.627626e+003, 7.427923e-003
1.629554e+003, 7.137395e-003
1.631483e+003, 7.010213e-003
1.633411e+003, 7.197533e-003
1.635340e+003, 7.384444e-003
1.637268e+003, 7.111617e-003
1.639197e+003, 6.686079e-003
1.641125e+003, 6.442647e-003
1.643054e+003, 6.318220e-003
1.644982e+003, 6.535838e-003
1.646911e+003, 6.500437e-003
1.648839e+003, 6.132977e-003
1.650767e+003, 6.245306e-003
1.652696e+003, 6.656407e-003
1.654624e+003, 6.069843e-003
1.656553e+003, 5.378635e-003
1.658481e+003, 5.129766e-003
1.660410e+003, 4.928751e-003
1.662338e+003, 4.959266e-003
1.664267e+003, 4.867470e-003
1.666195e+003, 4.673991e-003
1.668124e+003, 4.690973e-003
1.670052e+003, 4.587018e-003
1.671981e+003, 4.374306e-003
1.673909e+003, 4.401839e-003
1.675838e+003, 4.279941e-003
1.677766e+003, 3.921148e-003
1.679694e+003, 3.715237e-003
1.681623e+003, 3.765651e-003
1.683551e+003, 4.253464e-003
1.685480e+003, 4.136564e-003
1.687408e+003, 3.513504e-003
1.689337e+003, 3.394356e-003
1.691265e+003, 3.324710e-003
1.693194e+003, 3.300886e-003
1.695122e+003, 3.840538e-003
1.697051e+003, 3.841403e-003
1.698979e+003, 3.780298e-003
1.700908e+003, 3.717126e-003
1.702836e+003, 3.231275e-003
1.704765e+003, 3.199534e-003
1.706693e+003, 3.000765e-003
1.708621e+003, 2.801537e-003
1.710550e+003, 2.702700e-003
1.712478e+003, 2.670325e-003
1.714407e+003, 2.733936e-003
1.716335e+003, 2.972839e-003
1.718264e+003, 2.955316e-003
1.720192e+003, 2.642657e-003
1.722121e+003, 2.564711e-003
1.724049e+003, 2.507571e-003
1.725978e+003, 2.372503e-003
1.727906e+003, 2.390604e-003
1.729835e+003, 2.363718e-003
1.731763e+003, 2.668898e-003
1.733692e+003, 3.228209e-003
1.735620e+003, 2.967212e-003
1.737548e+003, 2.487059e-003
1.739477e+003, 2.417540e-003
1.741405e+003, 2.260938e-003
1.743334e+003, 2.013371e-003
1.745262e+003, 1.645766e-003
1.747191e+003, 1.490606e-003
1.749119e+003, 1.784977e-003
1.751048e+003, 1.978651e-003
1.752976e+003, 1.787865e-003
1.754905e+003, 1.861000e-003
1.756833e+003, 2.027094e-003
1.758762e+003, 1.763684e-003
1.760690e+003, 1.666980e-003
1.762619e+003, 1.823750e-003
1.764547e+003, 1.864837e-003
1.766475e+003, 1.792598e-003
1.768404e+003, 1.874493e-003
1.770332e+003, 2.008911e-003
1.772261e+003, 2.274142e-003
1.774189e+003, 2.197497e-003
1.776118e+003, 2.079026e-003
1.778046e+003, 2.080043e-003
1.779975e+003, 2.058585e-003
1.781903e+003, 1.959828e-003
1.783832e+003, 2.136950e-003
1.785760e+003, 2.355262e-003
1.787689e+003, 2.169072e-003
1.789617e+003, 1.990190e-003
1.791546e+003, 2.175895e-003
1.793474e+003, 2.105241e-003
1.795402e+003, 2.082094e-003
1.797331e+003, 2.264383e-003
1.799259e+003, 2.330253e-003
1.801188e+003, 2.265711e-003
1.803116e+003, 2.067438e-003
1.805045e+003, 2.064432e-003
1.806973e+003, 2.194332e-003
1.808902e+003, 2.263633e-003
1.810830e+003, 2.276276e-003
1.812759e+003, 2.368038e-003
1.814687e+003, 2.095294e-003
1.816616e+003, 1.924993e-003
1.818544e+003, 2.137086e-003
1.820473e+003, 2.265348e-003
1.822401e+003, 2.237410e-003
1.824329e+003, 2.141763e-003
1.826258e+003, 2.047559e-003
1.828186e+003, 2.160322e-003
1.830115e+003, 2.389981e-003
1.832043e+003, 2.491688e-003
1.833972e+003, 2.233822e-003
1.835900e+003, 2.014156e-003
1.837829e+003, 2.344292e-003
1.839757e+003, 2.443295e-003
1.841686e+003, 2.408825e-003
1.843614e+003, 2.435672e-003
1.845543e+003, 2.664461e-003
1.847471e+003, 2.782351e-003
1.849400e+003, 2.626686e-003
1.851328e+003, 2.563576e-003
1.853256e+003, 2.511361e-003
1.855185e+003, 2.289372e-003
1.857113e+003, 2.366669e-003
1.859042e+003, 2.746250e-003
1.860970e+003, 2.864931e-003
1.862899e+003, 2.674036e-003
1.864827e+003, 2.631116e-003
1.866756e+003, 2.915799e-003
1.868684e+003, 3.199236e-003
1.870613e+003, 3.261966e-003
1.872541e+003, 3.240785e-003
1.874470e+003, 2.863897e-003
1.876398e+003, 2.528501e-003
1.878327e+003, 2.684755e-003
1.880255e+003, 2.776524e-003
1.882183e+003, 2.837946e-003
1.884112e+003, 2.816046e-003
1.886040e+003, 2.946235e-003
1.887969e+003, 3.010085e-003
1.889897e+003, 2.981484e-003
1.891826e+003, 2.819210e-003
1.893754e+003, 2.549057e-003
1.895683e+003, 2.708554e-003
1.897611e+003, 2.978192e-003
1.899540e+003, 2.484368e-003
1.901468e+003, 2.276863e-003
1.903397e+003, 2.477204e-003
1.905325e+003, 2.398921e-003
1.907254e+003, 2.406610e-003
1.909182e+003, 2.414880e-003
1.911110e+003, 1.941149e-003
1.913039e+003, 2.002579e-003
1.914967e+003, 2.312942e-003
1.916896e+003, 2.635446e-003
1.918824e+003, 2.651236e-003
1.920753e+003, 2.706447e-003
1.922681e+003, 2.285782e-003
1.924610e+003, 1.597244e-003
1.926538e+003, 1.445364e-003
1.928467e+003, 1.494306e-003
1.930395e+003, 1.735479e-003
1.932324e+003, 1.966033e-003
1.934252e+003, 2.187146e-003
1.936181e+003, 2.589111e-003
1.938109e+003, 2.615459e-003
1.940037e+003, 2.024075e-003
1.941966e+003, 1.958881e-003
1.943894e+003, 2.347623e-003
1.945823e+003, 2.028625e-003
1.947751e+003, 2.090284e-003
1.949680e+003, 2.016652e-003
1.951608e+003, 1.431915e-003
1.953537e+003, 1.578968e-003
1.955465e+003, 1.948015e-003
1.957394e+003, 2.174689e-003
1.959322e+003, 2.316779e-003
1.961251e+003, 3.069658e-003
1.963179e+003, 3.797690e-003
1.965108e+003, 3.163002e-003
1.967036e+003, 2.097389e-003
1.968964e+003, 2.501031e-003
1.970893e+003, 3.664511e-003
1.972821e+003, 3.834661e-003
1.974750e+003, 3.172021e-003
1.976678e+003, 3.228631e-003
1.978607e+003, 4.404656e-003
1.980535e+003, 5.878415e-003
1.982464e+003, 4.847001e-003
1.984392e+003, 4.004051e-003
1.986321e+003, 4.050856e-003
1.988249e+003, 3.732973e-003
1.990178e+003, 3.746925e-003
1.992106e+003, 4.037322e-003
1.994035e+003, 4.209053e-003
1.995963e+003, 4.251736e-003
1.997891e+003, 3.683198e-003
1.999820e+003, 3.531453e-003
2.001748e+003, 3.737934e-003
2.003677e+003, 3.653260e-003
2.005605e+003, 3.464006e-003
2.007534e+003, 3.779869e-003
2.009462e+003, 3.520135e-003
2.011391e+003, 2.755066e-003
2.013319e+003, 2.972481e-003
2.015248e+003, 3.938121e-003
2.017176e+003, 4.216866e-003
2.019105e+003, 4.184933e-003
2.021033e+003, 4.283539e-003
2.022962e+003, 4.721039e-003
2.024890e+003, 4.629220e-003
2.026818e+003, 3.998375e-003
2.028747e+003, 3.798071e-003
2.030675e+003, 3.441714e-003
2.032604e+003, 3.637224e-003
2.034532e+003, 5.270068e-003
2.036461e+003, 6.045360e-003
2.038389e+003, 5.160281e-003
2.040318e+003, 4.779215e-003
2.042246e+003, 5.058360e-003
2.044175e+003, 4.970226e-003
2.046103e+003, 4.373940e-003
2.048031e+003, 4.877591e-003
2.049960e+003, 6.309436e-003
2.051888e+003, 5.099747e-003
2.053817e+003, 3.571120e-003
2.055745e+003, 3.357297e-003
2.057674e+003, 3.214622e-003
2.059602e+003, 2.998292e-003
2.061531e+003, 2.897547e-003
2.063459e+003, 3.026339e-003
2.065388e+003, 3.576122e-003
2.067316e+003, 4.312321e-003
2.069245e+003, 4.026147e-003
2.071173e+003, 3.358176e-003
2.073102e+003, 2.842419e-003
2.075030e+003, 3.005298e-003
2.076958e+003, 3.320172e-003
2.078887e+003, 3.377045e-003
2.080815e+003, 3.517143e-003
2.082744e+003, 3.238967e-003
2.084672e+003, 3.236212e-003
2.086601e+003, 3.498743e-003
2.088529e+003, 3.347213e-003
2.090458e+003, 2.825221e-003
2.092386e+003, 2.475788e-003
2.094315e+003, 2.335228e-003
2.096243e+003, 2.341417e-003
2.098172e+003, 2.280147e-003
2.100100e+003, 2.565159e-003
2.102029e+003, 2.820249e-003
2.103957e+003, 2.728927e-003
2.105885e+003, 2.787558e-003
2.107814e+003, 2.753684e-003
2.109742e+003, 2.969938e-003
2.111671e+003, 3.134959e-003
2.113599e+003, 3.019281e-003
2.115528e+003, 2.776417e-003
2.117456e+003, 2.033516e-003
2.119385e+003, 1.194017e-003
2.121313e+003, 1.053793e-003
2.123242e+003, 1.427130e-003
2.125170e+003, 1.083978e-003
2.127099e+003, 3.221469e-004
2.129027e+003, 7.689248e-006
2.130956e+003, -1.203774e-004
2.132884e+003, -6.099731e-004
2.134813e+003, -1.144351e-003
2.136741e+003, -1.081036e-004
2.138669e+003, 9.841672e-004
2.140598e+003, 6.667367e-004
2.142526e+003, -1.471518e-004
2.144455e+003, -8.893900e-004
2.146383e+003, -7.983171e-004
2.148312e+003, -4.060064e-004
2.150240e+003, -7.746229e-004
2.152169e+003, -5.050239e-004
2.154097e+003, -3.050739e-004
2.156026e+003, -1.046979e-003
2.157954e+003, 9.860608e-005
2.159883e+003, 2.739378e-003
2.161811e+003, 3.297016e-003
2.163740e+003, 3.705603e-003
2.165668e+003, 3.955749e-003
2.167596e+003, 3.178998e-003
2.169525e+003, 2.725437e-003
2.171453e+003, 2.458534e-003
2.173382e+003, 1.562028e-003
2.175310e+003, 2.117754e-003
2.177239e+003, 3.432112e-003
2.179167e+003, 2.705471e-003
2.181096e+003, 2.179015e-003
2.183024e+003, 3.165627e-003
2.184953e+003, 3.802042e-003
2.186881e+003, 4.058532e-003
2.188810e+003, 3.729752e-003
2.190738e+003, 3.928578e-003
2.192667e+003, 4.040668e-003
2.194595e+003, 4.105200e-003
2.196523e+003, 4.999213e-003
2.198452e+003, 5.460498e-003
2.200380e+003, 5.034890e-003
2.202309e+003, 4.274130e-003
2.204237e+003, 3.984615e-003
2.206166e+003, 4.018050e-003
2.208094e+003, 4.921779e-003
2.210023e+003, 5.240195e-003
2.211951e+003, 4.714626e-003
2.213880e+003, 4.459808e-003
2.215808e+003, 4.978159e-003
2.217737e+003, 5.479797e-003
2.219665e+003, 5.527019e-003
2.221594e+003, 5.781051e-003
2.223522e+003, 5.595458e-003
2.225450e+003, 5.298648e-003
2.227379e+003, 5.205513e-003
2.229307e+003, 5.547537e-003
2.231236e+003, 5.543710e-003
2.233164e+003, 5.777589e-003
2.235093e+003, 6.399636e-003
2.237021e+003, 6.187166e-003
2.238950e+003, 6.193545e-003
2.240878e+003, 6.760965e-003
2.242807e+003, 6.688662e-003
2.244735e+003, 6.295109e-003
2.246664e+003, 6.350867e-003
2.248592e+003, 5.950399e-003
2.250521e+003, 5.998642e-003
2.252449e+003, 6.506128e-003
2.254377e+003, 6.521699e-003
2.256306e+003, 6.594412e-003
2.258234e+003, 6.886193e-003
2.260163e+003, 7.118347e-003
2.262091e+003, 7.099432e-003
2.264020e+003, 6.589694e-003
2.265948e+003, 6.473623e-003
2.267877e+003, 6.790061e-003
2.269805e+003, 6.795533e-003
2.271734e+003, 6.491212e-003
2.273662e+003, 6.795322e-003
2.275591e+003, 7.640512e-003
2.277519e+003, 7.887560e-003
2.279448e+003, 7.548887e-003
2.281376e+003, 7.645540e-003
2.283304e+003, 7.993850e-003
2.285233e+003, 7.908321e-003
2.287161e+003, 7.418360e-003
2.289090e+003, 7.148565e-003
2.291018e+003, 7.032948e-003
2.292947e+003, 6.944838e-003
2.294875e+003, 7.032077e-003
2.296804e+003, 7.064657e-003
2.298732e+003, 6.944797e-003
2.300661e+003, 6.848995e-003
2.302589e+003, 6.735213e-003
2.304518e+003, 6.692039e-003
2.306446e+003, 6.921544e-003
2.308375e+003, 7.279511e-003
2.310303e+003, 7.470977e-003
2.312231e+003, 7.259340e-003
2.314160e+003, 7.083525e-003
2.316088e+003, 7.304996e-003
2.318017e+003, 7.648215e-003
2.319945e+003, 7.904325e-003
2.321874e+003, 8.250342e-003
2.323802e+003, 8.439484e-003
2.325731e+003, 7.892970e-003
2.327659e+003, 7.444432e-003
2.329588e+003, 7.443290e-003
2.331516e+003, 7.667458e-003
2.333445e+003, 7.710960e-003
2.335373e+003, 7.437065e-003
2.337302e+003, 7.488923e-003
2.339230e+003, 7.514935e-003
2.341158e+003, 7.539182e-003
2.343087e+003, 7.589976e-003
2.345015e+003, 7.316796e-003
2.346944e+003, 6.767487e-003
2.348872e+003, 6.612138e-003
2.350801e+003, 7.091436e-003
2.352729e+003, 7.435168e-003
2.354658e+003, 7.598611e-003
2.356586e+003, 7.791210e-003
2.358515e+003, 7.964379e-003
2.360443e+003, 8.095910e-003
2.362372e+003, 7.966517e-003
2.364300e+003, 7.929915e-003
2.366229e+003, 7.955978e-003
2.368157e+003, 7.722968e-003
2.370085e+003, 7.409414e-003
2.372014e+003, 7.329160e-003
2.373942e+003, 6.728947e-003
2.375871e+003, 6.247930e-003
2.377799e+003, 6.126819e-003
2.379728e+003, 6.016307e-003
2.381656e+003, 5.968557e-003
2.383585e+003, 6.066174e-003
2.385513e+003, 5.908108e-003
2.387442e+003, 6.063737e-003
2.389370e+003, 6.211428e-003
2.391299e+003, 6.111470e-003
2.393227e+003, 5.953690e-003
2.395156e+003, 5.722096e-003
2.397084e+003, 6.051397e-003
2.399012e+003, 6.599764e-003
2.400941e+003, 6.226941e-003
2.402869e+003, 5.828110e-003
2.404798e+003, 6.193500e-003
2.406726e+003, 6.710309e-003
2.408655e+003, 6.991951e-003
2.410583e+003, 6.565686e-003
2.412512e+003, 6.179675e-003
2.414440e+003, 6.111145e-003
2.416369e+003, 6.352657e-003
2.418297e+003, 6.275100e-003
2.420226e+003, 6.256225e-003
2.422154e+003, 6.307633e-003
2.424083e+003, 6.481385e-003
2.426011e+003, 6.655190e-003
2.427939e+003, 7.019667e-003
2.429868e+003, 6.907080e-003
2.431796e+003, 6.676979e-003
2.433725e+003, 6.645189e-003
2.435653e+003, 6.556254e-003
2.437582e+003, 6.363410e-003
2.439510e+003, 6.446919e-003
2.441439e+003, 6.655426e-003
2.443367e+003, 6.674532e-003
2.445296e+003, 6.532642e-003
2.447224e+003, 6.761855e-003
2.449153e+003, 6.782619e-003
2.451081e+003, 6.487793e-003
2.453010e+003, 6.406874e-003
2.454938e+003, 6.513470e-003
2.456866e+003, 6.974976e-003
2.458795e+003, 6.957899e-003
2.460723e+003, 6.370179e-003
2.462652e+003, 6.474336e-003
2.464580e+003, 6.977312e-003
2.466509e+003, 7.212384e-003
2.468437e+003, 6.526492e-003
2.470366e+003, 6.424785e-003
2.472294e+003, 6.554328e-003
2.474223e+003, 6.433249e-003
2.476151e+003, 6.331794e-003
2.478080e+003, 6.403133e-003
2.480008e+003, 6.643980e-003
2.481937e+003, 7.010059e-003
2.483865e+003, 6.595519e-003
2.485793e+003, 6.288764e-003
2.487722e+003, 6.718390e-003
2.489650e+003, 7.070457e-003
2.491579e+003, 7.243305e-003
2.493507e+003, 7.224209e-003
2.495436e+003, 6.827501e-003
2.497364e+003, 6.584076e-003
2.499293e+003, 6.618905e-003
2.501221e+003, 6.672624e-003
2.503150e+003, 7.274271e-003
2.505078e+003, 7.059798e-003
2.507007e+003, 6.856400e-003
2.508935e+003, 7.005070e-003
2.510864e+003, 7.140247e-003
2.512792e+003, 7.069554e-003
2.514720e+003, 7.066425e-003
2.516649e+003, 7.164505e-003
2.518577e+003, 7.180664e-003
2.520506e+003, 7.403994e-003
2.522434e+003, 7.504496e-003
2.524363e+003, 7.514191e-003
2.526291e+003, 7.266272e-003
2.528220e+003, 7.178220e-003
2.530148e+003, 7.257449e-003
2.532077e+003, 7.374973e-003
2.534005e+003, 7.313477e-003
2.535934e+003, 7.250784e-003
2.537862e+003, 7.391992e-003
2.539791e+003, 7.257662e-003
2.541719e+003, 7.150429e-003
2.543647e+003, 7.204632e-003
2.545576e+003, 7.384147e-003
2.547504e+003, 7.377930e-003
2.549433e+003, 7.284790e-003
2.551361e+003, 6.979492e-003
2.553290e+003, 7.422365e-003
2.555218e+003, 7.761881e-003
2.557147e+003, 7.741288e-003
2.559075e+003, 7.434915e-003
2.561004e+003, 7.218518e-003
2.562932e+003, 7.330116e-003
2.564861e+003, 7.530436e-003
2.566789e+003, 7.353389e-003
2.568718e+003, 7.272899e-003
2.570646e+003, 7.249639e-003
2.572574e+003, 7.433718e-003
2.574503e+003, 7.595161e-003
2.576431e+003, 7.735627e-003
2.578360e+003, 7.919587e-003
2.580288e+003, 7.728354e-003
2.582217e+003, 7.741797e-003
2.584145e+003, 7.761891e-003
2.586074e+003, 7.822388e-003
2.588002e+003, 7.810520e-003
2.589931e+003, 7.543048e-003
2.591859e+003, 7.496791e-003
2.593788e+003, 7.753296e-003
2.595716e+003, 7.557733e-003
2.597645e+003, 7.452701e-003
2.599573e+003, 7.783166e-003
2.601501e+003, 7.934763e-003
2.603430e+003, 8.044895e-003
2.605358e+003, 8.040333e-003
2.607287e+003, 7.627776e-003
2.609215e+003, 7.404444e-003
2.611144e+003, 7.646290e-003
2.613072e+003, 8.169220e-003
2.615001e+003, 7.990771e-003
2.616929e+003, 7.804834e-003
2.618858e+003, 7.617512e-003
2.620786e+003, 7.345507e-003
2.622715e+003, 7.525240e-003
2.624643e+003, 7.910066e-003
2.626572e+003, 8.171450e-003
2.628500e+003, 8.241750e-003
2.630428e+003, 8.042391e-003
2.632357e+003, 8.044510e-003
2.634285e+003, 8.024736e-003
2.636214e+003, 7.903600e-003
2.638142e+003, 7.832192e-003
2.640071e+003, 7.565794e-003
2.641999e+003, 7.670371e-003
2.643928e+003, 7.904144e-003
2.645856e+003, 7.710958e-003
2.647785e+003, 7.458882e-003
2.649713e+003, 7.538369e-003
2.651642e+003, 7.508658e-003
2.653570e+003, 7.431110e-003
2.655499e+003, 7.528968e-003
2.657427e+003, 7.343635e-003
2.659355e+003, 7.125252e-003
2.661284e+003, 7.081444e-003
2.663212e+003, 7.071482e-003
2.665141e+003, 6.890302e-003
2.667069e+003, 6.778304e-003
2.668998e+003, 7.016020e-003
2.670926e+003, 7.168364e-003
2.672855e+003, 7.002459e-003
2.674783e+003, 6.771967e-003
2.676712e+003, 6.931459e-003
2.678640e+003, 7.497208e-003
2.680569e+003, 7.669781e-003
2.682497e+003, 7.246014e-003
2.684426e+003, 7.111610e-003
2.686354e+003, 7.079287e-003
2.688282e+003, 6.960346e-003
2.690211e+003, 6.963367e-003
2.692139e+003, 7.077391e-003
2.694068e+003, 7.084437e-003
2.695996e+003, 7.351693e-003
2.697925e+003, 7.309096e-003
2.699853e+003, 7.091190e-003
2.701782e+003, 7.035103e-003
2.703710e+003, 7.124844e-003
2.705639e+003, 7.148596e-003
2.707567e+003, 7.020927e-003
2.709496e+003, 6.835922e-003
2.711424e+003, 7.063464e-003
2.713353e+003, 7.233020e-003
2.715281e+003, 7.271925e-003
2.717209e+003, 7.280624e-003
2.719138e+003, 7.045492e-003
2.721066e+003, 6.756660e-003
2.722995e+003, 6.912270e-003
2.724923e+003, 7.219170e-003
2.726852e+003, 7.184555e-003
2.728780e+003, 7.173899e-003
2.730709e+003, 7.128358e-003
2.732637e+003, 7.282696e-003
2.734566e+003, 7.568201e-003
2.736494e+003, 7.385759e-003
2.738423e+003, 7.040330e-003
2.740351e+003, 7.090867e-003
2.742280e+003, 7.487137e-003
2.744208e+003, 7.525069e-003
2.746136e+003, 7.763143e-003
2.748065e+003, 7.825143e-003
2.749993e+003, 7.454101e-003
2.751922e+003, 7.288588e-003
2.753850e+003, 7.402121e-003
2.755779e+003, 7.642165e-003
2.757707e+003, 7.727060e-003
2.759636e+003, 7.458247e-003
2.761564e+003, 7.579384e-003
2.763493e+003, 7.490415e-003
2.765421e+003, 7.486975e-003
2.767350e+003, 7.556877e-003
2.769278e+003, 7.558357e-003
2.771207e+003, 7.623406e-003
2.773135e+003, 7.562504e-003
2.775063e+003, 7.552681e-003
2.776992e+003, 7.616078e-003
2.778920e+003, 7.804478e-003
2.780849e+003, 7.616457e-003
2.782777e+003, 7.621461e-003
2.784706e+003, 7.854623e-003
2.786634e+003, 7.867497e-003
2.788563e+003, 7.833976e-003
2.790491e+003, 7.968290e-003
2.792420e+003, 8.028188e-003
2.794348e+003, 7.877441e-003
2.796277e+003, 7.934262e-003
2.798205e+003, 7.730707e-003
2.800134e+003, 7.368765e-003
2.802062e+003, 7.622424e-003
2.803990e+003, 7.905371e-003
2.805919e+003, 7.886946e-003
2.807847e+003, 7.765960e-003
2.809776e+003, 7.767077e-003
2.811704e+003, 8.092728e-003
2.813633e+003, 8.422374e-003
2.815561e+003, 8.485168e-003
2.817490e+003, 8.275070e-003
2.819418e+003, 8.041299e-003
2.821347e+003, 7.897662e-003
2.823275e+003, 7.982997e-003
2.825204e+003, 8.251075e-003
2.827132e+003, 8.439487e-003
2.829061e+003, 8.489510e-003
2.830989e+003, 8.550081e-003
2.832917e+003, 8.789205e-003
2.834846e+003, 8.585755e-003
2.836774e+003, 8.540201e-003
2.838703e+003, 8.705891e-003
2.840631e+003, 9.037257e-003
2.842560e+003, 9.273682e-003
2.844488e+003, 9.378546e-003
2.846417e+003, 9.602262e-003
2.848345e+003, 9.579378e-003
2.850274e+003, 9.506966e-003
2.852202e+003, 9.406265e-003
2.854131e+003, 9.105259e-003
2.856059e+003, 9.071944e-003
2.857988e+003, 9.061282e-003
2.859916e+003, 9.111305e-003
2.861844e+003, 9.093665e-003
2.863773e+003, 9.025048e-003
2.865701e+003, 9.143319e-003
2.867630e+003, 9.479452e-003
2.869558e+003, 9.446546e-003
2.871487e+003, 8.837863e-003
2.873415e+003, 8.708321e-003
2.875344e+003, 9.104409e-003
2.877272e+003, 9.376461e-003
2.879201e+003, 9.555385e-003
2.881129e+003, 9.317663e-003
2.883058e+003, 8.914555e-003
2.884986e+003, 8.786609e-003
2.886915e+003, 9.244536e-003
2.888843e+003, 9.529900e-003
2.890771e+003, 9.748319e-003
2.892700e+003, 9.616025e-003
2.894628e+003, 9.319965e-003
2.896557e+003, 9.321146e-003
2.898485e+003, 9.366441e-003
2.900414e+003, 9.471819e-003
2.902342e+003, 9.723279e-003
2.904271e+003, 1.034782e-002
2.906199e+003, 1.045877e-002
2.908128e+003, 1.007898e-002
2.910056e+003, 1.028113e-002
2.911985e+003, 1.067127e-002
2.913913e+003, 1.093512e-002
2.915842e+003, 1.134334e-002
2.917770e+003, 1.146253e-002
2.919698e+003, 1.144424e-002
2.921627e+003, 1.108349e-002
2.923555e+003, 1.073604e-002
2.925484e+003, 1.083013e-002
2.927412e+003, 1.073592e-002
2.929341e+003, 1.041444e-002
2.931269e+003, 1.017612e-002
2.933198e+003, 1.047313e-002
2.935126e+003, 1.044040e-002
2.937055e+003, 9.860852e-003
2.938983e+003, 9.460911e-003
2.940912e+003, 9.603582e-003
2.942840e+003, 9.828295e-003
2.944769e+003, 9.715374e-003
2.946697e+003, 9.652086e-003
2.948625e+003, 9.605836e-003
2.950554e+003, 9.739486e-003
2.952482e+003, 9.974464e-003
2.954411e+003, 1.028024e-002
2.956339e+003, 1.040515e-002
2.958268e+003, 1.057213e-002
2.960196e+003, 1.067446e-002
2.962125e+003, 1.080453e-002
2.964053e+003, 1.077542e-002
2.965982e+003, 1.014408e-002
2.967910e+003, 9.640126e-003
2.969839e+003, 9.428495e-003
2.971767e+003, 9.423905e-003
2.973696e+003, 9.332062e-003
2.975624e+003, 9.460270e-003
2.977552e+003, 9.436486e-003
2.979481e+003, 9.074902e-003
2.981409e+003, 8.916742e-003
2.983338e+003, 8.940028e-003
2.985266e+003, 8.773413e-003
2.987195e+003, 8.406145e-003
2.989123e+003, 8.737384e-003
2.991052e+003, 9.289604e-003
2.992980e+003, 9.211396e-003
2.994909e+003, 9.202840e-003
2.996837e+003, 9.262168e-003
2.998766e+003, 9.226199e-003
3.000694e+003, 9.001348e-003
3.002623e+003, 8.935006e-003
3.004551e+003, 9.076775e-003
3.006479e+003, 9.111691e-003
3.008408e+003, 9.027801e-003
3.010336e+003, 8.810939e-003
3.012265e+003, 8.444748e-003
3.014193e+003, 8.456687e-003
3.016122e+003, 8.551219e-003
3.018050e+003, 8.228088e-003
3.019979e+003, 8.319744e-003
3.021907e+003, 8.885532e-003
3.023836e+003, 8.875164e-003
3.025764e+003, 8.911812e-003
3.027693e+003, 8.722370e-003
3.029621e+003, 8.868192e-003
3.031550e+003, 9.387156e-003
3.033478e+003, 9.365188e-003
3.035406e+003, 9.101325e-003
3.037335e+003, 9.050765e-003
3.039263e+003, 9.046170e-003
3.041192e+003, 8.979673e-003
3.043120e+003, 8.756563e-003
3.045049e+003, 8.827522e-003
3.046977e+003, 8.859029e-003
3.048906e+003, 8.816634e-003
3.050834e+003, 8.918888e-003
3.052763e+003, 9.076878e-003
3.054691e+003, 9.118076e-003
3.056620e+003, 9.253044e-003
3.058548e+003, 9.501887e-003
3.060477e+003, 9.298010e-003
3.062405e+003, 9.177782e-003
3.064333e+003, 9.274658e-003
3.066262e+003, 9.171029e-003
3.068190e+003, 9.333423e-003
3.070119e+003, 9.525436e-003
3.072047e+003, 9.654039e-003
3.073976e+003, 9.678668e-003
3.075904e+003, 9.203973e-003
3.077833e+003, 9.204815e-003
3.079761e+003, 9.574264e-003
3.081690e+003, 9.909910e-003
3.083618e+003, 9.608482e-003
3.085547e+003, 9.247650e-003
3.087475e+003, 9.349025e-003
3.089404e+003, 9.591559e-003
3.091332e+003, 9.670794e-003
3.093260e+003, 9.553985e-003
3.095189e+003, 9.593408e-003
3.097117e+003, 9.836295e-003
3.099046e+003, 9.873141e-003
3.100974e+003, 9.847096e-003
3.102903e+003, 9.977919e-003
3.104831e+003, 1.001366e-002
3.106760e+003, 9.912856e-003
3.108688e+003, 9.975873e-003
3.110617e+003, 1.018579e-002
3.112545e+003, 9.962172e-003
3.114474e+003, 9.412801e-003
3.116402e+003, 9.400641e-003
3.118331e+003, 9.720809e-003
3.120259e+003, 9.784614e-003
3.122188e+003, 9.460178e-003
3.124116e+003, 9.288826e-003
3.126044e+003, 9.598495e-003
3.127973e+003, 9.966238e-003
3.129901e+003, 1.012398e-002
3.131830e+003, 1.030869e-002
3.133758e+003, 1.049333e-002
3.135687e+003, 1.048314e-002
3.137615e+003, 1.016747e-002
3.139544e+003, 1.042391e-002
3.141472e+003, 1.062899e-002
3.143401e+003, 1.060234e-002
3.145329e+003, 1.059729e-002
3.147258e+003, 1.050427e-002
3.149186e+003, 1.018299e-002
3.151115e+003, 1.009750e-002
3.153043e+003, 1.018778e-002
3.154971e+003, 1.040803e-002
3.156900e+003, 1.058188e-002
3.158828e+003, 1.036149e-002
3.160757e+003, 1.025575e-002
3.162685e+003, 1.042081e-002
3.164614e+003, 1.068308e-002
3.166542e+003, 1.078984e-002
3.168471e+003, 1.059602e-002
3.170399e+003, 1.017443e-002
3.172328e+003, 1.035769e-002
3.174256e+003, 1.039779e-002
3.176185e+003, 1.043475e-002
3.178113e+003, 1.091948e-002
3.180042e+003, 1.104973e-002
3.181970e+003, 1.081180e-002
3.183898e+003, 1.078720e-002
3.185827e+003, 1.081927e-002
3.187755e+003, 1.058739e-002
3.189684e+003, 1.040818e-002
3.191612e+003, 1.037792e-002
3.193541e+003, 1.082371e-002
3.195469e+003, 1.083420e-002
3.197398e+003, 1.071549e-002
3.199326e+003, 1.075443e-002
3.201255e+003, 1.047265e-002
3.203183e+003, 1.043544e-002
3.205112e+003, 1.097992e-002
3.207040e+003, 1.124360e-002
3.208969e+003, 1.156477e-002
3.210897e+003, 1.146413e-002
3.212825e+003, 1.103306e-002
3.214754e+003, 1.073598e-002
3.216682e+003, 1.085800e-002
3.218611e+003, 1.097457e-002
3.220539e+003, 1.063219e-002
3.222468e+003, 1.067997e-002
3.224396e+003, 1.093981e-002
3.226325e+003, 1.066335e-002
3.228253e+003, 1.030816e-002
3.230182e+003, 1.044166e-002
3.232110e+003, 1.094450e-002
3.234039e+003, 1.115991e-002
3.235967e+003, 1.082109e-002
3.237896e+003, 1.047275e-002
3.239824e+003, 1.089305e-002
3.241752e+003, 1.084856e-002
3.243681e+003, 1.012174e-002
3.245609e+003, 1.060313e-002
3.247538e+003, 1.122081e-002
3.249466e+003, 1.116258e-002
3.251395e+003, 1.079604e-002
3.253323e+003, 1.096136e-002
3.255252e+003, 1.138413e-002
3.257180e+003, 1.127839e-002
3.259109e+003, 1.110232e-002
3.261037e+003, 1.116508e-002
3.262966e+003, 1.104256e-002
3.264894e+003, 1.081274e-002
3.266823e+003, 1.023200e-002
3.268751e+003, 1.003940e-002
3.270679e+003, 1.035750e-002
3.272608e+003, 1.049130e-002
3.274536e+003, 1.058766e-002
3.276465e+003, 1.114382e-002
3.278393e+003, 1.125100e-002
3.280322e+003, 1.084247e-002
3.282250e+003, 1.030300e-002
3.284179e+003, 1.050395e-002
3.286107e+003, 1.107742e-002
3.288036e+003, 1.105043e-002
3.289964e+003, 1.094959e-002
3.291893e+003, 1.119003e-002
3.293821e+003, 1.104667e-002
3.295750e+003, 1.101968e-002
3.297678e+003, 1.094498e-002
3.299606e+003, 1.096901e-002
3.301535e+003, 1.078859e-002
3.303463e+003, 1.095635e-002
3.305392e+003, 1.120600e-002
3.307320e+003, 1.126268e-002
3.309249e+003, 1.100449e-002
3.311177e+003, 1.106087e-002
3.313106e+003, 1.144625e-002
3.315034e+003, 1.145945e-002
3.316963e+003, 1.144196e-002
3.318891e+003, 1.112875e-002
3.320820e+003, 1.078941e-002
3.322748e+003, 1.068454e-002
3.324677e+003, 1.083002e-002
3.326605e+003, 1.135680e-002
3.328533e+003, 1.115264e-002
3.330462e+003, 1.097117e-002
3.332390e+003, 1.080932e-002
3.334319e+003, 1.051452e-002
3.336247e+003, 1.084633e-002
3.338176e+003, 1.115619e-002
3.340104e+003, 1.104442e-002
3.342033e+003, 1.068798e-002
3.343961e+003, 1.049091e-002
3.345890e+003, 1.084127e-002
3.347818e+003, 1.082639e-002
3.349747e+003, 1.129329e-002
3.351675e+003, 1.153988e-002
3.353604e+003, 1.135702e-002
3.355532e+003, 1.176655e-002
3.357460e+003, 1.149308e-002
3.359389e+003, 1.057003e-002
3.361317e+003, 1.078185e-002
3.363246e+003, 1.160510e-002
3.365174e+003, 1.111170e-002
3.367103e+003, 1.047777e-002
3.369031e+003, 1.075048e-002
3.370960e+003, 1.132428e-002
3.372888e+003, 1.169842e-002
3.374817e+003, 1.154776e-002
3.376745e+003, 1.123119e-002
3.378674e+003, 1.153816e-002
3.380602e+003, 1.132733e-002
3.382531e+003, 1.045365e-002
3.384459e+003, 1.041658e-002
3.386387e+003, 1.101623e-002
3.388316e+003, 1.119535e-002
3.390244e+003, 1.093734e-002
3.392173e+003, 1.108817e-002
3.394101e+003, 1.147286e-002
3.396030e+003, 1.106177e-002
3.397958e+003, 1.082702e-002
3.399887e+003, 1.111361e-002
3.401815e+003, 1.113467e-002
3.403744e+003, 1.065835e-002
3.405672e+003, 1.073543e-002
3.407601e+003, 1.076380e-002
3.409529e+003, 1.043002e-002
3.411458e+003, 1.055682e-002
3.413386e+003, 1.104162e-002
3.415314e+003, 1.104512e-002
3.417243e+003, 1.013210e-002
3.419171e+003, 9.395197e-003
3.421100e+003, 9.593294e-003
3.423028e+003, 9.865388e-003
3.424957e+003, 1.069620e-002
3.426885e+003, 1.072075e-002
3.428814e+003, 1.001633e-002
3.430742e+003, 1.013458e-002
3.432671e+003, 1.000516e-002
3.434599e+003, 9.741797e-003
3.436528e+003, 9.803314e-003
3.438456e+003, 9.367473e-003
3.440385e+003, 9.715867e-003
3.442313e+003, 1.048161e-002
3.444241e+003, 1.061057e-002
3.446170e+003, 1.038803e-002
3.448098e+003, 1.068459e-002
3.450027e+003, 1.073282e-002
3.451955e+003, 1.044716e-002
3.453884e+003, 1.018635e-002
3.455812e+003, 1.000979e-002
3.457741e+003, 1.013636e-002
3.459669e+003, 9.950564e-003
3.461598e+003, 9.606658e-003
3.463526e+003, 9.987535e-003
3.465455e+003, 1.019007e-002
3.467383e+003, 1.012183e-002
3.469312e+003, 9.718652e-003
3.471240e+003, 9.257844e-003
3.473168e+003, 9.395687e-003
3.475097e+003, 9.893403e-003
3.477025e+003, 1.020090e-002
3.478954e+003, 9.871433e-003
3.480882e+003, 9.976398e-003
3.482811e+003, 1.017012e-002
3.484739e+003, 9.861002e-003
3.486668e+003, 9.462663e-003
3.488596e+003, 9.281570e-003
3.490525e+003, 9.170805e-003
3.492453e+003, 9.366815e-003
3.494382e+003, 9.784454e-003
3.496310e+003, 1.003881e-002
3.498239e+003, 1.041146e-002
3.500167e+003, 1.006307e-002
3.502095e+003, 9.955667e-003
3.504024e+003, 9.869764e-003
3.505952e+003, 9.301099e-003
3.507881e+003, 9.311243e-003
3.509809e+003, 9.845912e-003
3.511738e+003, 9.477896e-003
3.513666e+003, 9.191783e-003
3.515595e+003, 9.024099e-003
3.517523e+003, 9.346453e-003
3.519452e+003, 8.617742e-003
3.521380e+003, 8.400712e-003
3.523309e+003, 9.091698e-003
3.525237e+003, 9.556643e-003
3.527166e+003, 9.741222e-003
3.529094e+003, 9.422141e-003
3.531022e+003, 8.920360e-003
3.532951e+003, 8.377233e-003
3.534879e+003, 8.794278e-003
3.536808e+003, 8.980240e-003
3.538736e+003, 9.031015e-003
3.540665e+003, 9.134360e-003
3.542593e+003, 9.197076e-003
3.544522e+003, 9.180699e-003
3.546450e+003, 9.249174e-003
3.548379e+003, 9.736507e-003
3.550307e+003, 1.010077e-002
3.552236e+003, 9.913397e-003
3.554164e+003, 9.401987e-003
3.556093e+003, 9.581600e-003
3.558021e+003, 9.430813e-003
3.559949e+003, 9.507963e-003
3.561878e+003, 9.354475e-003
3.563806e+003, 9.080623e-003
3.565735e+003, 9.185368e-003
3.567663e+003, 9.264183e-003
3.569592e+003, 9.280852e-003
3.571520e+003, 8.918046e-003
3.573449e+003, 8.881778e-003
3.575377e+003, 9.121426e-003
3.577306e+003, 9.366374e-003
3.579234e+003, 9.377507e-003
3.581163e+003, 8.876128e-003
3.583091e+003, 8.411253e-003
3.585020e+003, 8.585379e-003
3.586948e+003, 8.745365e-003
3.588876e+003, 8.893333e-003
3.590805e+003, 9.029144e-003
3.592733e+003, 8.682976e-003
3.594662e+003, 8.105542e-003
3.596590e+003, 7.879311e-003
3.598519e+003, 7.959994e-003
3.600447e+003, 8.100600e-003
3.602376e+003, 8.027791e-003
3.604304e+003, 7.881328e-003
3.606233e+003, 7.936223e-003
3.608161e+003, 8.472147e-003
3.610090e+003, 9.004609e-003
3.612018e+003, 8.357269e-003
3.613947e+003, 8.312856e-003
3.615875e+003, 8.658789e-003
3.617803e+003, 8.588557e-003
3.619732e+003, 8.572876e-003
3.621660e+003, 8.210328e-003
3.623589e+003, 8.293635e-003
3.625517e+003, 8.231872e-003
3.627446e+003, 8.346565e-003
3.629374e+003, 8.500919e-003
3.631303e+003, 8.100479e-003
3.633231e+003, 7.764797e-003
3.635160e+003, 7.507248e-003
3.637088e+003, 7.933513e-003
3.639017e+003, 8.884317e-003
3.640945e+003, 8.236704e-003
3.642874e+003, 7.503410e-003
3.644802e+003, 7.238029e-003
3.646730e+003, 8.063602e-003
3.648659e+003, 8.476564e-003
3.650587e+003, 8.134744e-003
3.652516e+003, 7.462230e-003
3.654444e+003, 7.282600e-003
3.656373e+003, 7.728059e-003
3.658301e+003, 7.189340e-003
3.660230e+003, 6.697976e-003
3.662158e+003, 6.187240e-003
3.664087e+003, 6.063871e-003
3.666015e+003, 6.359120e-003
3.667944e+003, 7.581547e-003
3.669872e+003, 9.017978e-003
3.671801e+003, 8.780968e-003
3.673729e+003, 8.701495e-003
3.675657e+003, 9.210903e-003
3.677586e+003, 8.910351e-003
3.679514e+003, 9.103959e-003
3.681443e+003, 8.602029e-003
3.683371e+003, 7.656847e-003
3.685300e+003, 6.587268e-003
3.687228e+003, 6.871056e-003
3.689157e+003, 8.009866e-003
3.691085e+003, 8.026591e-003
3.693014e+003, 7.473418e-003
3.694942e+003, 6.646916e-003
3.696871e+003, 6.732921e-003
3.698799e+003, 7.088825e-003
3.700728e+003, 6.754845e-003
3.702656e+003, 6.763662e-003
3.704584e+003, 7.097570e-003
3.706513e+003, 7.529979e-003
3.708441e+003, 7.513651e-003
3.710370e+003, 7.672700e-003
3.712298e+003, 8.047379e-003
3.714227e+003, 7.038417e-003
3.716155e+003, 7.200129e-003
3.718084e+003, 6.875477e-003
3.720012e+003, 5.722687e-003
3.721941e+003, 6.087446e-003
3.723869e+003, 6.528602e-003
3.725798e+003, 6.305294e-003
3.727726e+003, 6.049549e-003
3.729655e+003, 6.853685e-003
3.731583e+003, 8.227864e-003
3.733511e+003, 8.005841e-003
3.735440e+003, 8.113217e-003
3.737368e+003, 7.906344e-003
3.739297e+003, 7.252060e-003
3.741225e+003, 6.690593e-003
3.743154e+003, 7.287945e-003
3.745082e+003, 7.811188e-003
3.747011e+003, 7.383129e-003
3.748939e+003, 7.798763e-003
3.750868e+003, 8.689151e-003
3.752796e+003, 7.756310e-003
3.754725e+003, 6.360617e-003
3.756653e+003, 6.166335e-003
3.758582e+003, 6.434290e-003
3.760510e+003, 6.608603e-003
3.762438e+003, 6.409854e-003
3.764367e+003, 6.515572e-003
3.766295e+003, 6.828533e-003
3.768224e+003, 6.971457e-003
3.770152e+003, 6.661169e-003
3.772081e+003, 6.393156e-003
3.774009e+003, 6.185285e-003
3.775938e+003, 5.598804e-003
3.777866e+003, 5.572774e-003
3.779795e+003, 6.134676e-003
3.781723e+003, 5.954314e-003
3.783652e+003, 6.084310e-003
3.785580e+003, 6.292007e-003
3.787509e+003, 6.224415e-003
3.789437e+003, 6.824595e-003
3.791365e+003, 7.266482e-003
3.793294e+003, 7.170575e-003
3.795222e+003, 6.391223e-003
3.797151e+003, 5.584052e-003
3.799079e+003, 6.021185e-003
3.801008e+003, 6.916763e-003
3.802936e+003, 6.037289e-003
3.804865e+003, 6.090838e-003
3.806793e+003, 7.337607e-003
3.808722e+003, 6.495546e-003
3.810650e+003, 6.094650e-003
3.812579e+003, 6.236450e-003
3.814507e+003, 6.377769e-003
3.816436e+003, 7.319103e-003
3.818364e+003, 6.765787e-003
3.820292e+003, 6.702987e-003
3.822221e+003, 7.047953e-003
3.824149e+003, 6.677058e-003
3.826078e+003, 5.817535e-003
3.828006e+003, 5.154025e-003
3.829935e+003, 5.996600e-003
3.831863e+003, 6.594412e-003
3.833792e+003, 6.422126e-003
3.835720e+003, 6.884340e-003
3.837649e+003, 7.536815e-003
3.839577e+003, 7.071268e-003
3.841506e+003, 6.159457e-003
3.843434e+003, 6.166128e-003
3.845363e+003, 6.173059e-003
3.847291e+003, 5.434218e-003
3.849219e+003, 5.661008e-003
3.851148e+003, 6.567133e-003
3.853076e+003, 7.305254e-003
3.855005e+003, 6.872138e-003
3.856933e+003, 5.713771e-003
3.858862e+003, 5.413747e-003
3.860790e+003, 5.540302e-003
3.862719e+003, 5.588914e-003
3.864647e+003, 6.763968e-003
3.866576e+003, 6.883631e-003
3.868504e+003, 6.687968e-003
3.870433e+003, 6.575556e-003
3.872361e+003, 6.232884e-003
3.874290e+003, 5.801055e-003
3.876218e+003, 5.416450e-003
3.878146e+003, 5.250664e-003
3.880075e+003, 5.462468e-003
3.882003e+003, 5.758396e-003
3.883932e+003, 6.469816e-003
3.885860e+003, 6.469668e-003
3.887789e+003, 5.464669e-003
3.889717e+003, 5.783030e-003
3.891646e+003, 6.466486e-003
3.893574e+003, 6.447675e-003
3.895503e+003, 5.672092e-003
3.897431e+003, 5.121462e-003
3.899360e+003, 5.466286e-003
3.901288e+003, 6.235332e-003
3.903217e+003, 5.844757e-003
3.905145e+003, 5.492570e-003
3.907073e+003, 5.812601e-003
3.909002e+003, 6.081271e-003
3.910930e+003, 6.052408e-003
3.912859e+003, 5.981101e-003
3.914787e+003, 5.410877e-003
3.916716e+003, 5.408985e-003
3.918644e+003, 5.588803e-003
3.920573e+003, 5.016236e-003
3.922501e+003, 5.144107e-003
3.924430e+003, 4.759968e-003
3.926358e+003, 4.821015e-003
3.928287e+003, 5.398458e-003
3.930215e+003, 5.645285e-003
3.932144e+003, 5.808325e-003
3.934072e+003, 4.989320e-003
3.936000e+003, 4.055646e-003
3.937929e+003, 4.111781e-003
3.939857e+003, 4.475392e-003
3.941786e+003, 4.770018e-003
3.943714e+003, 5.167077e-003
3.945643e+003, 5.727259e-003
3.947571e+003, 5.458682e-003
3.949500e+003, 4.750351e-003
3.951428e+003, 4.961041e-003
3.953357e+003, 5.394804e-003
3.955285e+003, 5.008337e-003
3.957214e+003, 5.353242e-003
3.959142e+003, 5.174001e-003
3.961071e+003, 4.771902e-003
3.962999e+003, 5.685130e-003
3.964927e+003, 5.689874e-003
3.966856e+003, 5.018506e-003
3.968784e+003, 5.216543e-003
3.970713e+003, 5.329932e-003
3.972641e+003, 5.366059e-003
3.974570e+003, 4.912305e-003
3.976498e+003, 4.486102e-003
3.978427e+003, 4.556079e-003
3.980355e+003, 4.821188e-003
3.982284e+003, 5.224493e-003
3.984212e+003, 5.626027e-003
3.986141e+003, 5.630208e-003
3.988069e+003, 5.144741e-003
3.989998e+003, 5.282749e-003
3.991926e+003, 5.136981e-003
3.993854e+003, 3.930491e-003
3.995783e+003, 4.362911e-003
3.997711e+003, 5.463303e-003
3.999640e+003, 5.487209e-003
##END=



