##NAMES=Dolomite
##RRUFFID=R050357
##IDEAL CHEMISTRY=CaMg(CO_3_)_2_
##LOCALITY=Black Rock, Lawrence County, Arkansas, USA
##OWNER=RRUFF
##SOURCE=California Institute of Technology
##DESCRIPTION=Aggregate of pale pink curved saddle-shaped crystals
##STATUS=The identification of this mineral has been confirmed by X-ray diffraction and chemical analysis
##URL=rruff.info/R050357
##MEASURED CHEMISTRY=Ca_1.00_(Mg_0.98_Fe^2+^_0.02_)_Î£=1_(CO_3_)_2_ ; CO_2_ estimated by difference
3.991926e+002, 9.641218e-002
4.011211e+002, 8.486505e-002
4.030496e+002, 8.527304e-002
4.049780e+002, 8.764713e-002
4.069065e+002, 8.197098e-002
4.088350e+002, 7.806240e-002
4.107634e+002, 7.808441e-002
4.126919e+002, 7.135649e-002
4.146204e+002, 6.752720e-002
4.165488e+002, 6.383017e-002
4.184773e+002, 5.771191e-002
4.204058e+002, 5.334408e-002
4.223342e+002, 4.956974e-002
4.242627e+002, 4.697716e-002
4.261912e+002, 4.422740e-002
4.281196e+002, 4.347309e-002
4.300481e+002, 4.087751e-002
4.319766e+002, 3.754953e-002
4.339050e+002, 3.768053e-002
4.358335e+002, 3.688062e-002
4.377620e+002, 3.353010e-002
4.396904e+002, 3.127424e-002
4.416189e+002, 2.929241e-002
4.435474e+002, 2.774122e-002
4.454758e+002, 2.777088e-002
4.474043e+002, 2.741691e-002
4.493328e+002, 2.598719e-002
4.512612e+002, 2.357969e-002
4.531897e+002, 2.259293e-002
4.551182e+002, 2.187987e-002
4.570466e+002, 2.096672e-002
4.589751e+002, 2.097904e-002
4.609036e+002, 1.989610e-002
4.628320e+002, 1.956179e-002
4.647605e+002, 1.949289e-002
4.666890e+002, 1.867361e-002
4.686174e+002, 1.745115e-002
4.705459e+002, 1.691478e-002
4.724744e+002, 1.690132e-002
4.744028e+002, 1.674855e-002
4.763313e+002, 1.640546e-002
4.782598e+002, 1.649205e-002
4.801882e+002, 1.621727e-002
4.821167e+002, 1.571828e-002
4.840452e+002, 1.562616e-002
4.859736e+002, 1.567240e-002
4.879021e+002, 1.575048e-002
4.898306e+002, 1.539614e-002
4.917590e+002, 1.520490e-002
4.936875e+002, 1.553465e-002
4.956160e+002, 1.599728e-002
4.975444e+002, 1.572835e-002
4.994729e+002, 1.537575e-002
5.014014e+002, 1.548996e-002
5.033298e+002, 1.519603e-002
5.052583e+002, 1.492108e-002
5.071868e+002, 1.465985e-002
5.091152e+002, 1.467128e-002
5.110437e+002, 1.488063e-002
5.129722e+002, 1.435930e-002
5.149006e+002, 1.341474e-002
5.168291e+002, 1.379325e-002
5.187576e+002, 1.406028e-002
5.206860e+002, 1.346726e-002
5.226145e+002, 1.296501e-002
5.245430e+002, 1.254671e-002
5.264714e+002, 1.250350e-002
5.283999e+002, 1.281937e-002
5.303284e+002, 1.275453e-002
5.322568e+002, 1.260331e-002
5.341853e+002, 1.258908e-002
5.361138e+002, 1.242405e-002
5.380422e+002, 1.195945e-002
5.399707e+002, 1.108204e-002
5.418992e+002, 1.111027e-002
5.438276e+002, 1.136569e-002
5.457561e+002, 1.167194e-002
5.476846e+002, 1.214887e-002
5.496130e+002, 1.133884e-002
5.515415e+002, 1.072978e-002
5.534700e+002, 1.096964e-002
5.553984e+002, 1.098238e-002
5.573269e+002, 1.053973e-002
5.592554e+002, 1.049162e-002
5.611838e+002, 1.052580e-002
5.631123e+002, 1.057593e-002
5.650408e+002, 1.088727e-002
5.669692e+002, 1.078329e-002
5.688977e+002, 1.018537e-002
5.708262e+002, 9.584201e-003
5.727546e+002, 9.144616e-003
5.746831e+002, 9.082597e-003
5.766116e+002, 9.372711e-003
5.785400e+002, 9.697380e-003
5.804685e+002, 9.759752e-003
5.823970e+002, 9.668863e-003
5.843254e+002, 9.789100e-003
5.862539e+002, 9.923019e-003
5.881824e+002, 9.679196e-003
5.901108e+002, 9.928276e-003
5.920393e+002, 9.540347e-003
5.939678e+002, 9.002656e-003
5.958962e+002, 8.981634e-003
5.978247e+002, 8.761447e-003
5.997532e+002, 9.056887e-003
6.016816e+002, 9.231944e-003
6.036101e+002, 9.571843e-003
6.055386e+002, 9.798422e-003
6.074670e+002, 9.238134e-003
6.093955e+002, 9.034276e-003
6.113240e+002, 9.160217e-003
6.132524e+002, 8.819968e-003
6.151809e+002, 8.697645e-003
6.171094e+002, 8.887233e-003
6.190378e+002, 8.879115e-003
6.209663e+002, 8.871221e-003
6.228948e+002, 9.034224e-003
6.248232e+002, 9.315051e-003
6.267517e+002, 9.605139e-003
6.286802e+002, 9.393315e-003
6.306086e+002, 9.084020e-003
6.325371e+002, 9.411421e-003
6.344656e+002, 9.804927e-003
6.363940e+002, 9.818233e-003
6.383225e+002, 9.791758e-003
6.402510e+002, 1.005318e-002
6.421794e+002, 1.036767e-002
6.441079e+002, 1.046460e-002
6.460364e+002, 1.056678e-002
6.479648e+002, 1.063915e-002
6.498933e+002, 1.023864e-002
6.518218e+002, 1.032884e-002
6.537502e+002, 1.048904e-002
6.556787e+002, 1.063479e-002
6.576072e+002, 1.074975e-002
6.595356e+002, 1.038103e-002
6.614641e+002, 1.018249e-002
6.633926e+002, 1.039540e-002
6.653210e+002, 1.073377e-002
6.672495e+002, 1.080406e-002
6.691780e+002, 1.070300e-002
6.711064e+002, 1.072519e-002
6.730349e+002, 1.083184e-002
6.749634e+002, 1.096076e-002
6.768918e+002, 1.119576e-002
6.788203e+002, 1.095324e-002
6.807488e+002, 1.111942e-002
6.826772e+002, 1.137368e-002
6.846057e+002, 1.160630e-002
6.865342e+002, 1.206008e-002
6.884626e+002, 1.218972e-002
6.903911e+002, 1.185115e-002
6.923196e+002, 1.174278e-002
6.942480e+002, 1.209395e-002
6.961765e+002, 1.253161e-002
6.981050e+002, 1.291368e-002
7.000334e+002, 1.353052e-002
7.019619e+002, 1.420426e-002
7.038904e+002, 1.502518e-002
7.058188e+002, 1.585889e-002
7.077473e+002, 1.668236e-002
7.096758e+002, 1.761419e-002
7.116042e+002, 1.885932e-002
7.135327e+002, 2.048770e-002
7.154612e+002, 2.258938e-002
7.173896e+002, 2.596046e-002
7.193181e+002, 3.105866e-002
7.212466e+002, 3.903149e-002
7.231750e+002, 5.195457e-002
7.251035e+002, 7.225829e-002
7.270320e+002, 9.460033e-002
7.289604e+002, 9.763341e-002
7.308889e+002, 7.413416e-002
7.328174e+002, 4.684383e-002
7.347458e+002, 2.969329e-002
7.366743e+002, 2.083152e-002
7.386028e+002, 1.632715e-002
7.405313e+002, 1.378566e-002
7.424597e+002, 1.211349e-002
7.443882e+002, 1.123936e-002
7.463167e+002, 1.076280e-002
7.482451e+002, 1.051557e-002
7.501736e+002, 1.009067e-002
7.521021e+002, 9.643479e-003
7.540305e+002, 9.432064e-003
7.559590e+002, 9.506926e-003
7.578875e+002, 9.421748e-003
7.598159e+002, 9.349651e-003
7.617444e+002, 9.522789e-003
7.636729e+002, 9.383027e-003
7.656013e+002, 9.121619e-003
7.675298e+002, 9.359578e-003
7.694583e+002, 9.476719e-003
7.713867e+002, 9.451197e-003
7.733152e+002, 9.574018e-003
7.752437e+002, 9.943904e-003
7.771721e+002, 9.963628e-003
7.791006e+002, 9.963677e-003
7.810291e+002, 1.028743e-002
7.829575e+002, 1.048865e-002
7.848860e+002, 1.057403e-002
7.868145e+002, 1.076737e-002
7.887429e+002, 1.074821e-002
7.906714e+002, 1.089800e-002
7.925999e+002, 1.093982e-002
7.945283e+002, 1.098934e-002
7.964568e+002, 1.114812e-002
7.983853e+002, 1.126419e-002
8.003137e+002, 1.142099e-002
8.022422e+002, 1.154758e-002
8.041707e+002, 1.156405e-002
8.060991e+002, 1.182208e-002
8.080276e+002, 1.205792e-002
8.099561e+002, 1.239326e-002
8.118845e+002, 1.288547e-002
8.138130e+002, 1.312464e-002
8.157415e+002, 1.330094e-002
8.176699e+002, 1.380741e-002
8.195984e+002, 1.409238e-002
8.215269e+002, 1.416854e-002
8.234553e+002, 1.456199e-002
8.253838e+002, 1.490303e-002
8.273123e+002, 1.509840e-002
8.292407e+002, 1.567059e-002
8.311692e+002, 1.637820e-002
8.330977e+002, 1.687087e-002
8.350261e+002, 1.749301e-002
8.369546e+002, 1.855537e-002
8.388831e+002, 1.968887e-002
8.408115e+002, 2.109277e-002
8.427400e+002, 2.233930e-002
8.446685e+002, 2.415778e-002
8.465969e+002, 2.750034e-002
8.485254e+002, 3.225753e-002
8.504539e+002, 4.014627e-002
8.523823e+002, 4.756802e-002
8.543108e+002, 4.359506e-002
8.562393e+002, 4.104968e-002
8.581677e+002, 4.698950e-002
8.600962e+002, 5.643758e-002
8.620247e+002, 6.907181e-002
8.639531e+002, 8.467534e-002
8.658816e+002, 1.048227e-001
8.678101e+002, 1.315334e-001
8.697385e+002, 1.645049e-001
8.716670e+002, 2.000505e-001
8.735955e+002, 2.300585e-001
8.755239e+002, 2.449138e-001
8.774524e+002, 2.457122e-001
8.793809e+002, 2.359031e-001
8.813093e+002, 2.173101e-001
8.832378e+002, 1.915798e-001
8.851663e+002, 1.609844e-001
8.870947e+002, 1.281038e-001
8.890232e+002, 9.644442e-002
8.909517e+002, 6.828361e-002
8.928801e+002, 4.560800e-002
8.948085e+002, 2.989545e-002
8.967370e+002, 2.136436e-002
8.986655e+002, 1.781329e-002
9.005939e+002, 1.635376e-002
9.025224e+002, 1.563551e-002
9.044509e+002, 1.532925e-002
9.063793e+002, 1.520686e-002
9.083078e+002, 1.496166e-002
9.102363e+002, 1.468980e-002
9.121647e+002, 1.473040e-002
9.140932e+002, 1.461414e-002
9.160217e+002, 1.450200e-002
9.179501e+002, 1.468060e-002
9.198786e+002, 1.475322e-002
9.218071e+002, 1.470080e-002
9.237355e+002, 1.457073e-002
9.256640e+002, 1.470053e-002
9.275925e+002, 1.496187e-002
9.295209e+002, 1.485635e-002
9.314494e+002, 1.492742e-002
9.333779e+002, 1.493311e-002
9.353063e+002, 1.473632e-002
9.372348e+002, 1.515185e-002
9.391633e+002, 1.567119e-002
9.410917e+002, 1.576828e-002
9.430202e+002, 1.591485e-002
9.449487e+002, 1.617835e-002
9.468771e+002, 1.635848e-002
9.488056e+002, 1.645903e-002
9.507341e+002, 1.654428e-002
9.526625e+002, 1.650757e-002
9.545910e+002, 1.674350e-002
9.565195e+002, 1.697637e-002
9.584479e+002, 1.718140e-002
9.603764e+002, 1.752542e-002
9.623049e+002, 1.781155e-002
9.642333e+002, 1.798859e-002
9.661618e+002, 1.827492e-002
9.680903e+002, 1.839288e-002
9.700187e+002, 1.852526e-002
9.719472e+002, 1.895577e-002
9.738757e+002, 1.924632e-002
9.758041e+002, 1.935655e-002
9.777326e+002, 1.943074e-002
9.796611e+002, 1.953170e-002
9.815895e+002, 1.972095e-002
9.835180e+002, 2.008215e-002
9.854465e+002, 2.067241e-002
9.873749e+002, 2.071272e-002
9.893034e+002, 2.052223e-002
9.912319e+002, 2.082183e-002
9.931603e+002, 2.121245e-002
9.950888e+002, 2.144864e-002
9.970173e+002, 2.149080e-002
9.989457e+002, 2.152850e-002
1.000874e+003, 2.182639e-002
1.002803e+003, 2.220237e-002
1.004731e+003, 2.273239e-002
1.006660e+003, 2.308261e-002
1.008588e+003, 2.311788e-002
1.010517e+003, 2.343159e-002
1.012445e+003, 2.381232e-002
1.014373e+003, 2.402014e-002
1.016302e+003, 2.417731e-002
1.018230e+003, 2.463827e-002
1.020159e+003, 2.515686e-002
1.022087e+003, 2.554600e-002
1.024016e+003, 2.556528e-002
1.025944e+003, 2.566938e-002
1.027873e+003, 2.589567e-002
1.029801e+003, 2.593304e-002
1.031730e+003, 2.622109e-002
1.033658e+003, 2.659886e-002
1.035587e+003, 2.676529e-002
1.037515e+003, 2.704687e-002
1.039444e+003, 2.732713e-002
1.041372e+003, 2.771573e-002
1.043301e+003, 2.789016e-002
1.045229e+003, 2.790871e-002
1.047157e+003, 2.786590e-002
1.049086e+003, 2.750785e-002
1.051014e+003, 2.747711e-002
1.052943e+003, 2.790881e-002
1.054871e+003, 2.838909e-002
1.056800e+003, 2.878073e-002
1.058728e+003, 2.907257e-002
1.060657e+003, 2.932245e-002
1.062585e+003, 2.948774e-002
1.064514e+003, 2.978110e-002
1.066442e+003, 3.017714e-002
1.068371e+003, 3.054526e-002
1.070299e+003, 3.099038e-002
1.072228e+003, 3.129595e-002
1.074156e+003, 3.157597e-002
1.076084e+003, 3.184788e-002
1.078013e+003, 3.231198e-002
1.079941e+003, 3.273949e-002
1.081870e+003, 3.302175e-002
1.083798e+003, 3.324923e-002
1.085727e+003, 3.378088e-002
1.087655e+003, 3.427946e-002
1.089584e+003, 3.456777e-002
1.091512e+003, 3.481824e-002
1.093441e+003, 3.511337e-002
1.095369e+003, 3.553762e-002
1.097298e+003, 3.632180e-002
1.099226e+003, 3.691279e-002
1.101155e+003, 3.679268e-002
1.103083e+003, 3.657243e-002
1.105011e+003, 3.649062e-002
1.106940e+003, 3.631529e-002
1.108868e+003, 3.651944e-002
1.110797e+003, 3.697360e-002
1.112725e+003, 3.703222e-002
1.114654e+003, 3.705151e-002
1.116582e+003, 3.747457e-002
1.118511e+003, 3.802632e-002
1.120439e+003, 3.837010e-002
1.122368e+003, 3.871287e-002
1.124296e+003, 3.896923e-002
1.126225e+003, 3.935611e-002
1.128153e+003, 3.962420e-002
1.130082e+003, 3.981033e-002
1.132010e+003, 4.021226e-002
1.133938e+003, 4.057797e-002
1.135867e+003, 4.108275e-002
1.137795e+003, 4.171601e-002
1.139724e+003, 4.238671e-002
1.141652e+003, 4.284657e-002
1.143581e+003, 4.323231e-002
1.145509e+003, 4.356739e-002
1.147438e+003, 4.391849e-002
1.149366e+003, 4.425194e-002
1.151295e+003, 4.494557e-002
1.153223e+003, 4.575569e-002
1.155152e+003, 4.624151e-002
1.157080e+003, 4.667231e-002
1.159009e+003, 4.711301e-002
1.160937e+003, 4.782050e-002
1.162865e+003, 4.868720e-002
1.164794e+003, 4.944902e-002
1.166722e+003, 5.005910e-002
1.168651e+003, 5.067021e-002
1.170579e+003, 5.119120e-002
1.172508e+003, 5.205304e-002
1.174436e+003, 5.311382e-002
1.176365e+003, 5.369344e-002
1.178293e+003, 5.424301e-002
1.180222e+003, 5.517789e-002
1.182150e+003, 5.603976e-002
1.184079e+003, 5.683845e-002
1.186007e+003, 5.777268e-002
1.187936e+003, 5.841490e-002
1.189864e+003, 5.882891e-002
1.191792e+003, 5.938006e-002
1.193721e+003, 6.005205e-002
1.195649e+003, 6.055103e-002
1.197578e+003, 6.099392e-002
1.199506e+003, 6.164775e-002
1.201435e+003, 6.261770e-002
1.203363e+003, 6.325521e-002
1.205292e+003, 6.390886e-002
1.207220e+003, 6.503853e-002
1.209149e+003, 6.612179e-002
1.211077e+003, 6.730440e-002
1.213006e+003, 6.840867e-002
1.214934e+003, 6.946234e-002
1.216863e+003, 7.090099e-002
1.218791e+003, 7.193145e-002
1.220719e+003, 7.292245e-002
1.222648e+003, 7.401162e-002
1.224576e+003, 7.539035e-002
1.226505e+003, 7.687701e-002
1.228433e+003, 7.783917e-002
1.230362e+003, 7.849645e-002
1.232290e+003, 7.960515e-002
1.234219e+003, 8.071035e-002
1.236147e+003, 8.177405e-002
1.238076e+003, 8.301160e-002
1.240004e+003, 8.404715e-002
1.241933e+003, 8.533796e-002
1.243861e+003, 8.680835e-002
1.245790e+003, 8.814381e-002
1.247718e+003, 8.952711e-002
1.249646e+003, 9.084611e-002
1.251575e+003, 9.226921e-002
1.253503e+003, 9.349491e-002
1.255432e+003, 9.482039e-002
1.257360e+003, 9.639513e-002
1.259289e+003, 9.811229e-002
1.261217e+003, 1.001318e-001
1.263146e+003, 1.017577e-001
1.265074e+003, 1.030239e-001
1.267003e+003, 1.047728e-001
1.268931e+003, 1.068248e-001
1.270860e+003, 1.087994e-001
1.272788e+003, 1.110897e-001
1.274717e+003, 1.134282e-001
1.276645e+003, 1.154094e-001
1.278573e+003, 1.172091e-001
1.280502e+003, 1.194891e-001
1.282430e+003, 1.217916e-001
1.284359e+003, 1.237770e-001
1.286287e+003, 1.256449e-001
1.288216e+003, 1.276758e-001
1.290144e+003, 1.297829e-001
1.292073e+003, 1.322407e-001
1.294001e+003, 1.348052e-001
1.295930e+003, 1.374897e-001
1.297858e+003, 1.402353e-001
1.299787e+003, 1.426340e-001
1.301715e+003, 1.450071e-001
1.303644e+003, 1.476281e-001
1.305572e+003, 1.505503e-001
1.307500e+003, 1.533611e-001
1.309429e+003, 1.561019e-001
1.311357e+003, 1.591390e-001
1.313286e+003, 1.624361e-001
1.315214e+003, 1.656971e-001
1.317143e+003, 1.694033e-001
1.319071e+003, 1.733133e-001
1.321000e+003, 1.768594e-001
1.322928e+003, 1.804635e-001
1.324857e+003, 1.843379e-001
1.326785e+003, 1.885142e-001
1.328714e+003, 1.926842e-001
1.330642e+003, 1.966766e-001
1.332571e+003, 2.012702e-001
1.334499e+003, 2.060587e-001
1.336427e+003, 2.102955e-001
1.338356e+003, 2.147565e-001
1.340284e+003, 2.194364e-001
1.342213e+003, 2.243954e-001
1.344141e+003, 2.297011e-001
1.346070e+003, 2.349492e-001
1.347998e+003, 2.403318e-001
1.349927e+003, 2.462714e-001
1.351855e+003, 2.526284e-001
1.353784e+003, 2.587287e-001
1.355712e+003, 2.651282e-001
1.357641e+003, 2.720307e-001
1.359569e+003, 2.793982e-001
1.361498e+003, 2.868717e-001
1.363426e+003, 2.944259e-001
1.365354e+003, 3.021107e-001
1.367283e+003, 3.096740e-001
1.369211e+003, 3.174947e-001
1.371140e+003, 3.258319e-001
1.373068e+003, 3.345160e-001
1.374997e+003, 3.431404e-001
1.376925e+003, 3.516702e-001
1.378854e+003, 3.606287e-001
1.380782e+003, 3.695755e-001
1.382711e+003, 3.783531e-001
1.384639e+003, 3.874892e-001
1.386568e+003, 3.968425e-001
1.388496e+003, 4.071865e-001
1.390424e+003, 4.184672e-001
1.392353e+003, 4.300529e-001
1.394281e+003, 4.420827e-001
1.396210e+003, 4.538510e-001
1.398138e+003, 4.653973e-001
1.400067e+003, 4.762840e-001
1.401995e+003, 4.864755e-001
1.403924e+003, 4.955784e-001
1.405852e+003, 5.022430e-001
1.407781e+003, 5.072044e-001
1.409709e+003, 5.130600e-001
1.411638e+003, 5.202627e-001
1.413566e+003, 5.277026e-001
1.415495e+003, 5.337757e-001
1.417423e+003, 5.375581e-001
1.419351e+003, 5.390491e-001
1.421280e+003, 5.378289e-001
1.423208e+003, 5.343411e-001
1.425137e+003, 5.296425e-001
1.427065e+003, 5.235725e-001
1.428994e+003, 5.161226e-001
1.430922e+003, 5.067580e-001
1.432851e+003, 4.966709e-001
1.434779e+003, 4.864155e-001
1.436708e+003, 4.758547e-001
1.438636e+003, 4.648737e-001
1.440565e+003, 4.544117e-001
1.442493e+003, 4.447768e-001
1.444422e+003, 4.357806e-001
1.446350e+003, 4.269542e-001
1.448278e+003, 4.178592e-001
1.450207e+003, 4.086626e-001
1.452135e+003, 3.997601e-001
1.454064e+003, 3.905033e-001
1.455992e+003, 3.817795e-001
1.457921e+003, 3.730827e-001
1.459849e+003, 3.638965e-001
1.461778e+003, 3.546670e-001
1.463706e+003, 3.458566e-001
1.465635e+003, 3.370464e-001
1.467563e+003, 3.283011e-001
1.469492e+003, 3.201565e-001
1.471420e+003, 3.128194e-001
1.473349e+003, 3.054963e-001
1.475277e+003, 2.979924e-001
1.477205e+003, 2.900870e-001
1.479134e+003, 2.827393e-001
1.481062e+003, 2.760194e-001
1.482991e+003, 2.691962e-001
1.484919e+003, 2.621023e-001
1.486848e+003, 2.553589e-001
1.488776e+003, 2.489365e-001
1.490705e+003, 2.423239e-001
1.492633e+003, 2.357807e-001
1.494562e+003, 2.298297e-001
1.496490e+003, 2.234934e-001
1.498419e+003, 2.166682e-001
1.500347e+003, 2.101633e-001
1.502276e+003, 2.038046e-001
1.504204e+003, 1.980666e-001
1.506132e+003, 1.925355e-001
1.508061e+003, 1.861977e-001
1.509989e+003, 1.796476e-001
1.511918e+003, 1.734554e-001
1.513846e+003, 1.676227e-001
1.515775e+003, 1.615812e-001
1.517703e+003, 1.555573e-001
1.519632e+003, 1.499016e-001
1.521560e+003, 1.444694e-001
1.523489e+003, 1.389313e-001
1.525417e+003, 1.336542e-001
1.527346e+003, 1.284447e-001
1.529274e+003, 1.231346e-001
1.531203e+003, 1.179332e-001
1.533131e+003, 1.132344e-001
1.535059e+003, 1.081886e-001
1.536988e+003, 1.033461e-001
1.538916e+003, 9.882046e-002
1.540845e+003, 9.418035e-002
1.542773e+003, 8.948764e-002
1.544702e+003, 8.464165e-002
1.546630e+003, 8.017039e-002
1.548559e+003, 7.597213e-002
1.550487e+003, 7.146142e-002
1.552416e+003, 6.698263e-002
1.554344e+003, 6.293895e-002
1.556273e+003, 5.854977e-002
1.558201e+003, 5.431481e-002
1.560130e+003, 4.989027e-002
1.562058e+003, 4.489518e-002
1.563986e+003, 3.982746e-002
1.565915e+003, 3.496498e-002
1.567843e+003, 3.039612e-002
1.569772e+003, 2.603495e-002
1.571700e+003, 2.182454e-002
1.573629e+003, 1.840057e-002
1.575557e+003, 1.639428e-002
1.577486e+003, 1.478446e-002
1.579414e+003, 1.320595e-002
1.581343e+003, 1.206651e-002
1.583271e+003, 1.125684e-002
1.585200e+003, 1.093097e-002
1.587128e+003, 1.061986e-002
1.589057e+003, 1.041085e-002
1.590985e+003, 1.083719e-002
1.592913e+003, 1.111110e-002
1.594842e+003, 1.105942e-002
1.596770e+003, 1.081764e-002
1.598699e+003, 1.075598e-002
1.600627e+003, 1.065418e-002
1.602556e+003, 1.055967e-002
1.604484e+003, 1.027045e-002
1.606413e+003, 1.004240e-002
1.608341e+003, 9.916179e-003
1.610270e+003, 9.493098e-003
1.612198e+003, 8.937055e-003
1.614127e+003, 8.484316e-003
1.616055e+003, 8.416411e-003
1.617984e+003, 8.099631e-003
1.619912e+003, 7.292381e-003
1.621840e+003, 6.563266e-003
1.623769e+003, 6.229354e-003
1.625697e+003, 6.164043e-003
1.627626e+003, 5.812280e-003
1.629554e+003, 5.438737e-003
1.631483e+003, 5.311559e-003
1.633411e+003, 5.942794e-003
1.635340e+003, 6.491294e-003
1.637268e+003, 6.279390e-003
1.639197e+003, 5.871179e-003
1.641125e+003, 5.726120e-003
1.643054e+003, 5.757106e-003
1.644982e+003, 5.834967e-003
1.646911e+003, 6.067081e-003
1.648839e+003, 5.834163e-003
1.650767e+003, 5.757944e-003
1.652696e+003, 6.018534e-003
1.654624e+003, 5.495504e-003
1.656553e+003, 4.874750e-003
1.658481e+003, 4.590024e-003
1.660410e+003, 4.564687e-003
1.662338e+003, 4.429156e-003
1.664267e+003, 4.114948e-003
1.666195e+003, 3.998852e-003
1.668124e+003, 3.989253e-003
1.670052e+003, 4.029198e-003
1.671981e+003, 4.071622e-003
1.673909e+003, 4.200428e-003
1.675838e+003, 3.982408e-003
1.677766e+003, 3.479463e-003
1.679694e+003, 3.651078e-003
1.681623e+003, 3.961310e-003
1.683551e+003, 4.397844e-003
1.685480e+003, 4.317319e-003
1.687408e+003, 3.742864e-003
1.689337e+003, 3.543054e-003
1.691265e+003, 3.320262e-003
1.693194e+003, 3.219796e-003
1.695122e+003, 3.778152e-003
1.697051e+003, 3.672811e-003
1.698979e+003, 3.617357e-003
1.700908e+003, 3.190710e-003
1.702836e+003, 2.442864e-003
1.704765e+003, 2.214839e-003
1.706693e+003, 2.269528e-003
1.708621e+003, 2.399704e-003
1.710550e+003, 1.982840e-003
1.712478e+003, 1.933589e-003
1.714407e+003, 2.489157e-003
1.716335e+003, 3.075962e-003
1.718264e+003, 2.828092e-003
1.720192e+003, 1.972015e-003
1.722121e+003, 1.707781e-003
1.724049e+003, 1.880907e-003
1.725978e+003, 1.969014e-003
1.727906e+003, 1.877997e-003
1.729835e+003, 1.701874e-003
1.731763e+003, 1.630564e-003
1.733692e+003, 1.715916e-003
1.735620e+003, 1.505339e-003
1.737548e+003, 1.154049e-003
1.739477e+003, 8.745544e-004
1.741405e+003, 5.097763e-004
1.743334e+003, 4.525405e-004
1.745262e+003, -7.112760e-006
1.747191e+003, -2.345400e-004
1.749119e+003, 3.839356e-004
1.751048e+003, 5.438352e-004
1.752976e+003, 3.425936e-004
1.754905e+003, 1.635853e-004
1.756833e+003, 3.612846e-004
1.758762e+003, 8.257350e-004
1.760690e+003, 1.541522e-003
1.762619e+003, 1.625201e-003
1.764547e+003, 1.579698e-003
1.766475e+003, 1.841411e-003
1.768404e+003, 1.911968e-003
1.770332e+003, 2.142837e-003
1.772261e+003, 2.456977e-003
1.774189e+003, 2.078891e-003
1.776118e+003, 1.639418e-003
1.778046e+003, 1.581747e-003
1.779975e+003, 2.109088e-003
1.781903e+003, 2.966084e-003
1.783832e+003, 3.321454e-003
1.785760e+003, 3.570206e-003
1.787689e+003, 3.857841e-003
1.789617e+003, 4.094806e-003
1.791546e+003, 4.723906e-003
1.793474e+003, 5.478003e-003
1.795402e+003, 5.950842e-003
1.797331e+003, 5.855945e-003
1.799259e+003, 6.283403e-003
1.801188e+003, 7.119495e-003
1.803116e+003, 7.690376e-003
1.805045e+003, 7.792224e-003
1.806973e+003, 8.529010e-003
1.808902e+003, 9.774601e-003
1.810830e+003, 1.068812e-002
1.812759e+003, 1.046172e-002
1.814687e+003, 1.057071e-002
1.816616e+003, 1.154189e-002
1.818544e+003, 1.171417e-002
1.820473e+003, 1.104091e-002
1.822401e+003, 1.018499e-002
1.824329e+003, 9.840707e-003
1.826258e+003, 9.252874e-003
1.828186e+003, 7.950737e-003
1.830115e+003, 6.063940e-003
1.832043e+003, 4.540952e-003
1.833972e+003, 4.163185e-003
1.835900e+003, 3.439848e-003
1.837829e+003, 2.623020e-003
1.839757e+003, 3.074564e-003
1.841686e+003, 2.978616e-003
1.843614e+003, 1.943254e-003
1.845543e+003, 1.848624e-003
1.847471e+003, 1.215225e-003
1.849400e+003, 1.483072e-003
1.851328e+003, 2.227650e-003
1.853256e+003, 2.315197e-003
1.855185e+003, 1.686219e-003
1.857113e+003, 1.390382e-003
1.859042e+003, 1.678306e-003
1.860970e+003, 1.665156e-003
1.862899e+003, 1.431071e-003
1.864827e+003, 1.415036e-003
1.866756e+003, 1.770065e-003
1.868684e+003, 2.601772e-003
1.870613e+003, 2.277146e-003
1.872541e+003, 1.325862e-003
1.874470e+003, 7.503089e-004
1.876398e+003, 4.945470e-004
1.878327e+003, 1.207473e-003
1.880255e+003, 2.011540e-003
1.882183e+003, 1.639393e-003
1.884112e+003, 1.293224e-003
1.886040e+003, 1.330475e-003
1.887969e+003, 1.976148e-003
1.889897e+003, 1.564044e-003
1.891826e+003, 7.300267e-004
1.893754e+003, 1.441197e-003
1.895683e+003, 2.445934e-003
1.897611e+003, 2.261967e-003
1.899540e+003, 1.445789e-003
1.901468e+003, 5.913718e-004
1.903397e+003, 1.159989e-003
1.905325e+003, 1.731477e-003
1.907254e+003, 2.249952e-003
1.909182e+003, 2.708738e-003
1.911110e+003, 2.715159e-003
1.913039e+003, 1.348378e-003
1.914967e+003, -3.011455e-004
1.916896e+003, -4.688591e-004
1.918824e+003, 6.894750e-004
1.920753e+003, 5.845684e-004
1.922681e+003, 9.216364e-004
1.924610e+003, 1.454777e-003
1.926538e+003, 6.960800e-004
1.928467e+003, 7.763996e-004
1.930395e+003, 9.777782e-004
1.932324e+003, 1.368384e-003
1.934252e+003, 1.032797e-003
1.936181e+003, 1.127252e-004
1.938109e+003, 5.628609e-004
1.940037e+003, 7.888433e-004
1.941966e+003, 5.670073e-004
1.943894e+003, 1.132169e-003
1.945823e+003, 6.457501e-004
1.947751e+003, -2.973336e-004
1.949680e+003, 2.387335e-004
1.951608e+003, 1.640318e-003
1.953537e+003, 2.347909e-003
1.955465e+003, 2.661695e-003
1.957394e+003, 5.558710e-004
1.959322e+003, -2.465601e-003
1.961251e+003, -2.166284e-003
1.963179e+003, -8.674298e-004
1.965108e+003, -3.489929e-005
1.967036e+003, -1.154657e-003
1.968964e+003, -1.410233e-003
1.970893e+003, -4.450592e-004
1.972821e+003, 6.571958e-004
1.974750e+003, 5.452827e-004
1.976678e+003, -5.383548e-005
1.978607e+003, 1.273382e-003
1.980535e+003, 4.969729e-003
1.982464e+003, 5.255931e-003
1.984392e+003, 3.543359e-003
1.986321e+003, 1.903093e-003
1.988249e+003, 2.141274e-003
1.990178e+003, 2.516077e-004
1.992106e+003, -7.874954e-004
1.994035e+003, -3.358369e-004
1.995963e+003, 3.774446e-004
1.997891e+003, 1.449959e-003
1.999820e+003, 2.151676e-003
2.001748e+003, 1.498667e-003
2.003677e+003, 1.814002e-003
2.005605e+003, 1.669457e-003
2.007534e+003, 1.883353e-003
2.009462e+003, 5.384784e-004
2.011391e+003, -1.157931e-003
2.013319e+003, 1.886078e-004
2.015248e+003, 1.386577e-003
2.017176e+003, 9.131376e-004
2.019105e+003, -6.572576e-004
2.021033e+003, -6.769899e-005
2.022962e+003, 9.749397e-004
2.024890e+003, 9.886310e-004
2.026818e+003, 3.213362e-004
2.028747e+003, 1.815884e-003
2.030675e+003, 3.322163e-003
2.032604e+003, 3.774337e-004
2.034532e+003, -1.160751e-003
2.036461e+003, 7.143888e-004
2.038389e+003, -6.636701e-004
2.040318e+003, -2.385640e-003
2.042246e+003, -1.817117e-003
2.044175e+003, -4.721004e-004
2.046103e+003, 2.598335e-003
2.048032e+003, 4.008662e-003
2.049960e+003, 3.379213e-003
2.051889e+003, 1.553300e-003
2.053817e+003, 1.468052e-003
2.055746e+003, 3.900472e-003
2.057674e+003, 4.505566e-003
2.059603e+003, 2.981791e-003
2.061531e+003, 2.433388e-003
2.063459e+003, 2.569429e-003
2.065388e+003, 2.788251e-003
2.067316e+003, 2.447704e-003
2.069245e+003, 1.737062e-003
2.071173e+003, 2.759576e-003
2.073102e+003, 3.816056e-003
2.075030e+003, 3.162526e-003
2.076959e+003, 2.357273e-003
2.078887e+003, 2.192969e-003
2.080816e+003, 2.625614e-003
2.082744e+003, 2.346058e-003
2.084673e+003, 2.989048e-003
2.086601e+003, 3.238720e-003
2.088530e+003, 3.111645e-003
2.090458e+003, 3.266674e-003
2.092386e+003, 2.877415e-003
2.094315e+003, 2.842755e-003
2.096243e+003, 4.584993e-003
2.098172e+003, 5.416940e-003
2.100100e+003, 5.023568e-003
2.102029e+003, 3.537058e-003
2.103957e+003, 3.067618e-003
2.105886e+003, 3.279227e-003
2.107814e+003, 1.982750e-003
2.109743e+003, 1.528263e-003
2.111671e+003, 1.517325e-003
2.113600e+003, 1.988613e-003
2.115528e+003, 3.078159e-003
2.117457e+003, 2.569122e-003
2.119385e+003, 2.440842e-003
2.121313e+003, 3.732800e-003
2.123242e+003, 3.637235e-003
2.125170e+003, 2.785964e-003
2.127099e+003, 1.922139e-003
2.129027e+003, 1.718832e-003
2.130956e+003, 2.296451e-003
2.132884e+003, 8.694501e-004
2.134813e+003, -1.275323e-003
2.136741e+003, -7.093459e-004
2.138670e+003, 2.375236e-003
2.140598e+003, 1.433753e-003
2.142527e+003, -1.431700e-003
2.144455e+003, -2.553250e-003
2.146384e+003, -2.642494e-003
2.148312e+003, -1.973077e-003
2.150240e+003, -2.242557e-003
2.152169e+003, -3.058968e-003
2.154097e+003, -4.056723e-003
2.156026e+003, -5.158650e-003
2.157954e+003, -3.485156e-003
2.159883e+003, 7.628421e-004
2.161811e+003, 2.969150e-003
2.163740e+003, 5.510539e-004
2.165668e+003, 3.832623e-004
2.167597e+003, 2.561611e-003
2.169525e+003, 2.618817e-003
2.171454e+003, 2.602964e-003
2.173382e+003, 3.454725e-003
2.175311e+003, 3.526301e-003
2.177239e+003, 3.081022e-003
2.179167e+003, 4.560149e-003
2.181096e+003, 5.647168e-003
2.183024e+003, 2.985660e-003
2.184953e+003, 2.803486e-003
2.186881e+003, 3.316127e-003
2.188810e+003, 4.026788e-003
2.190738e+003, 4.108411e-003
2.192667e+003, 1.977748e-003
2.194595e+003, 1.840031e-003
2.196524e+003, 3.980317e-003
2.198452e+003, 6.857955e-003
2.200381e+003, 7.651866e-003
2.202309e+003, 5.438668e-003
2.204238e+003, 3.173159e-003
2.206166e+003, 3.913305e-003
2.208094e+003, 3.484937e-003
2.210023e+003, 2.692962e-003
2.211951e+003, 2.004911e-003
2.213880e+003, 6.152033e-004
2.215808e+003, 1.028411e-003
2.217737e+003, 2.350045e-003
2.219665e+003, 1.838354e-003
2.221594e+003, 2.229952e-003
2.223522e+003, 2.216380e-003
2.225451e+003, 2.105526e-003
2.227379e+003, 2.974438e-003
2.229308e+003, 3.885602e-003
2.231236e+003, 4.017088e-003
2.233165e+003, 5.278402e-003
2.235093e+003, 4.468095e-003
2.237021e+003, 2.651534e-003
2.238950e+003, 3.132774e-003
2.240878e+003, 5.292155e-003
2.242807e+003, 6.479997e-003
2.244735e+003, 4.741228e-003
2.246664e+003, 4.157893e-003
2.248592e+003, 4.692177e-003
2.250521e+003, 3.196095e-003
2.252449e+003, 2.437255e-003
2.254378e+003, 3.964398e-003
2.256306e+003, 5.482547e-003
2.258235e+003, 4.311419e-003
2.260163e+003, 3.335646e-003
2.262092e+003, 4.211135e-003
2.264020e+003, 4.835106e-003
2.265948e+003, 5.191262e-003
2.267877e+003, 5.357957e-003
2.269805e+003, 6.365870e-003
2.271734e+003, 5.917509e-003
2.273662e+003, 4.046873e-003
2.275591e+003, 4.023202e-003
2.277519e+003, 4.170057e-003
2.279448e+003, 4.567082e-003
2.281376e+003, 5.515871e-003
2.283305e+003, 5.893460e-003
2.285233e+003, 6.066407e-003
2.287162e+003, 5.805686e-003
2.289090e+003, 4.653153e-003
2.291019e+003, 4.580427e-003
2.292947e+003, 5.000953e-003
2.294875e+003, 5.316930e-003
2.296804e+003, 5.173363e-003
2.298732e+003, 4.368235e-003
2.300661e+003, 4.226131e-003
2.302589e+003, 5.688231e-003
2.304518e+003, 6.215712e-003
2.306446e+003, 5.652798e-003
2.308375e+003, 4.822152e-003
2.310303e+003, 4.706656e-003
2.312232e+003, 5.568979e-003
2.314160e+003, 6.001642e-003
2.316089e+003, 6.471036e-003
2.318017e+003, 6.620215e-003
2.319946e+003, 6.781415e-003
2.321874e+003, 7.957809e-003
2.323802e+003, 8.755232e-003
2.325731e+003, 7.090695e-003
2.327659e+003, 6.012056e-003
2.329588e+003, 6.505567e-003
2.331516e+003, 6.602704e-003
2.333445e+003, 5.735375e-003
2.335373e+003, 5.625104e-003
2.337302e+003, 5.590267e-003
2.339230e+003, 5.360630e-003
2.341159e+003, 5.574376e-003
2.343087e+003, 5.761729e-003
2.345016e+003, 5.719119e-003
2.346944e+003, 5.324134e-003
2.348873e+003, 5.130906e-003
2.350801e+003, 4.870082e-003
2.352729e+003, 5.610235e-003
2.354658e+003, 6.481512e-003
2.356586e+003, 6.076402e-003
2.358515e+003, 5.529978e-003
2.360443e+003, 5.965900e-003
2.362372e+003, 5.986836e-003
2.364300e+003, 4.948347e-003
2.366229e+003, 5.092388e-003
2.368157e+003, 6.145547e-003
2.370086e+003, 6.073449e-003
2.372014e+003, 5.491226e-003
2.373942e+003, 5.334619e-003
2.375871e+003, 5.198109e-003
2.377799e+003, 4.632598e-003
2.379728e+003, 4.498628e-003
2.381656e+003, 4.584785e-003
2.383585e+003, 3.746607e-003
2.385513e+003, 3.855547e-003
2.387442e+003, 4.342485e-003
2.389370e+003, 4.133029e-003
2.391299e+003, 4.712782e-003
2.393227e+003, 4.255386e-003
2.395156e+003, 3.299669e-003
2.397084e+003, 3.487991e-003
2.399012e+003, 4.980343e-003
2.400941e+003, 5.176526e-003
2.402869e+003, 5.279024e-003
2.404798e+003, 5.472037e-003
2.406726e+003, 5.656408e-003
2.408655e+003, 4.591387e-003
2.410583e+003, 4.575488e-003
2.412512e+003, 4.950057e-003
2.414440e+003, 4.109410e-003
2.416369e+003, 3.911765e-003
2.418297e+003, 4.363284e-003
2.420226e+003, 5.221488e-003
2.422154e+003, 5.235651e-003
2.424083e+003, 4.721561e-003
2.426011e+003, 5.232194e-003
2.427939e+003, 5.130690e-003
2.429868e+003, 4.069392e-003
2.431796e+003, 3.294456e-003
2.433725e+003, 3.255572e-003
2.435653e+003, 3.851129e-003
2.437582e+003, 4.330928e-003
2.439510e+003, 4.312441e-003
2.441439e+003, 5.360264e-003
2.443367e+003, 5.176715e-003
2.445296e+003, 4.495394e-003
2.447224e+003, 4.969630e-003
2.449153e+003, 4.708604e-003
2.451081e+003, 4.761748e-003
2.453010e+003, 6.348412e-003
2.454938e+003, 5.905241e-003
2.456866e+003, 3.936390e-003
2.458795e+003, 4.001218e-003
2.460723e+003, 5.696342e-003
2.462652e+003, 5.100488e-003
2.464580e+003, 4.817257e-003
2.466509e+003, 5.292186e-003
2.468437e+003, 5.512846e-003
2.470366e+003, 5.611197e-003
2.472294e+003, 5.063420e-003
2.474223e+003, 5.010866e-003
2.476151e+003, 4.880093e-003
2.478080e+003, 4.792424e-003
2.480008e+003, 3.868892e-003
2.481937e+003, 4.401725e-003
2.483865e+003, 5.614144e-003
2.485793e+003, 5.724153e-003
2.487722e+003, 6.549201e-003
2.489650e+003, 5.934576e-003
2.491579e+003, 6.336782e-003
2.493507e+003, 7.298567e-003
2.495436e+003, 7.156466e-003
2.497364e+003, 7.129428e-003
2.499293e+003, 8.030984e-003
2.501221e+003, 8.430243e-003
2.503150e+003, 8.510635e-003
2.505078e+003, 8.259897e-003
2.507007e+003, 7.999284e-003
2.508935e+003, 8.887286e-003
2.510864e+003, 1.027383e-002
2.512792e+003, 1.042134e-002
2.514720e+003, 1.033495e-002
2.516649e+003, 1.195147e-002
2.518577e+003, 1.280810e-002
2.520506e+003, 1.371125e-002
2.522434e+003, 1.424954e-002
2.524363e+003, 1.435204e-002
2.526291e+003, 1.384257e-002
2.528220e+003, 1.300877e-002
2.530148e+003, 1.365352e-002
2.532077e+003, 1.469354e-002
2.534005e+003, 1.355217e-002
2.535934e+003, 1.237160e-002
2.537862e+003, 1.370025e-002
2.539791e+003, 1.422151e-002
2.541719e+003, 1.254513e-002
2.543647e+003, 1.069873e-002
2.545576e+003, 1.050425e-002
2.547504e+003, 1.071291e-002
2.549433e+003, 1.131560e-002
2.551361e+003, 1.180150e-002
2.553290e+003, 1.151222e-002
2.555218e+003, 1.078117e-002
2.557147e+003, 1.096223e-002
2.559075e+003, 1.021033e-002
2.561004e+003, 8.895247e-003
2.562932e+003, 7.955247e-003
2.564861e+003, 7.285331e-003
2.566789e+003, 7.355358e-003
2.568718e+003, 6.818606e-003
2.570646e+003, 6.077886e-003
2.572574e+003, 5.777634e-003
2.574503e+003, 6.758352e-003
2.576431e+003, 7.978748e-003
2.578360e+003, 7.480881e-003
2.580288e+003, 6.893707e-003
2.582217e+003, 6.777826e-003
2.584145e+003, 6.323070e-003
2.586074e+003, 7.076176e-003
2.588002e+003, 7.930636e-003
2.589931e+003, 6.782189e-003
2.591859e+003, 6.019162e-003
2.593788e+003, 5.686890e-003
2.595716e+003, 4.668716e-003
2.597645e+003, 4.223023e-003
2.599573e+003, 5.872469e-003
2.601501e+003, 5.931675e-003
2.603430e+003, 5.401333e-003
2.605358e+003, 5.522264e-003
2.607287e+003, 5.510986e-003
2.609215e+003, 5.458769e-003
2.611144e+003, 4.624446e-003
2.613072e+003, 4.442443e-003
2.615001e+003, 5.758306e-003
2.616929e+003, 7.404166e-003
2.618858e+003, 7.813645e-003
2.620786e+003, 6.804982e-003
2.622715e+003, 6.384846e-003
2.624643e+003, 8.008763e-003
2.626572e+003, 8.877376e-003
2.628500e+003, 8.040968e-003
2.630428e+003, 7.340427e-003
2.632357e+003, 6.414197e-003
2.634285e+003, 6.346221e-003
2.636214e+003, 6.701906e-003
2.638142e+003, 6.009859e-003
2.640071e+003, 5.076883e-003
2.641999e+003, 4.782201e-003
2.643928e+003, 4.672480e-003
2.645856e+003, 4.803004e-003
2.647785e+003, 4.492561e-003
2.649713e+003, 4.976911e-003
2.651642e+003, 5.919440e-003
2.653570e+003, 6.383661e-003
2.655499e+003, 6.016848e-003
2.657427e+003, 5.386586e-003
2.659355e+003, 4.579160e-003
2.661284e+003, 4.748928e-003
2.663212e+003, 5.042857e-003
2.665141e+003, 4.867541e-003
2.667069e+003, 3.907979e-003
2.668998e+003, 3.442297e-003
2.670926e+003, 3.453394e-003
2.672855e+003, 4.148941e-003
2.674783e+003, 4.961160e-003
2.676712e+003, 3.887847e-003
2.678640e+003, 3.072196e-003
2.680569e+003, 3.389253e-003
2.682497e+003, 3.688479e-003
2.684426e+003, 3.558011e-003
2.686354e+003, 3.583691e-003
2.688282e+003, 4.450218e-003
2.690211e+003, 4.667819e-003
2.692139e+003, 4.101622e-003
2.694068e+003, 4.092736e-003
2.695996e+003, 4.325890e-003
2.697925e+003, 4.530611e-003
2.699853e+003, 4.406156e-003
2.701782e+003, 4.243167e-003
2.703710e+003, 3.468648e-003
2.705639e+003, 4.180757e-003
2.707567e+003, 4.994848e-003
2.709496e+003, 4.942148e-003
2.711424e+003, 3.894007e-003
2.713353e+003, 3.441434e-003
2.715281e+003, 3.670472e-003
2.717209e+003, 3.388087e-003
2.719138e+003, 2.764316e-003
2.721066e+003, 3.192634e-003
2.722995e+003, 4.296494e-003
2.724923e+003, 4.903559e-003
2.726852e+003, 4.637692e-003
2.728780e+003, 4.355988e-003
2.730709e+003, 4.001863e-003
2.732637e+003, 3.354023e-003
2.734566e+003, 3.158414e-003
2.736494e+003, 3.046643e-003
2.738423e+003, 2.692795e-003
2.740351e+003, 2.803174e-003
2.742280e+003, 3.637608e-003
2.744208e+003, 4.008144e-003
2.746136e+003, 4.618880e-003
2.748065e+003, 4.936059e-003
2.749993e+003, 4.507283e-003
2.751922e+003, 3.817784e-003
2.753850e+003, 3.790070e-003
2.755779e+003, 3.814433e-003
2.757707e+003, 3.555242e-003
2.759636e+003, 3.261176e-003
2.761564e+003, 2.996856e-003
2.763493e+003, 2.627513e-003
2.765421e+003, 2.679946e-003
2.767350e+003, 2.971881e-003
2.769278e+003, 2.897331e-003
2.771207e+003, 2.408953e-003
2.773135e+003, 3.063117e-003
2.775063e+003, 2.625890e-003
2.776992e+003, 2.161019e-003
2.778920e+003, 2.958831e-003
2.780849e+003, 3.665665e-003
2.782777e+003, 3.305535e-003
2.784706e+003, 3.273779e-003
2.786634e+003, 3.644304e-003
2.788563e+003, 3.862777e-003
2.790491e+003, 3.471673e-003
2.792420e+003, 3.897916e-003
2.794348e+003, 4.053043e-003
2.796277e+003, 3.281994e-003
2.798205e+003, 4.219211e-003
2.800134e+003, 4.907732e-003
2.802062e+003, 3.902154e-003
2.803990e+003, 3.460049e-003
2.805919e+003, 3.848580e-003
2.807847e+003, 4.223947e-003
2.809776e+003, 3.158005e-003
2.811704e+003, 3.016712e-003
2.813633e+003, 2.584654e-003
2.815561e+003, 2.149258e-003
2.817490e+003, 2.761937e-003
2.819418e+003, 2.195626e-003
2.821347e+003, 1.746190e-003
2.823275e+003, 2.308186e-003
2.825204e+003, 2.798208e-003
2.827132e+003, 3.187186e-003
2.829061e+003, 2.667214e-003
2.830989e+003, 1.927643e-003
2.832917e+003, 2.108628e-003
2.834846e+003, 3.235907e-003
2.836774e+003, 3.353936e-003
2.838703e+003, 2.769439e-003
2.840631e+003, 2.520703e-003
2.842560e+003, 2.711845e-003
2.844488e+003, 2.150946e-003
2.846417e+003, 1.829144e-003
2.848345e+003, 2.160386e-003
2.850274e+003, 1.890737e-003
2.852202e+003, 1.080379e-003
2.854131e+003, 1.105814e-003
2.856059e+003, 1.086576e-003
2.857988e+003, 1.686557e-003
2.859916e+003, 2.630209e-003
2.861844e+003, 2.852177e-003
2.863773e+003, 2.826994e-003
2.865701e+003, 3.230668e-003
2.867630e+003, 3.950857e-003
2.869558e+003, 4.443397e-003
2.871487e+003, 5.070908e-003
2.873415e+003, 5.236263e-003
2.875344e+003, 5.168504e-003
2.877272e+003, 5.320171e-003
2.879201e+003, 5.850592e-003
2.881129e+003, 6.659368e-003
2.883058e+003, 6.952739e-003
2.884986e+003, 7.355981e-003
2.886915e+003, 7.373406e-003
2.888843e+003, 7.074208e-003
2.890771e+003, 6.961325e-003
2.892700e+003, 6.886264e-003
2.894628e+003, 7.054714e-003
2.896557e+003, 7.824816e-003
2.898485e+003, 6.855811e-003
2.900414e+003, 5.501463e-003
2.902342e+003, 6.168560e-003
2.904271e+003, 6.880816e-003
2.906199e+003, 7.098989e-003
2.908128e+003, 6.910977e-003
2.910056e+003, 5.497382e-003
2.911985e+003, 5.452572e-003
2.913913e+003, 6.327343e-003
2.915842e+003, 5.943490e-003
2.917770e+003, 5.735496e-003
2.919698e+003, 5.026863e-003
2.921627e+003, 3.069243e-003
2.923555e+003, 2.141937e-003
2.925484e+003, 2.455166e-003
2.927412e+003, 2.302076e-003
2.929341e+003, 2.269657e-003
2.931269e+003, 2.129979e-003
2.933198e+003, 2.190182e-003
2.935126e+003, 2.495804e-003
2.937055e+003, 3.918817e-003
2.938983e+003, 4.470080e-003
2.940912e+003, 3.736407e-003
2.942840e+003, 3.457241e-003
2.944769e+003, 3.193224e-003
2.946697e+003, 3.680109e-003
2.948625e+003, 4.689377e-003
2.950554e+003, 3.891034e-003
2.952482e+003, 3.818121e-003
2.954411e+003, 3.461117e-003
2.956339e+003, 2.867221e-003
2.958268e+003, 2.864671e-003
2.960196e+003, 2.860345e-003
2.962125e+003, 3.117985e-003
2.964053e+003, 4.015133e-003
2.965982e+003, 4.569823e-003
2.967910e+003, 3.935722e-003
2.969839e+003, 3.500405e-003
2.971767e+003, 3.919207e-003
2.973696e+003, 5.853150e-003
2.975624e+003, 7.197386e-003
2.977552e+003, 6.142829e-003
2.979481e+003, 5.017202e-003
2.981409e+003, 4.971957e-003
2.983338e+003, 5.610800e-003
2.985266e+003, 6.359913e-003
2.987195e+003, 6.234426e-003
2.989123e+003, 5.497148e-003
2.991052e+003, 5.197772e-003
2.992980e+003, 5.514399e-003
2.994909e+003, 6.001570e-003
2.996837e+003, 6.705814e-003
2.998766e+003, 6.869539e-003
3.000694e+003, 7.194939e-003
3.002623e+003, 7.395455e-003
3.004551e+003, 5.501027e-003
3.006479e+003, 5.492753e-003
3.008408e+003, 7.068607e-003
3.010336e+003, 8.212880e-003
3.012265e+003, 7.189965e-003
3.014193e+003, 6.152995e-003
3.016122e+003, 5.829144e-003
3.018050e+003, 7.959233e-003
3.019979e+003, 8.855985e-003
3.021907e+003, 7.886298e-003
3.023836e+003, 7.871575e-003
3.025764e+003, 7.779069e-003
3.027693e+003, 7.075287e-003
3.029621e+003, 7.227153e-003
3.031550e+003, 5.844835e-003
3.033478e+003, 5.218823e-003
3.035406e+003, 5.747111e-003
3.037335e+003, 5.597131e-003
3.039263e+003, 6.569575e-003
3.041192e+003, 6.038844e-003
3.043120e+003, 6.164737e-003
3.045049e+003, 7.094038e-003
3.046977e+003, 8.221920e-003
3.048906e+003, 8.434511e-003
3.050834e+003, 7.162905e-003
3.052763e+003, 7.363421e-003
3.054691e+003, 7.864333e-003
3.056620e+003, 7.696724e-003
3.058548e+003, 7.221774e-003
3.060477e+003, 7.070645e-003
3.062405e+003, 6.927600e-003
3.064333e+003, 6.686113e-003
3.066262e+003, 6.756081e-003
3.068190e+003, 6.794970e-003
3.070119e+003, 6.212377e-003
3.072047e+003, 6.043055e-003
3.073976e+003, 8.123525e-003
3.075904e+003, 8.183482e-003
3.077833e+003, 7.278587e-003
3.079761e+003, 8.081323e-003
3.081690e+003, 9.165047e-003
3.083618e+003, 9.917243e-003
3.085547e+003, 8.109052e-003
3.087475e+003, 5.832338e-003
3.089404e+003, 7.907672e-003
3.091332e+003, 9.841654e-003
3.093260e+003, 9.269221e-003
3.095189e+003, 8.684344e-003
3.097117e+003, 7.976450e-003
3.099046e+003, 8.392489e-003
3.100974e+003, 7.861428e-003
3.102903e+003, 7.638309e-003
3.104831e+003, 8.354741e-003
3.106760e+003, 8.666457e-003
3.108688e+003, 9.348123e-003
3.110617e+003, 9.069378e-003
3.112545e+003, 8.905983e-003
3.114474e+003, 8.766911e-003
3.116402e+003, 8.930426e-003
3.118331e+003, 1.005584e-002
3.120259e+003, 1.108538e-002
3.122188e+003, 1.055352e-002
3.124116e+003, 7.470786e-003
3.126044e+003, 6.757262e-003
3.127973e+003, 9.248432e-003
3.129901e+003, 1.061597e-002
3.131830e+003, 9.466406e-003
3.133758e+003, 9.891476e-003
3.135687e+003, 1.013871e-002
3.137615e+003, 1.006315e-002
3.139544e+003, 1.025735e-002
3.141472e+003, 1.261059e-002
3.143401e+003, 1.176428e-002
3.145329e+003, 9.886639e-003
3.147258e+003, 8.696202e-003
3.149186e+003, 1.020707e-002
3.151115e+003, 1.142323e-002
3.153043e+003, 1.089927e-002
3.154971e+003, 1.179620e-002
3.156900e+003, 1.206097e-002
3.158828e+003, 1.008637e-002
3.160757e+003, 9.374887e-003
3.162685e+003, 9.548063e-003
3.164614e+003, 8.861614e-003
3.166542e+003, 8.379761e-003
3.168471e+003, 9.103731e-003
3.170399e+003, 1.069012e-002
3.172328e+003, 1.198132e-002
3.174256e+003, 1.283231e-002
3.176185e+003, 1.327910e-002
3.178113e+003, 1.227354e-002
3.180042e+003, 1.137596e-002
3.181970e+003, 1.110384e-002
3.183898e+003, 1.056894e-002
3.185827e+003, 1.155503e-002
3.187755e+003, 1.385579e-002
3.189684e+003, 1.504480e-002
3.191612e+003, 1.293194e-002
3.193541e+003, 1.086562e-002
3.195469e+003, 1.123847e-002
3.197398e+003, 1.136050e-002
3.199326e+003, 1.100978e-002
3.201255e+003, 1.210801e-002
3.203183e+003, 1.249972e-002
3.205112e+003, 1.143737e-002
3.207040e+003, 1.062895e-002
3.208969e+003, 1.146025e-002
3.210897e+003, 1.218849e-002
3.212825e+003, 1.290185e-002
3.214754e+003, 1.267890e-002
3.216682e+003, 1.146437e-002
3.218611e+003, 1.073210e-002
3.220539e+003, 1.214791e-002
3.222468e+003, 1.380889e-002
3.224396e+003, 1.403242e-002
3.226325e+003, 1.392572e-002
3.228253e+003, 1.285121e-002
3.230182e+003, 1.098393e-002
3.232110e+003, 1.231849e-002
3.234039e+003, 1.344286e-002
3.235967e+003, 1.357494e-002
3.237896e+003, 1.384737e-002
3.239824e+003, 1.250948e-002
3.241752e+003, 1.088525e-002
3.243681e+003, 1.186588e-002
3.245609e+003, 1.357391e-002
3.247538e+003, 1.219124e-002
3.249466e+003, 1.111016e-002
3.251395e+003, 1.302988e-002
3.253323e+003, 1.488288e-002
3.255252e+003, 1.418544e-002
3.257180e+003, 1.313966e-002
3.259109e+003, 1.427883e-002
3.261037e+003, 1.408657e-002
3.262966e+003, 1.159706e-002
3.264894e+003, 1.091204e-002
3.266823e+003, 1.297383e-002
3.268751e+003, 1.326111e-002
3.270679e+003, 1.336236e-002
3.272608e+003, 1.398827e-002
3.274536e+003, 1.578607e-002
3.276465e+003, 1.713041e-002
3.278393e+003, 1.572778e-002
3.280322e+003, 1.297304e-002
3.282250e+003, 1.193328e-002
3.284179e+003, 1.370918e-002
3.286107e+003, 1.536212e-002
3.288036e+003, 1.517491e-002
3.289964e+003, 1.483515e-002
3.291893e+003, 1.428419e-002
3.293821e+003, 1.329133e-002
3.295750e+003, 1.349620e-002
3.297678e+003, 1.374589e-002
3.299606e+003, 1.331820e-002
3.301535e+003, 1.341631e-002
3.303463e+003, 1.292793e-002
3.305392e+003, 1.174288e-002
3.307320e+003, 1.133790e-002
3.309249e+003, 1.235599e-002
3.311177e+003, 1.254568e-002
3.313106e+003, 1.222679e-002
3.315034e+003, 1.277372e-002
3.316963e+003, 1.207267e-002
3.318891e+003, 1.081162e-002
3.320820e+003, 1.347346e-002
3.322748e+003, 1.538797e-002
3.324677e+003, 1.471376e-002
3.326605e+003, 1.321325e-002
3.328533e+003, 1.259209e-002
3.330462e+003, 1.444419e-002
3.332390e+003, 1.551666e-002
3.334319e+003, 1.458256e-002
3.336247e+003, 1.221454e-002
3.338176e+003, 1.318286e-002
3.340104e+003, 1.588273e-002
3.342033e+003, 1.540990e-002
3.343961e+003, 1.459831e-002
3.345890e+003, 1.635819e-002
3.347818e+003, 1.707263e-002
3.349747e+003, 1.375687e-002
3.351675e+003, 1.245470e-002
3.353604e+003, 1.294622e-002
3.355532e+003, 1.314179e-002
3.357460e+003, 1.371881e-002
3.359389e+003, 1.435381e-002
3.361317e+003, 1.282082e-002
3.363246e+003, 1.306271e-002
3.365174e+003, 1.371150e-002
3.367103e+003, 1.313611e-002
3.369031e+003, 1.313350e-002
3.370960e+003, 1.493800e-002
3.372888e+003, 1.415012e-002
3.374817e+003, 1.366150e-002
3.376745e+003, 1.458322e-002
3.378674e+003, 1.394822e-002
3.380602e+003, 1.404744e-002
3.382531e+003, 1.380371e-002
3.384459e+003, 1.282843e-002
3.386387e+003, 1.315882e-002
3.388316e+003, 1.256980e-002
3.390244e+003, 1.312881e-002
3.392173e+003, 1.279656e-002
3.394101e+003, 1.132281e-002
3.396030e+003, 1.316506e-002
3.397958e+003, 1.464857e-002
3.399887e+003, 1.429455e-002
3.401815e+003, 1.264841e-002
3.403744e+003, 1.375788e-002
3.405672e+003, 1.355919e-002
3.407601e+003, 1.313507e-002
3.409529e+003, 1.270034e-002
3.411458e+003, 1.304035e-002
3.413386e+003, 1.367825e-002
3.415314e+003, 1.318513e-002
3.417243e+003, 1.297143e-002
3.419171e+003, 1.250602e-002
3.421100e+003, 1.353768e-002
3.423028e+003, 1.528550e-002
3.424957e+003, 1.545521e-002
3.426885e+003, 1.485561e-002
3.428814e+003, 1.391575e-002
3.430742e+003, 1.289573e-002
3.432671e+003, 1.265519e-002
3.434599e+003, 1.302629e-002
3.436528e+003, 1.245262e-002
3.438456e+003, 1.312309e-002
3.440385e+003, 1.416604e-002
3.442313e+003, 1.414105e-002
3.444241e+003, 1.388253e-002
3.446170e+003, 1.538642e-002
3.448098e+003, 1.547895e-002
3.450027e+003, 1.408158e-002
3.451955e+003, 1.294074e-002
3.453884e+003, 1.313060e-002
3.455812e+003, 1.182802e-002
3.457741e+003, 1.274334e-002
3.459669e+003, 1.331138e-002
3.461598e+003, 1.471662e-002
3.463526e+003, 1.631671e-002
3.465455e+003, 1.490557e-002
3.467383e+003, 1.273879e-002
3.469312e+003, 1.189207e-002
3.471240e+003, 1.492766e-002
3.473168e+003, 1.499256e-002
3.475097e+003, 1.414020e-002
3.477025e+003, 1.375340e-002
3.478954e+003, 1.323358e-002
3.480882e+003, 1.410460e-002
3.482811e+003, 1.501320e-002
3.484739e+003, 1.444566e-002
3.486668e+003, 1.074662e-002
3.488596e+003, 8.849107e-003
3.490525e+003, 1.035706e-002
3.492453e+003, 1.245504e-002
3.494382e+003, 1.435811e-002
3.496310e+003, 1.202700e-002
3.498239e+003, 9.308041e-003
3.500167e+003, 1.216068e-002
3.502095e+003, 1.343996e-002
3.504024e+003, 1.392370e-002
3.505952e+003, 1.415389e-002
3.507881e+003, 1.394794e-002
3.509809e+003, 1.486275e-002
3.511738e+003, 1.444587e-002
3.513666e+003, 1.426071e-002
3.515595e+003, 1.472329e-002
3.517523e+003, 1.470159e-002
3.519452e+003, 1.325694e-002
3.521380e+003, 1.236388e-002
3.523309e+003, 1.282841e-002
3.525237e+003, 1.212792e-002
3.527166e+003, 1.097503e-002
3.529094e+003, 1.126289e-002
3.531022e+003, 1.082207e-002
3.532951e+003, 1.217534e-002
3.534879e+003, 1.097603e-002
3.536808e+003, 1.086564e-002
3.538736e+003, 1.300578e-002
3.540665e+003, 1.496782e-002
3.542593e+003, 1.651394e-002
3.544522e+003, 1.482451e-002
3.546450e+003, 1.218361e-002
3.548379e+003, 1.082328e-002
3.550307e+003, 1.073700e-002
3.552236e+003, 1.131172e-002
3.554164e+003, 1.273069e-002
3.556093e+003, 1.220569e-002
3.558021e+003, 1.150604e-002
3.559949e+003, 1.296598e-002
3.561878e+003, 1.254961e-002
3.563806e+003, 1.332075e-002
3.565735e+003, 1.597683e-002
3.567663e+003, 1.471578e-002
3.569592e+003, 1.241535e-002
3.571520e+003, 9.953996e-003
3.573449e+003, 1.010357e-002
3.575377e+003, 1.418727e-002
3.577306e+003, 1.473365e-002
3.579234e+003, 1.211981e-002
3.581163e+003, 9.932266e-003
3.583091e+003, 1.151762e-002
3.585020e+003, 1.282840e-002
3.586948e+003, 1.072885e-002
3.588876e+003, 1.039892e-002
3.590805e+003, 1.214088e-002
3.592733e+003, 1.055606e-002
3.594662e+003, 8.857839e-003
3.596590e+003, 9.890144e-003
3.598519e+003, 1.190671e-002
3.600447e+003, 1.341234e-002
3.602376e+003, 1.398570e-002
3.604304e+003, 1.318883e-002
3.606233e+003, 1.065275e-002
3.608161e+003, 1.124198e-002
3.610090e+003, 1.373350e-002
3.612018e+003, 1.416466e-002
3.613947e+003, 1.339729e-002
3.615875e+003, 1.342208e-002
3.617803e+003, 1.197293e-002
3.619732e+003, 1.022670e-002
3.621660e+003, 1.002828e-002
3.623589e+003, 9.727583e-003
3.625517e+003, 1.183578e-002
3.627446e+003, 1.145630e-002
3.629374e+003, 1.087900e-002
3.631303e+003, 1.034986e-002
3.633231e+003, 8.992229e-003
3.635160e+003, 9.913661e-003
3.637088e+003, 1.001327e-002
3.639017e+003, 6.846122e-003
3.640945e+003, 7.816806e-003
3.642874e+003, 8.781336e-003
3.644802e+003, 8.230013e-003
3.646730e+003, 8.045386e-003
3.648659e+003, 7.576427e-003
3.650587e+003, 8.824744e-003
3.652516e+003, 1.104952e-002
3.654444e+003, 1.131875e-002
3.656373e+003, 1.082135e-002
3.658301e+003, 1.297501e-002
3.660230e+003, 1.560970e-002
3.662158e+003, 1.413197e-002
3.664087e+003, 1.269531e-002
3.666015e+003, 1.216627e-002
3.667944e+003, 1.280509e-002
3.669872e+003, 1.439252e-002
3.671801e+003, 1.316346e-002
3.673729e+003, 1.079502e-002
3.675657e+003, 1.277861e-002
3.677586e+003, 9.174803e-003
3.679514e+003, 7.822546e-003
3.681443e+003, 1.023114e-002
3.683371e+003, 9.422842e-003
3.685300e+003, 8.785994e-003
3.687228e+003, 1.078635e-002
3.689157e+003, 9.745684e-003
3.691085e+003, 8.632058e-003
3.693014e+003, 9.454525e-003
3.694942e+003, 1.050327e-002
3.696871e+003, 1.024751e-002
3.698799e+003, 1.014148e-002
3.700728e+003, 1.036976e-002
3.702656e+003, 1.175229e-002
3.704584e+003, 1.034944e-002
3.706513e+003, 1.163501e-002
3.708441e+003, 1.367671e-002
3.710370e+003, 1.392499e-002
3.712298e+003, 8.681792e-003
3.714227e+003, 5.473219e-003
3.716155e+003, 7.537197e-003
3.718084e+003, 1.041827e-002
3.720012e+003, 8.851151e-003
3.721941e+003, 7.817569e-003
3.723869e+003, 1.169322e-002
3.725798e+003, 1.393284e-002
3.727726e+003, 1.194932e-002
3.729655e+003, 8.236902e-003
3.731583e+003, 1.165380e-002
3.733511e+003, 1.398527e-002
3.735440e+003, 1.220087e-002
3.737368e+003, 1.145723e-002
3.739297e+003, 1.175252e-002
3.741225e+003, 1.355784e-002
3.743154e+003, 1.494964e-002
3.745082e+003, 1.577923e-002
3.747011e+003, 1.189857e-002
3.748939e+003, 1.173003e-002
3.750868e+003, 1.627929e-002
3.752796e+003, 1.553201e-002
3.754725e+003, 1.104004e-002
3.756653e+003, 1.020278e-002
3.758582e+003, 1.200344e-002
3.760510e+003, 1.152629e-002
3.762438e+003, 9.085851e-003
3.764367e+003, 6.302450e-003
3.766295e+003, 7.598522e-003
3.768224e+003, 1.343046e-002
3.770152e+003, 1.687029e-002
3.772081e+003, 1.409911e-002
3.774009e+003, 8.893753e-003
3.775938e+003, 8.267191e-003
3.777866e+003, 1.089070e-002
3.779795e+003, 1.216076e-002
3.781723e+003, 1.337523e-002
3.783652e+003, 1.316391e-002
3.785580e+003, 1.142414e-002
3.787509e+003, 1.123410e-002
3.789437e+003, 1.145247e-002
3.791365e+003, 1.111805e-002
3.793294e+003, 1.394528e-002
3.795222e+003, 1.713355e-002
3.797151e+003, 1.518498e-002
3.799079e+003, 1.131671e-002
3.801008e+003, 1.090936e-002
3.802936e+003, 1.175062e-002
3.804865e+003, 1.301368e-002
3.806793e+003, 1.601338e-002
3.808722e+003, 1.460613e-002
3.810650e+003, 1.110405e-002
3.812579e+003, 1.096686e-002
3.814507e+003, 1.345028e-002
3.816436e+003, 1.352592e-002
3.818364e+003, 1.160003e-002
3.820292e+003, 1.300355e-002
3.822221e+003, 1.727974e-002
3.824149e+003, 1.872449e-002
3.826078e+003, 1.583915e-002
3.828006e+003, 1.310754e-002
3.829935e+003, 1.214362e-002
3.831863e+003, 1.191992e-002
3.833792e+003, 1.201996e-002
3.835720e+003, 1.076337e-002
3.837649e+003, 8.665336e-003
3.839577e+003, 9.551810e-003
3.841506e+003, 1.259745e-002
3.843434e+003, 1.120394e-002
3.845363e+003, 1.204674e-002
3.847291e+003, 1.588244e-002
3.849219e+003, 1.610222e-002
3.851148e+003, 1.276202e-002
3.853076e+003, 1.511114e-002
3.855005e+003, 1.434528e-002
3.856933e+003, 1.132281e-002
3.858862e+003, 1.098648e-002
3.860790e+003, 1.508731e-002
3.862719e+003, 1.640075e-002
3.864647e+003, 1.547636e-002
3.866576e+003, 1.681668e-002
3.868504e+003, 1.578614e-002
3.870433e+003, 1.508902e-002
3.872361e+003, 1.555736e-002
3.874290e+003, 1.412109e-002
3.876218e+003, 1.293634e-002
3.878146e+003, 1.334825e-002
3.880075e+003, 1.439319e-002
3.882003e+003, 1.740562e-002
3.883932e+003, 1.716827e-002
3.885860e+003, 1.211279e-002
3.887789e+003, 7.227460e-003
3.889717e+003, 9.520487e-003
3.891646e+003, 1.295209e-002
3.893574e+003, 1.131478e-002
3.895503e+003, 1.285997e-002
3.897431e+003, 1.387795e-002
3.899360e+003, 1.238144e-002
3.901288e+003, 1.469223e-002
3.903217e+003, 1.628879e-002
3.905145e+003, 1.692130e-002
3.907073e+003, 1.512658e-002
3.909002e+003, 1.124891e-002
3.910930e+003, 1.102972e-002
3.912859e+003, 1.519019e-002
3.914787e+003, 1.405576e-002
3.916716e+003, 1.424471e-002
3.918644e+003, 1.483238e-002
3.920573e+003, 9.214718e-003
3.922501e+003, 9.883725e-003
3.924430e+003, 1.249930e-002
3.926358e+003, 1.426023e-002
3.928287e+003, 1.727322e-002
3.930215e+003, 1.615719e-002
3.932144e+003, 1.382751e-002
3.934072e+003, 1.169980e-002
3.936000e+003, 9.657247e-003
3.937929e+003, 9.226650e-003
3.939857e+003, 1.474676e-002
3.941786e+003, 1.996052e-002
3.943714e+003, 1.812308e-002
3.945643e+003, 1.449639e-002
3.947571e+003, 1.329508e-002
3.949500e+003, 1.566441e-002
3.951428e+003, 1.458499e-002
3.953357e+003, 1.087687e-002
3.955285e+003, 1.109400e-002
3.957214e+003, 1.212128e-002
3.959142e+003, 1.317634e-002
3.961071e+003, 1.245457e-002
3.962999e+003, 1.098903e-002
3.964927e+003, 1.060862e-002
3.966856e+003, 1.262277e-002
3.968784e+003, 1.624791e-002
3.970713e+003, 1.846296e-002
3.972641e+003, 1.612618e-002
3.974570e+003, 1.157322e-002
3.976498e+003, 1.210021e-002
3.978427e+003, 1.304592e-002
3.980355e+003, 1.150828e-002
3.982284e+003, 1.170568e-002
3.984212e+003, 1.142216e-002
3.986141e+003, 9.303093e-003
3.988069e+003, 1.359528e-002
3.989998e+003, 1.595231e-002
3.991926e+003, 1.303728e-002
3.993854e+003, 1.345256e-002
3.995783e+003, 1.265254e-002
3.997711e+003, 1.331978e-002
3.999640e+003, 1.332621e-002
4.001568e+003, 0.000000e+000
##END=



