##NAMES=Dravite
##RRUFFID=R040088
##IDEAL CHEMISTRY=NaMg_3_Al_6_(Si_6_O_18_)(BO_3_)_3_(OH)_3_OH
##LOCALITY=Yinnietharra Station, Pilbara, Western Australia, Australia
##OWNER=RRUFF
##SOURCE=University of Arizona Mineral Museum
##DESCRIPTION=Brown short prismatic crystal
##STATUS=The identification of this mineral has been confirmed by X-ray diffraction and chemical analysis
##URL=rruff.info/R040088
##MEASURED CHEMISTRY=(Na_0.88_Ca_0.06_[box]_0.06_)(Mg_0.88_Al_0.10_Ti_0.04_Fe_0.02_)_3_Al_6.00_(B_1_O_3_)_3_Si_6.00_O_18_((OH)_0.98_F_0.02_)_4_
3.991926e+002, 0.000000e+000
4.011211e+002, 2.681701e-001
4.030496e+002, 2.694297e-001
4.049780e+002, 2.779190e-001
4.069065e+002, 2.775330e-001
4.088350e+002, 2.768526e-001
4.107634e+002, 2.859235e-001
4.126919e+002, 2.905612e-001
4.146204e+002, 2.857320e-001
4.165488e+002, 2.848855e-001
4.184773e+002, 2.931324e-001
4.204058e+002, 2.862253e-001
4.223342e+002, 2.752444e-001
4.242627e+002, 2.736649e-001
4.261912e+002, 2.726552e-001
4.281196e+002, 2.692384e-001
4.300481e+002, 2.650514e-001
4.319766e+002, 2.598405e-001
4.339050e+002, 2.596527e-001
4.358335e+002, 2.622795e-001
4.377620e+002, 2.666514e-001
4.396904e+002, 2.725085e-001
4.416189e+002, 2.785606e-001
4.435474e+002, 2.839166e-001
4.454758e+002, 2.857210e-001
4.474043e+002, 2.871848e-001
4.493328e+002, 2.894379e-001
4.512612e+002, 2.901634e-001
4.531897e+002, 2.884403e-001
4.551182e+002, 2.847854e-001
4.570466e+002, 2.837673e-001
4.589751e+002, 2.870821e-001
4.609036e+002, 2.899350e-001
4.628320e+002, 2.910733e-001
4.647605e+002, 2.946402e-001
4.666890e+002, 2.981748e-001
4.686174e+002, 3.017956e-001
4.705459e+002, 3.042601e-001
4.724744e+002, 3.067994e-001
4.744028e+002, 3.096994e-001
4.763313e+002, 3.125511e-001
4.782598e+002, 3.145656e-001
4.801882e+002, 3.145767e-001
4.821167e+002, 3.146619e-001
4.840452e+002, 3.140707e-001
4.859736e+002, 3.122401e-001
4.879021e+002, 3.103331e-001
4.898306e+002, 3.069820e-001
4.917590e+002, 3.023128e-001
4.936875e+002, 2.974937e-001
4.956160e+002, 2.932665e-001
4.975444e+002, 2.893047e-001
4.994729e+002, 2.855524e-001
5.014014e+002, 2.813445e-001
5.033298e+002, 2.765976e-001
5.052583e+002, 2.694442e-001
5.071868e+002, 2.628883e-001
5.091152e+002, 2.567352e-001
5.110437e+002, 2.493065e-001
5.129722e+002, 2.409672e-001
5.149006e+002, 2.326503e-001
5.168291e+002, 2.262706e-001
5.187576e+002, 2.209135e-001
5.206860e+002, 2.145348e-001
5.226145e+002, 2.070444e-001
5.245430e+002, 2.008286e-001
5.264714e+002, 1.954657e-001
5.283999e+002, 1.900812e-001
5.303284e+002, 1.850538e-001
5.322568e+002, 1.806087e-001
5.341853e+002, 1.758336e-001
5.361138e+002, 1.711555e-001
5.380422e+002, 1.672495e-001
5.399707e+002, 1.631503e-001
5.418992e+002, 1.592148e-001
5.438276e+002, 1.569890e-001
5.457561e+002, 1.549973e-001
5.476846e+002, 1.526174e-001
5.496130e+002, 1.503001e-001
5.515415e+002, 1.493494e-001
5.534700e+002, 1.501596e-001
5.553984e+002, 1.503641e-001
5.573269e+002, 1.513024e-001
5.592554e+002, 1.530425e-001
5.611838e+002, 1.537233e-001
5.631123e+002, 1.539562e-001
5.650408e+002, 1.556176e-001
5.669692e+002, 1.579990e-001
5.688977e+002, 1.588411e-001
5.708262e+002, 1.588198e-001
5.727546e+002, 1.596524e-001
5.746831e+002, 1.595317e-001
5.766116e+002, 1.581849e-001
5.785400e+002, 1.569369e-001
5.804685e+002, 1.550061e-001
5.823970e+002, 1.523927e-001
5.843254e+002, 1.489605e-001
5.862539e+002, 1.451943e-001
5.881824e+002, 1.415757e-001
5.901108e+002, 1.372836e-001
5.920393e+002, 1.331150e-001
5.939678e+002, 1.297384e-001
5.958962e+002, 1.269661e-001
5.978247e+002, 1.253863e-001
5.997532e+002, 1.247226e-001
6.016816e+002, 1.239950e-001
6.036101e+002, 1.236007e-001
6.055386e+002, 1.225327e-001
6.074670e+002, 1.211109e-001
6.093955e+002, 1.198896e-001
6.113240e+002, 1.174676e-001
6.132524e+002, 1.139721e-001
6.151809e+002, 1.101755e-001
6.171094e+002, 1.063042e-001
6.190378e+002, 1.020128e-001
6.209663e+002, 9.794989e-002
6.228948e+002, 9.423452e-002
6.248232e+002, 9.051847e-002
6.267517e+002, 8.730583e-002
6.286802e+002, 8.521639e-002
6.306086e+002, 8.354139e-002
6.325371e+002, 8.158241e-002
6.344656e+002, 7.902725e-002
6.363940e+002, 7.609717e-002
6.383225e+002, 7.349613e-002
6.402510e+002, 7.204314e-002
6.421794e+002, 7.239994e-002
6.441079e+002, 7.426518e-002
6.460364e+002, 7.733002e-002
6.479648e+002, 8.133741e-002
6.498933e+002, 8.533514e-002
6.518218e+002, 8.847719e-002
6.537502e+002, 8.994216e-002
6.556787e+002, 8.964843e-002
6.576072e+002, 8.805828e-002
6.595356e+002, 8.593385e-002
6.614641e+002, 8.378708e-002
6.633926e+002, 8.190266e-002
6.653210e+002, 8.100342e-002
6.672495e+002, 8.124440e-002
6.691780e+002, 8.209739e-002
6.711064e+002, 8.367090e-002
6.730349e+002, 8.586399e-002
6.749634e+002, 8.821779e-002
6.768918e+002, 9.051098e-002
6.788203e+002, 9.249724e-002
6.807488e+002, 9.402095e-002
6.826772e+002, 9.516105e-002
6.846057e+002, 9.608889e-002
6.865342e+002, 9.702440e-002
6.884626e+002, 9.795335e-002
6.903911e+002, 9.943904e-002
6.923196e+002, 1.018591e-001
6.942480e+002, 1.054675e-001
6.961765e+002, 1.095548e-001
6.981050e+002, 1.139825e-001
7.000334e+002, 1.187860e-001
7.019619e+002, 1.234267e-001
7.038904e+002, 1.274149e-001
7.058188e+002, 1.304306e-001
7.077473e+002, 1.324767e-001
7.096758e+002, 1.338922e-001
7.116042e+002, 1.345259e-001
7.135327e+002, 1.336791e-001
7.154612e+002, 1.313571e-001
7.173896e+002, 1.272787e-001
7.193181e+002, 1.210526e-001
7.212466e+002, 1.129783e-001
7.231750e+002, 1.040369e-001
7.251035e+002, 9.549090e-002
7.270320e+002, 8.829223e-002
7.289604e+002, 8.276375e-002
7.308889e+002, 7.984510e-002
7.328174e+002, 7.913417e-002
7.347458e+002, 7.951318e-002
7.366743e+002, 8.076627e-002
7.386028e+002, 8.156577e-002
7.405313e+002, 8.135629e-002
7.424597e+002, 8.064587e-002
7.443882e+002, 7.970538e-002
7.463167e+002, 7.948370e-002
7.482451e+002, 8.080202e-002
7.501736e+002, 8.352578e-002
7.521021e+002, 8.749169e-002
7.540305e+002, 9.165399e-002
7.559590e+002, 9.520186e-002
7.578875e+002, 9.786656e-002
7.598159e+002, 9.921429e-002
7.617444e+002, 9.817857e-002
7.636729e+002, 9.547701e-002
7.656013e+002, 9.213783e-002
7.675298e+002, 8.995315e-002
7.694583e+002, 9.011306e-002
7.713867e+002, 9.227316e-002
7.733152e+002, 9.516168e-002
7.752437e+002, 9.745447e-002
7.771721e+002, 9.833922e-002
7.791006e+002, 9.786313e-002
7.810291e+002, 9.658069e-002
7.829575e+002, 9.466313e-002
7.848860e+002, 9.198659e-002
7.868145e+002, 8.840013e-002
7.887429e+002, 8.381130e-002
7.906714e+002, 7.835592e-002
7.925999e+002, 7.197711e-002
7.945283e+002, 6.498583e-002
7.964568e+002, 5.813963e-002
7.983853e+002, 5.192677e-002
8.003137e+002, 4.728622e-002
8.022422e+002, 4.411028e-002
8.041707e+002, 4.242942e-002
8.060991e+002, 4.231124e-002
8.080276e+002, 4.270412e-002
8.099561e+002, 4.299667e-002
8.118845e+002, 4.354904e-002
8.138130e+002, 4.364340e-002
8.157415e+002, 4.362914e-002
8.176699e+002, 4.357368e-002
8.195984e+002, 4.294512e-002
8.215269e+002, 4.183470e-002
8.234553e+002, 4.097709e-002
8.253838e+002, 4.030845e-002
8.273123e+002, 3.935460e-002
8.292407e+002, 3.835985e-002
8.311692e+002, 3.775273e-002
8.330977e+002, 3.734382e-002
8.350261e+002, 3.694061e-002
8.369546e+002, 3.669066e-002
8.388831e+002, 3.658269e-002
8.408115e+002, 3.653764e-002
8.427400e+002, 3.654897e-002
8.446685e+002, 3.655685e-002
8.465969e+002, 3.652254e-002
8.485254e+002, 3.676714e-002
8.504539e+002, 3.737080e-002
8.523823e+002, 3.798759e-002
8.543108e+002, 3.842482e-002
8.562393e+002, 3.880373e-002
8.581677e+002, 3.933562e-002
8.600962e+002, 4.003504e-002
8.620247e+002, 4.087534e-002
8.639531e+002, 4.162054e-002
8.658816e+002, 4.222587e-002
8.678101e+002, 4.264383e-002
8.697385e+002, 4.343769e-002
8.716670e+002, 4.448982e-002
8.735955e+002, 4.548877e-002
8.755239e+002, 4.665614e-002
8.774524e+002, 4.771671e-002
8.793809e+002, 4.891412e-002
8.813093e+002, 5.061840e-002
8.832378e+002, 5.246113e-002
8.851663e+002, 5.483051e-002
8.870947e+002, 5.759618e-002
8.890232e+002, 6.026977e-002
8.909517e+002, 6.334062e-002
8.928801e+002, 6.685638e-002
8.948085e+002, 7.036775e-002
8.967370e+002, 7.411256e-002
8.986655e+002, 7.793409e-002
9.005939e+002, 8.178297e-002
9.025224e+002, 8.584189e-002
9.044509e+002, 9.016401e-002
9.063793e+002, 9.438016e-002
9.083078e+002, 9.877976e-002
9.102363e+002, 1.029900e-001
9.121647e+002, 1.069950e-001
9.140932e+002, 1.111650e-001
9.160217e+002, 1.155411e-001
9.179501e+002, 1.200322e-001
9.198786e+002, 1.245934e-001
9.218071e+002, 1.295572e-001
9.237355e+002, 1.350973e-001
9.256640e+002, 1.411642e-001
9.275925e+002, 1.479623e-001
9.295209e+002, 1.554162e-001
9.314494e+002, 1.632834e-001
9.333779e+002, 1.715458e-001
9.353063e+002, 1.797213e-001
9.372348e+002, 1.881702e-001
9.391633e+002, 1.966750e-001
9.410917e+002, 2.047679e-001
9.430202e+002, 2.127598e-001
9.449487e+002, 2.206554e-001
9.468771e+002, 2.283167e-001
9.488056e+002, 2.358585e-001
9.507341e+002, 2.434057e-001
9.526625e+002, 2.507780e-001
9.545910e+002, 2.577139e-001
9.565195e+002, 2.638950e-001
9.584479e+002, 2.699811e-001
9.603764e+002, 2.755686e-001
9.623049e+002, 2.800488e-001
9.642333e+002, 2.838759e-001
9.661618e+002, 2.874149e-001
9.680903e+002, 2.901026e-001
9.700187e+002, 2.917312e-001
9.719472e+002, 2.925989e-001
9.738757e+002, 2.930735e-001
9.758041e+002, 2.932281e-001
9.777326e+002, 2.930736e-001
9.796611e+002, 2.926377e-001
9.815895e+002, 2.913925e-001
9.835180e+002, 2.894733e-001
9.854465e+002, 2.867142e-001
9.873749e+002, 2.828596e-001
9.893034e+002, 2.775514e-001
9.912319e+002, 2.713532e-001
9.931603e+002, 2.648925e-001
9.950888e+002, 2.575808e-001
9.970173e+002, 2.499439e-001
9.989457e+002, 2.425750e-001
1.000874e+003, 2.355295e-001
1.002803e+003, 2.284405e-001
1.004731e+003, 2.213740e-001
1.006660e+003, 2.149114e-001
1.008588e+003, 2.092044e-001
1.010517e+003, 2.047531e-001
1.012445e+003, 2.019752e-001
1.014373e+003, 2.007492e-001
1.016302e+003, 2.009843e-001
1.018230e+003, 2.025688e-001
1.020159e+003, 2.051279e-001
1.022087e+003, 2.080725e-001
1.024016e+003, 2.112006e-001
1.025944e+003, 2.138226e-001
1.027873e+003, 2.156697e-001
1.029801e+003, 2.168463e-001
1.031730e+003, 2.178094e-001
1.033658e+003, 2.181272e-001
1.035587e+003, 2.179090e-001
1.037515e+003, 2.169615e-001
1.039444e+003, 2.152461e-001
1.041372e+003, 2.125941e-001
1.043301e+003, 2.087864e-001
1.045229e+003, 2.034508e-001
1.047157e+003, 1.963580e-001
1.049086e+003, 1.883139e-001
1.051014e+003, 1.799234e-001
1.052943e+003, 1.712088e-001
1.054871e+003, 1.631955e-001
1.056800e+003, 1.560512e-001
1.058728e+003, 1.497789e-001
1.060657e+003, 1.446718e-001
1.062585e+003, 1.407415e-001
1.064514e+003, 1.377712e-001
1.066442e+003, 1.353707e-001
1.068371e+003, 1.334983e-001
1.070299e+003, 1.320107e-001
1.072228e+003, 1.309361e-001
1.074156e+003, 1.301510e-001
1.076084e+003, 1.294587e-001
1.078013e+003, 1.291021e-001
1.079941e+003, 1.289114e-001
1.081870e+003, 1.289266e-001
1.083798e+003, 1.287895e-001
1.085727e+003, 1.284330e-001
1.087655e+003, 1.278943e-001
1.089584e+003, 1.268049e-001
1.091512e+003, 1.255856e-001
1.093441e+003, 1.240590e-001
1.095369e+003, 1.216966e-001
1.097298e+003, 1.183261e-001
1.099226e+003, 1.139772e-001
1.101155e+003, 1.088578e-001
1.103083e+003, 1.030523e-001
1.105011e+003, 9.692301e-002
1.106940e+003, 9.054700e-002
1.108868e+003, 8.369830e-002
1.110797e+003, 7.695721e-002
1.112725e+003, 7.069458e-002
1.114654e+003, 6.471837e-002
1.116582e+003, 5.907274e-002
1.118511e+003, 5.368479e-002
1.120439e+003, 4.859908e-002
1.122368e+003, 4.402811e-002
1.124296e+003, 3.979746e-002
1.126225e+003, 3.591741e-002
1.128153e+003, 3.243354e-002
1.130082e+003, 2.935237e-002
1.132010e+003, 2.661946e-002
1.133938e+003, 2.410709e-002
1.135867e+003, 2.198447e-002
1.137795e+003, 2.014733e-002
1.139724e+003, 1.865786e-002
1.141652e+003, 1.747114e-002
1.143581e+003, 1.656734e-002
1.145509e+003, 1.577907e-002
1.147438e+003, 1.497839e-002
1.149366e+003, 1.438404e-002
1.151295e+003, 1.384512e-002
1.153223e+003, 1.353762e-002
1.155152e+003, 1.349810e-002
1.157080e+003, 1.327231e-002
1.159009e+003, 1.298437e-002
1.160937e+003, 1.278602e-002
1.162865e+003, 1.271993e-002
1.164794e+003, 1.259458e-002
1.166722e+003, 1.247068e-002
1.168651e+003, 1.247404e-002
1.170579e+003, 1.256925e-002
1.172508e+003, 1.278880e-002
1.174436e+003, 1.296461e-002
1.176365e+003, 1.305168e-002
1.178293e+003, 1.317166e-002
1.180222e+003, 1.338988e-002
1.182150e+003, 1.358831e-002
1.184079e+003, 1.381131e-002
1.186007e+003, 1.389227e-002
1.187936e+003, 1.424809e-002
1.189864e+003, 1.473327e-002
1.191792e+003, 1.522121e-002
1.193721e+003, 1.592259e-002
1.195649e+003, 1.678418e-002
1.197578e+003, 1.763467e-002
1.199506e+003, 1.852503e-002
1.201435e+003, 1.979937e-002
1.203363e+003, 2.119576e-002
1.205292e+003, 2.281520e-002
1.207220e+003, 2.485209e-002
1.209149e+003, 2.735302e-002
1.211077e+003, 3.042301e-002
1.213006e+003, 3.396663e-002
1.214934e+003, 3.823416e-002
1.216863e+003, 4.334263e-002
1.218791e+003, 4.930847e-002
1.220719e+003, 5.599328e-002
1.222648e+003, 6.320269e-002
1.224576e+003, 7.087580e-002
1.226505e+003, 7.879576e-002
1.228433e+003, 8.671430e-002
1.230362e+003, 9.436849e-002
1.232290e+003, 1.015407e-001
1.234219e+003, 1.082783e-001
1.236147e+003, 1.147551e-001
1.238076e+003, 1.205784e-001
1.240004e+003, 1.254270e-001
1.241933e+003, 1.293930e-001
1.243861e+003, 1.323623e-001
1.245790e+003, 1.345971e-001
1.247718e+003, 1.360665e-001
1.249646e+003, 1.365454e-001
1.251575e+003, 1.362696e-001
1.253503e+003, 1.355967e-001
1.255432e+003, 1.344703e-001
1.257360e+003, 1.329381e-001
1.259289e+003, 1.313252e-001
1.261217e+003, 1.294210e-001
1.263146e+003, 1.272519e-001
1.265074e+003, 1.252052e-001
1.267003e+003, 1.230030e-001
1.268931e+003, 1.205872e-001
1.270860e+003, 1.179571e-001
1.272788e+003, 1.150481e-001
1.274717e+003, 1.121301e-001
1.276645e+003, 1.094545e-001
1.278573e+003, 1.068275e-001
1.280502e+003, 1.043634e-001
1.282430e+003, 1.019777e-001
1.284359e+003, 9.991939e-002
1.286287e+003, 9.811630e-002
1.288216e+003, 9.638899e-002
1.290144e+003, 9.501398e-002
1.292073e+003, 9.393601e-002
1.294001e+003, 9.277168e-002
1.295930e+003, 9.149069e-002
1.297858e+003, 9.018101e-002
1.299787e+003, 8.897997e-002
1.301715e+003, 8.766524e-002
1.303644e+003, 8.652756e-002
1.305572e+003, 8.549568e-002
1.307500e+003, 8.418564e-002
1.309429e+003, 8.287046e-002
1.311357e+003, 8.193041e-002
1.313286e+003, 8.074184e-002
1.315214e+003, 7.948378e-002
1.317143e+003, 7.842109e-002
1.319071e+003, 7.756915e-002
1.321000e+003, 7.664097e-002
1.322928e+003, 7.577316e-002
1.324857e+003, 7.500227e-002
1.326785e+003, 7.441743e-002
1.328714e+003, 7.429141e-002
1.330642e+003, 7.513552e-002
1.332571e+003, 7.714345e-002
1.334499e+003, 8.017287e-002
1.336427e+003, 8.444549e-002
1.338356e+003, 8.995190e-002
1.340284e+003, 9.570449e-002
1.342213e+003, 1.005999e-001
1.344141e+003, 1.044365e-001
1.346070e+003, 1.070393e-001
1.347998e+003, 1.083580e-001
1.349927e+003, 1.084647e-001
1.351855e+003, 1.075881e-001
1.353784e+003, 1.055845e-001
1.355712e+003, 1.027000e-001
1.357641e+003, 9.924287e-002
1.359569e+003, 9.549901e-002
1.361498e+003, 9.175704e-002
1.363426e+003, 8.787540e-002
1.365354e+003, 8.381611e-002
1.367283e+003, 8.005707e-002
1.369211e+003, 7.650796e-002
1.371140e+003, 7.301082e-002
1.373068e+003, 6.963104e-002
1.374997e+003, 6.623241e-002
1.376925e+003, 6.281871e-002
1.378854e+003, 5.938843e-002
1.380782e+003, 5.610660e-002
1.382711e+003, 5.320100e-002
1.384639e+003, 5.057766e-002
1.386568e+003, 4.806541e-002
1.388496e+003, 4.583513e-002
1.390424e+003, 4.416089e-002
1.392353e+003, 4.263022e-002
1.394281e+003, 4.091173e-002
1.396210e+003, 3.922822e-002
1.398138e+003, 3.783695e-002
1.400067e+003, 3.645548e-002
1.401995e+003, 3.496705e-002
1.403924e+003, 3.330306e-002
1.405852e+003, 3.167022e-002
1.407781e+003, 3.002429e-002
1.409709e+003, 2.864892e-002
1.411638e+003, 2.748131e-002
1.413566e+003, 2.651246e-002
1.415495e+003, 2.560227e-002
1.417423e+003, 2.466006e-002
1.419351e+003, 2.376810e-002
1.421280e+003, 2.297194e-002
1.423208e+003, 2.222212e-002
1.425137e+003, 2.123962e-002
1.427065e+003, 2.033978e-002
1.428994e+003, 1.928231e-002
1.430922e+003, 1.820770e-002
1.432851e+003, 1.728254e-002
1.434779e+003, 1.620495e-002
1.436708e+003, 1.518765e-002
1.438636e+003, 1.415726e-002
1.440565e+003, 1.308823e-002
1.442493e+003, 1.211519e-002
1.444422e+003, 1.117371e-002
1.446350e+003, 1.040252e-002
1.448278e+003, 9.855236e-003
1.450207e+003, 9.233714e-003
1.452135e+003, 8.754467e-003
1.454064e+003, 8.434380e-003
1.455992e+003, 8.105574e-003
1.457921e+003, 7.928058e-003
1.459849e+003, 7.744181e-003
1.461778e+003, 7.405228e-003
1.463706e+003, 7.038325e-003
1.465635e+003, 6.477427e-003
1.467563e+003, 6.073699e-003
1.469492e+003, 6.107249e-003
1.471420e+003, 6.144510e-003
1.473349e+003, 5.931146e-003
1.475277e+003, 5.787028e-003
1.477205e+003, 5.660174e-003
1.479134e+003, 5.393167e-003
1.481062e+003, 5.153261e-003
1.482991e+003, 5.106138e-003
1.484919e+003, 4.950983e-003
1.486848e+003, 4.877446e-003
1.488776e+003, 4.813800e-003
1.490705e+003, 4.866968e-003
1.492633e+003, 4.805308e-003
1.494562e+003, 4.603819e-003
1.496490e+003, 4.533014e-003
1.498419e+003, 4.381195e-003
1.500347e+003, 4.414767e-003
1.502276e+003, 4.390732e-003
1.504204e+003, 4.258555e-003
1.506132e+003, 4.196662e-003
1.508061e+003, 4.221754e-003
1.509989e+003, 4.168954e-003
1.511918e+003, 4.056174e-003
1.513846e+003, 4.083714e-003
1.515775e+003, 4.089378e-003
1.517703e+003, 3.877239e-003
1.519632e+003, 3.924416e-003
1.521560e+003, 3.949230e-003
1.523489e+003, 3.878076e-003
1.525417e+003, 3.879333e-003
1.527346e+003, 4.020325e-003
1.529274e+003, 3.963625e-003
1.531203e+003, 3.781090e-003
1.533131e+003, 3.784223e-003
1.535059e+003, 3.905524e-003
1.536988e+003, 4.108100e-003
1.538916e+003, 4.302192e-003
1.540845e+003, 4.412469e-003
1.542773e+003, 4.272188e-003
1.544702e+003, 4.348522e-003
1.546630e+003, 4.482713e-003
1.548559e+003, 4.392345e-003
1.550487e+003, 4.597919e-003
1.552416e+003, 4.922646e-003
1.554344e+003, 4.875384e-003
1.556273e+003, 4.934629e-003
1.558201e+003, 5.008829e-003
1.560130e+003, 5.042216e-003
1.562058e+003, 5.174140e-003
1.563986e+003, 5.327285e-003
1.565915e+003, 5.571838e-003
1.567843e+003, 5.753562e-003
1.569772e+003, 5.704258e-003
1.571700e+003, 5.808957e-003
1.573629e+003, 6.019474e-003
1.575557e+003, 6.083633e-003
1.577486e+003, 6.225836e-003
1.579414e+003, 6.306129e-003
1.581343e+003, 6.277084e-003
1.583271e+003, 6.322547e-003
1.585200e+003, 6.628708e-003
1.587128e+003, 6.716907e-003
1.589057e+003, 6.766920e-003
1.590985e+003, 6.807241e-003
1.592913e+003, 6.949780e-003
1.594842e+003, 7.198759e-003
1.596770e+003, 7.236875e-003
1.598699e+003, 7.139218e-003
1.600627e+003, 7.253779e-003
1.602556e+003, 7.363513e-003
1.604484e+003, 7.273795e-003
1.606413e+003, 6.928457e-003
1.608341e+003, 7.112319e-003
1.610270e+003, 7.409013e-003
1.612198e+003, 7.239810e-003
1.614127e+003, 7.122524e-003
1.616055e+003, 7.153975e-003
1.617984e+003, 7.345707e-003
1.619912e+003, 7.351869e-003
1.621840e+003, 7.296500e-003
1.623769e+003, 7.316270e-003
1.625697e+003, 7.219330e-003
1.627626e+003, 7.093992e-003
1.629554e+003, 7.167361e-003
1.631483e+003, 7.207634e-003
1.633411e+003, 7.230211e-003
1.635340e+003, 7.201638e-003
1.637268e+003, 7.220440e-003
1.639197e+003, 7.243932e-003
1.641125e+003, 7.092019e-003
1.643054e+003, 6.855826e-003
1.644982e+003, 6.836308e-003
1.646911e+003, 6.847080e-003
1.648839e+003, 6.815282e-003
1.650767e+003, 6.590548e-003
1.652696e+003, 6.463412e-003
1.654624e+003, 6.512891e-003
1.656553e+003, 6.551126e-003
1.658481e+003, 6.344127e-003
1.660410e+003, 6.034214e-003
1.662338e+003, 5.977411e-003
1.664267e+003, 6.158964e-003
1.666195e+003, 5.981107e-003
1.668124e+003, 5.735175e-003
1.670052e+003, 5.804502e-003
1.671981e+003, 5.828803e-003
1.673909e+003, 5.748264e-003
1.675838e+003, 5.624662e-003
1.677766e+003, 5.652266e-003
1.679694e+003, 5.667911e-003
1.681623e+003, 5.404544e-003
1.683551e+003, 5.397315e-003
1.685480e+003, 5.429155e-003
1.687408e+003, 5.250425e-003
1.689337e+003, 5.248990e-003
1.691265e+003, 5.277621e-003
1.693194e+003, 5.101942e-003
1.695122e+003, 4.945796e-003
1.697051e+003, 4.994674e-003
1.698979e+003, 5.039810e-003
1.700908e+003, 4.913099e-003
1.702836e+003, 4.918967e-003
1.704765e+003, 5.099247e-003
1.706693e+003, 5.043129e-003
1.708621e+003, 5.010419e-003
1.710550e+003, 5.046494e-003
1.712478e+003, 5.038651e-003
1.714407e+003, 4.971014e-003
1.716335e+003, 5.022241e-003
1.718264e+003, 4.925180e-003
1.720192e+003, 4.667243e-003
1.722121e+003, 4.553579e-003
1.724049e+003, 4.566041e-003
1.725978e+003, 4.657410e-003
1.727906e+003, 4.499545e-003
1.729835e+003, 4.511895e-003
1.731763e+003, 4.420708e-003
1.733692e+003, 4.114480e-003
1.735620e+003, 4.069912e-003
1.737548e+003, 4.204521e-003
1.739477e+003, 4.224727e-003
1.741405e+003, 4.165999e-003
1.743334e+003, 3.947497e-003
1.745262e+003, 3.891301e-003
1.747191e+003, 3.847137e-003
1.749119e+003, 3.858204e-003
1.751048e+003, 3.929529e-003
1.752976e+003, 3.952137e-003
1.754905e+003, 4.123092e-003
1.756833e+003, 4.173690e-003
1.758762e+003, 4.078967e-003
1.760690e+003, 4.382978e-003
1.762619e+003, 4.397297e-003
1.764547e+003, 4.024986e-003
1.766475e+003, 4.063576e-003
1.768404e+003, 4.477461e-003
1.770332e+003, 4.633115e-003
1.772261e+003, 4.701794e-003
1.774189e+003, 4.339645e-003
1.776118e+003, 4.015327e-003
1.778046e+003, 4.068671e-003
1.779975e+003, 4.219193e-003
1.781903e+003, 4.589305e-003
1.783832e+003, 4.648505e-003
1.785760e+003, 4.510628e-003
1.787689e+003, 4.394928e-003
1.789617e+003, 4.528197e-003
1.791546e+003, 4.708403e-003
1.793474e+003, 4.450880e-003
1.795402e+003, 4.256885e-003
1.797331e+003, 4.718593e-003
1.799259e+003, 4.888620e-003
1.801188e+003, 4.591546e-003
1.803116e+003, 4.446601e-003
1.805045e+003, 4.641217e-003
1.806973e+003, 4.421323e-003
1.808902e+003, 4.061227e-003
1.810830e+003, 4.326512e-003
1.812759e+003, 4.489136e-003
1.814687e+003, 4.133950e-003
1.816616e+003, 3.935189e-003
1.818544e+003, 4.101076e-003
1.820473e+003, 4.241322e-003
1.822401e+003, 4.315700e-003
1.824329e+003, 4.435576e-003
1.826258e+003, 4.466253e-003
1.828186e+003, 4.216383e-003
1.830115e+003, 3.929185e-003
1.832043e+003, 4.084758e-003
1.833972e+003, 4.170304e-003
1.835900e+003, 4.116910e-003
1.837829e+003, 3.932185e-003
1.839757e+003, 4.096221e-003
1.841686e+003, 4.082610e-003
1.843614e+003, 3.688755e-003
1.845543e+003, 3.678181e-003
1.847471e+003, 3.460494e-003
1.849400e+003, 3.058338e-003
1.851328e+003, 3.114244e-003
1.853256e+003, 3.302386e-003
1.855185e+003, 3.532135e-003
1.857113e+003, 3.600462e-003
1.859042e+003, 3.724311e-003
1.860970e+003, 3.602749e-003
1.862899e+003, 3.388149e-003
1.864827e+003, 3.171171e-003
1.866756e+003, 3.401386e-003
1.868684e+003, 3.601906e-003
1.870613e+003, 3.481312e-003
1.872541e+003, 3.732010e-003
1.874470e+003, 3.590493e-003
1.876398e+003, 3.223900e-003
1.878327e+003, 2.971827e-003
1.880255e+003, 3.126716e-003
1.882183e+003, 3.063071e-003
1.884112e+003, 2.542710e-003
1.886040e+003, 2.952193e-003
1.887969e+003, 2.788297e-003
1.889897e+003, 2.595196e-003
1.891826e+003, 2.728594e-003
1.893754e+003, 2.796103e-003
1.895683e+003, 2.799775e-003
1.897611e+003, 2.662076e-003
1.899540e+003, 2.463891e-003
1.901468e+003, 1.938473e-003
1.903397e+003, 1.660637e-003
1.905325e+003, 2.210954e-003
1.907254e+003, 3.013112e-003
1.909182e+003, 2.572808e-003
1.911110e+003, 2.281115e-003
1.913039e+003, 1.962183e-003
1.914967e+003, 1.558430e-003
1.916896e+003, 2.199514e-003
1.918824e+003, 2.721938e-003
1.920753e+003, 1.763709e-003
1.922681e+003, 1.267673e-003
1.924610e+003, 1.919433e-003
1.926538e+003, 1.913045e-003
1.928467e+003, 1.299919e-003
1.930395e+003, 1.067241e-003
1.932324e+003, 1.515709e-003
1.934252e+003, 1.369310e-003
1.936181e+003, 3.562069e-004
1.938109e+003, 3.017683e-004
1.940037e+003, 6.300256e-004
1.941966e+003, 5.119885e-004
1.943894e+003, 6.622929e-004
1.945823e+003, 3.498164e-004
1.947751e+003, -8.018944e-004
1.949680e+003, -4.037343e-004
1.951608e+003, -7.885479e-004
1.953537e+003, -1.117450e-003
1.955465e+003, -9.218969e-005
1.957394e+003, -2.460839e-004
1.959322e+003, -8.083768e-004
1.961251e+003, -1.967959e-003
1.963179e+003, -2.224575e-003
1.965108e+003, -8.393042e-004
1.967036e+003, -1.200701e-003
1.968964e+003, -2.846583e-003
1.970893e+003, -2.836348e-003
1.972821e+003, -3.329567e-003
1.974750e+003, -4.463099e-003
1.976678e+003, -3.271213e-003
1.978607e+003, -3.789759e-004
1.980535e+003, -7.286238e-004
1.982464e+003, -1.637254e-003
1.984392e+003, -1.172179e-003
1.986321e+003, -7.274483e-004
1.988249e+003, -9.742272e-004
1.990178e+003, -1.041691e-003
1.992106e+003, -2.231400e-003
1.994035e+003, -1.576610e-003
1.995963e+003, -9.985301e-004
1.997891e+003, -1.369628e-003
1.999820e+003, -8.110707e-004
2.001748e+003, -1.674509e-003
2.003677e+003, -3.237773e-003
2.005605e+003, -3.108791e-003
2.007534e+003, -1.947905e-003
2.009462e+003, -8.902519e-004
2.011391e+003, -1.340983e-003
2.013319e+003, -1.768644e-003
2.015248e+003, -2.067557e-003
2.017176e+003, -3.221261e-003
2.019105e+003, -3.162877e-003
2.021033e+003, -1.949273e-003
2.022962e+003, -1.318682e-003
2.024890e+003, -2.630195e-003
2.026818e+003, -3.391918e-003
2.028747e+003, -2.661868e-003
2.030675e+003, -1.475243e-003
2.032604e+003, -9.122155e-004
2.034532e+003, -1.288162e-003
2.036461e+003, -7.724385e-004
2.038389e+003, 7.963516e-004
2.040318e+003, 2.665740e-004
2.042246e+003, 2.063198e-004
2.044175e+003, -7.545004e-004
2.046103e+003, -1.200676e-003
2.048032e+003, 7.081169e-004
2.049960e+003, 1.513803e-003
2.051889e+003, 1.327219e-003
2.053817e+003, 5.385233e-004
2.055746e+003, 5.661607e-004
2.057674e+003, 1.359382e-003
2.059603e+003, 1.914305e-003
2.061531e+003, 7.578714e-004
2.063459e+003, 2.851844e-004
2.065388e+003, 4.062211e-004
2.067316e+003, -5.869344e-004
2.069245e+003, -5.228623e-004
2.071173e+003, 7.213309e-004
2.073102e+003, 1.328890e-003
2.075030e+003, 1.581214e-003
2.076959e+003, 1.957587e-003
2.078887e+003, 2.679558e-003
2.080816e+003, 2.698922e-003
2.082744e+003, 2.233925e-003
2.084673e+003, 2.381423e-003
2.086601e+003, 1.746184e-003
2.088530e+003, 4.314654e-004
2.090458e+003, 1.193915e-003
2.092386e+003, 2.048599e-003
2.094315e+003, 1.705035e-003
2.096243e+003, 2.051272e-003
2.098172e+003, 2.826845e-003
2.100100e+003, 2.706258e-003
2.102029e+003, 2.234272e-003
2.103957e+003, 2.640062e-003
2.105886e+003, 3.521348e-003
2.107814e+003, 3.805201e-003
2.109743e+003, 3.645217e-003
2.111671e+003, 2.920871e-003
2.113600e+003, 2.919047e-003
2.115528e+003, 3.228007e-003
2.117457e+003, 2.395816e-003
2.119385e+003, 2.130848e-003
2.121313e+003, 3.608362e-003
2.123242e+003, 3.568424e-003
2.125170e+003, 2.313919e-003
2.127099e+003, 1.562217e-003
2.129027e+003, 1.246418e-003
2.130956e+003, 8.854141e-004
2.132884e+003, 4.967442e-004
2.134813e+003, -4.262111e-004
2.136741e+003, -4.442826e-004
2.138670e+003, 7.701924e-004
2.140598e+003, 8.871735e-004
2.142527e+003, -2.995727e-004
2.144455e+003, -5.513262e-004
2.146384e+003, 1.538817e-004
2.148312e+003, -1.078610e-004
2.150240e+003, -9.849070e-004
2.152169e+003, -1.162146e-003
2.154097e+003, -2.248227e-003
2.156026e+003, -5.124196e-003
2.157954e+003, -4.746900e-003
2.159883e+003, -5.676268e-004
2.161811e+003, 1.931908e-003
2.163740e+003, 3.412714e-003
2.165668e+003, 2.080049e-003
2.167597e+003, 2.575368e-004
2.169525e+003, -2.283177e-005
2.171454e+003, -2.897338e-004
2.173382e+003, 9.211714e-004
2.175311e+003, 3.160629e-003
2.177239e+003, 4.501430e-003
2.179167e+003, 3.233113e-003
2.181096e+003, 8.739690e-004
2.183024e+003, 1.310617e-003
2.184953e+003, 2.508580e-003
2.186881e+003, 2.908870e-003
2.188810e+003, 2.664207e-003
2.190738e+003, 3.280173e-003
2.192667e+003, 3.116715e-003
2.194595e+003, 3.250861e-003
2.196524e+003, 2.958587e-003
2.198452e+003, 2.206092e-003
2.200381e+003, 2.913111e-003
2.202309e+003, 4.315690e-003
2.204238e+003, 5.445526e-003
2.206166e+003, 4.704005e-003
2.208094e+003, 3.191670e-003
2.210023e+003, 3.660946e-003
2.211951e+003, 3.050225e-003
2.213880e+003, 3.309329e-003
2.215808e+003, 4.841174e-003
2.217737e+003, 4.453316e-003
2.219665e+003, 3.876786e-003
2.221594e+003, 5.156195e-003
2.223522e+003, 6.437448e-003
2.225451e+003, 6.590560e-003
2.227379e+003, 6.616523e-003
2.229308e+003, 6.767910e-003
2.231236e+003, 6.901306e-003
2.233165e+003, 7.539460e-003
2.235093e+003, 7.999917e-003
2.237021e+003, 7.186506e-003
2.238950e+003, 6.538177e-003
2.240878e+003, 6.612964e-003
2.242807e+003, 6.296658e-003
2.244735e+003, 7.049678e-003
2.246664e+003, 7.892935e-003
2.248592e+003, 8.659537e-003
2.250521e+003, 9.236565e-003
2.252449e+003, 8.726043e-003
2.254378e+003, 7.590076e-003
2.256306e+003, 8.846916e-003
2.258235e+003, 9.813956e-003
2.260163e+003, 8.272963e-003
2.262092e+003, 7.307353e-003
2.264020e+003, 8.427221e-003
2.265948e+003, 8.760532e-003
2.267877e+003, 8.625357e-003
2.269805e+003, 8.367879e-003
2.271734e+003, 9.039167e-003
2.273662e+003, 1.010213e-002
2.275591e+003, 1.016398e-002
2.277519e+003, 9.874823e-003
2.279448e+003, 9.641535e-003
2.281376e+003, 1.050632e-002
2.283305e+003, 1.109248e-002
2.285233e+003, 1.061080e-002
2.287162e+003, 9.122839e-003
2.289090e+003, 8.867181e-003
2.291019e+003, 1.001543e-002
2.292947e+003, 1.017654e-002
2.294875e+003, 9.967304e-003
2.296804e+003, 1.032871e-002
2.298732e+003, 1.062018e-002
2.300661e+003, 1.065366e-002
2.302589e+003, 1.000546e-002
2.304518e+003, 9.840262e-003
2.306446e+003, 1.028065e-002
2.308375e+003, 1.021075e-002
2.310303e+003, 1.024347e-002
2.312232e+003, 1.076225e-002
2.314160e+003, 1.063616e-002
2.316089e+003, 1.054722e-002
2.318017e+003, 1.051184e-002
2.319946e+003, 1.053172e-002
2.321874e+003, 1.157231e-002
2.323802e+003, 1.182147e-002
2.325731e+003, 1.038017e-002
2.327659e+003, 9.416588e-003
2.329588e+003, 9.554501e-003
2.331516e+003, 9.989168e-003
2.333445e+003, 1.007253e-002
2.335373e+003, 9.905629e-003
2.337302e+003, 9.853777e-003
2.339230e+003, 9.830467e-003
2.341159e+003, 9.811751e-003
2.343087e+003, 9.623270e-003
2.345016e+003, 9.636586e-003
2.346944e+003, 1.016486e-002
2.348873e+003, 1.008714e-002
2.350801e+003, 9.704182e-003
2.352729e+003, 9.842710e-003
2.354658e+003, 9.967013e-003
2.356586e+003, 9.918974e-003
2.358515e+003, 9.658012e-003
2.360443e+003, 9.650827e-003
2.362372e+003, 9.573461e-003
2.364300e+003, 9.827852e-003
2.366229e+003, 9.925674e-003
2.368157e+003, 9.487304e-003
2.370086e+003, 9.168200e-003
2.372014e+003, 9.199592e-003
2.373942e+003, 9.317537e-003
2.375871e+003, 9.125534e-003
2.377799e+003, 9.014812e-003
2.379728e+003, 9.211054e-003
2.381656e+003, 9.174627e-003
2.383585e+003, 8.725986e-003
2.385513e+003, 8.753831e-003
2.387442e+003, 8.924232e-003
2.389370e+003, 8.911444e-003
2.391299e+003, 8.744641e-003
2.393227e+003, 8.275502e-003
2.395156e+003, 8.394053e-003
2.397084e+003, 8.522566e-003
2.399012e+003, 8.534520e-003
2.400941e+003, 8.762233e-003
2.402869e+003, 9.280496e-003
2.404798e+003, 9.066506e-003
2.406726e+003, 8.682270e-003
2.408655e+003, 8.525472e-003
2.410583e+003, 8.547679e-003
2.412512e+003, 8.839689e-003
2.414440e+003, 8.751963e-003
2.416369e+003, 8.162973e-003
2.418297e+003, 8.266477e-003
2.420226e+003, 8.492857e-003
2.422154e+003, 7.992946e-003
2.424083e+003, 8.018328e-003
2.426011e+003, 9.083806e-003
2.427939e+003, 8.964853e-003
2.429868e+003, 8.134578e-003
2.431796e+003, 7.906720e-003
2.433725e+003, 8.938802e-003
2.435653e+003, 9.227852e-003
2.437582e+003, 9.157191e-003
2.439510e+003, 8.829468e-003
2.441439e+003, 8.792727e-003
2.443367e+003, 8.487470e-003
2.445296e+003, 8.279636e-003
2.447224e+003, 8.421504e-003
2.449153e+003, 8.063966e-003
2.451081e+003, 8.196426e-003
2.453010e+003, 8.707456e-003
2.454938e+003, 8.380901e-003
2.456866e+003, 8.025138e-003
2.458795e+003, 7.867279e-003
2.460723e+003, 8.086697e-003
2.462652e+003, 7.390964e-003
2.464580e+003, 6.251025e-003
2.466509e+003, 6.044426e-003
2.468437e+003, 6.724162e-003
2.470366e+003, 6.771588e-003
2.472294e+003, 6.348046e-003
2.474223e+003, 6.047005e-003
2.476151e+003, 6.350026e-003
2.478080e+003, 6.114976e-003
2.480008e+003, 5.822020e-003
2.481937e+003, 5.970259e-003
2.483865e+003, 6.838985e-003
2.485793e+003, 7.220177e-003
2.487722e+003, 6.965910e-003
2.489650e+003, 6.937271e-003
2.491579e+003, 7.076672e-003
2.493507e+003, 5.834603e-003
2.495436e+003, 5.288763e-003
2.497364e+003, 5.340416e-003
2.499293e+003, 5.827825e-003
2.501221e+003, 6.006645e-003
2.503150e+003, 5.962155e-003
2.505078e+003, 6.481734e-003
2.507007e+003, 6.870349e-003
2.508935e+003, 6.296627e-003
2.510864e+003, 6.210179e-003
2.512792e+003, 6.776114e-003
2.514720e+003, 6.317683e-003
2.516649e+003, 5.823024e-003
2.518577e+003, 6.081806e-003
2.520506e+003, 6.363548e-003
2.522434e+003, 6.173150e-003
2.524363e+003, 5.495066e-003
2.526291e+003, 4.902126e-003
2.528220e+003, 5.549852e-003
2.530148e+003, 6.565237e-003
2.532077e+003, 6.578934e-003
2.534005e+003, 7.364939e-003
2.535934e+003, 7.544137e-003
2.537862e+003, 7.572056e-003
2.539791e+003, 7.498841e-003
2.541719e+003, 7.773358e-003
2.543647e+003, 7.826108e-003
2.545576e+003, 7.302111e-003
2.547504e+003, 6.525444e-003
2.549433e+003, 6.802160e-003
2.551361e+003, 7.513427e-003
2.553290e+003, 7.008420e-003
2.555218e+003, 7.431364e-003
2.557147e+003, 8.205434e-003
2.559075e+003, 7.654813e-003
2.561004e+003, 7.174431e-003
2.562932e+003, 7.236587e-003
2.564861e+003, 8.185238e-003
2.566789e+003, 8.454019e-003
2.568718e+003, 8.122783e-003
2.570646e+003, 8.421836e-003
2.572574e+003, 8.392511e-003
2.574503e+003, 8.104130e-003
2.576431e+003, 7.902384e-003
2.578360e+003, 8.055260e-003
2.580288e+003, 8.157562e-003
2.582217e+003, 8.014657e-003
2.584145e+003, 7.880860e-003
2.586074e+003, 7.548790e-003
2.588002e+003, 7.167557e-003
2.589931e+003, 7.655344e-003
2.591859e+003, 8.648739e-003
2.593788e+003, 9.268423e-003
2.595716e+003, 9.854907e-003
2.597645e+003, 9.598741e-003
2.599573e+003, 9.106299e-003
2.601501e+003, 9.135647e-003
2.603430e+003, 8.782538e-003
2.605358e+003, 8.179168e-003
2.607287e+003, 9.061908e-003
2.609215e+003, 1.016861e-002
2.611144e+003, 1.014322e-002
2.613072e+003, 9.672252e-003
2.615001e+003, 9.724657e-003
2.616929e+003, 9.886199e-003
2.618858e+003, 1.000378e-002
2.620786e+003, 1.001167e-002
2.622715e+003, 9.863084e-003
2.624643e+003, 1.020215e-002
2.626572e+003, 1.021702e-002
2.628500e+003, 9.611922e-003
2.630428e+003, 9.850685e-003
2.632357e+003, 1.044283e-002
2.634285e+003, 1.112806e-002
2.636214e+003, 1.064723e-002
2.638142e+003, 9.881601e-003
2.640071e+003, 1.071844e-002
2.641999e+003, 1.056873e-002
2.643928e+003, 1.011395e-002
2.645856e+003, 1.021977e-002
2.647785e+003, 1.054025e-002
2.649713e+003, 1.071354e-002
2.651642e+003, 1.050346e-002
2.653570e+003, 1.024344e-002
2.655499e+003, 1.011445e-002
2.657427e+003, 1.005420e-002
2.659355e+003, 9.824369e-003
2.661284e+003, 9.865732e-003
2.663212e+003, 9.773917e-003
2.665141e+003, 9.865958e-003
2.667069e+003, 9.954027e-003
2.668998e+003, 1.033413e-002
2.670926e+003, 1.016044e-002
2.672855e+003, 9.965523e-003
2.674783e+003, 9.947328e-003
2.676712e+003, 9.981694e-003
2.678640e+003, 9.700935e-003
2.680569e+003, 8.955573e-003
2.682497e+003, 9.234695e-003
2.684426e+003, 9.406667e-003
2.686354e+003, 9.053568e-003
2.688282e+003, 9.327785e-003
2.690211e+003, 9.728548e-003
2.692139e+003, 9.979485e-003
2.694068e+003, 9.988793e-003
2.695996e+003, 9.931437e-003
2.697925e+003, 9.957294e-003
2.699853e+003, 9.573910e-003
2.701782e+003, 9.088421e-003
2.703710e+003, 9.344743e-003
2.705639e+003, 9.807751e-003
2.707567e+003, 9.487395e-003
2.709496e+003, 9.224843e-003
2.711424e+003, 9.351932e-003
2.713353e+003, 9.228369e-003
2.715281e+003, 9.214707e-003
2.717209e+003, 9.569649e-003
2.719138e+003, 9.920552e-003
2.721066e+003, 1.001888e-002
2.722995e+003, 9.906874e-003
2.724923e+003, 9.771683e-003
2.726852e+003, 9.875534e-003
2.728780e+003, 1.020522e-002
2.730709e+003, 1.012674e-002
2.732637e+003, 1.000386e-002
2.734566e+003, 9.969530e-003
2.736494e+003, 9.538115e-003
2.738423e+003, 9.411852e-003
2.740351e+003, 9.539018e-003
2.742280e+003, 1.023903e-002
2.744208e+003, 1.072111e-002
2.746136e+003, 1.027279e-002
2.748065e+003, 9.897634e-003
2.749993e+003, 1.002394e-002
2.751922e+003, 1.019492e-002
2.753850e+003, 1.040786e-002
2.755779e+003, 1.003397e-002
2.757707e+003, 1.033617e-002
2.759636e+003, 1.068839e-002
2.761564e+003, 1.025889e-002
2.763493e+003, 1.078259e-002
2.765421e+003, 1.098929e-002
2.767350e+003, 1.020880e-002
2.769278e+003, 9.910197e-003
2.771207e+003, 1.035981e-002
2.773135e+003, 1.095642e-002
2.775063e+003, 1.086374e-002
2.776992e+003, 1.056466e-002
2.778920e+003, 1.081956e-002
2.780849e+003, 1.167703e-002
2.782777e+003, 1.159948e-002
2.784706e+003, 1.136719e-002
2.786634e+003, 1.134207e-002
2.788563e+003, 1.124733e-002
2.790491e+003, 1.109777e-002
2.792420e+003, 1.136655e-002
2.794348e+003, 1.161835e-002
2.796277e+003, 1.116828e-002
2.798205e+003, 1.112854e-002
2.800134e+003, 1.149329e-002
2.802062e+003, 1.139680e-002
2.803990e+003, 1.117893e-002
2.805919e+003, 1.085807e-002
2.807847e+003, 1.102587e-002
2.809776e+003, 1.103692e-002
2.811704e+003, 1.101338e-002
2.813633e+003, 1.168969e-002
2.815561e+003, 1.192320e-002
2.817490e+003, 1.185605e-002
2.819418e+003, 1.190624e-002
2.821347e+003, 1.185982e-002
2.823275e+003, 1.205837e-002
2.825204e+003, 1.175269e-002
2.827132e+003, 1.184858e-002
2.829061e+003, 1.242458e-002
2.830989e+003, 1.264579e-002
2.832917e+003, 1.252743e-002
2.834846e+003, 1.275166e-002
2.836774e+003, 1.283784e-002
2.838703e+003, 1.252774e-002
2.840631e+003, 1.210655e-002
2.842560e+003, 1.209859e-002
2.844488e+003, 1.226652e-002
2.846417e+003, 1.231580e-002
2.848345e+003, 1.250126e-002
2.850274e+003, 1.210901e-002
2.852202e+003, 1.117763e-002
2.854131e+003, 1.059464e-002
2.856059e+003, 1.110614e-002
2.857988e+003, 1.163114e-002
2.859916e+003, 1.173283e-002
2.861844e+003, 1.215281e-002
2.863773e+003, 1.201660e-002
2.865701e+003, 1.194167e-002
2.867630e+003, 1.166818e-002
2.869558e+003, 1.199278e-002
2.871487e+003, 1.217079e-002
2.873415e+003, 1.263216e-002
2.875344e+003, 1.330941e-002
2.877272e+003, 1.347040e-002
2.879201e+003, 1.318427e-002
2.881129e+003, 1.288635e-002
2.883058e+003, 1.293271e-002
2.884986e+003, 1.297053e-002
2.886915e+003, 1.269102e-002
2.888843e+003, 1.310935e-002
2.890771e+003, 1.340366e-002
2.892700e+003, 1.324076e-002
2.894628e+003, 1.300729e-002
2.896557e+003, 1.265857e-002
2.898485e+003, 1.257755e-002
2.900414e+003, 1.257495e-002
2.902342e+003, 1.216620e-002
2.904271e+003, 1.198823e-002
2.906199e+003, 1.236605e-002
2.908128e+003, 1.245162e-002
2.910056e+003, 1.228392e-002
2.911985e+003, 1.173188e-002
2.913913e+003, 1.164006e-002
2.915842e+003, 1.280833e-002
2.917770e+003, 1.256008e-002
2.919698e+003, 1.184693e-002
2.921627e+003, 1.179281e-002
2.923555e+003, 1.222070e-002
2.925484e+003, 1.164803e-002
2.927412e+003, 1.123582e-002
2.929341e+003, 1.138816e-002
2.931269e+003, 1.151738e-002
2.933198e+003, 1.162882e-002
2.935126e+003, 1.119803e-002
2.937055e+003, 1.163920e-002
2.938983e+003, 1.217910e-002
2.940912e+003, 1.307202e-002
2.942840e+003, 1.380397e-002
2.944769e+003, 1.331778e-002
2.946697e+003, 1.339527e-002
2.948625e+003, 1.320886e-002
2.950554e+003, 1.253592e-002
2.952482e+003, 1.255953e-002
2.954411e+003, 1.312935e-002
2.956339e+003, 1.385303e-002
2.958268e+003, 1.410890e-002
2.960196e+003, 1.374678e-002
2.962125e+003, 1.378311e-002
2.964053e+003, 1.350543e-002
2.965982e+003, 1.333745e-002
2.967910e+003, 1.352559e-002
2.969839e+003, 1.369239e-002
2.971767e+003, 1.324667e-002
2.973696e+003, 1.375469e-002
2.975624e+003, 1.440512e-002
2.977552e+003, 1.503534e-002
2.979481e+003, 1.493661e-002
2.981409e+003, 1.449526e-002
2.983338e+003, 1.428384e-002
2.985266e+003, 1.450971e-002
2.987195e+003, 1.455091e-002
2.989123e+003, 1.573550e-002
2.991052e+003, 1.604824e-002
2.992980e+003, 1.517605e-002
2.994909e+003, 1.439362e-002
2.996837e+003, 1.354874e-002
2.998766e+003, 1.344863e-002
3.000694e+003, 1.359572e-002
3.002623e+003, 1.380262e-002
3.004551e+003, 1.473906e-002
3.006479e+003, 1.478569e-002
3.008408e+003, 1.453611e-002
3.010336e+003, 1.421262e-002
3.012265e+003, 1.481778e-002
3.014193e+003, 1.574446e-002
3.016122e+003, 1.513647e-002
3.018050e+003, 1.484654e-002
3.019979e+003, 1.479581e-002
3.021907e+003, 1.455759e-002
3.023836e+003, 1.502073e-002
3.025764e+003, 1.570668e-002
3.027693e+003, 1.550370e-002
3.029621e+003, 1.532994e-002
3.031550e+003, 1.604385e-002
3.033478e+003, 1.573665e-002
3.035406e+003, 1.578167e-002
3.037335e+003, 1.605765e-002
3.039263e+003, 1.582414e-002
3.041192e+003, 1.587752e-002
3.043120e+003, 1.637773e-002
3.045049e+003, 1.620353e-002
3.046977e+003, 1.660151e-002
3.048906e+003, 1.602096e-002
3.050834e+003, 1.578853e-002
3.052763e+003, 1.544356e-002
3.054691e+003, 1.452364e-002
3.056620e+003, 1.536256e-002
3.058548e+003, 1.648456e-002
3.060477e+003, 1.666253e-002
3.062405e+003, 1.649723e-002
3.064333e+003, 1.661310e-002
3.066262e+003, 1.593540e-002
3.068190e+003, 1.543994e-002
3.070119e+003, 1.513817e-002
3.072047e+003, 1.550343e-002
3.073976e+003, 1.616332e-002
3.075904e+003, 1.658409e-002
3.077833e+003, 1.692732e-002
3.079761e+003, 1.683376e-002
3.081690e+003, 1.536843e-002
3.083618e+003, 1.459093e-002
3.085547e+003, 1.562120e-002
3.087475e+003, 1.652426e-002
3.089404e+003, 1.710510e-002
3.091332e+003, 1.625530e-002
3.093260e+003, 1.593019e-002
3.095189e+003, 1.639528e-002
3.097117e+003, 1.720653e-002
3.099046e+003, 1.717346e-002
3.100974e+003, 1.726064e-002
3.102903e+003, 1.739166e-002
3.104831e+003, 1.692568e-002
3.106760e+003, 1.612295e-002
3.108688e+003, 1.700741e-002
3.110617e+003, 1.765887e-002
3.112545e+003, 1.682581e-002
3.114474e+003, 1.675798e-002
3.116402e+003, 1.660151e-002
3.118331e+003, 1.672684e-002
3.120259e+003, 1.743647e-002
3.122188e+003, 1.746255e-002
3.124116e+003, 1.737897e-002
3.126044e+003, 1.654047e-002
3.127973e+003, 1.606281e-002
3.129901e+003, 1.681600e-002
3.131830e+003, 1.826174e-002
3.133758e+003, 1.824288e-002
3.135687e+003, 1.782308e-002
3.137615e+003, 1.788587e-002
3.139544e+003, 1.889642e-002
3.141472e+003, 1.878085e-002
3.143401e+003, 1.800950e-002
3.145329e+003, 1.667468e-002
3.147258e+003, 1.628341e-002
3.149186e+003, 1.658074e-002
3.151115e+003, 1.616178e-002
3.153043e+003, 1.650440e-002
3.154971e+003, 1.823373e-002
3.156900e+003, 1.789363e-002
3.158828e+003, 1.704093e-002
3.160757e+003, 1.767009e-002
3.162685e+003, 1.855254e-002
3.164614e+003, 1.834737e-002
3.166542e+003, 1.801717e-002
3.168471e+003, 1.740284e-002
3.170399e+003, 1.748885e-002
3.172328e+003, 1.705852e-002
3.174256e+003, 1.692056e-002
3.176185e+003, 1.725486e-002
3.178113e+003, 1.808685e-002
3.180042e+003, 1.785870e-002
3.181970e+003, 1.713887e-002
3.183898e+003, 1.746620e-002
3.185827e+003, 1.878801e-002
3.187755e+003, 1.823322e-002
3.189684e+003, 1.811800e-002
3.191612e+003, 1.874034e-002
3.193541e+003, 1.887673e-002
3.195469e+003, 1.850609e-002
3.197398e+003, 1.836566e-002
3.199326e+003, 1.885193e-002
3.201255e+003, 1.974922e-002
3.203183e+003, 1.924168e-002
3.205112e+003, 1.847314e-002
3.207040e+003, 1.809192e-002
3.208969e+003, 1.776181e-002
3.210897e+003, 1.864859e-002
3.212825e+003, 1.932054e-002
3.214754e+003, 1.838203e-002
3.216682e+003, 1.840408e-002
3.218611e+003, 1.926785e-002
3.220539e+003, 1.981374e-002
3.222468e+003, 1.902217e-002
3.224396e+003, 1.831019e-002
3.226325e+003, 1.847473e-002
3.228253e+003, 1.925628e-002
3.230182e+003, 1.895487e-002
3.232110e+003, 1.877722e-002
3.234039e+003, 1.881090e-002
3.235967e+003, 1.810054e-002
3.237896e+003, 1.891021e-002
3.239824e+003, 1.931703e-002
3.241752e+003, 1.820113e-002
3.243681e+003, 1.940845e-002
3.245609e+003, 2.009746e-002
3.247538e+003, 1.949088e-002
3.249466e+003, 1.872464e-002
3.251395e+003, 1.910097e-002
3.253323e+003, 1.842160e-002
3.255252e+003, 1.887690e-002
3.257180e+003, 2.024202e-002
3.259109e+003, 2.050773e-002
3.261037e+003, 1.948951e-002
3.262966e+003, 1.960287e-002
3.264894e+003, 1.952737e-002
3.266823e+003, 1.936662e-002
3.268751e+003, 1.965026e-002
3.270679e+003, 2.070765e-002
3.272608e+003, 2.091847e-002
3.274536e+003, 1.939915e-002
3.276465e+003, 1.873731e-002
3.278393e+003, 1.897917e-002
3.280322e+003, 1.847394e-002
3.282250e+003, 1.860632e-002
3.284179e+003, 1.929037e-002
3.286107e+003, 1.992076e-002
3.288036e+003, 1.958150e-002
3.289964e+003, 1.950170e-002
3.291893e+003, 1.885483e-002
3.293821e+003, 1.912997e-002
3.295750e+003, 2.041403e-002
3.297678e+003, 2.102716e-002
3.299606e+003, 2.081702e-002
3.301535e+003, 2.001572e-002
3.303463e+003, 1.997713e-002
3.305392e+003, 1.952365e-002
3.307320e+003, 1.943574e-002
3.309249e+003, 1.912457e-002
3.311177e+003, 1.922755e-002
3.313106e+003, 2.020076e-002
3.315034e+003, 1.909745e-002
3.316963e+003, 1.836946e-002
3.318891e+003, 1.817254e-002
3.320820e+003, 1.872464e-002
3.322748e+003, 1.887505e-002
3.324677e+003, 1.933519e-002
3.326605e+003, 2.022192e-002
3.328533e+003, 2.091537e-002
3.330462e+003, 1.937420e-002
3.332390e+003, 2.028396e-002
3.334319e+003, 2.188697e-002
3.336247e+003, 2.160214e-002
3.338176e+003, 2.003261e-002
3.340104e+003, 1.844303e-002
3.342033e+003, 1.851592e-002
3.343961e+003, 1.911017e-002
3.345890e+003, 1.877289e-002
3.347818e+003, 1.960806e-002
3.349747e+003, 1.943251e-002
3.351675e+003, 1.950340e-002
3.353604e+003, 1.983876e-002
3.355532e+003, 2.047786e-002
3.357460e+003, 2.088610e-002
3.359389e+003, 2.114739e-002
3.361317e+003, 2.071194e-002
3.363246e+003, 2.068871e-002
3.365174e+003, 2.065107e-002
3.367103e+003, 2.136653e-002
3.369031e+003, 2.160103e-002
3.370960e+003, 2.099113e-002
3.372888e+003, 2.061389e-002
3.374817e+003, 2.092877e-002
3.376745e+003, 2.047163e-002
3.378674e+003, 2.088601e-002
3.380602e+003, 2.110961e-002
3.382531e+003, 2.063619e-002
3.384459e+003, 2.140838e-002
3.386387e+003, 2.090683e-002
3.388316e+003, 1.966050e-002
3.390244e+003, 1.993780e-002
3.392173e+003, 2.066778e-002
3.394101e+003, 2.108751e-002
3.396030e+003, 2.172204e-002
3.397958e+003, 2.237424e-002
3.399887e+003, 2.183600e-002
3.401815e+003, 2.211065e-002
3.403744e+003, 2.181909e-002
3.405672e+003, 2.131595e-002
3.407601e+003, 2.108922e-002
3.409529e+003, 2.060511e-002
3.411458e+003, 2.009641e-002
3.413386e+003, 2.098194e-002
3.415314e+003, 2.109747e-002
3.417243e+003, 2.100473e-002
3.419171e+003, 2.115973e-002
3.421100e+003, 2.116352e-002
3.423028e+003, 2.061199e-002
3.424957e+003, 2.068928e-002
3.426885e+003, 2.160605e-002
3.428814e+003, 2.129712e-002
3.430742e+003, 2.128190e-002
3.432671e+003, 2.257032e-002
3.434599e+003, 2.153580e-002
3.436528e+003, 2.000635e-002
3.438456e+003, 2.024639e-002
3.440385e+003, 2.012073e-002
3.442313e+003, 2.128118e-002
3.444241e+003, 2.196360e-002
3.446170e+003, 2.188683e-002
3.448098e+003, 2.179767e-002
3.450027e+003, 2.143653e-002
3.451955e+003, 2.161987e-002
3.453884e+003, 2.206841e-002
3.455812e+003, 2.194354e-002
3.457741e+003, 2.305727e-002
3.459669e+003, 2.550123e-002
3.461598e+003, 2.494092e-002
3.463526e+003, 2.329475e-002
3.465455e+003, 2.381512e-002
3.467383e+003, 2.478915e-002
3.469312e+003, 2.363349e-002
3.471240e+003, 2.190348e-002
3.473168e+003, 2.205157e-002
3.475097e+003, 2.480104e-002
3.477025e+003, 2.511644e-002
3.478954e+003, 2.451001e-002
3.480882e+003, 2.423381e-002
3.482811e+003, 2.490393e-002
3.484739e+003, 2.402788e-002
3.486668e+003, 2.428637e-002
3.488596e+003, 2.493657e-002
3.490525e+003, 2.617396e-002
3.492453e+003, 2.700117e-002
3.494382e+003, 2.800662e-002
3.496310e+003, 2.882243e-002
3.498239e+003, 2.887304e-002
3.500167e+003, 2.874503e-002
3.502095e+003, 2.854545e-002
3.504024e+003, 2.725397e-002
3.505952e+003, 2.656161e-002
3.507881e+003, 2.677424e-002
3.509809e+003, 2.767853e-002
3.511738e+003, 2.937820e-002
3.513666e+003, 2.996471e-002
3.515595e+003, 2.954569e-002
3.517523e+003, 3.032719e-002
3.519452e+003, 3.175663e-002
3.521380e+003, 3.191003e-002
3.523309e+003, 3.187261e-002
3.525237e+003, 3.234598e-002
3.527166e+003, 3.229363e-002
3.529094e+003, 3.284139e-002
3.531022e+003, 3.440125e-002
3.532951e+003, 3.454238e-002
3.534879e+003, 3.524683e-002
3.536808e+003, 3.614530e-002
3.538736e+003, 3.721957e-002
3.540665e+003, 3.774385e-002
3.542593e+003, 3.788029e-002
3.544522e+003, 3.943127e-002
3.546450e+003, 3.903921e-002
3.548379e+003, 3.998644e-002
3.550307e+003, 4.112792e-002
3.552236e+003, 4.027358e-002
3.554164e+003, 4.019413e-002
3.556093e+003, 4.022121e-002
3.558021e+003, 4.129753e-002
3.559949e+003, 4.234071e-002
3.561878e+003, 4.135356e-002
3.563806e+003, 4.194653e-002
3.565735e+003, 4.278067e-002
3.567663e+003, 4.293212e-002
3.569592e+003, 4.211128e-002
3.571520e+003, 4.017852e-002
3.573449e+003, 3.876633e-002
3.575377e+003, 3.804639e-002
3.577306e+003, 3.813734e-002
3.579234e+003, 3.622806e-002
3.581163e+003, 3.353046e-002
3.583091e+003, 3.194138e-002
3.585020e+003, 3.107348e-002
3.586948e+003, 2.933580e-002
3.588876e+003, 2.564933e-002
3.590805e+003, 2.314162e-002
3.592733e+003, 2.172944e-002
3.594662e+003, 2.213793e-002
3.596590e+003, 2.105803e-002
3.598519e+003, 1.983056e-002
3.600447e+003, 1.902189e-002
3.602376e+003, 1.890922e-002
3.604304e+003, 1.803276e-002
3.606233e+003, 1.645091e-002
3.608161e+003, 1.505043e-002
3.610090e+003, 1.552579e-002
3.612018e+003, 1.550624e-002
3.613947e+003, 1.468801e-002
3.615875e+003, 1.577147e-002
3.617803e+003, 1.582808e-002
3.619732e+003, 1.466518e-002
3.621660e+003, 1.591007e-002
3.623589e+003, 1.666405e-002
3.625517e+003, 1.568430e-002
3.627446e+003, 1.458027e-002
3.629374e+003, 1.419001e-002
3.631303e+003, 1.406158e-002
3.633231e+003, 1.518263e-002
3.635160e+003, 1.567420e-002
3.637088e+003, 1.586348e-002
3.639017e+003, 1.652228e-002
3.640945e+003, 1.528769e-002
3.642874e+003, 1.403911e-002
3.644802e+003, 1.602377e-002
3.646730e+003, 1.599134e-002
3.648659e+003, 1.546463e-002
3.650587e+003, 1.589090e-002
3.652516e+003, 1.730700e-002
3.654444e+003, 1.656769e-002
3.656373e+003, 1.470931e-002
3.658301e+003, 1.423928e-002
3.660230e+003, 1.638716e-002
3.662158e+003, 1.622955e-002
3.664087e+003, 1.627011e-002
3.666015e+003, 1.757327e-002
3.667944e+003, 1.750857e-002
3.669872e+003, 1.535548e-002
3.671801e+003, 1.393696e-002
3.673729e+003, 1.347297e-002
3.675657e+003, 1.324351e-002
3.677586e+003, 1.343151e-002
3.679514e+003, 1.494901e-002
3.681443e+003, 1.497489e-002
3.683371e+003, 1.488437e-002
3.685300e+003, 1.466998e-002
3.687228e+003, 1.512364e-002
3.689157e+003, 1.659882e-002
3.691085e+003, 1.883344e-002
3.693014e+003, 1.803294e-002
3.694942e+003, 1.627657e-002
3.696871e+003, 1.682988e-002
3.698799e+003, 1.654259e-002
3.700728e+003, 1.647163e-002
3.702656e+003, 1.520596e-002
3.704584e+003, 1.427854e-002
3.706513e+003, 1.577455e-002
3.708441e+003, 1.558204e-002
3.710370e+003, 1.539183e-002
3.712298e+003, 1.618268e-002
3.714227e+003, 1.663352e-002
3.716155e+003, 1.518936e-002
3.718084e+003, 1.521638e-002
3.720012e+003, 1.417446e-002
3.721941e+003, 1.429685e-002
3.723869e+003, 1.498977e-002
3.725798e+003, 1.586652e-002
3.727726e+003, 1.639719e-002
3.729655e+003, 1.682019e-002
3.731583e+003, 1.664114e-002
3.733511e+003, 1.686893e-002
3.735440e+003, 1.678428e-002
3.737368e+003, 1.708898e-002
3.739297e+003, 1.891051e-002
3.741225e+003, 1.914139e-002
3.743154e+003, 1.786766e-002
3.745082e+003, 1.752053e-002
3.747011e+003, 1.590843e-002
3.748939e+003, 1.491497e-002
3.750868e+003, 1.716798e-002
3.752796e+003, 1.777118e-002
3.754725e+003, 1.593459e-002
3.756653e+003, 1.566809e-002
3.758582e+003, 1.736663e-002
3.760510e+003, 1.736126e-002
3.762438e+003, 1.661240e-002
3.764367e+003, 1.788545e-002
3.766295e+003, 1.726737e-002
3.768224e+003, 1.596418e-002
3.770152e+003, 1.442810e-002
3.772081e+003, 1.646396e-002
3.774009e+003, 1.781824e-002
3.775938e+003, 1.661048e-002
3.777866e+003, 1.549411e-002
3.779795e+003, 1.907735e-002
3.781723e+003, 1.842717e-002
3.783652e+003, 1.616458e-002
3.785580e+003, 1.567600e-002
3.787509e+003, 1.567853e-002
3.789437e+003, 1.585468e-002
3.791365e+003, 1.695155e-002
3.793294e+003, 1.832669e-002
3.795222e+003, 1.793268e-002
3.797151e+003, 1.771340e-002
3.799079e+003, 1.728999e-002
3.801008e+003, 1.577565e-002
3.802936e+003, 1.628861e-002
3.804865e+003, 1.739494e-002
3.806793e+003, 1.739980e-002
3.808722e+003, 1.704076e-002
3.810650e+003, 1.635288e-002
3.812579e+003, 1.650739e-002
3.814507e+003, 1.725381e-002
3.816436e+003, 1.725496e-002
3.818364e+003, 1.769571e-002
3.820292e+003, 1.784039e-002
3.822221e+003, 1.567831e-002
3.824149e+003, 1.666785e-002
3.826078e+003, 1.954160e-002
3.828006e+003, 1.926590e-002
3.829935e+003, 1.754566e-002
3.831863e+003, 1.660115e-002
3.833792e+003, 1.656574e-002
3.835720e+003, 1.597781e-002
3.837649e+003, 1.592550e-002
3.839577e+003, 1.668224e-002
3.841506e+003, 1.652879e-002
3.843434e+003, 1.567278e-002
3.845363e+003, 1.645169e-002
3.847291e+003, 1.808155e-002
3.849219e+003, 1.823304e-002
3.851148e+003, 1.681542e-002
3.853076e+003, 1.594090e-002
3.855005e+003, 1.590005e-002
3.856933e+003, 1.707859e-002
3.858862e+003, 1.609273e-002
3.860790e+003, 1.596862e-002
3.862719e+003, 1.406778e-002
3.864647e+003, 1.318738e-002
3.866576e+003, 1.457694e-002
3.868504e+003, 1.724981e-002
3.870433e+003, 1.874481e-002
3.872361e+003, 1.869927e-002
3.874290e+003, 1.735915e-002
3.876218e+003, 1.762353e-002
3.878146e+003, 1.748597e-002
3.880075e+003, 1.652201e-002
3.882003e+003, 1.563470e-002
3.883932e+003, 1.937715e-002
3.885860e+003, 1.920284e-002
3.887789e+003, 1.552274e-002
3.889717e+003, 1.437886e-002
3.891646e+003, 1.518285e-002
3.893574e+003, 1.594856e-002
3.895503e+003, 1.702336e-002
3.897431e+003, 1.656082e-002
3.899360e+003, 1.655191e-002
3.901288e+003, 1.634236e-002
3.903217e+003, 1.632262e-002
3.905145e+003, 1.743537e-002
3.907073e+003, 1.796746e-002
3.909002e+003, 1.784225e-002
3.910930e+003, 1.729687e-002
3.912859e+003, 1.785302e-002
3.914787e+003, 1.724667e-002
3.916716e+003, 1.581747e-002
3.918644e+003, 1.744179e-002
3.920573e+003, 1.846037e-002
3.922501e+003, 1.888634e-002
3.924430e+003, 1.854740e-002
3.926358e+003, 1.596946e-002
3.928287e+003, 1.515618e-002
3.930215e+003, 1.888064e-002
3.932144e+003, 1.927285e-002
3.934072e+003, 1.894843e-002
3.936000e+003, 1.865201e-002
3.937929e+003, 1.819326e-002
3.939857e+003, 1.778606e-002
3.941786e+003, 1.760179e-002
3.943714e+003, 1.558414e-002
3.945643e+003, 1.626383e-002
3.947571e+003, 1.739184e-002
3.949500e+003, 1.665191e-002
3.951428e+003, 1.757007e-002
3.953357e+003, 1.823845e-002
3.955285e+003, 1.749126e-002
3.957214e+003, 1.558984e-002
3.959142e+003, 1.535080e-002
3.961071e+003, 1.695857e-002
3.962999e+003, 1.743286e-002
3.964927e+003, 1.809442e-002
3.966856e+003, 1.911528e-002
3.968784e+003, 1.781734e-002
3.970713e+003, 1.785536e-002
3.972641e+003, 1.996898e-002
3.974570e+003, 1.912456e-002
3.976498e+003, 1.818275e-002
3.978427e+003, 1.857767e-002
3.980355e+003, 1.794686e-002
3.982284e+003, 1.708726e-002
3.984212e+003, 1.683879e-002
3.986141e+003, 1.720456e-002
3.988069e+003, 1.918627e-002
3.989998e+003, 1.910515e-002
3.991926e+003, 1.983265e-002
3.993854e+003, 2.098187e-002
3.995783e+003, 2.072736e-002
3.997711e+003, 1.891981e-002
3.999640e+003, 1.892919e-002
##END=



