##NAMES=Edingtonite
##RRUFFID=R040110
##IDEAL CHEMISTRY=Ba(Si_3_Al_2_)O_10_&#183;4H_2_O
##LOCALITY=2350 level, Brunswick 12 mine, Bathhurst, New Brunswick, Canada
##OWNER=RRUFF
##SOURCE=National Museums of Canada
##DESCRIPTION=Colorless rectangular prism
##STATUS=The identification of this mineral has been confirmed by X-ray diffraction and chemical analysis
##URL=rruff.info/R040110
##MEASURED CHEMISTRY=Ba_1.00_(Si_3.00_Al_2.00_)O_10_Â·4H_2_O
3.991926e+002, 0.000000e+000
4.011211e+002, 1.967795e-001
4.030496e+002, 1.975934e-001
4.049780e+002, 1.868028e-001
4.069065e+002, 1.769618e-001
4.088350e+002, 1.673091e-001
4.107634e+002, 1.582670e-001
4.126919e+002, 1.525030e-001
4.146204e+002, 1.475513e-001
4.165488e+002, 1.408589e-001
4.184773e+002, 1.375841e-001
4.204058e+002, 1.384231e-001
4.223342e+002, 1.398393e-001
4.242627e+002, 1.376714e-001
4.261912e+002, 1.300967e-001
4.281196e+002, 1.217973e-001
4.300481e+002, 1.149835e-001
4.319766e+002, 1.083597e-001
4.339050e+002, 1.018499e-001
4.358335e+002, 9.496922e-002
4.377620e+002, 8.806496e-002
4.396904e+002, 8.218257e-002
4.416189e+002, 7.694875e-002
4.435474e+002, 7.289661e-002
4.454758e+002, 6.957022e-002
4.474043e+002, 6.766526e-002
4.493328e+002, 6.696720e-002
4.512612e+002, 6.696883e-002
4.531897e+002, 6.767257e-002
4.551182e+002, 6.898217e-002
4.570466e+002, 7.063822e-002
4.589751e+002, 7.179999e-002
4.609036e+002, 7.326025e-002
4.628320e+002, 7.433955e-002
4.647605e+002, 7.525849e-002
4.666890e+002, 7.626183e-002
4.686174e+002, 7.664808e-002
4.705459e+002, 7.640932e-002
4.724744e+002, 7.758424e-002
4.744028e+002, 7.832248e-002
4.763313e+002, 7.781387e-002
4.782598e+002, 7.763431e-002
4.801882e+002, 7.776728e-002
4.821167e+002, 7.799781e-002
4.840452e+002, 7.850119e-002
4.859736e+002, 7.949558e-002
4.879021e+002, 8.055267e-002
4.898306e+002, 8.162744e-002
4.917590e+002, 8.292984e-002
4.936875e+002, 8.381465e-002
4.956160e+002, 8.381802e-002
4.975444e+002, 8.239777e-002
4.994729e+002, 8.114374e-002
5.014014e+002, 8.064826e-002
5.033298e+002, 7.976804e-002
5.052583e+002, 7.879736e-002
5.071868e+002, 7.869260e-002
5.091152e+002, 7.862459e-002
5.110437e+002, 7.802539e-002
5.129722e+002, 7.808699e-002
5.149006e+002, 7.821707e-002
5.168291e+002, 7.792056e-002
5.187576e+002, 7.723619e-002
5.206860e+002, 7.729433e-002
5.226145e+002, 7.800434e-002
5.245430e+002, 7.885429e-002
5.264714e+002, 7.949456e-002
5.283999e+002, 7.953268e-002
5.303284e+002, 7.957705e-002
5.322568e+002, 7.937057e-002
5.341853e+002, 7.776694e-002
5.361138e+002, 7.561301e-002
5.380422e+002, 7.343476e-002
5.399707e+002, 7.073931e-002
5.418992e+002, 6.793744e-002
5.438276e+002, 6.651457e-002
5.457561e+002, 6.645743e-002
5.476846e+002, 6.671406e-002
5.496130e+002, 6.718497e-002
5.515415e+002, 6.855774e-002
5.534700e+002, 7.003538e-002
5.553984e+002, 7.161156e-002
5.573269e+002, 7.401569e-002
5.592554e+002, 7.640389e-002
5.611838e+002, 7.886381e-002
5.631123e+002, 8.102755e-002
5.650408e+002, 8.352111e-002
5.669692e+002, 8.653071e-002
5.688977e+002, 8.977085e-002
5.708262e+002, 9.325925e-002
5.727546e+002, 9.641781e-002
5.746831e+002, 9.996029e-002
5.766116e+002, 1.033287e-001
5.785400e+002, 1.053888e-001
5.804685e+002, 1.070450e-001
5.823970e+002, 1.084469e-001
5.843254e+002, 1.090964e-001
5.862539e+002, 1.086092e-001
5.881824e+002, 1.073283e-001
5.901108e+002, 1.061277e-001
5.920393e+002, 1.044122e-001
5.939678e+002, 1.028386e-001
5.958962e+002, 1.011552e-001
5.978247e+002, 1.005154e-001
5.997532e+002, 1.011377e-001
6.016816e+002, 1.021141e-001
6.036101e+002, 1.039290e-001
6.055386e+002, 1.062629e-001
6.074670e+002, 1.091377e-001
6.093955e+002, 1.122668e-001
6.113240e+002, 1.153526e-001
6.132524e+002, 1.178859e-001
6.151809e+002, 1.194441e-001
6.171094e+002, 1.200696e-001
6.190378e+002, 1.200929e-001
6.209663e+002, 1.190641e-001
6.228948e+002, 1.170515e-001
6.248232e+002, 1.146411e-001
6.267517e+002, 1.113141e-001
6.286802e+002, 1.076716e-001
6.306086e+002, 1.045035e-001
6.325371e+002, 1.013553e-001
6.344656e+002, 9.782782e-002
6.363940e+002, 9.414440e-002
6.383225e+002, 9.096493e-002
6.402510e+002, 8.772659e-002
6.421794e+002, 8.426639e-002
6.441079e+002, 8.049471e-002
6.460364e+002, 7.676341e-002
6.479648e+002, 7.339489e-002
6.498933e+002, 6.977240e-002
6.518218e+002, 6.655167e-002
6.537502e+002, 6.401427e-002
6.556787e+002, 6.200311e-002
6.576072e+002, 6.033093e-002
6.595356e+002, 5.923464e-002
6.614641e+002, 5.922209e-002
6.633926e+002, 6.002985e-002
6.653210e+002, 6.109054e-002
6.672495e+002, 6.248198e-002
6.691780e+002, 6.478459e-002
6.711064e+002, 6.776085e-002
6.730349e+002, 7.123496e-002
6.749634e+002, 7.512212e-002
6.768918e+002, 7.943320e-002
6.788203e+002, 8.380665e-002
6.807488e+002, 8.816178e-002
6.826772e+002, 9.254757e-002
6.846057e+002, 9.636335e-002
6.865342e+002, 9.931049e-002
6.884626e+002, 1.010622e-001
6.903911e+002, 1.018598e-001
6.923196e+002, 1.023314e-001
6.942480e+002, 1.018847e-001
6.961765e+002, 1.002626e-001
6.981050e+002, 9.839647e-002
7.000334e+002, 9.609563e-002
7.019619e+002, 9.311318e-002
7.038904e+002, 8.945958e-002
7.058188e+002, 8.514917e-002
7.077473e+002, 8.043338e-002
7.096758e+002, 7.535058e-002
7.116042e+002, 6.987169e-002
7.135327e+002, 6.423329e-002
7.154612e+002, 5.906492e-002
7.173896e+002, 5.479929e-002
7.193181e+002, 5.137035e-002
7.212466e+002, 4.880603e-002
7.231750e+002, 4.680158e-002
7.251035e+002, 4.508638e-002
7.270320e+002, 4.349886e-002
7.289604e+002, 4.241659e-002
7.308889e+002, 4.189283e-002
7.328174e+002, 4.149671e-002
7.347458e+002, 4.136797e-002
7.366743e+002, 4.171300e-002
7.386028e+002, 4.203890e-002
7.405313e+002, 4.263316e-002
7.424597e+002, 4.355437e-002
7.443882e+002, 4.475588e-002
7.463167e+002, 4.635463e-002
7.482451e+002, 4.812919e-002
7.501736e+002, 4.994599e-002
7.521021e+002, 5.223022e-002
7.540305e+002, 5.482630e-002
7.559590e+002, 5.713515e-002
7.578875e+002, 5.882442e-002
7.598159e+002, 5.951197e-002
7.617444e+002, 5.862110e-002
7.636729e+002, 5.581778e-002
7.656013e+002, 5.172855e-002
7.675298e+002, 4.663790e-002
7.694583e+002, 4.174196e-002
7.713867e+002, 3.794472e-002
7.733152e+002, 3.472256e-002
7.752437e+002, 3.175195e-002
7.771721e+002, 2.984505e-002
7.791006e+002, 2.857035e-002
7.810291e+002, 2.712928e-002
7.829575e+002, 2.594235e-002
7.848860e+002, 2.495837e-002
7.868145e+002, 2.405525e-002
7.887429e+002, 2.346275e-002
7.906714e+002, 2.312102e-002
7.925999e+002, 2.289991e-002
7.945283e+002, 2.259085e-002
7.964568e+002, 2.228517e-002
7.983853e+002, 2.235254e-002
8.003137e+002, 2.231238e-002
8.022422e+002, 2.181340e-002
8.041707e+002, 2.155154e-002
8.060991e+002, 2.175932e-002
8.080276e+002, 2.199140e-002
8.099561e+002, 2.204855e-002
8.118845e+002, 2.233836e-002
8.138130e+002, 2.266072e-002
8.157415e+002, 2.289908e-002
8.176699e+002, 2.323814e-002
8.195984e+002, 2.351003e-002
8.215269e+002, 2.393352e-002
8.234553e+002, 2.406683e-002
8.253838e+002, 2.426869e-002
8.273123e+002, 2.502268e-002
8.292407e+002, 2.563080e-002
8.311692e+002, 2.620235e-002
8.330977e+002, 2.661116e-002
8.350261e+002, 2.706018e-002
8.369546e+002, 2.764527e-002
8.388831e+002, 2.832381e-002
8.408115e+002, 2.923804e-002
8.427400e+002, 3.000823e-002
8.446685e+002, 3.072355e-002
8.465969e+002, 3.155258e-002
8.485254e+002, 3.252784e-002
8.504539e+002, 3.353078e-002
8.523823e+002, 3.458558e-002
8.543108e+002, 3.565055e-002
8.562393e+002, 3.691323e-002
8.581677e+002, 3.804536e-002
8.600962e+002, 3.932137e-002
8.620247e+002, 4.053717e-002
8.639531e+002, 4.189205e-002
8.658816e+002, 4.378316e-002
8.678101e+002, 4.551385e-002
8.697385e+002, 4.715503e-002
8.716670e+002, 4.892461e-002
8.735955e+002, 5.078033e-002
8.755239e+002, 5.271100e-002
8.774524e+002, 5.488770e-002
8.793809e+002, 5.716450e-002
8.813093e+002, 5.965455e-002
8.832378e+002, 6.239113e-002
8.851663e+002, 6.504700e-002
8.870947e+002, 6.780659e-002
8.890232e+002, 7.100739e-002
8.909517e+002, 7.440742e-002
8.928801e+002, 7.800104e-002
8.948085e+002, 8.187117e-002
8.967370e+002, 8.574864e-002
8.986655e+002, 9.002181e-002
9.005939e+002, 9.438342e-002
9.025224e+002, 9.895162e-002
9.044509e+002, 1.041183e-001
9.063793e+002, 1.097327e-001
9.083078e+002, 1.153474e-001
9.102363e+002, 1.212980e-001
9.121647e+002, 1.274947e-001
9.140932e+002, 1.338900e-001
9.160217e+002, 1.407956e-001
9.179501e+002, 1.482438e-001
9.198786e+002, 1.561169e-001
9.218071e+002, 1.640873e-001
9.237355e+002, 1.726070e-001
9.256640e+002, 1.815660e-001
9.275925e+002, 1.907418e-001
9.295209e+002, 2.003192e-001
9.314494e+002, 2.100289e-001
9.333779e+002, 2.200058e-001
9.353063e+002, 2.303530e-001
9.372348e+002, 2.410010e-001
9.391633e+002, 2.517186e-001
9.410917e+002, 2.623353e-001
9.430202e+002, 2.728491e-001
9.449487e+002, 2.831495e-001
9.468771e+002, 2.930986e-001
9.488056e+002, 3.023759e-001
9.507341e+002, 3.107591e-001
9.526625e+002, 3.175196e-001
9.545910e+002, 3.229288e-001
9.565195e+002, 3.264998e-001
9.584479e+002, 3.275180e-001
9.603764e+002, 3.264560e-001
9.623049e+002, 3.236319e-001
9.642333e+002, 3.194159e-001
9.661618e+002, 3.143968e-001
9.680903e+002, 3.093275e-001
9.700187e+002, 3.043904e-001
9.719472e+002, 2.998589e-001
9.738757e+002, 2.959302e-001
9.758041e+002, 2.923307e-001
9.777326e+002, 2.895562e-001
9.796611e+002, 2.884730e-001
9.815895e+002, 2.881082e-001
9.835180e+002, 2.874976e-001
9.854465e+002, 2.857246e-001
9.873749e+002, 2.815725e-001
9.893034e+002, 2.754221e-001
9.912319e+002, 2.688814e-001
9.931603e+002, 2.633223e-001
9.950888e+002, 2.589587e-001
9.970173e+002, 2.555802e-001
9.989457e+002, 2.528090e-001
1.000874e+003, 2.503775e-001
1.002803e+003, 2.479103e-001
1.004731e+003, 2.447101e-001
1.006660e+003, 2.407089e-001
1.008588e+003, 2.356701e-001
1.010517e+003, 2.298522e-001
1.012445e+003, 2.234488e-001
1.014373e+003, 2.160963e-001
1.016302e+003, 2.080399e-001
1.018230e+003, 1.997660e-001
1.020159e+003, 1.915542e-001
1.022087e+003, 1.832491e-001
1.024016e+003, 1.752627e-001
1.025944e+003, 1.676202e-001
1.027873e+003, 1.606449e-001
1.029801e+003, 1.540531e-001
1.031730e+003, 1.477607e-001
1.033658e+003, 1.421776e-001
1.035587e+003, 1.371169e-001
1.037515e+003, 1.327278e-001
1.039444e+003, 1.286961e-001
1.041372e+003, 1.249497e-001
1.043301e+003, 1.220115e-001
1.045229e+003, 1.195152e-001
1.047157e+003, 1.176745e-001
1.049086e+003, 1.165137e-001
1.051014e+003, 1.156735e-001
1.052943e+003, 1.151566e-001
1.054871e+003, 1.147719e-001
1.056800e+003, 1.145221e-001
1.058728e+003, 1.142675e-001
1.060657e+003, 1.137206e-001
1.062585e+003, 1.123201e-001
1.064514e+003, 1.095563e-001
1.066442e+003, 1.055460e-001
1.068371e+003, 1.010063e-001
1.070299e+003, 9.610526e-002
1.072228e+003, 9.122501e-002
1.074156e+003, 8.681051e-002
1.076084e+003, 8.301418e-002
1.078013e+003, 8.015115e-002
1.079941e+003, 7.812244e-002
1.081870e+003, 7.701151e-002
1.083798e+003, 7.687129e-002
1.085727e+003, 7.721893e-002
1.087655e+003, 7.797141e-002
1.089584e+003, 7.852561e-002
1.091512e+003, 7.821334e-002
1.093441e+003, 7.659816e-002
1.095369e+003, 7.385578e-002
1.097298e+003, 7.006272e-002
1.099226e+003, 6.551724e-002
1.101155e+003, 6.082968e-002
1.103083e+003, 5.625522e-002
1.105011e+003, 5.197238e-002
1.106940e+003, 4.797026e-002
1.108868e+003, 4.412119e-002
1.110797e+003, 4.060599e-002
1.112725e+003, 3.771307e-002
1.114654e+003, 3.519728e-002
1.116582e+003, 3.264083e-002
1.118511e+003, 3.028817e-002
1.120439e+003, 2.860853e-002
1.122368e+003, 2.734763e-002
1.124296e+003, 2.591302e-002
1.126225e+003, 2.458144e-002
1.128153e+003, 2.344787e-002
1.130082e+003, 2.254815e-002
1.132010e+003, 2.163081e-002
1.133938e+003, 2.071688e-002
1.135867e+003, 2.000254e-002
1.137795e+003, 1.947394e-002
1.139724e+003, 1.875741e-002
1.141652e+003, 1.801991e-002
1.143581e+003, 1.753875e-002
1.145509e+003, 1.714420e-002
1.147438e+003, 1.638839e-002
1.149366e+003, 1.579313e-002
1.151295e+003, 1.553689e-002
1.153223e+003, 1.539037e-002
1.155152e+003, 1.510269e-002
1.157080e+003, 1.472426e-002
1.159009e+003, 1.434038e-002
1.160937e+003, 1.402065e-002
1.162865e+003, 1.386731e-002
1.164794e+003, 1.360081e-002
1.166722e+003, 1.322476e-002
1.168651e+003, 1.284275e-002
1.170579e+003, 1.248418e-002
1.172508e+003, 1.228365e-002
1.174436e+003, 1.196774e-002
1.176365e+003, 1.172760e-002
1.178293e+003, 1.149433e-002
1.180222e+003, 1.118988e-002
1.182150e+003, 1.087758e-002
1.184079e+003, 1.077395e-002
1.186007e+003, 1.063373e-002
1.187936e+003, 1.030548e-002
1.189864e+003, 1.013682e-002
1.191792e+003, 1.009631e-002
1.193721e+003, 9.948188e-003
1.195649e+003, 9.733669e-003
1.197578e+003, 9.466416e-003
1.199506e+003, 9.094409e-003
1.201435e+003, 8.828446e-003
1.203363e+003, 8.585121e-003
1.205292e+003, 8.438823e-003
1.207220e+003, 8.329528e-003
1.209149e+003, 8.206808e-003
1.211077e+003, 8.086377e-003
1.213006e+003, 7.975468e-003
1.214934e+003, 7.784117e-003
1.216863e+003, 7.550273e-003
1.218791e+003, 7.405687e-003
1.220719e+003, 7.299691e-003
1.222648e+003, 7.254663e-003
1.224576e+003, 7.190788e-003
1.226505e+003, 7.123190e-003
1.228433e+003, 7.044957e-003
1.230362e+003, 6.850618e-003
1.232290e+003, 6.621360e-003
1.234219e+003, 6.610477e-003
1.236147e+003, 6.652815e-003
1.238076e+003, 6.544121e-003
1.240004e+003, 6.419448e-003
1.241933e+003, 6.305423e-003
1.243861e+003, 6.353532e-003
1.245790e+003, 6.503425e-003
1.247718e+003, 6.438035e-003
1.249646e+003, 6.252261e-003
1.251575e+003, 6.224599e-003
1.253503e+003, 6.238163e-003
1.255432e+003, 6.203045e-003
1.257360e+003, 6.064931e-003
1.259289e+003, 5.961468e-003
1.261217e+003, 6.030895e-003
1.263146e+003, 6.074974e-003
1.265074e+003, 6.076093e-003
1.267003e+003, 6.059816e-003
1.268931e+003, 6.094143e-003
1.270860e+003, 6.106345e-003
1.272788e+003, 6.129178e-003
1.274717e+003, 6.079906e-003
1.276645e+003, 6.030123e-003
1.278573e+003, 5.858873e-003
1.280502e+003, 5.959496e-003
1.282430e+003, 6.026322e-003
1.284359e+003, 5.974538e-003
1.286287e+003, 5.937884e-003
1.288216e+003, 5.778281e-003
1.290144e+003, 5.671227e-003
1.292073e+003, 5.880523e-003
1.294001e+003, 5.980649e-003
1.295930e+003, 6.000580e-003
1.297858e+003, 6.013314e-003
1.299787e+003, 5.922270e-003
1.301715e+003, 5.862158e-003
1.303644e+003, 5.771083e-003
1.305572e+003, 5.752997e-003
1.307500e+003, 5.870693e-003
1.309429e+003, 5.888334e-003
1.311357e+003, 5.756677e-003
1.313286e+003, 5.944905e-003
1.315214e+003, 5.953290e-003
1.317143e+003, 5.882826e-003
1.319071e+003, 5.719067e-003
1.321000e+003, 5.478543e-003
1.322928e+003, 5.460731e-003
1.324857e+003, 5.654877e-003
1.326785e+003, 5.745358e-003
1.328714e+003, 5.819746e-003
1.330642e+003, 5.884015e-003
1.332571e+003, 5.864968e-003
1.334499e+003, 5.946774e-003
1.336427e+003, 5.972247e-003
1.338356e+003, 5.871510e-003
1.340284e+003, 6.006725e-003
1.342213e+003, 6.075130e-003
1.344141e+003, 6.112086e-003
1.346070e+003, 6.010183e-003
1.347998e+003, 6.035415e-003
1.349927e+003, 6.120973e-003
1.351855e+003, 6.033295e-003
1.353784e+003, 6.037325e-003
1.355712e+003, 6.128664e-003
1.357641e+003, 6.075079e-003
1.359569e+003, 6.071344e-003
1.361498e+003, 6.149434e-003
1.363426e+003, 6.282843e-003
1.365354e+003, 6.284838e-003
1.367283e+003, 6.122818e-003
1.369211e+003, 6.114356e-003
1.371140e+003, 6.150130e-003
1.373068e+003, 6.169929e-003
1.374997e+003, 6.365817e-003
1.376925e+003, 6.336038e-003
1.378854e+003, 6.244787e-003
1.380782e+003, 6.304970e-003
1.382711e+003, 6.450501e-003
1.384639e+003, 6.553187e-003
1.386568e+003, 6.412527e-003
1.388496e+003, 6.562919e-003
1.390424e+003, 6.429459e-003
1.392353e+003, 6.397699e-003
1.394281e+003, 6.487193e-003
1.396210e+003, 6.668061e-003
1.398138e+003, 6.505927e-003
1.400067e+003, 6.881125e-003
1.401995e+003, 7.079080e-003
1.403924e+003, 7.034407e-003
1.405852e+003, 7.025675e-003
1.407781e+003, 6.822680e-003
1.409709e+003, 6.898455e-003
1.411638e+003, 7.074564e-003
1.413566e+003, 7.124684e-003
1.415495e+003, 7.067717e-003
1.417423e+003, 6.912723e-003
1.419351e+003, 6.952690e-003
1.421280e+003, 7.050820e-003
1.423208e+003, 7.091138e-003
1.425137e+003, 7.166354e-003
1.427065e+003, 7.266813e-003
1.428994e+003, 7.290684e-003
1.430922e+003, 7.435103e-003
1.432851e+003, 7.361509e-003
1.434779e+003, 7.088580e-003
1.436708e+003, 7.001811e-003
1.438636e+003, 7.326180e-003
1.440565e+003, 7.596594e-003
1.442493e+003, 7.594609e-003
1.444422e+003, 7.404862e-003
1.446350e+003, 7.254079e-003
1.448278e+003, 7.510277e-003
1.450207e+003, 7.708834e-003
1.452135e+003, 7.604035e-003
1.454064e+003, 7.266619e-003
1.455992e+003, 6.744053e-003
1.457921e+003, 7.492208e-003
1.459849e+003, 7.656548e-003
1.461778e+003, 7.481101e-003
1.463706e+003, 7.062310e-003
1.465635e+003, 7.294189e-003
1.467563e+003, 7.250991e-003
1.469492e+003, 7.164155e-003
1.471420e+003, 6.702531e-003
1.473349e+003, 6.803634e-003
1.475277e+003, 6.819134e-003
1.477205e+003, 7.098335e-003
1.479134e+003, 7.012263e-003
1.481062e+003, 6.894774e-003
1.482991e+003, 6.818400e-003
1.484919e+003, 6.812983e-003
1.486848e+003, 6.666006e-003
1.488776e+003, 6.533415e-003
1.490705e+003, 6.694979e-003
1.492633e+003, 6.830215e-003
1.494562e+003, 6.530643e-003
1.496490e+003, 6.474526e-003
1.498419e+003, 6.419402e-003
1.500347e+003, 6.670113e-003
1.502276e+003, 6.799933e-003
1.504204e+003, 6.245372e-003
1.506132e+003, 5.884828e-003
1.508061e+003, 6.322815e-003
1.509989e+003, 6.458343e-003
1.511918e+003, 6.536053e-003
1.513846e+003, 6.655961e-003
1.515775e+003, 6.552219e-003
1.517703e+003, 6.632985e-003
1.519632e+003, 5.775196e-003
1.521560e+003, 5.931097e-003
1.523489e+003, 6.311669e-003
1.525417e+003, 6.466724e-003
1.527346e+003, 6.803156e-003
1.529274e+003, 7.129531e-003
1.531203e+003, 7.049165e-003
1.533131e+003, 7.280747e-003
1.535059e+003, 7.861784e-003
1.536988e+003, 7.262729e-003
1.538916e+003, 6.741446e-003
1.540845e+003, 7.515633e-003
1.542773e+003, 8.050651e-003
1.544702e+003, 8.087664e-003
1.546630e+003, 8.485919e-003
1.548559e+003, 8.332842e-003
1.550487e+003, 8.657507e-003
1.552416e+003, 8.635287e-003
1.554344e+003, 8.792927e-003
1.556273e+003, 8.521619e-003
1.558201e+003, 8.311951e-003
1.560130e+003, 9.109769e-003
1.562058e+003, 9.642101e-003
1.563986e+003, 9.792023e-003
1.565915e+003, 1.014795e-002
1.567843e+003, 1.005509e-002
1.569772e+003, 1.021741e-002
1.571700e+003, 1.058987e-002
1.573629e+003, 1.063284e-002
1.575557e+003, 1.018442e-002
1.577486e+003, 1.103088e-002
1.579414e+003, 1.132054e-002
1.581343e+003, 1.150739e-002
1.583271e+003, 1.181812e-002
1.585200e+003, 1.199878e-002
1.587128e+003, 1.219766e-002
1.589057e+003, 1.267585e-002
1.590985e+003, 1.314847e-002
1.592913e+003, 1.335195e-002
1.594842e+003, 1.362324e-002
1.596770e+003, 1.429910e-002
1.598699e+003, 1.516351e-002
1.600627e+003, 1.579974e-002
1.602556e+003, 1.647385e-002
1.604484e+003, 1.751164e-002
1.606413e+003, 1.864852e-002
1.608341e+003, 1.985669e-002
1.610270e+003, 2.128560e-002
1.612198e+003, 2.292254e-002
1.614127e+003, 2.435714e-002
1.616055e+003, 2.560228e-002
1.617984e+003, 2.779927e-002
1.619912e+003, 2.915833e-002
1.621840e+003, 3.037390e-002
1.623769e+003, 3.173364e-002
1.625697e+003, 3.284018e-002
1.627626e+003, 3.394276e-002
1.629554e+003, 3.475747e-002
1.631483e+003, 3.529209e-002
1.633411e+003, 3.528836e-002
1.635340e+003, 3.513226e-002
1.637268e+003, 3.487488e-002
1.639197e+003, 3.385763e-002
1.641125e+003, 3.242010e-002
1.643054e+003, 3.075366e-002
1.644982e+003, 2.875111e-002
1.646911e+003, 2.796686e-002
1.648839e+003, 2.730124e-002
1.650767e+003, 2.570862e-002
1.652696e+003, 2.444266e-002
1.654624e+003, 2.480259e-002
1.656553e+003, 2.408716e-002
1.658481e+003, 2.325692e-002
1.660410e+003, 2.245427e-002
1.662338e+003, 2.169950e-002
1.664267e+003, 2.136136e-002
1.666195e+003, 2.061056e-002
1.668124e+003, 1.916942e-002
1.670052e+003, 1.753705e-002
1.671981e+003, 1.561412e-002
1.673909e+003, 1.391005e-002
1.675838e+003, 1.308017e-002
1.677766e+003, 1.202764e-002
1.679694e+003, 1.137371e-002
1.681623e+003, 1.058302e-002
1.683551e+003, 9.528622e-003
1.685480e+003, 9.760504e-003
1.687408e+003, 9.232053e-003
1.689337e+003, 9.202944e-003
1.691265e+003, 8.803642e-003
1.693194e+003, 8.169097e-003
1.695122e+003, 7.162130e-003
1.697051e+003, 7.797978e-003
1.698979e+003, 6.800692e-003
1.700908e+003, 7.447847e-003
1.702836e+003, 7.112422e-003
1.704765e+003, 7.057129e-003
1.706693e+003, 7.211391e-003
1.708621e+003, 7.247319e-003
1.710550e+003, 7.143547e-003
1.712478e+003, 6.758665e-003
1.714407e+003, 6.536835e-003
1.716335e+003, 6.081149e-003
1.718264e+003, 6.472353e-003
1.720192e+003, 6.607837e-003
1.722121e+003, 6.599793e-003
1.724049e+003, 6.554412e-003
1.725978e+003, 6.529031e-003
1.727906e+003, 6.364427e-003
1.729835e+003, 6.281769e-003
1.731763e+003, 6.041828e-003
1.733692e+003, 5.625313e-003
1.735620e+003, 6.309038e-003
1.737548e+003, 6.404623e-003
1.739477e+003, 6.221110e-003
1.741405e+003, 6.140395e-003
1.743334e+003, 6.040180e-003
1.745262e+003, 6.305345e-003
1.747191e+003, 6.103039e-003
1.749119e+003, 5.825231e-003
1.751048e+003, 5.568859e-003
1.752976e+003, 5.513694e-003
1.754905e+003, 5.126383e-003
1.756833e+003, 5.176943e-003
1.758762e+003, 5.564332e-003
1.760690e+003, 5.238610e-003
1.762619e+003, 5.255617e-003
1.764547e+003, 5.103849e-003
1.766475e+003, 4.835700e-003
1.768404e+003, 5.079777e-003
1.770332e+003, 4.872636e-003
1.772261e+003, 4.714481e-003
1.774189e+003, 5.114892e-003
1.776118e+003, 5.040161e-003
1.778046e+003, 4.670573e-003
1.779975e+003, 4.558371e-003
1.781903e+003, 4.686509e-003
1.783832e+003, 4.657656e-003
1.785760e+003, 4.535681e-003
1.787689e+003, 4.352943e-003
1.789617e+003, 4.593502e-003
1.791546e+003, 4.508185e-003
1.793474e+003, 4.528854e-003
1.795402e+003, 4.442367e-003
1.797331e+003, 4.455476e-003
1.799259e+003, 4.378976e-003
1.801188e+003, 4.240989e-003
1.803116e+003, 4.305651e-003
1.805045e+003, 4.463539e-003
1.806973e+003, 4.594121e-003
1.808902e+003, 4.450308e-003
1.810830e+003, 4.327285e-003
1.812759e+003, 4.723819e-003
1.814687e+003, 4.467296e-003
1.816616e+003, 3.682592e-003
1.818544e+003, 3.753820e-003
1.820473e+003, 4.141259e-003
1.822401e+003, 4.610905e-003
1.824329e+003, 4.345372e-003
1.826258e+003, 4.279387e-003
1.828186e+003, 3.806303e-003
1.830115e+003, 4.329210e-003
1.832043e+003, 4.292721e-003
1.833972e+003, 3.827054e-003
1.835900e+003, 3.506951e-003
1.837829e+003, 3.769323e-003
1.839757e+003, 3.780099e-003
1.841686e+003, 3.403976e-003
1.843614e+003, 3.283045e-003
1.845543e+003, 4.002587e-003
1.847471e+003, 4.095016e-003
1.849400e+003, 4.104892e-003
1.851328e+003, 3.835667e-003
1.853256e+003, 3.606470e-003
1.855185e+003, 3.585855e-003
1.857113e+003, 3.763977e-003
1.859042e+003, 3.679021e-003
1.860970e+003, 3.665049e-003
1.862899e+003, 3.982139e-003
1.864827e+003, 3.736822e-003
1.866756e+003, 3.090564e-003
1.868684e+003, 3.475535e-003
1.870613e+003, 3.749870e-003
1.872541e+003, 3.135638e-003
1.874470e+003, 2.799602e-003
1.876398e+003, 2.690441e-003
1.878327e+003, 2.661677e-003
1.880255e+003, 2.614595e-003
1.882183e+003, 3.342674e-003
1.884112e+003, 3.732433e-003
1.886040e+003, 3.175825e-003
1.887969e+003, 2.652938e-003
1.889897e+003, 2.726067e-003
1.891826e+003, 2.299993e-003
1.893754e+003, 1.984439e-003
1.895683e+003, 1.962298e-003
1.897611e+003, 2.135052e-003
1.899540e+003, 2.364657e-003
1.901468e+003, 1.899174e-003
1.903397e+003, 1.806506e-003
1.905325e+003, 2.582381e-003
1.907254e+003, 2.809598e-003
1.909182e+003, 2.597203e-003
1.911110e+003, 2.344079e-003
1.913039e+003, 2.125940e-003
1.914967e+003, 2.068889e-003
1.916896e+003, 2.222146e-003
1.918824e+003, 2.588346e-003
1.920753e+003, 2.270173e-003
1.922681e+003, 1.569637e-003
1.924610e+003, 6.664471e-004
1.926538e+003, 1.074768e-003
1.928467e+003, 1.082994e-003
1.930395e+003, 8.761393e-004
1.932324e+003, 1.078299e-003
1.934252e+003, 1.246660e-003
1.936181e+003, 6.406030e-004
1.938109e+003, 4.752538e-004
1.940037e+003, 1.073870e-003
1.941966e+003, 2.339304e-003
1.943894e+003, 2.334389e-003
1.945823e+003, 8.332661e-004
1.947751e+003, -2.687552e-004
1.949680e+003, -8.311176e-005
1.951608e+003, -5.343130e-004
1.953537e+003, -3.858771e-004
1.955465e+003, -6.707021e-004
1.957394e+003, -1.053662e-003
1.959322e+003, 1.142619e-004
1.961251e+003, 1.444900e-003
1.963179e+003, 1.314990e-003
1.965108e+003, 1.275442e-004
1.967036e+003, -9.424866e-004
1.968964e+003, -1.680324e-003
1.970893e+003, -2.980758e-003
1.972821e+003, -1.492728e-003
1.974750e+003, 2.950390e-004
1.976678e+003, -1.673558e-003
1.978607e+003, 2.056662e-004
1.980535e+003, 1.744829e-003
1.982464e+003, -4.929685e-004
1.984392e+003, -1.722382e-004
1.986321e+003, 7.796595e-004
1.988249e+003, 2.571259e-004
1.990178e+003, 4.279946e-004
1.992106e+003, 1.620340e-003
1.994035e+003, 1.663281e-003
1.995963e+003, 9.473081e-004
1.997891e+003, -5.053339e-004
1.999820e+003, -6.873226e-004
2.001748e+003, -8.568702e-004
2.003677e+003, -1.444138e-003
2.005605e+003, 1.300713e-004
2.007534e+003, 1.089139e-003
2.009462e+003, -1.159786e-003
2.011391e+003, -3.184373e-004
2.013319e+003, 1.331268e-003
2.015248e+003, 3.782510e-004
2.017176e+003, -1.294863e-003
2.019105e+003, -1.302032e-003
2.021033e+003, 1.529353e-004
2.022962e+003, -8.711204e-005
2.024890e+003, -2.575634e-003
2.026818e+003, -1.926566e-003
2.028747e+003, 1.446235e-004
2.030675e+003, 3.158470e-004
2.032604e+003, 2.887831e-004
2.034532e+003, 5.074097e-004
2.036461e+003, 1.332342e-003
2.038389e+003, 6.972534e-004
2.040318e+003, 5.277499e-004
2.042246e+003, 1.582981e-003
2.044175e+003, 2.100228e-003
2.046103e+003, 1.903520e-003
2.048032e+003, 1.808392e-003
2.049960e+003, 2.886247e-003
2.051889e+003, 3.085711e-003
2.053817e+003, 3.843267e-003
2.055746e+003, 4.750324e-003
2.057674e+003, 3.542935e-003
2.059603e+003, 2.757201e-003
2.061531e+003, 2.544695e-003
2.063459e+003, 2.924093e-003
2.065388e+003, 3.266746e-003
2.067316e+003, 3.481947e-003
2.069245e+003, 2.476730e-003
2.071173e+003, 1.693987e-003
2.073102e+003, 2.557073e-003
2.075030e+003, 3.619237e-003
2.076959e+003, 4.007352e-003
2.078887e+003, 4.373088e-003
2.080816e+003, 4.697363e-003
2.082744e+003, 4.854494e-003
2.084673e+003, 4.626524e-003
2.086601e+003, 3.975875e-003
2.088530e+003, 3.687054e-003
2.090458e+003, 3.309981e-003
2.092386e+003, 3.029676e-003
2.094315e+003, 2.910852e-003
2.096243e+003, 2.737617e-003
2.098172e+003, 4.550146e-003
2.100100e+003, 6.235637e-003
2.102029e+003, 4.862726e-003
2.103957e+003, 4.119548e-003
2.105886e+003, 4.858764e-003
2.107814e+003, 4.952822e-003
2.109743e+003, 4.175221e-003
2.111671e+003, 4.077416e-003
2.113600e+003, 4.274058e-003
2.115528e+003, 4.382414e-003
2.117457e+003, 3.100408e-003
2.119385e+003, 2.134901e-003
2.121313e+003, 3.005161e-003
2.123242e+003, 3.673808e-003
2.125170e+003, 3.526300e-003
2.127099e+003, 3.503475e-003
2.129027e+003, 2.309647e-003
2.130956e+003, 1.625110e-003
2.132884e+003, 1.386553e-003
2.134813e+003, 1.221071e-003
2.136741e+003, 9.699812e-004
2.138670e+003, 1.687262e-003
2.140598e+003, 2.910706e-003
2.142527e+003, 2.870754e-003
2.144455e+003, 1.094741e-003
2.146384e+003, 1.191937e-003
2.148312e+003, 4.709327e-004
2.150240e+003, -2.413353e-004
2.152169e+003, -1.058910e-003
2.154097e+003, -6.371202e-004
2.156026e+003, -5.640018e-004
2.157954e+003, -3.416573e-004
2.159883e+003, 2.939122e-003
2.161811e+003, 4.933615e-003
2.163740e+003, 5.170777e-003
2.165668e+003, 4.492199e-003
2.167597e+003, 4.758426e-003
2.169525e+003, 4.923659e-003
2.171454e+003, 5.246629e-003
2.173382e+003, 4.623591e-003
2.175311e+003, 3.641554e-003
2.177239e+003, 2.759290e-003
2.179167e+003, 8.297593e-004
2.181096e+003, 1.761091e-003
2.183024e+003, 4.676652e-003
2.184953e+003, 5.370328e-003
2.186881e+003, 3.846643e-003
2.188810e+003, 2.398117e-003
2.190738e+003, 2.569597e-003
2.192667e+003, 3.138952e-003
2.194595e+003, 3.768046e-003
2.196524e+003, 4.289275e-003
2.198452e+003, 3.946641e-003
2.200381e+003, 4.762291e-003
2.202309e+003, 5.354047e-003
2.204238e+003, 5.413829e-003
2.206166e+003, 5.151004e-003
2.208094e+003, 3.811434e-003
2.210023e+003, 3.976862e-003
2.211951e+003, 5.511454e-003
2.213880e+003, 5.858142e-003
2.215808e+003, 6.007707e-003
2.217737e+003, 6.904384e-003
2.219665e+003, 7.008393e-003
2.221594e+003, 5.591035e-003
2.223522e+003, 5.586932e-003
2.225451e+003, 6.462436e-003
2.227379e+003, 6.077462e-003
2.229308e+003, 5.869368e-003
2.231236e+003, 6.728637e-003
2.233165e+003, 6.972433e-003
2.235093e+003, 5.533173e-003
2.237021e+003, 5.269860e-003
2.238950e+003, 5.852784e-003
2.240878e+003, 6.049464e-003
2.242807e+003, 6.729521e-003
2.244735e+003, 7.527642e-003
2.246664e+003, 7.845297e-003
2.248592e+003, 7.982531e-003
2.250521e+003, 7.360544e-003
2.252449e+003, 6.186884e-003
2.254378e+003, 6.298206e-003
2.256306e+003, 6.555485e-003
2.258235e+003, 6.556734e-003
2.260163e+003, 7.081270e-003
2.262092e+003, 6.893186e-003
2.264020e+003, 6.124052e-003
2.265948e+003, 6.306443e-003
2.267877e+003, 5.973874e-003
2.269805e+003, 6.090171e-003
2.271734e+003, 6.630060e-003
2.273662e+003, 6.613418e-003
2.275591e+003, 6.956851e-003
2.277519e+003, 7.815708e-003
2.279448e+003, 7.163817e-003
2.281376e+003, 6.512687e-003
2.283305e+003, 6.592906e-003
2.285233e+003, 7.349140e-003
2.287162e+003, 7.307869e-003
2.289090e+003, 7.320098e-003
2.291019e+003, 7.258565e-003
2.292947e+003, 6.818264e-003
2.294875e+003, 6.765396e-003
2.296804e+003, 6.936412e-003
2.298732e+003, 7.079409e-003
2.300661e+003, 7.666546e-003
2.302589e+003, 7.479670e-003
2.304518e+003, 7.497857e-003
2.306446e+003, 7.478786e-003
2.308375e+003, 6.989027e-003
2.310303e+003, 6.972039e-003
2.312232e+003, 7.149972e-003
2.314160e+003, 7.288096e-003
2.316089e+003, 7.109834e-003
2.318017e+003, 6.924432e-003
2.319946e+003, 7.496845e-003
2.321874e+003, 8.382965e-003
2.323802e+003, 8.940650e-003
2.325731e+003, 8.045755e-003
2.327659e+003, 6.974617e-003
2.329588e+003, 6.771786e-003
2.331516e+003, 7.038685e-003
2.333445e+003, 7.411185e-003
2.335373e+003, 7.196973e-003
2.337302e+003, 6.883949e-003
2.339230e+003, 6.652891e-003
2.341159e+003, 7.013910e-003
2.343087e+003, 7.165263e-003
2.345016e+003, 7.403239e-003
2.346944e+003, 7.381800e-003
2.348873e+003, 6.274123e-003
2.350801e+003, 6.081417e-003
2.352729e+003, 6.489415e-003
2.354658e+003, 6.422649e-003
2.356586e+003, 6.645604e-003
2.358515e+003, 6.938339e-003
2.360443e+003, 6.660338e-003
2.362372e+003, 6.603702e-003
2.364300e+003, 6.619015e-003
2.366229e+003, 6.732539e-003
2.368157e+003, 7.201903e-003
2.370086e+003, 7.101089e-003
2.372014e+003, 6.695858e-003
2.373942e+003, 6.334944e-003
2.375871e+003, 5.856864e-003
2.377799e+003, 6.015263e-003
2.379728e+003, 6.258334e-003
2.381656e+003, 5.900416e-003
2.383585e+003, 6.152891e-003
2.385513e+003, 6.297700e-003
2.387442e+003, 6.247371e-003
2.389370e+003, 6.550125e-003
2.391299e+003, 6.496375e-003
2.393227e+003, 6.231263e-003
2.395156e+003, 5.735842e-003
2.397084e+003, 5.605787e-003
2.399012e+003, 6.215755e-003
2.400941e+003, 6.334426e-003
2.402869e+003, 5.996107e-003
2.404798e+003, 6.174343e-003
2.406726e+003, 6.581833e-003
2.408655e+003, 6.377429e-003
2.410583e+003, 6.246412e-003
2.412512e+003, 6.409521e-003
2.414440e+003, 6.147928e-003
2.416369e+003, 5.755630e-003
2.418297e+003, 6.238517e-003
2.420226e+003, 6.847571e-003
2.422154e+003, 7.147440e-003
2.424083e+003, 6.984372e-003
2.426011e+003, 6.542780e-003
2.427939e+003, 6.110943e-003
2.429868e+003, 6.275587e-003
2.431796e+003, 6.097071e-003
2.433725e+003, 5.442629e-003
2.435653e+003, 5.382373e-003
2.437582e+003, 5.872937e-003
2.439510e+003, 5.797200e-003
2.441439e+003, 5.772179e-003
2.443367e+003, 6.033186e-003
2.445296e+003, 6.105015e-003
2.447224e+003, 6.487172e-003
2.449153e+003, 6.706064e-003
2.451081e+003, 6.962285e-003
2.453010e+003, 7.025608e-003
2.454938e+003, 6.482176e-003
2.456866e+003, 6.393166e-003
2.458795e+003, 6.668200e-003
2.460723e+003, 6.758187e-003
2.462652e+003, 6.844292e-003
2.464580e+003, 6.760648e-003
2.466509e+003, 6.205179e-003
2.468437e+003, 5.298749e-003
2.470366e+003, 5.737312e-003
2.472294e+003, 6.208780e-003
2.474223e+003, 6.274975e-003
2.476151e+003, 6.399208e-003
2.478080e+003, 6.541236e-003
2.480008e+003, 6.689697e-003
2.481937e+003, 6.783448e-003
2.483865e+003, 6.860197e-003
2.485793e+003, 6.498296e-003
2.487722e+003, 6.181795e-003
2.489650e+003, 6.659769e-003
2.491579e+003, 6.520319e-003
2.493507e+003, 6.190360e-003
2.495436e+003, 6.234068e-003
2.497364e+003, 6.695398e-003
2.499293e+003, 6.303511e-003
2.501221e+003, 5.992990e-003
2.503150e+003, 6.675697e-003
2.505078e+003, 7.233941e-003
2.507007e+003, 7.387702e-003
2.508935e+003, 7.175374e-003
2.510864e+003, 6.591979e-003
2.512792e+003, 6.320989e-003
2.514720e+003, 6.352493e-003
2.516649e+003, 6.356779e-003
2.518577e+003, 5.359629e-003
2.520506e+003, 5.388073e-003
2.522434e+003, 6.071990e-003
2.524363e+003, 6.364997e-003
2.526291e+003, 6.855100e-003
2.528220e+003, 6.853591e-003
2.530148e+003, 6.645495e-003
2.532077e+003, 7.138887e-003
2.534005e+003, 7.747387e-003
2.535934e+003, 7.128621e-003
2.537862e+003, 6.464091e-003
2.539791e+003, 6.538250e-003
2.541719e+003, 7.272639e-003
2.543647e+003, 7.326688e-003
2.545576e+003, 7.154546e-003
2.547504e+003, 7.378078e-003
2.549433e+003, 7.171767e-003
2.551361e+003, 6.610909e-003
2.553290e+003, 6.942603e-003
2.555218e+003, 7.141434e-003
2.557147e+003, 7.315090e-003
2.559075e+003, 7.993917e-003
2.561004e+003, 7.315877e-003
2.562932e+003, 6.453227e-003
2.564861e+003, 6.993658e-003
2.566789e+003, 7.461945e-003
2.568718e+003, 7.355912e-003
2.570646e+003, 7.437918e-003
2.572574e+003, 7.177431e-003
2.574503e+003, 6.789754e-003
2.576431e+003, 7.773115e-003
2.578360e+003, 8.132827e-003
2.580288e+003, 7.198100e-003
2.582217e+003, 7.208906e-003
2.584145e+003, 7.654311e-003
2.586074e+003, 7.875043e-003
2.588002e+003, 7.705024e-003
2.589931e+003, 7.617710e-003
2.591859e+003, 7.290807e-003
2.593788e+003, 7.319763e-003
2.595716e+003, 7.781690e-003
2.597645e+003, 7.486513e-003
2.599573e+003, 7.193313e-003
2.601501e+003, 7.462056e-003
2.603430e+003, 7.638408e-003
2.605358e+003, 7.144516e-003
2.607287e+003, 6.926570e-003
2.609215e+003, 6.744517e-003
2.611144e+003, 7.222467e-003
2.613072e+003, 7.876369e-003
2.615001e+003, 7.182476e-003
2.616929e+003, 6.482749e-003
2.618858e+003, 6.660163e-003
2.620786e+003, 7.544050e-003
2.622715e+003, 7.875338e-003
2.624643e+003, 7.215445e-003
2.626572e+003, 7.330670e-003
2.628500e+003, 7.669984e-003
2.630428e+003, 7.689741e-003
2.632357e+003, 7.678169e-003
2.634285e+003, 7.367755e-003
2.636214e+003, 7.489995e-003
2.638142e+003, 7.722770e-003
2.640071e+003, 7.934253e-003
2.641999e+003, 7.611740e-003
2.643928e+003, 7.698081e-003
2.645856e+003, 7.937256e-003
2.647785e+003, 7.828558e-003
2.649713e+003, 7.699817e-003
2.651642e+003, 7.576027e-003
2.653570e+003, 7.729086e-003
2.655499e+003, 8.149249e-003
2.657427e+003, 8.028457e-003
2.659355e+003, 7.504855e-003
2.661284e+003, 7.265359e-003
2.663212e+003, 7.070130e-003
2.665141e+003, 6.535614e-003
2.667069e+003, 6.723260e-003
2.668998e+003, 6.817343e-003
2.670926e+003, 7.032916e-003
2.672855e+003, 7.079875e-003
2.674783e+003, 6.575490e-003
2.676712e+003, 6.400160e-003
2.678640e+003, 6.215588e-003
2.680569e+003, 6.671540e-003
2.682497e+003, 6.553789e-003
2.684426e+003, 6.344827e-003
2.686354e+003, 6.571987e-003
2.688282e+003, 7.046550e-003
2.690211e+003, 7.147567e-003
2.692139e+003, 6.827571e-003
2.694068e+003, 7.011159e-003
2.695996e+003, 7.015011e-003
2.697925e+003, 6.874170e-003
2.699853e+003, 7.318025e-003
2.701782e+003, 7.199216e-003
2.703710e+003, 6.527167e-003
2.705639e+003, 6.448077e-003
2.707567e+003, 6.593317e-003
2.709496e+003, 6.892102e-003
2.711424e+003, 7.163631e-003
2.713353e+003, 6.797561e-003
2.715281e+003, 6.974156e-003
2.717209e+003, 6.778340e-003
2.719138e+003, 6.861175e-003
2.721066e+003, 7.331086e-003
2.722995e+003, 7.284808e-003
2.724923e+003, 6.843449e-003
2.726852e+003, 7.150226e-003
2.728780e+003, 7.279366e-003
2.730709e+003, 6.946990e-003
2.732637e+003, 6.915832e-003
2.734566e+003, 7.372207e-003
2.736494e+003, 7.791607e-003
2.738423e+003, 7.637642e-003
2.740351e+003, 7.620816e-003
2.742280e+003, 7.933027e-003
2.744208e+003, 7.986940e-003
2.746136e+003, 8.656502e-003
2.748065e+003, 8.349127e-003
2.749993e+003, 6.975811e-003
2.751922e+003, 6.970524e-003
2.753850e+003, 7.364260e-003
2.755779e+003, 7.585530e-003
2.757707e+003, 7.850829e-003
2.759636e+003, 7.690014e-003
2.761564e+003, 7.987726e-003
2.763493e+003, 8.340504e-003
2.765421e+003, 8.634612e-003
2.767350e+003, 8.604246e-003
2.769278e+003, 8.441777e-003
2.771207e+003, 7.791487e-003
2.773135e+003, 7.387926e-003
2.775063e+003, 7.442007e-003
2.776992e+003, 7.574120e-003
2.778920e+003, 7.753684e-003
2.780849e+003, 7.996310e-003
2.782777e+003, 7.991367e-003
2.784706e+003, 7.461281e-003
2.786634e+003, 7.293565e-003
2.788563e+003, 7.526193e-003
2.790491e+003, 7.835300e-003
2.792420e+003, 7.951914e-003
2.794348e+003, 7.693870e-003
2.796277e+003, 7.613401e-003
2.798205e+003, 7.637873e-003
2.800134e+003, 7.493107e-003
2.802062e+003, 7.793510e-003
2.803990e+003, 8.238994e-003
2.805919e+003, 8.879277e-003
2.807847e+003, 9.599999e-003
2.809776e+003, 9.134497e-003
2.811704e+003, 8.517759e-003
2.813633e+003, 8.399500e-003
2.815561e+003, 8.048916e-003
2.817490e+003, 8.202259e-003
2.819418e+003, 7.997600e-003
2.821347e+003, 7.983312e-003
2.823275e+003, 7.692486e-003
2.825204e+003, 8.170534e-003
2.827132e+003, 8.807437e-003
2.829061e+003, 8.623119e-003
2.830989e+003, 8.500913e-003
2.832917e+003, 8.437898e-003
2.834846e+003, 8.716909e-003
2.836774e+003, 8.705707e-003
2.838703e+003, 8.462237e-003
2.840631e+003, 9.065097e-003
2.842560e+003, 8.623113e-003
2.844488e+003, 8.136852e-003
2.846417e+003, 8.171516e-003
2.848345e+003, 8.595524e-003
2.850274e+003, 9.214615e-003
2.852202e+003, 9.770351e-003
2.854131e+003, 9.559839e-003
2.856059e+003, 8.751180e-003
2.857988e+003, 9.106859e-003
2.859916e+003, 9.266990e-003
2.861844e+003, 8.911881e-003
2.863773e+003, 9.071387e-003
2.865701e+003, 9.487420e-003
2.867630e+003, 9.793523e-003
2.869558e+003, 8.750038e-003
2.871487e+003, 8.475691e-003
2.873415e+003, 9.074892e-003
2.875344e+003, 9.449557e-003
2.877272e+003, 9.653225e-003
2.879201e+003, 9.600666e-003
2.881129e+003, 9.828956e-003
2.883058e+003, 9.979680e-003
2.884986e+003, 9.836818e-003
2.886915e+003, 9.701679e-003
2.888843e+003, 1.003551e-002
2.890771e+003, 9.556444e-003
2.892700e+003, 9.006251e-003
2.894628e+003, 8.711183e-003
2.896557e+003, 9.166460e-003
2.898485e+003, 9.734378e-003
2.900414e+003, 1.007891e-002
2.902342e+003, 1.033778e-002
2.904271e+003, 1.031244e-002
2.906199e+003, 1.015047e-002
2.908128e+003, 1.012330e-002
2.910056e+003, 1.003603e-002
2.911985e+003, 1.102827e-002
2.913913e+003, 1.137009e-002
2.915842e+003, 1.059162e-002
2.917770e+003, 1.044168e-002
2.919698e+003, 1.019772e-002
2.921627e+003, 1.025608e-002
2.923555e+003, 1.105891e-002
2.925484e+003, 1.103218e-002
2.927412e+003, 1.083145e-002
2.929341e+003, 1.094031e-002
2.931269e+003, 1.084994e-002
2.933198e+003, 1.096599e-002
2.935126e+003, 1.084156e-002
2.937055e+003, 1.040297e-002
2.938983e+003, 9.776896e-003
2.940912e+003, 9.814147e-003
2.942840e+003, 9.944302e-003
2.944769e+003, 1.037413e-002
2.946697e+003, 1.042049e-002
2.948625e+003, 1.053518e-002
2.950554e+003, 1.013542e-002
2.952482e+003, 1.019204e-002
2.954411e+003, 1.071388e-002
2.956339e+003, 1.107376e-002
2.958268e+003, 1.040875e-002
2.960196e+003, 1.032121e-002
2.962125e+003, 1.056363e-002
2.964053e+003, 1.035347e-002
2.965982e+003, 1.015257e-002
2.967910e+003, 9.729665e-003
2.969839e+003, 9.707036e-003
2.971767e+003, 1.016841e-002
2.973696e+003, 1.079466e-002
2.975624e+003, 1.075961e-002
2.977552e+003, 1.060791e-002
2.979481e+003, 1.099707e-002
2.981409e+003, 1.045474e-002
2.983338e+003, 1.081303e-002
2.985266e+003, 1.227081e-002
2.987195e+003, 1.238217e-002
2.989123e+003, 1.179464e-002
2.991052e+003, 1.177065e-002
2.992980e+003, 1.141342e-002
2.994909e+003, 1.107294e-002
2.996837e+003, 1.110320e-002
2.998766e+003, 1.183460e-002
3.000694e+003, 1.219162e-002
3.002623e+003, 1.159895e-002
3.004551e+003, 1.104082e-002
3.006479e+003, 1.074525e-002
3.008408e+003, 1.063586e-002
3.010336e+003, 1.159796e-002
3.012265e+003, 1.206345e-002
3.014193e+003, 1.154128e-002
3.016122e+003, 1.183594e-002
3.018050e+003, 1.118837e-002
3.019979e+003, 1.091831e-002
3.021907e+003, 1.084320e-002
3.023836e+003, 1.079779e-002
3.025764e+003, 1.135945e-002
3.027693e+003, 1.123616e-002
3.029621e+003, 1.141727e-002
3.031550e+003, 1.093108e-002
3.033478e+003, 1.076981e-002
3.035406e+003, 1.098850e-002
3.037335e+003, 1.065809e-002
3.039263e+003, 1.085269e-002
3.041192e+003, 1.192336e-002
3.043120e+003, 1.226561e-002
3.045049e+003, 1.196322e-002
3.046977e+003, 1.193545e-002
3.048906e+003, 1.168033e-002
3.050834e+003, 1.197586e-002
3.052763e+003, 1.264746e-002
3.054691e+003, 1.253968e-002
3.056620e+003, 1.229049e-002
3.058548e+003, 1.257762e-002
3.060477e+003, 1.307396e-002
3.062405e+003, 1.358257e-002
3.064333e+003, 1.354753e-002
3.066262e+003, 1.270750e-002
3.068190e+003, 1.262733e-002
3.070119e+003, 1.229909e-002
3.072047e+003, 1.247110e-002
3.073976e+003, 1.309933e-002
3.075904e+003, 1.332330e-002
3.077833e+003, 1.359723e-002
3.079761e+003, 1.331105e-002
3.081690e+003, 1.336899e-002
3.083618e+003, 1.351225e-002
3.085547e+003, 1.399957e-002
3.087475e+003, 1.465427e-002
3.089404e+003, 1.453945e-002
3.091332e+003, 1.478629e-002
3.093260e+003, 1.445441e-002
3.095189e+003, 1.448789e-002
3.097117e+003, 1.495342e-002
3.099046e+003, 1.452940e-002
3.100974e+003, 1.344862e-002
3.102903e+003, 1.279150e-002
3.104831e+003, 1.346036e-002
3.106760e+003, 1.401001e-002
3.108688e+003, 1.403766e-002
3.110617e+003, 1.463753e-002
3.112545e+003, 1.479444e-002
3.114474e+003, 1.482490e-002
3.116402e+003, 1.576417e-002
3.118331e+003, 1.654248e-002
3.120259e+003, 1.615779e-002
3.122188e+003, 1.521414e-002
3.124116e+003, 1.498478e-002
3.126044e+003, 1.529611e-002
3.127973e+003, 1.514392e-002
3.129901e+003, 1.533847e-002
3.131830e+003, 1.617991e-002
3.133758e+003, 1.638680e-002
3.135687e+003, 1.544848e-002
3.137615e+003, 1.423396e-002
3.139544e+003, 1.457472e-002
3.141472e+003, 1.662996e-002
3.143401e+003, 1.742397e-002
3.145329e+003, 1.789497e-002
3.147258e+003, 1.803285e-002
3.149186e+003, 1.768445e-002
3.151115e+003, 1.814530e-002
3.153043e+003, 1.745330e-002
3.154971e+003, 1.666260e-002
3.156900e+003, 1.782283e-002
3.158828e+003, 1.852504e-002
3.160757e+003, 1.884306e-002
3.162685e+003, 1.801996e-002
3.164614e+003, 1.791749e-002
3.166542e+003, 1.907532e-002
3.168471e+003, 1.943902e-002
3.170399e+003, 1.979237e-002
3.172328e+003, 2.001727e-002
3.174256e+003, 1.960349e-002
3.176185e+003, 2.045855e-002
3.178113e+003, 2.123302e-002
3.180042e+003, 2.076565e-002
3.181970e+003, 2.047955e-002
3.183898e+003, 2.068985e-002
3.185827e+003, 2.040743e-002
3.187755e+003, 2.025803e-002
3.189684e+003, 2.107026e-002
3.191612e+003, 2.220110e-002
3.193541e+003, 2.235356e-002
3.195469e+003, 2.186272e-002
3.197398e+003, 2.235364e-002
3.199326e+003, 2.311453e-002
3.201255e+003, 2.354246e-002
3.203183e+003, 2.342441e-002
3.205112e+003, 2.273624e-002
3.207040e+003, 2.274474e-002
3.208969e+003, 2.305555e-002
3.210897e+003, 2.313204e-002
3.212825e+003, 2.336470e-002
3.214754e+003, 2.305954e-002
3.216682e+003, 2.268378e-002
3.218611e+003, 2.288361e-002
3.220539e+003, 2.374801e-002
3.222468e+003, 2.455885e-002
3.224396e+003, 2.370071e-002
3.226325e+003, 2.355430e-002
3.228253e+003, 2.561299e-002
3.230182e+003, 2.708043e-002
3.232110e+003, 2.557510e-002
3.234039e+003, 2.467855e-002
3.235967e+003, 2.539292e-002
3.237896e+003, 2.620750e-002
3.239824e+003, 2.628698e-002
3.241752e+003, 2.503513e-002
3.243681e+003, 2.491415e-002
3.245609e+003, 2.590492e-002
3.247538e+003, 2.565280e-002
3.249466e+003, 2.535909e-002
3.251395e+003, 2.634290e-002
3.253323e+003, 2.581070e-002
3.255252e+003, 2.529125e-002
3.257180e+003, 2.517790e-002
3.259109e+003, 2.552582e-002
3.261037e+003, 2.571741e-002
3.262966e+003, 2.493903e-002
3.264894e+003, 2.540096e-002
3.266823e+003, 2.656639e-002
3.268751e+003, 2.707711e-002
3.270679e+003, 2.790807e-002
3.272608e+003, 2.815114e-002
3.274536e+003, 2.819373e-002
3.276465e+003, 2.879073e-002
3.278393e+003, 2.803981e-002
3.280322e+003, 2.778374e-002
3.282250e+003, 2.937115e-002
3.284179e+003, 3.032461e-002
3.286107e+003, 3.063875e-002
3.288036e+003, 3.046829e-002
3.289964e+003, 3.001183e-002
3.291893e+003, 2.914648e-002
3.293821e+003, 2.998762e-002
3.295750e+003, 3.172099e-002
3.297678e+003, 3.172515e-002
3.299606e+003, 3.190568e-002
3.301535e+003, 3.168106e-002
3.303463e+003, 3.186956e-002
3.305392e+003, 3.124631e-002
3.307320e+003, 3.099778e-002
3.309249e+003, 3.236661e-002
3.311177e+003, 3.250711e-002
3.313106e+003, 3.235785e-002
3.315034e+003, 3.334808e-002
3.316963e+003, 3.277652e-002
3.318891e+003, 3.230617e-002
3.320820e+003, 3.302886e-002
3.322748e+003, 3.375328e-002
3.324677e+003, 3.507797e-002
3.326605e+003, 3.437481e-002
3.328533e+003, 3.285171e-002
3.330462e+003, 3.439195e-002
3.332390e+003, 3.632341e-002
3.334319e+003, 3.525126e-002
3.336247e+003, 3.529385e-002
3.338176e+003, 3.662286e-002
3.340104e+003, 3.594114e-002
3.342033e+003, 3.574339e-002
3.343961e+003, 3.619551e-002
3.345890e+003, 3.652411e-002
3.347818e+003, 3.785071e-002
3.349747e+003, 3.896473e-002
3.351675e+003, 3.915124e-002
3.353604e+003, 4.063858e-002
3.355532e+003, 4.195334e-002
3.357460e+003, 4.117614e-002
3.359389e+003, 4.110223e-002
3.361317e+003, 4.143513e-002
3.363246e+003, 4.140773e-002
3.365174e+003, 4.160878e-002
3.367103e+003, 4.209725e-002
3.369031e+003, 4.367272e-002
3.370960e+003, 4.450032e-002
3.372888e+003, 4.442696e-002
3.374817e+003, 4.466852e-002
3.376745e+003, 4.461102e-002
3.378674e+003, 4.410550e-002
3.380602e+003, 4.448668e-002
3.382531e+003, 4.559562e-002
3.384459e+003, 4.540408e-002
3.386387e+003, 4.420672e-002
3.388316e+003, 4.490293e-002
3.390244e+003, 4.635643e-002
3.392173e+003, 4.667949e-002
3.394101e+003, 4.721313e-002
3.396030e+003, 4.751884e-002
3.397958e+003, 4.879206e-002
3.399887e+003, 4.913199e-002
3.401815e+003, 4.881484e-002
3.403744e+003, 4.867037e-002
3.405672e+003, 4.956627e-002
3.407601e+003, 5.030240e-002
3.409529e+003, 5.185633e-002
3.411458e+003, 5.349538e-002
3.413386e+003, 5.351087e-002
3.415314e+003, 5.324333e-002
3.417243e+003, 5.405390e-002
3.419171e+003, 5.447105e-002
3.421100e+003, 5.318627e-002
3.423028e+003, 5.289587e-002
3.424957e+003, 5.391453e-002
3.426885e+003, 5.471590e-002
3.428814e+003, 5.507129e-002
3.430742e+003, 5.564574e-002
3.432671e+003, 5.539018e-002
3.434599e+003, 5.598341e-002
3.436528e+003, 5.772427e-002
3.438456e+003, 5.800443e-002
3.440385e+003, 5.810957e-002
3.442313e+003, 5.879406e-002
3.444241e+003, 5.895693e-002
3.446170e+003, 5.886393e-002
3.448098e+003, 5.933555e-002
3.450027e+003, 5.951755e-002
3.451955e+003, 5.872674e-002
3.453884e+003, 5.899042e-002
3.455812e+003, 5.962023e-002
3.457741e+003, 5.955800e-002
3.459669e+003, 6.014856e-002
3.461598e+003, 6.063330e-002
3.463526e+003, 6.063948e-002
3.465455e+003, 6.011500e-002
3.467383e+003, 5.930327e-002
3.469312e+003, 5.892119e-002
3.471240e+003, 6.027879e-002
3.473168e+003, 6.048610e-002
3.475097e+003, 5.983930e-002
3.477025e+003, 5.971573e-002
3.478954e+003, 5.937652e-002
3.480882e+003, 5.938460e-002
3.482811e+003, 5.982520e-002
3.484739e+003, 6.038728e-002
3.486668e+003, 6.102832e-002
3.488596e+003, 6.202148e-002
3.490525e+003, 6.151918e-002
3.492453e+003, 6.085143e-002
3.494382e+003, 6.049977e-002
3.496310e+003, 6.038814e-002
3.498239e+003, 6.066724e-002
3.500167e+003, 6.120902e-002
3.502095e+003, 6.160439e-002
3.504024e+003, 5.998124e-002
3.505952e+003, 5.941657e-002
3.507881e+003, 6.005051e-002
3.509809e+003, 6.149037e-002
3.511738e+003, 6.212800e-002
3.513666e+003, 6.089230e-002
3.515595e+003, 5.950444e-002
3.517523e+003, 6.044963e-002
3.519452e+003, 6.193379e-002
3.521380e+003, 6.229344e-002
3.523309e+003, 6.301686e-002
3.525237e+003, 6.158346e-002
3.527166e+003, 6.009444e-002
3.529094e+003, 6.209702e-002
3.531022e+003, 6.462093e-002
3.532951e+003, 6.458160e-002
3.534879e+003, 6.430590e-002
3.536808e+003, 6.453074e-002
3.538736e+003, 6.431844e-002
3.540665e+003, 6.504774e-002
3.542593e+003, 6.478593e-002
3.544522e+003, 6.276738e-002
3.546450e+003, 6.497423e-002
3.548379e+003, 6.785055e-002
3.550307e+003, 6.731644e-002
3.552236e+003, 6.744529e-002
3.554164e+003, 6.926795e-002
3.556093e+003, 7.002392e-002
3.558021e+003, 6.883265e-002
3.559949e+003, 6.813637e-002
3.561878e+003, 6.973417e-002
3.563806e+003, 7.083283e-002
3.565735e+003, 6.929339e-002
3.567663e+003, 6.866836e-002
3.569592e+003, 6.872214e-002
3.571520e+003, 6.806713e-002
3.573449e+003, 6.789707e-002
3.575377e+003, 6.808455e-002
3.577306e+003, 6.837360e-002
3.579234e+003, 6.865721e-002
3.581163e+003, 6.722548e-002
3.583091e+003, 6.632209e-002
3.585020e+003, 6.574746e-002
3.586948e+003, 6.376606e-002
3.588876e+003, 6.193538e-002
3.590805e+003, 6.142952e-002
3.592733e+003, 5.991932e-002
3.594662e+003, 5.810325e-002
3.596590e+003, 5.613529e-002
3.598519e+003, 5.339631e-002
3.600447e+003, 5.202767e-002
3.602376e+003, 4.935375e-002
3.604304e+003, 4.673196e-002
3.606233e+003, 4.435221e-002
3.608161e+003, 4.068887e-002
3.610090e+003, 3.875216e-002
3.612018e+003, 3.659259e-002
3.613947e+003, 3.584518e-002
3.615875e+003, 3.497552e-002
3.617803e+003, 3.354756e-002
3.619732e+003, 3.137816e-002
3.621660e+003, 2.963211e-002
3.623589e+003, 2.881186e-002
3.625517e+003, 2.848919e-002
3.627446e+003, 2.576918e-002
3.629374e+003, 2.527312e-002
3.631303e+003, 2.414835e-002
3.633231e+003, 2.132338e-002
3.635160e+003, 1.944364e-002
3.637088e+003, 1.822196e-002
3.639017e+003, 1.849289e-002
3.640945e+003, 1.848524e-002
3.642874e+003, 1.609737e-002
3.644802e+003, 1.540101e-002
3.646730e+003, 1.601035e-002
3.648659e+003, 1.397252e-002
3.650587e+003, 1.256139e-002
3.652516e+003, 1.288802e-002
3.654444e+003, 1.225355e-002
3.656373e+003, 1.282846e-002
3.658301e+003, 1.214635e-002
3.660230e+003, 1.043056e-002
3.662158e+003, 1.053124e-002
3.664087e+003, 1.030153e-002
3.666015e+003, 1.015449e-002
3.667944e+003, 1.024753e-002
3.669872e+003, 8.701617e-003
3.671801e+003, 8.952941e-003
3.673729e+003, 8.290612e-003
3.675657e+003, 7.890025e-003
3.677586e+003, 9.127379e-003
3.679514e+003, 1.243930e-002
3.681443e+003, 1.161833e-002
3.683371e+003, 9.411565e-003
3.685300e+003, 9.294690e-003
3.687228e+003, 6.856057e-003
3.689157e+003, 6.092794e-003
3.691085e+003, 6.607151e-003
3.693014e+003, 7.882276e-003
3.694942e+003, 7.260301e-003
3.696871e+003, 7.138435e-003
3.698799e+003, 5.854896e-003
3.700728e+003, 5.231407e-003
3.702656e+003, 7.109956e-003
3.704584e+003, 6.615283e-003
3.706513e+003, 6.614537e-003
3.708441e+003, 8.057482e-003
3.710370e+003, 6.072438e-003
3.712298e+003, 3.612103e-003
3.714227e+003, 4.378877e-003
3.716155e+003, 9.042249e-003
3.718084e+003, 1.012649e-002
3.720012e+003, 6.586354e-003
3.721941e+003, 3.956361e-003
3.723869e+003, 4.087740e-003
3.725798e+003, 5.574393e-003
3.727726e+003, 6.705585e-003
3.729655e+003, 5.746033e-003
3.731583e+003, 5.498983e-003
3.733511e+003, 6.140839e-003
3.735440e+003, 4.824383e-003
3.737368e+003, 4.911790e-003
3.739297e+003, 6.167769e-003
3.741225e+003, 5.836530e-003
3.743154e+003, 2.573580e-003
3.745082e+003, 6.416785e-003
3.747011e+003, 7.306929e-003
3.748939e+003, 6.091779e-003
3.750868e+003, 3.137007e-003
3.752796e+003, 4.828473e-003
3.754725e+003, 5.612532e-003
3.756653e+003, 6.145938e-003
3.758582e+003, 5.498771e-003
3.760510e+003, 4.327802e-003
3.762438e+003, 5.327347e-003
3.764367e+003, 6.375789e-003
3.766295e+003, 7.800857e-003
3.768224e+003, 8.127409e-003
3.770152e+003, 7.750182e-003
3.772081e+003, 6.704579e-003
3.774009e+003, 5.703356e-003
3.775938e+003, 6.352053e-003
3.777866e+003, 7.721304e-003
3.779795e+003, 8.234954e-003
3.781723e+003, 7.894748e-003
3.783652e+003, 8.816467e-003
3.785580e+003, 1.022653e-002
3.787509e+003, 8.052495e-003
3.789437e+003, 7.550464e-003
3.791365e+003, 7.453739e-003
3.793294e+003, 8.213971e-003
3.795222e+003, 8.949963e-003
3.797151e+003, 9.409492e-003
3.799079e+003, 8.475503e-003
3.801008e+003, 6.850500e-003
3.802936e+003, 6.731041e-003
3.804865e+003, 6.278420e-003
3.806793e+003, 5.830039e-003
3.808722e+003, 7.826438e-003
3.810650e+003, 9.666313e-003
3.812579e+003, 8.161536e-003
3.814507e+003, 5.695791e-003
3.816436e+003, 6.638779e-003
3.818364e+003, 4.407741e-003
3.820292e+003, 3.711145e-003
3.822221e+003, 6.085148e-003
3.824149e+003, 5.507661e-003
3.826078e+003, 5.604052e-003
3.828006e+003, 7.963092e-003
3.829935e+003, 8.492461e-003
3.831863e+003, 7.987426e-003
3.833792e+003, 6.872635e-003
3.835720e+003, 5.072138e-003
3.837649e+003, 2.528153e-003
3.839577e+003, 4.011758e-003
3.841506e+003, 5.521525e-003
3.843434e+003, 6.407728e-003
3.845363e+003, 7.554912e-003
3.847291e+003, 6.538217e-003
3.849219e+003, 6.292279e-003
3.851148e+003, 5.385916e-003
3.853076e+003, 5.377606e-003
3.855005e+003, 7.520532e-003
3.856933e+003, 5.354881e-003
3.858862e+003, 5.180188e-003
3.860790e+003, 4.941271e-003
3.862719e+003, 7.551887e-003
3.864647e+003, 8.013902e-003
3.866576e+003, 6.222672e-003
3.868504e+003, 4.664490e-003
3.870433e+003, 7.242157e-003
3.872361e+003, 6.782677e-003
3.874290e+003, 5.130035e-003
3.876218e+003, 5.142611e-003
3.878146e+003, 6.966392e-003
3.880075e+003, 8.984891e-003
3.882003e+003, 6.660727e-003
3.883932e+003, 2.686745e-003
3.885860e+003, 2.700879e-003
3.887789e+003, 4.661600e-003
3.889717e+003, 7.710175e-003
3.891646e+003, 8.698966e-003
3.893574e+003, 5.305394e-003
3.895503e+003, 5.421949e-003
3.897431e+003, 7.820241e-003
3.899360e+003, 9.320334e-003
3.901288e+003, 9.155349e-003
3.903217e+003, 8.412199e-003
3.905145e+003, 7.653981e-003
3.907073e+003, 7.262797e-003
3.909002e+003, 6.907050e-003
3.910930e+003, 7.485563e-003
3.912859e+003, 7.437917e-003
3.914787e+003, 8.853676e-003
3.916716e+003, 9.632681e-003
3.918644e+003, 6.237306e-003
3.920573e+003, 5.956124e-003
3.922501e+003, 7.563015e-003
3.924430e+003, 7.824840e-003
3.926358e+003, 6.839397e-003
3.928287e+003, 6.947874e-003
3.930215e+003, 6.513014e-003
3.932144e+003, 4.813864e-003
3.934072e+003, 2.358994e-003
3.936000e+003, 3.106585e-003
3.937929e+003, 5.188348e-003
3.939857e+003, 5.429985e-003
3.941786e+003, 6.461576e-003
3.943714e+003, 7.651130e-003
3.945643e+003, 7.563781e-003
3.947571e+003, 7.353181e-003
3.949500e+003, 8.396130e-003
3.951428e+003, 7.157132e-003
3.953357e+003, 5.526979e-003
3.955285e+003, 6.576552e-003
3.957214e+003, 7.580181e-003
3.959142e+003, 6.159708e-003
3.961071e+003, 5.064445e-003
3.962999e+003, 6.331671e-003
3.964927e+003, 9.472847e-003
3.966856e+003, 1.025874e-002
3.968784e+003, 8.376836e-003
3.970713e+003, 8.592145e-003
3.972641e+003, 7.909982e-003
3.974570e+003, 7.148921e-003
3.976498e+003, 7.224669e-003
3.978427e+003, 6.767432e-003
3.980355e+003, 6.153175e-003
3.982284e+003, 7.827176e-003
3.984212e+003, 8.974271e-003
3.986141e+003, 6.413789e-003
3.988069e+003, 5.370222e-003
3.989998e+003, 6.761020e-003
3.991926e+003, 7.809716e-003
3.993854e+003, 9.252052e-003
3.995783e+003, 9.961939e-003
3.997711e+003, 1.026362e-002
3.999640e+003, 1.026533e-002
##END=



