##NAMES=Enargite
##RRUFFID=R050373
##IDEAL CHEMISTRY=Cu_3_AsS_4_
##LOCALITY=Butte, Silver Bow County, Montana, USA
##OWNER=RRUFF
##SOURCE=Eugene Schlepp
##DESCRIPTION=Black tabular crystals associated with quartz
##STATUS=The identification of this mineral is confirmed by single-crystal X-ray diffraction and chemical analysis.
##URL=rruff.info/R050373
##MEASURED CHEMISTRY=Cu_2.97_As_0.96_Sb_0.01_S_4_
399.1926, 0.1488346
401.1211, 0.1300637
403.0496, 0.1306890
404.9780, 0.1439133
406.9065, 0.1691581
408.8350, 0.1964897
410.7634, 0.2157697
412.6919, 0.2292662
414.6204, 0.2457117
416.5488, 0.2597965
418.4773, 0.2703542
420.4058, 0.2790629
422.3342, 0.2856650
424.2627, 0.2896377
426.1912, 0.2938850
428.1196, 0.3029414
430.0481, 0.3107192
431.9766, 0.3134443
433.9050, 0.3185733
435.8335, 0.3211213
437.7620, 0.3252096
439.6904, 0.3383709
441.6189, 0.3482693
443.5474, 0.3499798
445.4758, 0.3514869
447.4043, 0.3573473
449.3328, 0.3654983
451.2612, 0.3704644
453.1897, 0.3745215
455.1182, 0.3798783
457.0466, 0.3859397
458.9751, 0.3861809
460.9036, 0.3874826
462.8320, 0.3942208
464.7605, 0.3954340
466.6890, 0.3956187
468.6174, 0.3988952
470.5459, 0.4007389
472.4744, 0.4029622
474.4028, 0.4086320
476.3313, 0.4090078
478.2598, 0.4046893
480.1882, 0.4075668
482.1167, 0.4146285
484.0452, 0.4187929
485.9736, 0.4171567
487.9021, 0.4200305
489.8306, 0.4224631
491.7590, 0.4209947
493.6875, 0.4229408
495.6160, 0.4217595
497.5444, 0.4222330
499.4729, 0.4281437
501.4014, 0.4344413
503.3298, 0.4373652
505.2583, 0.4379061
507.1868, 0.4382670
509.1152, 0.4407523
511.0437, 0.4429172
512.9722, 0.4413745
514.9006, 0.4409354
516.8291, 0.4427482
518.7576, 0.4466703
520.6860, 0.4503139
522.6145, 0.4474943
524.5430, 0.4454404
526.4714, 0.4483662
528.3999, 0.4505774
530.3284, 0.4534115
532.2568, 0.4559951
534.1853, 0.4571058
536.1138, 0.4585611
538.0422, 0.4583581
539.9707, 0.4577306
541.8992, 0.4593023
543.8276, 0.4583112
545.7561, 0.4584507
547.6846, 0.4628929
549.6130, 0.4657127
551.5415, 0.4661948
553.4700, 0.4666214
555.3984, 0.4674678
557.3269, 0.4702055
559.2554, 0.4717985
561.1838, 0.4720342
563.1123, 0.4741872
565.0408, 0.4746678
566.9692, 0.4759682
568.8977, 0.4781353
570.8262, 0.4792033
572.7546, 0.4813139
574.6831, 0.4847997
576.6116, 0.4851485
578.5400, 0.4851334
580.4685, 0.4890454
582.3970, 0.4906093
584.3254, 0.4899575
586.2539, 0.4908918
588.1824, 0.4917036
590.1108, 0.4930596
592.0393, 0.4960873
593.9678, 0.4963080
595.8962, 0.4964613
597.8247, 0.4965962
599.7532, 0.4962997
601.6816, 0.4969988
603.6101, 0.4983656
605.5386, 0.4994717
607.4670, 0.5004545
609.3955, 0.5019447
611.3240, 0.5040523
613.2524, 0.5055001
615.1809, 0.5059404
617.1094, 0.5068351
619.0378, 0.5063977
620.9663, 0.5043799
622.8948, 0.5039021
624.8232, 0.5070284
626.7517, 0.5076894
628.6802, 0.5061657
630.6086, 0.5056422
632.5371, 0.5048488
634.4656, 0.5053602
636.3940, 0.5060122
638.3225, 0.5060585
640.2510, 0.5058317
642.1794, 0.5054380
644.1079, 0.5046671
646.0364, 0.5042118
647.9648, 0.5047448
649.8933, 0.5057267
651.8218, 0.5066714
653.7502, 0.5092934
655.6787, 0.5117002
657.6072, 0.5126006
659.5356, 0.5114405
661.4641, 0.5106390
663.3926, 0.5117888
665.3210, 0.5133641
667.2495, 0.5148569
669.1780, 0.5161175
671.1064, 0.5156846
673.0349, 0.5159761
674.9634, 0.5175809
676.8918, 0.5184106
678.8203, 0.5178850
680.7488, 0.5190240
682.6772, 0.5196071
684.6057, 0.5191503
686.5342, 0.5205383
688.4626, 0.5217273
690.3911, 0.5214465
692.3196, 0.5225009
694.2480, 0.5232998
696.1765, 0.5251085
698.1050, 0.5279450
700.0334, 0.5286903
701.9619, 0.5289927
703.8904, 0.5301008
705.8188, 0.5318047
707.7473, 0.5329142
709.6758, 0.5341181
711.6042, 0.5346983
713.5327, 0.5358011
715.4612, 0.5359741
717.3896, 0.5361809
719.3181, 0.5366926
721.2466, 0.5364954
723.1750, 0.5363272
725.1035, 0.5373091
727.0320, 0.5378491
728.9604, 0.5378406
730.8889, 0.5381240
732.8174, 0.5385025
734.7458, 0.5392632
736.6743, 0.5402980
738.6028, 0.5406710
740.5313, 0.5416099
742.4597, 0.5417190
744.3882, 0.5420955
746.3167, 0.5435308
748.2451, 0.5447079
750.1736, 0.5464031
752.1021, 0.5479866
754.0305, 0.5489916
755.9590, 0.5494830
757.8875, 0.5507678
759.8159, 0.5524879
761.7444, 0.5537378
763.6729, 0.5536438
765.6013, 0.5531747
767.5298, 0.5533388
769.4583, 0.5553687
771.3867, 0.5560690
773.3152, 0.5556502
775.2437, 0.5562819
777.1721, 0.5565839
779.1006, 0.5563502
781.0291, 0.5576586
782.9575, 0.5592365
784.8860, 0.5586100
786.8145, 0.5587038
788.7429, 0.5596040
790.6714, 0.5603871
792.5999, 0.5619882
794.5283, 0.5634122
796.4568, 0.5634143
798.3853, 0.5646623
800.3137, 0.5661395
802.2422, 0.5672474
804.1707, 0.5685511
806.0991, 0.5682662
808.0276, 0.5680575
809.9561, 0.5689445
811.8845, 0.5693409
813.8130, 0.5692337
815.7415, 0.5696437
817.6699, 0.5702161
819.5984, 0.5718297
821.5269, 0.5732481
823.4553, 0.5737212
825.3838, 0.5748712
827.3123, 0.5749848
829.2407, 0.5748973
831.1692, 0.5762666
833.0977, 0.5778846
835.0261, 0.5784579
836.9546, 0.5791058
838.8831, 0.5802154
840.8115, 0.5817410
842.7400, 0.5830750
844.6685, 0.5834814
846.5969, 0.5828971
848.5254, 0.5826035
850.4539, 0.5833666
852.3823, 0.5846311
854.3108, 0.5852019
856.2393, 0.5846782
858.1677, 0.5851443
860.0962, 0.5861834
862.0247, 0.5867873
863.9531, 0.5878422
865.8816, 0.5881307
867.8101, 0.5876294
869.7385, 0.5877476
871.6670, 0.5877974
873.5955, 0.5877690
875.5239, 0.5881993
877.4524, 0.5881159
879.3809, 0.5885878
881.3093, 0.5886271
883.2378, 0.5886412
885.1663, 0.5883964
887.0947, 0.5880819
889.0232, 0.5875974
890.9517, 0.5875787
892.8801, 0.5886608
894.8085, 0.5888765
896.7370, 0.5893186
898.6655, 0.5905062
900.5939, 0.5914311
902.5224, 0.5916141
904.4509, 0.5919400
906.3793, 0.5928355
908.3078, 0.5946541
910.2363, 0.5959393
912.1647, 0.5958951
914.0932, 0.5964476
916.0217, 0.5978700
917.9501, 0.5986891
919.8786, 0.5986289
921.8071, 0.5990361
923.7355, 0.6005320
925.6640, 0.6017498
927.5925, 0.6018449
929.5209, 0.6020532
931.4494, 0.6024279
933.3779, 0.6033544
935.3063, 0.6046711
937.2348, 0.6056075
939.1633, 0.6063633
941.0917, 0.6068882
943.0202, 0.6077710
944.9487, 0.6083429
946.8771, 0.6088461
948.8056, 0.6096429
950.7341, 0.6106943
952.6625, 0.6121216
954.5910, 0.6131086
956.5195, 0.6137031
958.4479, 0.6142455
960.3764, 0.6148311
962.3049, 0.6162403
964.2333, 0.6177441
966.1618, 0.6184935
968.0903, 0.6187437
970.0187, 0.6194807
971.9472, 0.6207884
973.8757, 0.6216470
975.8041, 0.6228162
977.7326, 0.6236896
979.6611, 0.6239958
981.5895, 0.6247607
983.5180, 0.6255170
985.4465, 0.6266679
987.3749, 0.6280589
989.3034, 0.6282752
991.2319, 0.6287016
993.1603, 0.6294554
995.0888, 0.6305692
997.0173, 0.6319994
998.9457, 0.6329243
1000.874, 0.6343067
1002.803, 0.6359184
1004.731, 0.6369905
1006.660, 0.6367829
1008.588, 0.6378677
1010.517, 0.6400050
1012.445, 0.6415191
1014.373, 0.6429390
1016.302, 0.6439774
1018.230, 0.6458113
1020.159, 0.6465478
1022.087, 0.6468783
1024.016, 0.6489653
1025.944, 0.6517001
1027.873, 0.6545538
1029.801, 0.6567435
1031.730, 0.6582406
1033.658, 0.6598534
1035.587, 0.6611007
1037.515, 0.6621383
1039.444, 0.6638228
1041.372, 0.6663041
1043.301, 0.6679276
1045.229, 0.6691322
1047.157, 0.6704723
1049.086, 0.6719913
1051.014, 0.6735702
1052.943, 0.6751662
1054.871, 0.6768027
1056.800, 0.6782395
1058.728, 0.6789063
1060.657, 0.6791058
1062.585, 0.6804125
1064.514, 0.6809893
1066.442, 0.6801812
1068.371, 0.6796247
1070.299, 0.6794809
1072.228, 0.6780503
1074.156, 0.6763937
1076.084, 0.6755524
1078.013, 0.6744635
1079.941, 0.6728286
1081.870, 0.6713774
1083.798, 0.6709474
1085.727, 0.6699098
1087.655, 0.6687182
1089.584, 0.6682835
1091.512, 0.6674969
1093.441, 0.6668513
1095.369, 0.6673725
1097.298, 0.6680500
1099.226, 0.6679460
1101.155, 0.6684374
1103.083, 0.6688717
1105.011, 0.6691327
1106.940, 0.6700889
1108.868, 0.6709723
1110.797, 0.6713907
1112.725, 0.6717873
1114.654, 0.6718572
1116.582, 0.6724651
1118.511, 0.6727794
1120.439, 0.6722873
1122.368, 0.6708567
1124.296, 0.6691752
1126.225, 0.6679295
1128.153, 0.6668776
1130.082, 0.6657159
1132.010, 0.6637312
1133.938, 0.6619018
1135.867, 0.6599998
1137.795, 0.6578397
1139.724, 0.6553937
1141.652, 0.6525182
1143.581, 0.6500012
1145.509, 0.6472341
1147.438, 0.6437991
1149.366, 0.6405621
1151.295, 0.6369094
1153.223, 0.6326271
1155.152, 0.6292491
1157.080, 0.6261476
1159.009, 0.6230963
1160.937, 0.6204642
1162.865, 0.6186951
1164.794, 0.6176853
1166.722, 0.6164540
1168.651, 0.6158493
1170.579, 0.6158606
1172.508, 0.6157837
1174.436, 0.6156512
1176.365, 0.6163643
1178.293, 0.6168779
1180.222, 0.6162077
1182.150, 0.6159645
1184.079, 0.6167567
1186.007, 0.6175691
1187.936, 0.6177651
1189.864, 0.6177929
1191.792, 0.6177076
1193.721, 0.6178678
1195.649, 0.6178319
1197.578, 0.6174076
1199.506, 0.6167472
1201.435, 0.6151838
1203.363, 0.6138921
1205.292, 0.6134843
1207.220, 0.6127092
1209.149, 0.6112912
1211.077, 0.6100456
1213.006, 0.6100416
1214.934, 0.6101682
1216.863, 0.6092493
1218.791, 0.6085795
1220.719, 0.6088242
1222.648, 0.6093050
1224.576, 0.6096899
1226.505, 0.6102567
1228.433, 0.6103343
1230.362, 0.6107098
1232.290, 0.6118746
1234.219, 0.6130057
1236.147, 0.6135429
1238.076, 0.6141011
1240.004, 0.6146359
1241.933, 0.6149517
1243.861, 0.6157386
1245.790, 0.6171533
1247.718, 0.6184555
1249.646, 0.6192176
1251.575, 0.6203940
1253.503, 0.6216282
1255.432, 0.6225212
1257.360, 0.6232753
1259.289, 0.6240995
1261.217, 0.6248031
1263.146, 0.6249104
1265.074, 0.6256764
1267.003, 0.6269786
1268.931, 0.6278840
1270.860, 0.6285872
1272.788, 0.6294121
1274.717, 0.6305254
1276.645, 0.6317226
1278.573, 0.6322711
1280.502, 0.6333280
1282.430, 0.6337764
1284.359, 0.6344245
1286.287, 0.6354539
1288.216, 0.6363599
1290.144, 0.6368804
1292.073, 0.6374721
1294.001, 0.6382373
1295.930, 0.6388189
1297.858, 0.6398701
1299.787, 0.6406553
1301.715, 0.6414779
1303.644, 0.6424801
1305.572, 0.6435286
1307.500, 0.6441184
1309.429, 0.6442907
1311.357, 0.6448529
1313.286, 0.6456777
1315.214, 0.6465160
1317.143, 0.6471701
1319.071, 0.6476040
1321.000, 0.6484880
1322.928, 0.6488656
1324.857, 0.6496594
1326.785, 0.6506038
1328.714, 0.6509296
1330.642, 0.6519377
1332.571, 0.6531876
1334.499, 0.6537369
1336.427, 0.6537533
1338.356, 0.6539453
1340.284, 0.6549415
1342.213, 0.6556245
1344.141, 0.6559277
1346.070, 0.6565437
1347.998, 0.6571990
1349.927, 0.6580662
1351.855, 0.6588571
1353.784, 0.6592957
1355.712, 0.6605544
1357.641, 0.6616467
1359.569, 0.6618111
1361.498, 0.6615046
1363.426, 0.6620095
1365.354, 0.6629599
1367.283, 0.6635813
1369.211, 0.6636372
1371.140, 0.6639034
1373.068, 0.6646130
1374.997, 0.6658865
1376.925, 0.6671484
1378.854, 0.6672768
1380.782, 0.6677461
1382.711, 0.6682492
1384.639, 0.6681672
1386.568, 0.6682539
1388.496, 0.6688983
1390.424, 0.6699817
1392.353, 0.6706263
1394.281, 0.6709625
1396.210, 0.6710641
1398.138, 0.6717497
1400.067, 0.6722003
1401.995, 0.6721191
1403.924, 0.6725116
1405.852, 0.6734417
1407.781, 0.6749706
1409.709, 0.6756334
1411.638, 0.6762562
1413.566, 0.6767012
1415.495, 0.6767542
1417.423, 0.6773428
1419.351, 0.6784930
1421.280, 0.6790337
1423.208, 0.6795602
1425.137, 0.6806755
1427.065, 0.6815923
1428.994, 0.6818197
1430.922, 0.6817349
1432.851, 0.6818897
1434.779, 0.6825315
1436.708, 0.6833740
1438.636, 0.6840360
1440.565, 0.6848103
1442.493, 0.6859369
1444.422, 0.6865470
1446.350, 0.6869330
1448.278, 0.6876661
1450.207, 0.6886771
1452.135, 0.6890689
1454.064, 0.6891028
1455.992, 0.6893764
1457.921, 0.6898457
1459.849, 0.6900032
1461.778, 0.6902585
1463.706, 0.6906961
1465.635, 0.6905884
1467.563, 0.6903215
1469.492, 0.6901379
1471.420, 0.6902061
1473.349, 0.6911410
1475.277, 0.6916464
1477.205, 0.6917098
1479.134, 0.6921445
1481.062, 0.6932464
1482.991, 0.6935558
1484.919, 0.6941175
1486.848, 0.6946848
1488.776, 0.6949697
1490.705, 0.6958584
1492.633, 0.6962031
1494.562, 0.6962383
1496.490, 0.6974697
1498.419, 0.6983597
1500.347, 0.6983474
1502.276, 0.6989464
1504.204, 0.7002771
1506.132, 0.7012787
1508.061, 0.7010232
1509.989, 0.7012479
1511.918, 0.7019684
1513.846, 0.7023448
1515.775, 0.7028787
1517.703, 0.7032138
1519.632, 0.7037759
1521.560, 0.7047684
1523.489, 0.7058645
1525.417, 0.7061116
1527.346, 0.7063046
1529.274, 0.7069011
1531.203, 0.7069134
1533.131, 0.7072043
1535.059, 0.7076004
1536.988, 0.7083715
1538.916, 0.7090770
1540.845, 0.7092417
1542.773, 0.7093480
1544.702, 0.7100028
1546.630, 0.7111109
1548.559, 0.7118750
1550.487, 0.7122151
1552.416, 0.7129818
1554.344, 0.7139241
1556.273, 0.7139601
1558.201, 0.7146045
1560.130, 0.7153107
1562.058, 0.7151973
1563.986, 0.7156366
1565.915, 0.7165755
1567.843, 0.7169709
1569.772, 0.7171413
1571.700, 0.7179136
1573.629, 0.7188280
1575.557, 0.7193336
1577.486, 0.7192088
1579.414, 0.7198455
1581.343, 0.7208172
1583.271, 0.7217830
1585.200, 0.7225655
1587.128, 0.7224449
1589.057, 0.7229646
1590.985, 0.7234110
1592.913, 0.7239330
1594.842, 0.7247055
1596.770, 0.7253721
1598.699, 0.7260562
1600.627, 0.7268648
1602.556, 0.7274045
1604.484, 0.7272109
1606.413, 0.7280250
1608.341, 0.7290078
1610.270, 0.7284960
1612.198, 0.7288157
1614.127, 0.7299800
1616.055, 0.7307433
1617.984, 0.7316022
1619.912, 0.7316727
1621.840, 0.7310516
1623.769, 0.7313489
1625.697, 0.7321191
1627.626, 0.7320960
1629.554, 0.7321007
1631.483, 0.7321945
1633.411, 0.7327063
1635.340, 0.7329404
1637.268, 0.7327099
1639.197, 0.7328917
1641.125, 0.7335690
1643.054, 0.7336972
1644.982, 0.7339385
1646.911, 0.7337199
1648.839, 0.7336969
1650.767, 0.7349113
1652.696, 0.7352312
1654.624, 0.7352195
1656.553, 0.7348834
1658.481, 0.7339827
1660.410, 0.7335855
1662.338, 0.7338315
1664.267, 0.7342700
1666.195, 0.7349104
1668.124, 0.7355219
1670.052, 0.7355742
1671.981, 0.7353506
1673.909, 0.7360690
1675.838, 0.7367097
1677.766, 0.7366375
1679.694, 0.7359350
1681.623, 0.7365351
1683.551, 0.7374553
1685.480, 0.7374114
1687.408, 0.7377131
1689.337, 0.7379879
1691.265, 0.7386186
1693.194, 0.7391438
1695.122, 0.7394120
1697.051, 0.7396544
1698.979, 0.7401181
1700.908, 0.7404005
1702.836, 0.7409621
1704.765, 0.7413859
1706.693, 0.7410533
1708.621, 0.7417019
1710.550, 0.7418942
1712.478, 0.7424907
1714.407, 0.7433516
1716.335, 0.7445658
1718.264, 0.7449757
1720.192, 0.7448546
1722.121, 0.7449877
1724.049, 0.7460625
1725.978, 0.7480748
1727.906, 0.7489188
1729.835, 0.7484675
1731.763, 0.7482027
1733.692, 0.7483504
1735.620, 0.7487403
1737.548, 0.7491167
1739.477, 0.7492439
1741.405, 0.7486613
1743.334, 0.7486674
1745.262, 0.7484173
1747.191, 0.7478022
1749.119, 0.7479056
1751.048, 0.7478607
1752.976, 0.7480775
1754.905, 0.7485001
1756.833, 0.7484857
1758.762, 0.7486912
1760.690, 0.7497638
1762.619, 0.7505700
1764.547, 0.7504561
1766.475, 0.7509338
1768.404, 0.7521635
1770.332, 0.7527729
1772.261, 0.7532697
1774.189, 0.7533643
1776.118, 0.7531856
1778.046, 0.7528638
1779.975, 0.7534107
1781.903, 0.7551650
1783.832, 0.7560999
1785.760, 0.7550246
1787.689, 0.7545879
1789.617, 0.7566952
1791.546, 0.7572746
1793.474, 0.7570518
1795.402, 0.7578189
1797.331, 0.7584250
1799.259, 0.7595767
1801.188, 0.7602656
1803.116, 0.7603080
1805.045, 0.7607312
1806.973, 0.7610920
1808.902, 0.7613377
1810.830, 0.7620926
1812.759, 0.7622055
1814.687, 0.7611598
1816.616, 0.7615228
1818.544, 0.7632077
1820.473, 0.7639425
1822.401, 0.7632412
1824.329, 0.7626222
1826.258, 0.7628886
1828.186, 0.7646607
1830.115, 0.7658759
1832.043, 0.7658991
1833.972, 0.7662116
1835.900, 0.7669693
1837.829, 0.7674703
1839.757, 0.7671397
1841.686, 0.7680612
1843.614, 0.7698203
1845.543, 0.7702053
1847.471, 0.7692962
1849.400, 0.7683443
1851.328, 0.7680948
1853.256, 0.7688727
1855.185, 0.7696447
1857.113, 0.7700676
1859.042, 0.7716817
1860.970, 0.7736140
1862.899, 0.7732205
1864.827, 0.7716717
1866.756, 0.7721516
1868.684, 0.7731972
1870.613, 0.7732494
1872.541, 0.7737363
1874.470, 0.7745848
1876.398, 0.7746690
1878.327, 0.7743025
1880.255, 0.7754733
1882.183, 0.7763441
1884.112, 0.7761649
1886.040, 0.7764152
1887.969, 0.7749240
1889.897, 0.7734880
1891.826, 0.7755277
1893.754, 0.7771220
1895.683, 0.7780641
1897.611, 0.7775825
1899.540, 0.7765110
1901.468, 0.7772611
1903.397, 0.7782447
1905.325, 0.7776099
1907.254, 0.7782906
1909.182, 0.7798016
1911.110, 0.7794071
1913.039, 0.7788182
1914.967, 0.7783367
1916.896, 0.7795165
1918.824, 0.7799653
1920.753, 0.7793459
1922.681, 0.7787884
1924.610, 0.7780933
1926.538, 0.7778384
1928.467, 0.7782100
1930.395, 0.7774118
1932.324, 0.7764491
1934.252, 0.7781245
1936.181, 0.7788190
1938.109, 0.7771614
1940.037, 0.7773076
1941.966, 0.7790914
1943.894, 0.7786444
1945.823, 0.7786335
1947.751, 0.7788956
1949.680, 0.7786548
1951.608, 0.7784791
1953.537, 0.7757161
1955.465, 0.7753675
1957.394, 0.7747981
1959.322, 0.7698730
1961.251, 0.7656571
1963.179, 0.7648465
1965.108, 0.7670944
1967.036, 0.7710754
1968.964, 0.7702085
1970.893, 0.7687222
1972.821, 0.7675015
1974.750, 0.7664953
1976.678, 0.7681994
1978.607, 0.7726274
1980.535, 0.7764087
1982.464, 0.7777290
1984.392, 0.7795958
1986.321, 0.7799335
1988.249, 0.7811213
1990.178, 0.7800159
1992.106, 0.7782770
1994.035, 0.7785760
1995.963, 0.7796329
1997.891, 0.7819286
1999.820, 0.7802371
2001.748, 0.7741495
2003.677, 0.7726079
2005.605, 0.7717239
2007.534, 0.7679846
2009.462, 0.7758747
2011.391, 0.7804556
2013.319, 0.7783705
2015.248, 0.7793294
2017.176, 0.7792352
2019.105, 0.7798682
2021.033, 0.7801127
2022.962, 0.7730472
2024.890, 0.7681659
2026.818, 0.7765424
2028.747, 0.7795116
2030.675, 0.7780356
2032.604, 0.7805412
2034.532, 0.7827519
2036.461, 0.7834432
2038.389, 0.7838279
2040.318, 0.7844179
2042.246, 0.7885579
2044.175, 0.7911270
2046.103, 0.7917609
2048.032, 0.7983584
2049.960, 0.8015655
2051.889, 0.8005856
2053.817, 0.7993637
2055.746, 0.7981435
2057.674, 0.7993703
2059.603, 0.8017571
2061.531, 0.8037871
2063.459, 0.8046631
2065.388, 0.8049641
2067.316, 0.8063858
2069.245, 0.8105319
2071.173, 0.8102041
2073.102, 0.8065504
2075.030, 0.8060284
2076.959, 0.8087896
2078.887, 0.8116499
2080.816, 0.8119621
2082.744, 0.8122011
2084.673, 0.8152226
2086.601, 0.8161665
2088.530, 0.8138376
2090.458, 0.8123890
2092.386, 0.8131011
2094.315, 0.8142602
2096.243, 0.8166828
2098.172, 0.8184468
2100.100, 0.8183940
2102.029, 0.8194093
2103.957, 0.8186952
2105.886, 0.8178662
2107.814, 0.8193496
2109.743, 0.8214608
2111.671, 0.8230952
2113.600, 0.8242040
2115.528, 0.8220711
2117.457, 0.8189470
2119.385, 0.8179908
2121.313, 0.8180496
2123.242, 0.8193736
2125.170, 0.8199573
2127.099, 0.8221298
2129.027, 0.8237339
2130.956, 0.8196131
2132.884, 0.8156781
2134.813, 0.8145987
2136.741, 0.8134915
2138.670, 0.8168048
2140.598, 0.8159689
2142.527, 0.8133932
2144.455, 0.8116012
2146.384, 0.8087767
2148.312, 0.8080110
2150.240, 0.8053572
2152.169, 0.8039737
2154.097, 0.7992588
2156.026, 0.7950163
2157.954, 0.7924329
2159.883, 0.7930834
2161.811, 0.8017759
2163.740, 0.8052900
2165.668, 0.8033113
2167.597, 0.8050730
2169.525, 0.8123648
2171.454, 0.8138456
2173.382, 0.8157361
2175.311, 0.8167261
2177.239, 0.8137482
2179.167, 0.8123840
2181.096, 0.8135118
2183.024, 0.8143200
2184.953, 0.8154379
2186.881, 0.8226246
2188.810, 0.8262740
2190.738, 0.8221557
2192.667, 0.8223886
2194.595, 0.8255279
2196.524, 0.8284805
2198.452, 0.8313866
2200.381, 0.8279121
2202.309, 0.8281603
2204.238, 0.8271110
2206.166, 0.8265046
2208.094, 0.8319015
2210.023, 0.8335743
2211.951, 0.8291225
2213.880, 0.8311586
2215.808, 0.8337184
2217.737, 0.8322867
2219.665, 0.8341849
2221.594, 0.8381047
2223.522, 0.8364498
2225.451, 0.8365512
2227.379, 0.8394542
2229.308, 0.8393841
2231.236, 0.8403140
2233.165, 0.8452381
2235.093, 0.8468983
2237.021, 0.8460718
2238.950, 0.8447894
2240.878, 0.8438807
2242.807, 0.8444738
2244.735, 0.8458458
2246.664, 0.8447132
2248.592, 0.8439140
2250.521, 0.8471650
2252.449, 0.8507093
2254.378, 0.8526399
2256.306, 0.8508852
2258.235, 0.8514612
2260.163, 0.8547825
2262.092, 0.8553100
2264.020, 0.8548415
2265.948, 0.8553362
2267.877, 0.8566690
2269.805, 0.8580145
2271.734, 0.8583441
2273.662, 0.8592504
2275.591, 0.8599321
2277.519, 0.8605604
2279.448, 0.8604435
2281.376, 0.8621621
2283.305, 0.8636095
2285.233, 0.8637291
2287.162, 0.8650897
2289.090, 0.8654453
2291.019, 0.8659648
2292.947, 0.8671867
2294.875, 0.8687311
2296.804, 0.8690928
2298.732, 0.8700460
2300.661, 0.8712425
2302.589, 0.8719538
2304.518, 0.8719806
2306.446, 0.8723654
2308.375, 0.8720064
2310.303, 0.8714002
2312.232, 0.8730707
2314.160, 0.8745502
2316.089, 0.8751565
2318.017, 0.8748428
2319.946, 0.8755231
2321.874, 0.8769395
2323.802, 0.8767572
2325.731, 0.8761769
2327.659, 0.8773345
2329.588, 0.8767411
2331.516, 0.8763227
2333.445, 0.8773903
2335.373, 0.8795595
2337.302, 0.8800871
2339.230, 0.8800866
2341.159, 0.8801957
2343.087, 0.8795573
2345.016, 0.8793856
2346.944, 0.8808730
2348.873, 0.8816994
2350.801, 0.8805084
2352.729, 0.8799573
2354.658, 0.8813524
2356.586, 0.8821708
2358.515, 0.8832644
2360.443, 0.8840740
2362.372, 0.8837203
2364.300, 0.8840172
2366.229, 0.8848214
2368.157, 0.8844485
2370.086, 0.8841773
2372.014, 0.8840970
2373.942, 0.8835455
2375.871, 0.8832996
2377.799, 0.8837993
2379.728, 0.8852489
2381.656, 0.8862556
2383.585, 0.8869945
2385.513, 0.8879219
2387.442, 0.8878195
2389.370, 0.8869745
2391.299, 0.8881853
2393.227, 0.8891245
2395.156, 0.8894772
2397.084, 0.8890120
2399.012, 0.8890270
2400.941, 0.8881965
2402.869, 0.8868762
2404.798, 0.8873946
2406.726, 0.8882521
2408.655, 0.8903822
2410.583, 0.8918267
2412.512, 0.8913944
2414.440, 0.8896204
2416.369, 0.8902366
2418.297, 0.8930210
2420.226, 0.8928127
2422.154, 0.8921868
2424.083, 0.8928052
2426.011, 0.8940252
2427.939, 0.8934595
2429.868, 0.8938685
2431.796, 0.8934598
2433.725, 0.8926904
2435.653, 0.8946707
2437.582, 0.8951958
2439.510, 0.8938476
2441.439, 0.8956290
2443.367, 0.8982870
2445.296, 0.8997452
2447.224, 0.8993490
2449.153, 0.8985432
2451.081, 0.8976116
2453.010, 0.8991698
2454.938, 0.9007508
2456.866, 0.9012769
2458.795, 0.9027718
2460.723, 0.9029422
2462.652, 0.9009663
2464.580, 0.9013255
2466.509, 0.9027465
2468.437, 0.9013234
2470.366, 0.9005902
2472.294, 0.9027971
2474.223, 0.9048241
2476.151, 0.9051360
2478.080, 0.9040452
2480.008, 0.9040588
2481.937, 0.9035003
2483.865, 0.9052650
2485.793, 0.9064552
2487.722, 0.9070634
2489.650, 0.9081380
2491.579, 0.9084252
2493.507, 0.9075024
2495.436, 0.9080051
2497.364, 0.9074073
2499.293, 0.9073737
2501.221, 0.9094253
2503.150, 0.9105716
2505.078, 0.9112155
2507.007, 0.9132208
2508.935, 0.9133183
2510.864, 0.9104878
2512.792, 0.9106472
2514.720, 0.9122005
2516.649, 0.9115975
2518.577, 0.9134817
2520.506, 0.9160348
2522.434, 0.9164634
2524.363, 0.9164864
2526.291, 0.9174442
2528.220, 0.9176006
2530.148, 0.9166706
2532.077, 0.9178016
2534.005, 0.9189841
2535.934, 0.9192399
2537.862, 0.9185661
2539.791, 0.9180647
2541.719, 0.9171305
2543.647, 0.9166408
2545.576, 0.9167923
2547.504, 0.9192213
2549.433, 0.9201931
2551.361, 0.9205276
2553.290, 0.9232486
2555.218, 0.9225936
2557.147, 0.9223202
2559.075, 0.9235362
2561.004, 0.9253156
2562.932, 0.9249293
2564.861, 0.9236941
2566.789, 0.9246321
2568.718, 0.9262783
2570.646, 0.9277497
2572.574, 0.9255561
2574.503, 0.9266499
2576.431, 0.9278086
2578.360, 0.9276921
2580.288, 0.9288829
2582.217, 0.9297264
2584.145, 0.9280254
2586.074, 0.9262934
2588.002, 0.9272257
2589.931, 0.9289742
2591.859, 0.9305645
2593.788, 0.9303604
2595.716, 0.9302374
2597.645, 0.9312626
2599.573, 0.9312020
2601.501, 0.9306030
2603.430, 0.9315794
2605.358, 0.9323885
2607.287, 0.9329557
2609.215, 0.9341088
2611.144, 0.9384257
2613.072, 0.9404052
2615.001, 0.9384844
2616.929, 0.9377470
2618.858, 0.9393539
2620.786, 0.9382250
2622.715, 0.9362075
2624.643, 0.9372340
2626.572, 0.9379583
2628.500, 0.9382221
2630.428, 0.9393506
2632.357, 0.9396690
2634.285, 0.9419051
2636.214, 0.9443087
2638.142, 0.9439965
2640.071, 0.9431362
2641.999, 0.9443392
2643.928, 0.9445305
2645.856, 0.9438092
2647.785, 0.9451019
2649.713, 0.9470850
2651.642, 0.9475081
2653.570, 0.9459360
2655.499, 0.9451530
2657.427, 0.9465614
2659.355, 0.9468310
2661.284, 0.9474429
2663.212, 0.9496253
2665.141, 0.9498519
2667.069, 0.9501403
2668.998, 0.9498911
2670.926, 0.9496326
2672.855, 0.9515065
2674.783, 0.9517542
2676.712, 0.9516084
2678.640, 0.9519142
2680.569, 0.9520621
2682.497, 0.9529881
2684.426, 0.9531065
2686.354, 0.9525685
2688.282, 0.9526270
2690.211, 0.9538494
2692.139, 0.9555522
2694.068, 0.9560580
2695.996, 0.9561199
2697.925, 0.9565100
2699.853, 0.9565077
2701.782, 0.9572794
2703.710, 0.9591174
2705.639, 0.9595458
2707.567, 0.9586899
2709.496, 0.9588450
2711.424, 0.9610664
2713.353, 0.9618172
2715.281, 0.9608702
2717.209, 0.9613163
2719.138, 0.9612637
2721.066, 0.9623013
2722.995, 0.9636149
2724.923, 0.9647644
2726.852, 0.9652820
2728.780, 0.9654821
2730.709, 0.9654864
2732.637, 0.9658719
2734.566, 0.9648203
2736.494, 0.9653974
2738.423, 0.9674247
2740.351, 0.9675826
2742.280, 0.9682146
2744.208, 0.9691539
2746.136, 0.9690778
2748.065, 0.9697162
2749.993, 0.9699016
2751.922, 0.9690440
2753.850, 0.9697555
2755.779, 0.9722540
2757.707, 0.9725339
2759.636, 0.9729813
2761.564, 0.9731170
2763.493, 0.9717873
2765.421, 0.9709426
2767.350, 0.9724016
2769.278, 0.9743199
2771.207, 0.9764404
2773.135, 0.9767384
2775.063, 0.9767235
2776.992, 0.9775472
2778.920, 0.9779978
2780.849, 0.9789745
2782.777, 0.9794248
2784.706, 0.9776745
2786.634, 0.9776817
2788.563, 0.9783611
2790.491, 0.9768246
2792.420, 0.9784319
2794.348, 0.9808024
2796.277, 0.9810042
2798.205, 0.9821805
2800.134, 0.9827678
2802.062, 0.9834120
2803.990, 0.9841298
2805.919, 0.9840028
2807.847, 0.9831402
2809.776, 0.9838770
2811.704, 0.9849924
2813.633, 0.9859443
2815.561, 0.9863571
2817.490, 0.9862443
2819.418, 0.9879119
2821.347, 0.9894336
2823.275, 0.9887896
2825.204, 0.9884448
2827.132, 0.9889284
2829.061, 0.9895361
2830.989, 0.9910848
2832.917, 0.9926143
2834.846, 0.9939747
2836.774, 0.9950820
2838.703, 0.9964663
2840.631, 0.9981478
2842.560, 0.9999034
2844.488, 1.001236
2846.417, 1.000458
2848.345, 1.000790
2850.274, 1.003297
2852.202, 1.004918
2854.131, 1.005160
2856.059, 1.003721
2857.988, 1.001210
2859.916, 0.9995305
2861.844, 0.9990474
2863.773, 0.9987230
2865.701, 0.9994637
2867.630, 1.000061
2869.558, 0.9993407
2871.487, 1.001412
2873.415, 1.003185
2875.344, 1.001472
2877.272, 1.001954
2879.201, 1.005367
2881.129, 1.006414
2883.058, 1.006240
2884.986, 1.006390
2886.915, 1.008202
2888.843, 1.009173
2890.771, 1.008001
2892.700, 1.008620
2894.628, 1.008366
2896.557, 1.008249
2898.485, 1.010559
2900.414, 1.012939
2902.342, 1.012843
2904.271, 1.013434
2906.199, 1.013563
2908.128, 1.015362
2910.056, 1.017404
2911.985, 1.018238
2913.913, 1.019231
2915.842, 1.020549
2917.770, 1.022122
2919.698, 1.022045
2921.627, 1.021342
2923.555, 1.020084
2925.484, 1.019278
2927.412, 1.018147
2929.341, 1.017641
2931.269, 1.015192
2933.198, 1.011404
2935.126, 1.011495
2937.055, 1.011790
2938.983, 1.010682
2940.912, 1.011701
2942.840, 1.013463
2944.769, 1.012785
2946.697, 1.013035
2948.625, 1.014851
2950.554, 1.013413
2952.482, 1.012945
2954.411, 1.015849
2956.339, 1.015927
2958.268, 1.013575
2960.196, 1.012054
2962.125, 1.011893
2964.053, 1.012146
2965.982, 1.012318
2967.910, 1.012570
2969.839, 1.012374
2971.767, 1.013289
2973.696, 1.011837
2975.624, 1.011435
2977.552, 1.011358
2979.481, 1.009422
2981.409, 1.011575
2983.338, 1.014095
2985.266, 1.015742
2987.195, 1.017784
2989.123, 1.016868
2991.052, 1.014838
2992.980, 1.014826
2994.909, 1.016831
2996.837, 1.020205
2998.766, 1.019045
3000.694, 1.018002
3002.623, 1.018790
3004.551, 1.017742
3006.479, 1.017671
3008.408, 1.017800
3010.336, 1.018944
3012.265, 1.021235
3014.193, 1.020913
3016.122, 1.021163
3018.050, 1.021967
3019.979, 1.023787
3021.907, 1.024949
3023.836, 1.024171
3025.764, 1.024196
3027.693, 1.024657
3029.621, 1.025736
3031.550, 1.025682
3033.478, 1.024765
3035.406, 1.025508
3037.335, 1.025857
3039.263, 1.026179
3041.192, 1.028104
3043.120, 1.028262
3045.049, 1.026534
3046.977, 1.026887
3048.906, 1.028623
3050.834, 1.030892
3052.763, 1.032548
3054.691, 1.029884
3056.620, 1.027626
3058.548, 1.031377
3060.477, 1.033395
3062.405, 1.032551
3064.333, 1.030508
3066.262, 1.031594
3068.190, 1.034204
3070.119, 1.033413
3072.047, 1.033736
3073.976, 1.036125
3075.904, 1.036926
3077.833, 1.036475
3079.761, 1.035702
3081.690, 1.036775
3083.618, 1.037357
3085.547, 1.038492
3087.475, 1.040821
3089.404, 1.042688
3091.332, 1.039708
3093.260, 1.037254
3095.189, 1.039437
3097.117, 1.038734
3099.046, 1.039064
3100.974, 1.041212
3102.903, 1.041226
3104.831, 1.040196
3106.760, 1.040869
3108.688, 1.041769
3110.617, 1.042005
3112.545, 1.042676
3114.474, 1.042452
3116.402, 1.043693
3118.331, 1.044568
3120.259, 1.043878
3122.188, 1.045271
3124.116, 1.046696
3126.044, 1.048371
3127.973, 1.047722
3129.901, 1.043879
3131.830, 1.043282
3133.758, 1.045013
3135.687, 1.043431
3137.615, 1.044384
3139.544, 1.046226
3141.472, 1.044708
3143.401, 1.044394
3145.329, 1.046786
3147.258, 1.047063
3149.186, 1.044071
3151.115, 1.045830
3153.043, 1.046914
3154.971, 1.046943
3156.900, 1.045986
3158.828, 1.045504
3160.757, 1.050758
3162.685, 1.052145
3164.614, 1.048976
3166.542, 1.049686
3168.471, 1.053091
3170.399, 1.050660
3172.328, 1.046674
3174.256, 1.047607
3176.185, 1.049984
3178.113, 1.048978
3180.042, 1.049780
3181.970, 1.052452
3183.898, 1.052701
3185.827, 1.049976
3187.755, 1.052159
3189.684, 1.052935
3191.612, 1.052776
3193.541, 1.053780
3195.469, 1.053555
3197.398, 1.054624
3199.326, 1.055703
3201.255, 1.055141
3203.183, 1.053291
3205.112, 1.052298
3207.040, 1.052879
3208.969, 1.052785
3210.897, 1.050586
3212.825, 1.049716
3214.754, 1.051775
3216.682, 1.052815
3218.611, 1.052376
3220.539, 1.053731
3222.468, 1.055366
3224.396, 1.057099
3226.325, 1.055378
3228.253, 1.054550
3230.182, 1.054531
3232.110, 1.055273
3234.039, 1.055568
3235.967, 1.056042
3237.896, 1.054613
3239.824, 1.053269
3241.752, 1.055931
3243.681, 1.056766
3245.609, 1.057831
3247.538, 1.058509
3249.466, 1.058217
3251.395, 1.059804
3253.323, 1.061392
3255.252, 1.062623
3257.180, 1.062243
3259.109, 1.061471
3261.037, 1.060014
3262.966, 1.059600
3264.894, 1.061622
3266.823, 1.064460
3268.751, 1.065164
3270.679, 1.063452
3272.608, 1.061080
3274.536, 1.062066
3276.465, 1.063449
3278.393, 1.063285
3280.322, 1.063489
3282.250, 1.063704
3284.179, 1.063845
3286.107, 1.065120
3288.036, 1.066837
3289.964, 1.067514
3291.893, 1.066022
3293.821, 1.063323
3295.750, 1.061872
3297.678, 1.062726
3299.606, 1.066428
3301.535, 1.068132
3303.463, 1.065517
3305.392, 1.065233
3307.320, 1.064331
3309.249, 1.061183
3311.177, 1.065269
3313.106, 1.070059
3315.034, 1.066218
3316.963, 1.061942
3318.891, 1.061819
3320.820, 1.061658
3322.748, 1.066853
3324.677, 1.069090
3326.605, 1.069728
3328.533, 1.072005
3330.462, 1.069765
3332.390, 1.068139
3334.319, 1.069450
3336.247, 1.068878
3338.176, 1.069958
3340.104, 1.070465
3342.033, 1.071621
3343.961, 1.069761
3345.890, 1.065877
3347.818, 1.068950
3349.747, 1.072034
3351.675, 1.068851
3353.604, 1.067489
3355.532, 1.071092
3357.460, 1.074048
3359.389, 1.073470
3361.317, 1.074473
3363.246, 1.074629
3365.174, 1.073040
3367.103, 1.070601
3369.031, 1.071202
3370.960, 1.073272
3372.888, 1.071537
3374.817, 1.071578
3376.745, 1.074364
3378.674, 1.074453
3380.602, 1.074320
3382.531, 1.071511
3384.459, 1.068447
3386.387, 1.070025
3388.316, 1.071266
3390.244, 1.071383
3392.173, 1.073125
3394.101, 1.070821
3396.030, 1.067765
3397.958, 1.068661
3399.887, 1.069877
3401.815, 1.069917
3403.744, 1.070716
3405.672, 1.071748
3407.601, 1.070579
3409.529, 1.069172
3411.458, 1.069871
3413.386, 1.070833
3415.314, 1.069849
3417.243, 1.068265
3419.171, 1.068743
3421.100, 1.071066
3423.028, 1.070163
3424.957, 1.068636
3426.885, 1.069821
3428.814, 1.072574
3430.742, 1.074149
3432.671, 1.074084
3434.599, 1.073345
3436.528, 1.073515
3438.456, 1.074808
3440.385, 1.074522
3442.313, 1.073008
3444.241, 1.072977
3446.170, 1.073857
3448.098, 1.072897
3450.027, 1.069036
3451.955, 1.068545
3453.884, 1.071528
3455.812, 1.071885
3457.741, 1.070151
3459.669, 1.068553
3461.598, 1.068072
3463.526, 1.070510
3465.455, 1.070822
3467.383, 1.072389
3469.312, 1.074718
3471.240, 1.073899
3473.168, 1.070891
3475.097, 1.070916
3477.025, 1.073554
3478.954, 1.073412
3480.882, 1.070600
3482.811, 1.070273
3484.739, 1.071938
3486.668, 1.070959
3488.596, 1.067930
3490.525, 1.071586
3492.453, 1.072914
3494.382, 1.068712
3496.310, 1.068709
3498.239, 1.070449
3500.167, 1.069434
3502.095, 1.070188
3504.024, 1.071911
3505.952, 1.068750
3507.881, 1.066403
3509.809, 1.066048
3511.738, 1.070343
3513.666, 1.071020
3515.595, 1.071575
3517.523, 1.073892
3519.452, 1.071051
3521.380, 1.069372
3523.309, 1.069522
3525.237, 1.068978
3527.166, 1.066744
3529.094, 1.065855
3531.022, 1.066839
3532.951, 1.068535
3534.879, 1.070149
3536.808, 1.069254
3538.736, 1.069488
3540.665, 1.068637
3542.593, 1.069153
3544.522, 1.073533
3546.450, 1.074332
3548.379, 1.072604
3550.307, 1.074710
3552.236, 1.074561
3554.164, 1.073463
3556.093, 1.074718
3558.021, 1.070928
3559.949, 1.072814
3561.878, 1.072914
3563.806, 1.071783
3565.735, 1.075140
3567.663, 1.074166
3569.592, 1.073213
3571.520, 1.076370
3573.449, 1.074086
3575.377, 1.071768
3577.306, 1.073823
3579.234, 1.073175
3581.163, 1.073089
3583.091, 1.071813
3585.020, 1.075151
3586.948, 1.077635
3588.876, 1.074730
3590.805, 1.072270
3592.733, 1.078514
3594.662, 1.081848
3596.590, 1.078568
3598.519, 1.076490
3600.447, 1.076778
3602.376, 1.074827
3604.304, 1.073518
3606.233, 1.075687
3608.161, 1.079786
3610.090, 1.082843
3612.018, 1.080403
3613.947, 1.081257
3615.875, 1.082919
3617.803, 1.083624
3619.732, 1.082646
3621.660, 1.080639
3623.589, 1.080689
3625.517, 1.083283
3627.446, 1.089170
3629.374, 1.089579
3631.303, 1.086414
3633.231, 1.087512
3635.160, 1.085318
3637.088, 1.082416
3639.017, 1.084197
3640.945, 1.084497
3642.874, 1.084656
3644.802, 1.085112
3646.730, 1.084916
3648.659, 1.089508
3650.587, 1.088318
3652.516, 1.086953
3654.444, 1.089696
3656.373, 1.090797
3658.301, 1.089188
3660.230, 1.090060
3662.158, 1.094329
3664.087, 1.092269
3666.015, 1.091048
3667.944, 1.096826
3669.872, 1.098797
3671.801, 1.098909
3673.729, 1.099928
3675.657, 1.097063
3677.586, 1.091089
3679.514, 1.091658
3681.443, 1.098753
3683.371, 1.103710
3685.300, 1.103015
3687.228, 1.100423
3689.157, 1.098231
3691.085, 1.099764
3693.014, 1.100618
3694.942, 1.100269
3696.871, 1.098570
3698.799, 1.098424
3700.728, 1.100029
3702.656, 1.106591
3704.584, 1.112867
3706.513, 1.109732
3708.441, 1.106008
3710.370, 1.105128
3712.298, 1.104076
3714.227, 1.103731
3716.155, 1.105114
3718.084, 1.109477
3720.012, 1.111341
3721.941, 1.108183
3723.869, 1.106321
3725.798, 1.103668
3727.726, 1.106972
3729.655, 1.110559
3731.583, 1.108845
3733.511, 1.109799
3735.440, 1.108329
3737.368, 1.105755
3739.297, 1.109591
3741.225, 1.112084
3743.154, 1.111636
3745.082, 1.112390
3747.011, 1.112937
3748.939, 1.116275
3750.868, 1.117286
3752.796, 1.119153
3754.725, 1.116295
3756.653, 1.115259
3758.582, 1.116090
3760.510, 1.113775
3762.438, 1.112758
3764.367, 1.117030
3766.295, 1.121021
3768.224, 1.120620
3770.152, 1.116863
3772.081, 1.118891
3774.009, 1.122667
3775.938, 1.121042
3777.866, 1.118452
3779.795, 1.117949
3781.723, 1.118342
3783.652, 1.118292
3785.580, 1.117494
3787.509, 1.118032
3789.437, 1.121225
3791.365, 1.120851
3793.294, 1.117763
3795.222, 1.118502
3797.151, 1.121081
3799.079, 1.122614
3801.008, 1.127441
3802.936, 1.126147
3804.865, 1.124744
3806.793, 1.124679
3808.722, 1.123131
3810.650, 1.120571
3812.579, 1.125278
3814.507, 1.133142
3816.436, 1.130662
3818.364, 1.127901
3820.292, 1.132537
3822.221, 1.133070
3824.149, 1.135791
3826.078, 1.137375
3828.006, 1.137032
3829.935, 1.132180
3831.863, 1.131410
3833.792, 1.136387
3835.720, 1.136281
3837.649, 1.133263
3839.577, 1.135188
3841.506, 1.137329
3843.434, 1.138684
3845.363, 1.132751
3847.291, 1.130811
3849.219, 1.133114
3851.148, 1.137870
3853.076, 1.138741
3855.005, 1.139976
3856.933, 1.145432
3858.862, 1.144845
3860.790, 1.137449
3862.719, 1.136380
3864.647, 1.139861
3866.576, 1.140841
3868.504, 1.139739
3870.433, 1.140177
3872.361, 1.141116
3874.290, 1.136825
3876.218, 1.136148
3878.146, 1.144194
3880.075, 1.145684
3882.003, 1.144381
3883.932, 1.144883
3885.860, 1.143062
3887.789, 1.140163
3889.717, 1.144613
3891.646, 1.147689
3893.574, 1.147040
3895.503, 1.148439
3897.431, 1.147793
3899.360, 1.149083
3901.288, 1.155775
3903.217, 1.156142
3905.145, 1.151105
3907.073, 1.150514
3909.002, 1.151789
3910.930, 1.148748
3912.859, 1.143910
3914.787, 1.144960
3916.716, 1.153515
3918.644, 1.162917
3920.573, 1.159461
3922.501, 1.152317
3924.430, 1.154003
3926.358, 1.154084
3928.287, 1.149101
3930.215, 1.147415
3932.144, 1.153170
3934.072, 1.158498
3936.000, 1.158738
3937.929, 1.155209
3939.857, 1.152812
3941.786, 1.151751
3943.714, 1.153459
3945.643, 1.153767
3947.571, 1.148664
3949.500, 1.153779
3951.428, 1.158921
3953.357, 1.161280
3955.285, 1.157193
3957.214, 1.157077
3959.142, 1.159601
3961.071, 1.159420
3962.999, 1.158846
3964.927, 1.160456
3966.856, 1.159683
3968.784, 1.157131
3970.713, 1.155074
3972.641, 1.158847
3974.570, 1.161602
3976.498, 1.162520
3978.427, 1.167664
3980.355, 1.168521
3982.284, 1.168804
3984.212, 1.168218
3986.141, 1.175942
3988.069, 1.174602
3989.998, 1.166742
3991.926, 1.162580
3993.854, 1.167966
3995.783, 1.173625
3997.711, 1.174238
3999.640, 1.174804
##END=



