##NAMES=Eudidymite
##RRUFFID=R060063
##IDEAL CHEMISTRY=Na_2_Be_2_Si_6_O_15_&#183;H_2_O
##LOCALITY=Langesundfjord, Norway
##OWNER=RRUFF
##SOURCE=University of Arizona Mineral Museum
##DESCRIPTION=Colorless crystal fragment
##STATUS=The identification of this mineral has been confirmed by X-ray diffraction and chemical analysis
##URL=rruff.info/R060063
##MEASURED CHEMISTRY=Na_1.00_Be_1.00_Si_3.00_O_7_(OH)
3.991926e+002, 4.144319e-001
4.011211e+002, 3.837517e-001
4.030495e+002, 3.590113e-001
4.049780e+002, 3.955230e-001
4.069065e+002, 4.250637e-001
4.088349e+002, 4.475683e-001
4.107634e+002, 4.574557e-001
4.126919e+002, 4.365031e-001
4.146203e+002, 4.227503e-001
4.165488e+002, 4.139168e-001
4.184773e+002, 3.880582e-001
4.204057e+002, 3.620863e-001
4.223342e+002, 3.255607e-001
4.242627e+002, 2.963625e-001
4.261911e+002, 2.756058e-001
4.281196e+002, 2.509150e-001
4.300481e+002, 2.292699e-001
4.319765e+002, 2.091549e-001
4.339050e+002, 1.951818e-001
4.358335e+002, 1.848284e-001
4.377619e+002, 1.670606e-001
4.396904e+002, 1.500894e-001
4.416189e+002, 1.379172e-001
4.435473e+002, 1.271684e-001
4.454758e+002, 1.226055e-001
4.474043e+002, 1.231321e-001
4.493327e+002, 1.269047e-001
4.512612e+002, 1.316859e-001
4.531897e+002, 1.382458e-001
4.551181e+002, 1.454201e-001
4.570466e+002, 1.492876e-001
4.589751e+002, 1.563179e-001
4.609035e+002, 1.615120e-001
4.628320e+002, 1.646727e-001
4.647605e+002, 1.639965e-001
4.666889e+002, 1.586956e-001
4.686174e+002, 1.568488e-001
4.705459e+002, 1.554722e-001
4.724743e+002, 1.513434e-001
4.744028e+002, 1.478422e-001
4.763313e+002, 1.409966e-001
4.782597e+002, 1.309538e-001
4.801882e+002, 1.210945e-001
4.821167e+002, 1.091120e-001
4.840451e+002, 9.221274e-002
4.859736e+002, 7.785064e-002
4.879021e+002, 7.015137e-002
4.898305e+002, 6.819727e-002
4.917590e+002, 7.103746e-002
4.936875e+002, 7.523138e-002
4.956159e+002, 7.669897e-002
4.975444e+002, 8.268312e-002
4.994729e+002, 9.614895e-002
5.014013e+002, 1.136921e-001
5.033298e+002, 1.254295e-001
5.052583e+002, 1.218255e-001
5.071867e+002, 1.086411e-001
5.091152e+002, 1.014607e-001
5.110437e+002, 1.064712e-001
5.129721e+002, 1.108951e-001
5.149006e+002, 1.038676e-001
5.168290e+002, 8.873953e-002
5.187575e+002, 7.367618e-002
5.206860e+002, 6.240117e-002
5.226144e+002, 5.369738e-002
5.245429e+002, 4.834593e-002
5.264714e+002, 4.371610e-002
5.283998e+002, 4.151056e-002
5.303283e+002, 4.176626e-002
5.322568e+002, 4.046104e-002
5.341852e+002, 4.095858e-002
5.361137e+002, 4.263719e-002
5.380422e+002, 4.247905e-002
5.399706e+002, 4.318351e-002
5.418991e+002, 4.639204e-002
5.438276e+002, 4.968959e-002
5.457560e+002, 5.093038e-002
5.476845e+002, 5.389665e-002
5.496130e+002, 5.878351e-002
5.515414e+002, 6.506471e-002
5.534699e+002, 7.152401e-002
5.553984e+002, 7.895809e-002
5.573268e+002, 8.561716e-002
5.592553e+002, 8.848066e-002
5.611838e+002, 8.745681e-002
5.631122e+002, 8.609799e-002
5.650407e+002, 8.749679e-002
5.669692e+002, 9.168528e-002
5.688976e+002, 9.670168e-002
5.708261e+002, 1.033800e-001
5.727546e+002, 1.136734e-001
5.746830e+002, 1.274716e-001
5.766115e+002, 1.421082e-001
5.785400e+002, 1.575672e-001
5.804684e+002, 1.712455e-001
5.823969e+002, 1.820097e-001
5.843254e+002, 1.840494e-001
5.862538e+002, 1.765719e-001
5.881823e+002, 1.613441e-001
5.901108e+002, 1.444761e-001
5.920392e+002, 1.349681e-001
5.939677e+002, 1.323473e-001
5.958962e+002, 1.317255e-001
5.978246e+002, 1.270362e-001
5.997531e+002, 1.167802e-001
6.016816e+002, 1.035460e-001
6.036100e+002, 9.016630e-002
6.055385e+002, 7.981273e-002
6.074670e+002, 7.376650e-002
6.093954e+002, 7.022655e-002
6.113239e+002, 6.895139e-002
6.132524e+002, 6.841269e-002
6.151808e+002, 6.910884e-002
6.171093e+002, 7.173472e-002
6.190378e+002, 7.468273e-002
6.209662e+002, 7.836035e-002
6.228947e+002, 8.366175e-002
6.248232e+002, 9.003191e-002
6.267516e+002, 9.650952e-002
6.286801e+002, 1.011671e-001
6.306086e+002, 1.020969e-001
6.325370e+002, 9.828326e-002
6.344655e+002, 9.383637e-002
6.363940e+002, 9.185636e-002
6.383224e+002, 9.215614e-002
6.402509e+002, 9.367345e-002
6.421794e+002, 9.540039e-002
6.441078e+002, 9.801085e-002
6.460363e+002, 1.015601e-001
6.479648e+002, 1.058417e-001
6.498932e+002, 1.100720e-001
6.518217e+002, 1.146539e-001
6.537502e+002, 1.194559e-001
6.556786e+002, 1.240951e-001
6.576071e+002, 1.287594e-001
6.595356e+002, 1.343153e-001
6.614641e+002, 1.399952e-001
6.633925e+002, 1.458374e-001
6.653210e+002, 1.519751e-001
6.672495e+002, 1.580921e-001
6.691779e+002, 1.649790e-001
6.711064e+002, 1.713100e-001
6.730349e+002, 1.774506e-001
6.749633e+002, 1.837183e-001
6.768918e+002, 1.896822e-001
6.788203e+002, 1.956222e-001
6.807487e+002, 2.019626e-001
6.826772e+002, 2.069424e-001
6.846057e+002, 2.087988e-001
6.865341e+002, 2.080161e-001
6.884626e+002, 2.045600e-001
6.903911e+002, 1.997206e-001
6.923195e+002, 1.966726e-001
6.942480e+002, 1.959653e-001
6.961765e+002, 1.979490e-001
6.981049e+002, 2.003399e-001
7.000334e+002, 2.001664e-001
7.019619e+002, 1.951581e-001
7.038903e+002, 1.860161e-001
7.058188e+002, 1.734354e-001
7.077473e+002, 1.594879e-001
7.096757e+002, 1.471286e-001
7.116042e+002, 1.383789e-001
7.135327e+002, 1.325325e-001
7.154611e+002, 1.292701e-001
7.173896e+002, 1.288984e-001
7.193181e+002, 1.310938e-001
7.212465e+002, 1.353975e-001
7.231750e+002, 1.417871e-001
7.251035e+002, 1.501722e-001
7.270319e+002, 1.592853e-001
7.289604e+002, 1.685094e-001
7.308889e+002, 1.755946e-001
7.328173e+002, 1.786281e-001
7.347458e+002, 1.766911e-001
7.366743e+002, 1.702231e-001
7.386027e+002, 1.605783e-001
7.405312e+002, 1.502126e-001
7.424597e+002, 1.415276e-001
7.443881e+002, 1.342720e-001
7.463166e+002, 1.293148e-001
7.482451e+002, 1.255954e-001
7.501735e+002, 1.231598e-001
7.521020e+002, 1.226430e-001
7.540305e+002, 1.241055e-001
7.559589e+002, 1.287833e-001
7.578874e+002, 1.365092e-001
7.598159e+002, 1.470024e-001
7.617443e+002, 1.591234e-001
7.636728e+002, 1.697074e-001
7.656013e+002, 1.747365e-001
7.675297e+002, 1.740549e-001
7.694582e+002, 1.710679e-001
7.713867e+002, 1.709854e-001
7.733151e+002, 1.770426e-001
7.752436e+002, 1.897086e-001
7.771721e+002, 2.064859e-001
7.791005e+002, 2.256190e-001
7.810290e+002, 2.453299e-001
7.829575e+002, 2.645422e-001
7.848859e+002, 2.827505e-001
7.868144e+002, 2.987758e-001
7.887429e+002, 3.091145e-001
7.906713e+002, 3.128518e-001
7.925998e+002, 3.097958e-001
7.945283e+002, 3.011133e-001
7.964567e+002, 2.895276e-001
7.983852e+002, 2.770691e-001
8.003137e+002, 2.643425e-001
8.022421e+002, 2.511994e-001
8.041706e+002, 2.370200e-001
8.060991e+002, 2.208416e-001
8.080275e+002, 2.028610e-001
8.099560e+002, 1.840906e-001
8.118845e+002, 1.648774e-001
8.138129e+002, 1.458642e-001
8.157414e+002, 1.282902e-001
8.176699e+002, 1.134070e-001
8.195983e+002, 1.009520e-001
8.215268e+002, 9.125242e-002
8.234553e+002, 8.413179e-002
8.253837e+002, 7.796234e-002
8.273122e+002, 7.346908e-002
8.292407e+002, 7.074730e-002
8.311691e+002, 6.865087e-002
8.330976e+002, 6.652050e-002
8.350261e+002, 6.515241e-002
8.369545e+002, 6.443284e-002
8.388830e+002, 6.425799e-002
8.408115e+002, 6.479559e-002
8.427399e+002, 6.616583e-002
8.446684e+002, 6.810734e-002
8.465969e+002, 7.012123e-002
8.485253e+002, 7.281660e-002
8.504538e+002, 7.630482e-002
8.523823e+002, 8.011621e-002
8.543107e+002, 8.506972e-002
8.562392e+002, 9.071393e-002
8.581677e+002, 9.770889e-002
8.600961e+002, 1.058547e-001
8.620246e+002, 1.155057e-001
8.639531e+002, 1.262022e-001
8.658815e+002, 1.379014e-001
8.678100e+002, 1.505436e-001
8.697385e+002, 1.628926e-001
8.716669e+002, 1.736899e-001
8.735954e+002, 1.813564e-001
8.755239e+002, 1.839597e-001
8.774523e+002, 1.803830e-001
8.793808e+002, 1.705848e-001
8.813093e+002, 1.563107e-001
8.832377e+002, 1.395272e-001
8.851662e+002, 1.222969e-001
8.870947e+002, 1.061519e-001
8.890231e+002, 9.222326e-002
8.909516e+002, 8.130104e-002
8.928801e+002, 7.398810e-002
8.948085e+002, 6.968690e-002
8.967370e+002, 6.767274e-002
8.986655e+002, 6.680135e-002
9.005939e+002, 6.671273e-002
9.025224e+002, 6.779814e-002
9.044509e+002, 6.935088e-002
9.063793e+002, 7.108057e-002
9.083078e+002, 7.360239e-002
9.102363e+002, 7.662646e-002
9.121647e+002, 8.009725e-002
9.140932e+002, 8.396835e-002
9.160217e+002, 8.808323e-002
9.179501e+002, 9.274188e-002
9.198786e+002, 9.792978e-002
9.218071e+002, 1.033486e-001
9.237355e+002, 1.095809e-001
9.256640e+002, 1.163719e-001
9.275925e+002, 1.236249e-001
9.295209e+002, 1.318164e-001
9.314494e+002, 1.412096e-001
9.333779e+002, 1.516904e-001
9.353063e+002, 1.631790e-001
9.372348e+002, 1.753586e-001
9.391633e+002, 1.891465e-001
9.410917e+002, 2.040976e-001
9.430202e+002, 2.196985e-001
9.449487e+002, 2.375566e-001
9.468771e+002, 2.575375e-001
9.488056e+002, 2.784302e-001
9.507341e+002, 3.007765e-001
9.526625e+002, 3.244673e-001
9.545910e+002, 3.489724e-001
9.565195e+002, 3.746958e-001
9.584479e+002, 4.007708e-001
9.603764e+002, 4.269946e-001
9.623049e+002, 4.530089e-001
9.642333e+002, 4.773904e-001
9.661618e+002, 4.988409e-001
9.680903e+002, 5.172238e-001
9.700187e+002, 5.327452e-001
9.719472e+002, 5.431293e-001
9.738757e+002, 5.472029e-001
9.758041e+002, 5.447516e-001
9.777326e+002, 5.342772e-001
9.796611e+002, 5.167896e-001
9.815895e+002, 4.942877e-001
9.835180e+002, 4.680932e-001
9.854465e+002, 4.410676e-001
9.873749e+002, 4.176465e-001
9.893034e+002, 4.009040e-001
9.912319e+002, 3.939280e-001
9.931603e+002, 3.980225e-001
9.950888e+002, 4.128150e-001
9.970173e+002, 4.356900e-001
9.989457e+002, 4.623024e-001
1.000874e+003, 4.903437e-001
1.002803e+003, 5.151448e-001
1.004731e+003, 5.334078e-001
1.006660e+003, 5.426328e-001
1.008588e+003, 5.416442e-001
1.010517e+003, 5.340762e-001
1.012445e+003, 5.249429e-001
1.014373e+003, 5.155732e-001
1.016302e+003, 5.049351e-001
1.018230e+003, 4.932737e-001
1.020159e+003, 4.807133e-001
1.022087e+003, 4.663810e-001
1.024016e+003, 4.531297e-001
1.025944e+003, 4.416946e-001
1.027873e+003, 4.312508e-001
1.029801e+003, 4.202071e-001
1.031730e+003, 4.093637e-001
1.033658e+003, 3.986657e-001
1.035587e+003, 3.880842e-001
1.037515e+003, 3.767995e-001
1.039443e+003, 3.644031e-001
1.041372e+003, 3.520652e-001
1.043300e+003, 3.396966e-001
1.045229e+003, 3.274190e-001
1.047157e+003, 3.163357e-001
1.049086e+003, 3.077585e-001
1.051014e+003, 2.999342e-001
1.052943e+003, 2.899053e-001
1.054871e+003, 2.775736e-001
1.056800e+003, 2.628523e-001
1.058728e+003, 2.478287e-001
1.060657e+003, 2.346111e-001
1.062585e+003, 2.242858e-001
1.064514e+003, 2.157884e-001
1.066442e+003, 2.078253e-001
1.068370e+003, 2.001050e-001
1.070299e+003, 1.927888e-001
1.072227e+003, 1.862452e-001
1.074156e+003, 1.806182e-001
1.076084e+003, 1.752612e-001
1.078013e+003, 1.702909e-001
1.079941e+003, 1.663692e-001
1.081870e+003, 1.629335e-001
1.083798e+003, 1.602122e-001
1.085727e+003, 1.587491e-001
1.087655e+003, 1.584961e-001
1.089584e+003, 1.592250e-001
1.091512e+003, 1.613275e-001
1.093441e+003, 1.651500e-001
1.095369e+003, 1.710061e-001
1.097297e+003, 1.770227e-001
1.099226e+003, 1.825498e-001
1.101154e+003, 1.875894e-001
1.103083e+003, 1.907210e-001
1.105011e+003, 1.924605e-001
1.106940e+003, 1.944440e-001
1.108868e+003, 1.979248e-001
1.110797e+003, 2.031240e-001
1.112725e+003, 2.081837e-001
1.114654e+003, 2.118392e-001
1.116582e+003, 2.135511e-001
1.118511e+003, 2.133515e-001
1.120439e+003, 2.119051e-001
1.122368e+003, 2.090816e-001
1.124296e+003, 2.051365e-001
1.126224e+003, 2.006014e-001
1.128153e+003, 1.969040e-001
1.130081e+003, 1.944226e-001
1.132010e+003, 1.938491e-001
1.133938e+003, 1.958560e-001
1.135867e+003, 1.997861e-001
1.137795e+003, 2.049472e-001
1.139724e+003, 2.096393e-001
1.141652e+003, 2.115603e-001
1.143581e+003, 2.087535e-001
1.145509e+003, 2.010749e-001
1.147438e+003, 1.906711e-001
1.149366e+003, 1.788272e-001
1.151295e+003, 1.668478e-001
1.153223e+003, 1.556412e-001
1.155151e+003, 1.455984e-001
1.157080e+003, 1.363504e-001
1.159008e+003, 1.280964e-001
1.160937e+003, 1.208084e-001
1.162865e+003, 1.142269e-001
1.164794e+003, 1.081198e-001
1.166722e+003, 1.023531e-001
1.168651e+003, 9.717772e-002
1.170579e+003, 9.216896e-002
1.172508e+003, 8.682907e-002
1.174436e+003, 8.178931e-002
1.176365e+003, 7.686474e-002
1.178293e+003, 7.189251e-002
1.180222e+003, 6.736160e-002
1.182150e+003, 6.303785e-002
1.184078e+003, 5.875050e-002
1.186007e+003, 5.463611e-002
1.187935e+003, 5.056493e-002
1.189864e+003, 4.671393e-002
1.191792e+003, 4.324570e-002
1.193721e+003, 4.043762e-002
1.195649e+003, 3.772547e-002
1.197578e+003, 3.512254e-002
1.199506e+003, 3.289495e-002
1.201435e+003, 3.138401e-002
1.203363e+003, 2.963972e-002
1.205292e+003, 2.788148e-002
1.207220e+003, 2.628702e-002
1.209149e+003, 2.502581e-002
1.211077e+003, 2.358066e-002
1.213005e+003, 2.244183e-002
1.214934e+003, 2.165535e-002
1.216862e+003, 2.061283e-002
1.218791e+003, 1.968828e-002
1.220719e+003, 1.855060e-002
1.222648e+003, 1.767193e-002
1.224576e+003, 1.707775e-002
1.226505e+003, 1.652295e-002
1.228433e+003, 1.581929e-002
1.230362e+003, 1.536177e-002
1.232290e+003, 1.513053e-002
1.234219e+003, 1.439978e-002
1.236147e+003, 1.356957e-002
1.238076e+003, 1.332105e-002
1.240004e+003, 1.333698e-002
1.241932e+003, 1.277205e-002
1.243861e+003, 1.203665e-002
1.245789e+003, 1.174803e-002
1.247718e+003, 1.147397e-002
1.249646e+003, 1.128706e-002
1.251575e+003, 1.104778e-002
1.253503e+003, 1.057753e-002
1.255432e+003, 1.013613e-002
1.257360e+003, 9.780802e-003
1.259289e+003, 9.688637e-003
1.261217e+003, 9.705853e-003
1.263146e+003, 9.721786e-003
1.265074e+003, 9.652765e-003
1.267003e+003, 9.252890e-003
1.268931e+003, 8.919224e-003
1.270859e+003, 8.887925e-003
1.272788e+003, 8.607844e-003
1.274716e+003, 8.425508e-003
1.276645e+003, 8.365220e-003
1.278573e+003, 8.305224e-003
1.280502e+003, 8.386127e-003
1.282430e+003, 8.311520e-003
1.284359e+003, 8.108386e-003
1.286287e+003, 7.968269e-003
1.288216e+003, 7.949650e-003
1.290144e+003, 7.757671e-003
1.292073e+003, 7.688373e-003
1.294001e+003, 7.815522e-003
1.295930e+003, 7.825517e-003
1.297858e+003, 7.546932e-003
1.299786e+003, 7.295290e-003
1.301715e+003, 7.313779e-003
1.303643e+003, 7.105312e-003
1.305572e+003, 6.780215e-003
1.307500e+003, 6.981941e-003
1.309429e+003, 6.916892e-003
1.311357e+003, 6.544250e-003
1.313286e+003, 6.381405e-003
1.315214e+003, 6.494886e-003
1.317143e+003, 6.497111e-003
1.319071e+003, 6.536915e-003
1.321000e+003, 6.544466e-003
1.322928e+003, 6.320923e-003
1.324857e+003, 6.165806e-003
1.326785e+003, 6.194081e-003
1.328714e+003, 6.223157e-003
1.330642e+003, 6.278213e-003
1.332570e+003, 6.109603e-003
1.334499e+003, 5.949067e-003
1.336427e+003, 5.981635e-003
1.338356e+003, 5.961979e-003
1.340284e+003, 5.817253e-003
1.342213e+003, 5.619596e-003
1.344141e+003, 5.488738e-003
1.346070e+003, 5.383769e-003
1.347998e+003, 5.336632e-003
1.349927e+003, 5.122758e-003
1.351855e+003, 5.217672e-003
1.353784e+003, 5.485140e-003
1.355712e+003, 5.499244e-003
1.357641e+003, 5.129919e-003
1.359569e+003, 4.787191e-003
1.361497e+003, 4.640810e-003
1.363426e+003, 4.817044e-003
1.365354e+003, 4.905897e-003
1.367283e+003, 4.828802e-003
1.369211e+003, 4.884742e-003
1.371140e+003, 4.838584e-003
1.373068e+003, 4.480695e-003
1.374997e+003, 4.269493e-003
1.376925e+003, 4.429613e-003
1.378854e+003, 4.505128e-003
1.380782e+003, 4.656448e-003
1.382711e+003, 4.568752e-003
1.384639e+003, 4.586177e-003
1.386568e+003, 4.616747e-003
1.388496e+003, 4.612110e-003
1.390424e+003, 4.807845e-003
1.392353e+003, 4.909445e-003
1.394281e+003, 4.800883e-003
1.396210e+003, 4.747079e-003
1.398138e+003, 4.745243e-003
1.400067e+003, 4.728723e-003
1.401995e+003, 4.761292e-003
1.403924e+003, 4.776950e-003
1.405852e+003, 4.511901e-003
1.407781e+003, 4.426975e-003
1.409709e+003, 4.646872e-003
1.411638e+003, 4.856573e-003
1.413566e+003, 4.639867e-003
1.415495e+003, 4.501754e-003
1.417423e+003, 4.394720e-003
1.419351e+003, 4.258245e-003
1.421280e+003, 4.575654e-003
1.423208e+003, 5.145101e-003
1.425137e+003, 5.004146e-003
1.427065e+003, 4.697689e-003
1.428994e+003, 4.810227e-003
1.430922e+003, 5.073927e-003
1.432851e+003, 4.971986e-003
1.434779e+003, 4.856406e-003
1.436708e+003, 4.803019e-003
1.438636e+003, 4.661244e-003
1.440565e+003, 4.691775e-003
1.442493e+003, 4.697478e-003
1.444422e+003, 4.621305e-003
1.446350e+003, 4.727118e-003
1.448278e+003, 5.004840e-003
1.450207e+003, 4.920597e-003
1.452135e+003, 4.736426e-003
1.454064e+003, 4.805434e-003
1.455992e+003, 5.007825e-003
1.457921e+003, 5.307703e-003
1.459849e+003, 5.086860e-003
1.461778e+003, 4.922109e-003
1.463706e+003, 4.882906e-003
1.465635e+003, 4.992752e-003
1.467563e+003, 4.976449e-003
1.469492e+003, 4.679499e-003
1.471420e+003, 4.618218e-003
1.473349e+003, 4.880333e-003
1.475277e+003, 5.069056e-003
1.477205e+003, 4.852837e-003
1.479134e+003, 4.764196e-003
1.481062e+003, 4.547074e-003
1.482991e+003, 4.459204e-003
1.484919e+003, 4.838287e-003
1.486848e+003, 5.186939e-003
1.488776e+003, 4.977583e-003
1.490705e+003, 4.724193e-003
1.492633e+003, 4.756232e-003
1.494562e+003, 5.118597e-003
1.496490e+003, 5.362640e-003
1.498419e+003, 5.261702e-003
1.500347e+003, 5.326934e-003
1.502276e+003, 5.293013e-003
1.504204e+003, 5.280696e-003
1.506132e+003, 5.513251e-003
1.508061e+003, 5.575385e-003
1.509989e+003, 5.262136e-003
1.511918e+003, 5.190072e-003
1.513846e+003, 5.424202e-003
1.515775e+003, 5.708077e-003
1.517703e+003, 5.859489e-003
1.519632e+003, 5.607706e-003
1.521560e+003, 5.528608e-003
1.523489e+003, 5.642550e-003
1.525417e+003, 5.475228e-003
1.527346e+003, 5.052057e-003
1.529274e+003, 5.268033e-003
1.531203e+003, 5.480770e-003
1.533131e+003, 5.249865e-003
1.535059e+003, 5.058644e-003
1.536988e+003, 5.100499e-003
1.538916e+003, 5.527186e-003
1.540845e+003, 5.504818e-003
1.542773e+003, 5.347654e-003
1.544702e+003, 5.365558e-003
1.546630e+003, 5.363805e-003
1.548559e+003, 5.134155e-003
1.550487e+003, 5.080503e-003
1.552416e+003, 5.070445e-003
1.554344e+003, 5.134080e-003
1.556273e+003, 5.321018e-003
1.558201e+003, 5.355711e-003
1.560130e+003, 5.400761e-003
1.562058e+003, 5.429402e-003
1.563986e+003, 5.427125e-003
1.565915e+003, 5.524197e-003
1.567843e+003, 5.750726e-003
1.569772e+003, 5.795361e-003
1.571700e+003, 5.218588e-003
1.573629e+003, 5.343448e-003
1.575557e+003, 5.801023e-003
1.577486e+003, 5.767969e-003
1.579414e+003, 5.914201e-003
1.581343e+003, 6.150505e-003
1.583271e+003, 6.297019e-003
1.585200e+003, 6.415169e-003
1.587128e+003, 6.368480e-003
1.589057e+003, 6.179093e-003
1.590985e+003, 6.201871e-003
1.592913e+003, 6.636239e-003
1.594842e+003, 6.872287e-003
1.596770e+003, 6.807525e-003
1.598699e+003, 7.216359e-003
1.600627e+003, 7.760553e-003
1.602556e+003, 7.893287e-003
1.604484e+003, 7.807593e-003
1.606413e+003, 8.116426e-003
1.608341e+003, 8.469847e-003
1.610270e+003, 8.378024e-003
1.612198e+003, 8.251490e-003
1.614127e+003, 8.702271e-003
1.616055e+003, 9.247337e-003
1.617984e+003, 9.572208e-003
1.619912e+003, 9.619554e-003
1.621840e+003, 9.601563e-003
1.623769e+003, 9.730763e-003
1.625697e+003, 1.015008e-002
1.627626e+003, 1.063752e-002
1.629554e+003, 1.097229e-002
1.631483e+003, 1.075060e-002
1.633411e+003, 1.097848e-002
1.635340e+003, 1.201241e-002
1.637268e+003, 1.305414e-002
1.639197e+003, 1.413839e-002
1.641125e+003, 1.543702e-002
1.643054e+003, 1.697692e-002
1.644982e+003, 1.882892e-002
1.646911e+003, 2.040078e-002
1.648839e+003, 2.213329e-002
1.650767e+003, 2.413380e-002
1.652696e+003, 2.496258e-002
1.654624e+003, 2.462287e-002
1.656553e+003, 2.304398e-002
1.658481e+003, 2.059915e-002
1.660410e+003, 1.803934e-002
1.662338e+003, 1.519371e-002
1.664267e+003, 1.304174e-002
1.666195e+003, 1.199206e-002
1.668124e+003, 1.067823e-002
1.670052e+003, 9.325854e-003
1.671981e+003, 8.591141e-003
1.673909e+003, 8.537628e-003
1.675838e+003, 7.982223e-003
1.677766e+003, 7.309104e-003
1.679694e+003, 7.147924e-003
1.681623e+003, 6.602661e-003
1.683551e+003, 5.853061e-003
1.685480e+003, 5.718760e-003
1.687408e+003, 5.906980e-003
1.689337e+003, 6.218935e-003
1.691265e+003, 5.918385e-003
1.693194e+003, 5.356763e-003
1.695122e+003, 4.982188e-003
1.697051e+003, 4.687491e-003
1.698979e+003, 4.244283e-003
1.700908e+003, 4.611771e-003
1.702836e+003, 4.994063e-003
1.704765e+003, 4.878719e-003
1.706693e+003, 4.783724e-003
1.708621e+003, 4.597227e-003
1.710550e+003, 4.342877e-003
1.712478e+003, 4.247394e-003
1.714407e+003, 4.612915e-003
1.716335e+003, 4.752244e-003
1.718264e+003, 4.234960e-003
1.720192e+003, 4.052368e-003
1.722121e+003, 4.044323e-003
1.724049e+003, 4.216233e-003
1.725978e+003, 4.234701e-003
1.727906e+003, 4.060464e-003
1.729835e+003, 3.886389e-003
1.731763e+003, 3.361803e-003
1.733692e+003, 3.134508e-003
1.735620e+003, 2.971339e-003
1.737548e+003, 2.427253e-003
1.739477e+003, 2.316873e-003
1.741405e+003, 2.305447e-003
1.743334e+003, 1.640230e-003
1.745262e+003, 1.540592e-003
1.747191e+003, 1.822358e-003
1.749119e+003, 2.071344e-003
1.751048e+003, 1.848886e-003
1.752976e+003, 1.761979e-003
1.754905e+003, 1.937975e-003
1.756833e+003, 1.971927e-003
1.758762e+003, 1.719601e-003
1.760690e+003, 1.887980e-003
1.762619e+003, 2.080212e-003
1.764547e+003, 2.197535e-003
1.766475e+003, 2.590151e-003
1.768404e+003, 2.754865e-003
1.770332e+003, 2.703147e-003
1.772261e+003, 2.436394e-003
1.774189e+003, 2.020905e-003
1.776118e+003, 2.062037e-003
1.778046e+003, 2.434635e-003
1.779975e+003, 2.284795e-003
1.781903e+003, 2.080547e-003
1.783832e+003, 2.520719e-003
1.785760e+003, 3.247943e-003
1.787689e+003, 3.500172e-003
1.789617e+003, 3.300774e-003
1.791546e+003, 2.946651e-003
1.793474e+003, 2.486700e-003
1.795402e+003, 2.280143e-003
1.797331e+003, 2.869464e-003
1.799259e+003, 3.482463e-003
1.801188e+003, 3.109711e-003
1.803116e+003, 2.596270e-003
1.805045e+003, 2.408646e-003
1.806973e+003, 2.667307e-003
1.808902e+003, 2.744762e-003
1.810830e+003, 2.720810e-003
1.812759e+003, 2.397024e-003
1.814687e+003, 1.531120e-003
1.816616e+003, 1.368523e-003
1.818544e+003, 1.618909e-003
1.820473e+003, 2.008974e-003
1.822401e+003, 2.622662e-003
1.824329e+003, 2.528205e-003
1.826258e+003, 1.660670e-003
1.828186e+003, 1.564772e-003
1.830115e+003, 2.419280e-003
1.832043e+003, 2.127539e-003
1.833972e+003, 2.146545e-003
1.835900e+003, 1.998570e-003
1.837829e+003, 1.454538e-003
1.839757e+003, 1.363472e-003
1.841686e+003, 1.643204e-003
1.843614e+003, 2.604773e-003
1.845543e+003, 1.967263e-003
1.847471e+003, 9.220894e-004
1.849400e+003, 7.430026e-004
1.851328e+003, 3.149551e-004
1.853256e+003, 1.456820e-004
1.855185e+003, 4.936532e-004
1.857113e+003, 5.665005e-004
1.859042e+003, 1.132877e-003
1.860970e+003, 1.430231e-003
1.862899e+003, 5.159114e-004
1.864827e+003, 4.878332e-005
1.866756e+003, 2.673256e-004
1.868684e+003, 5.144140e-004
1.870613e+003, 6.643521e-004
1.872541e+003, 9.948150e-004
1.874470e+003, 1.223765e-003
1.876398e+003, 4.895829e-004
1.878327e+003, 3.724698e-005
1.880255e+003, -2.983528e-004
1.882183e+003, -2.119679e-004
1.884112e+003, 7.015630e-004
1.886040e+003, 8.930161e-004
1.887969e+003, 3.550915e-004
1.889897e+003, 5.841703e-004
1.891826e+003, 1.545961e-003
1.893754e+003, 1.008553e-003
1.895683e+003, 6.646796e-004
1.897611e+003, 2.149044e-003
1.899540e+003, 3.498261e-003
1.901468e+003, 2.086238e-003
1.903397e+003, 1.324601e-003
1.905325e+003, 2.246180e-003
1.907254e+003, 1.573302e-003
1.909182e+003, 6.302036e-004
1.911110e+003, 1.600037e-003
1.913039e+003, 1.273572e-003
1.914967e+003, 8.884073e-004
1.916896e+003, 4.281687e-004
1.918824e+003, -1.005556e-003
1.920753e+003, -8.970351e-004
1.922681e+003, 4.104800e-004
1.924610e+003, -7.697754e-005
1.926538e+003, -2.913887e-004
1.928467e+003, 7.106361e-004
1.930395e+003, 1.673833e-003
1.932324e+003, 1.920942e-003
1.934252e+003, 1.124926e-003
1.936181e+003, -1.200176e-003
1.938109e+003, 5.346816e-005
1.940037e+003, 1.218420e-003
1.941966e+003, -1.242422e-003
1.943894e+003, -1.326981e-003
1.945823e+003, 2.414780e-004
1.947751e+003, 1.043133e-003
1.949680e+003, 2.456302e-003
1.951608e+003, 2.539016e-003
1.953537e+003, 1.025883e-003
1.955465e+003, -5.484349e-004
1.957394e+003, 5.675503e-004
1.959322e+003, 2.448214e-003
1.961251e+003, 1.930574e-003
1.963179e+003, -8.356478e-005
1.965108e+003, -9.137178e-004
1.967036e+003, 9.034639e-004
1.968964e+003, -3.647581e-004
1.970893e+003, 3.714124e-004
1.972821e+003, 4.408402e-003
1.974750e+003, 4.232354e-003
1.976678e+003, 2.164118e-003
1.978607e+003, 2.958485e-003
1.980535e+003, 3.172575e-003
1.982464e+003, 4.053796e-003
1.984392e+003, 5.236684e-003
1.986321e+003, 4.178886e-003
1.988249e+003, 1.457650e-003
1.990178e+003, 3.686105e-004
1.992106e+003, 2.828442e-003
1.994035e+003, 3.649681e-003
1.995963e+003, 2.444618e-003
1.997891e+003, 4.414628e-003
1.999820e+003, 5.452425e-003
2.001748e+003, 3.533726e-003
2.003677e+003, 1.435552e-003
2.005605e+003, -6.105090e-004
2.007534e+003, -1.390552e-003
2.009462e+003, 4.555434e-004
2.011391e+003, 1.377467e-003
2.013319e+003, 1.043828e-003
2.015248e+003, 5.636394e-003
2.017176e+003, 7.898215e-003
2.019105e+003, 1.381971e-003
2.021033e+003, -3.322222e-003
2.022962e+003, -5.860794e-004
2.024890e+003, 3.387596e-003
2.026818e+003, 3.119925e-003
2.028747e+003, 2.720660e-003
2.030675e+003, 4.244267e-003
2.032604e+003, 4.771394e-003
2.034532e+003, 4.937073e-003
2.036461e+003, 1.742509e-003
2.038389e+003, 1.243575e-003
2.040318e+003, 3.255308e-003
2.042246e+003, 2.541954e-003
2.044175e+003, 3.906919e-003
2.046103e+003, 2.595564e-003
2.048031e+003, 4.284456e-004
2.049960e+003, 1.387347e-003
2.051888e+003, 2.449071e-003
2.053817e+003, 2.407173e-003
2.055745e+003, 3.783600e-004
2.057674e+003, 2.617774e-003
2.059602e+003, 4.435273e-003
2.061531e+003, 1.125157e-003
2.063459e+003, -1.173675e-003
2.065388e+003, -1.006969e-004
2.067316e+003, 1.173843e-003
2.069245e+003, 2.003242e-003
2.071173e+003, 3.122256e-003
2.073102e+003, 2.067217e-003
2.075030e+003, 3.349384e-003
2.076958e+003, 4.591710e-003
2.078887e+003, 3.126350e-003
2.080815e+003, 2.154114e-003
2.082744e+003, 1.796123e-003
2.084672e+003, 2.929424e-003
2.086601e+003, 2.234937e-003
2.088529e+003, 9.030646e-004
2.090458e+003, 9.285319e-004
2.092386e+003, 2.060681e-003
2.094315e+003, 7.247308e-004
2.096243e+003, 1.114764e-003
2.098172e+003, 4.177736e-003
2.100100e+003, 3.790949e-003
2.102029e+003, 3.118685e-003
2.103957e+003, 2.631264e-003
2.105885e+003, 2.025052e-003
2.107814e+003, 1.430477e-003
2.109742e+003, 9.347664e-004
2.111671e+003, 1.108570e-003
2.113599e+003, 2.178873e-003
2.115528e+003, 3.246325e-003
2.117456e+003, 3.375371e-003
2.119385e+003, 3.756830e-003
2.121313e+003, 3.011532e-003
2.123242e+003, 3.705135e-003
2.125170e+003, 4.032144e-003
2.127099e+003, 2.262932e-003
2.129027e+003, 2.875495e-003
2.130956e+003, 3.212441e-003
2.132884e+003, 2.815425e-004
2.134813e+003, 4.391489e-004
2.136741e+003, 2.233902e-003
2.138669e+003, 1.362903e-003
2.140598e+003, 2.440230e-003
2.142526e+003, 6.289991e-003
2.144455e+003, 7.277058e-003
2.146383e+003, 6.762765e-003
2.148312e+003, 6.275053e-003
2.150240e+003, 9.445918e-003
2.152169e+003, 9.975335e-003
2.154097e+003, 1.251505e-002
2.156026e+003, 1.413155e-002
2.157954e+003, 1.308386e-002
2.159883e+003, 1.148109e-002
2.161811e+003, 7.798166e-003
2.163740e+003, 6.888989e-003
2.165668e+003, 7.732083e-003
2.167596e+003, 1.008301e-002
2.169525e+003, 9.337529e-003
2.171453e+003, 6.310038e-003
2.173382e+003, 4.564934e-003
2.175310e+003, 5.330222e-003
2.177239e+003, 7.406681e-003
2.179167e+003, 8.296634e-003
2.181096e+003, 7.505072e-003
2.183024e+003, 9.431359e-003
2.184953e+003, 8.879645e-003
2.186881e+003, 8.197191e-003
2.188810e+003, 7.829347e-003
2.190738e+003, 6.249250e-003
2.192667e+003, 5.929073e-003
2.194595e+003, 6.358048e-003
2.196523e+003, 5.841831e-003
2.198452e+003, 4.096117e-003
2.200380e+003, 5.165361e-003
2.202309e+003, 7.935569e-003
2.204237e+003, 7.173087e-003
2.206166e+003, 4.302989e-003
2.208094e+003, 8.815057e-004
2.210023e+003, 1.541359e-003
2.211951e+003, 2.463534e-003
2.213880e+003, 5.815906e-003
2.215808e+003, 6.975563e-003
2.217737e+003, 5.513890e-003
2.219665e+003, 3.018822e-003
2.221594e+003, 1.828130e-003
2.223522e+003, 2.651411e-003
2.225450e+003, 6.168348e-003
2.227379e+003, 9.520948e-003
2.229307e+003, 7.787236e-003
2.231236e+003, 5.100543e-003
2.233164e+003, 3.952439e-003
2.235093e+003, 3.543003e-003
2.237021e+003, 3.267907e-003
2.238950e+003, 2.952748e-003
2.240878e+003, 3.527432e-003
2.242807e+003, 4.815761e-003
2.244735e+003, 5.677457e-003
2.246664e+003, 5.422905e-003
2.248592e+003, 6.533592e-003
2.250521e+003, 7.948724e-003
2.252449e+003, 5.271779e-003
2.254377e+003, 3.410995e-003
2.256306e+003, 3.992676e-003
2.258234e+003, 3.248513e-003
2.260163e+003, 1.827181e-003
2.262091e+003, 2.430823e-003
2.264020e+003, 3.767000e-003
2.265948e+003, 4.875629e-003
2.267877e+003, 2.207266e-003
2.269805e+003, 1.675090e-003
2.271734e+003, 3.997411e-003
2.273662e+003, 4.841377e-003
2.275591e+003, 4.745539e-003
2.277519e+003, 5.195552e-003
2.279448e+003, 4.257568e-003
2.281376e+003, 4.215012e-003
2.283304e+003, 3.430934e-003
2.285233e+003, 2.776581e-003
2.287161e+003, 3.765849e-003
2.289090e+003, 3.602486e-003
2.291018e+003, 2.871817e-003
2.292947e+003, 2.675846e-003
2.294875e+003, 2.209304e-003
2.296804e+003, 2.144911e-003
2.298732e+003, 1.814078e-003
2.300661e+003, 1.958098e-003
2.302589e+003, 2.201568e-003
2.304518e+003, 2.299968e-003
2.306446e+003, 2.256009e-003
2.308375e+003, 1.767317e-003
2.310303e+003, 7.820504e-004
2.312231e+003, 1.195168e-003
2.314160e+003, 1.680962e-003
2.316088e+003, 1.938883e-003
2.318017e+003, 2.461273e-003
2.319945e+003, 2.594210e-003
2.321874e+003, 3.030062e-003
2.323802e+003, 3.287771e-003
2.325731e+003, 2.801868e-003
2.327659e+003, 2.852040e-003
2.329588e+003, 2.241996e-003
2.331516e+003, 1.825151e-003
2.333445e+003, 2.679106e-003
2.335373e+003, 2.639157e-003
2.337302e+003, 1.679610e-003
2.339230e+003, 1.386554e-003
2.341158e+003, 1.509630e-003
2.343087e+003, 2.598517e-003
2.345015e+003, 2.540804e-003
2.346944e+003, 1.811641e-003
2.348872e+003, 1.268144e-003
2.350801e+003, 2.475987e-003
2.352729e+003, 3.029491e-003
2.354658e+003, 1.952364e-003
2.356586e+003, 1.781467e-003
2.358515e+003, 1.667849e-003
2.360443e+003, 1.450947e-003
2.362372e+003, 1.922930e-003
2.364300e+003, 2.469650e-003
2.366229e+003, 2.145776e-003
2.368157e+003, 2.107006e-003
2.370085e+003, 2.129236e-003
2.372014e+003, 2.188564e-003
2.373942e+003, 3.138052e-003
2.375871e+003, 3.232877e-003
2.377799e+003, 2.936380e-003
2.379728e+003, 3.023810e-003
2.381656e+003, 3.422885e-003
2.383585e+003, 3.362749e-003
2.385513e+003, 3.968982e-003
2.387442e+003, 4.397576e-003
2.389370e+003, 4.321408e-003
2.391299e+003, 3.746284e-003
2.393227e+003, 3.630564e-003
2.395156e+003, 3.575134e-003
2.397084e+003, 3.922665e-003
2.399012e+003, 4.291310e-003
2.400941e+003, 4.218960e-003
2.402869e+003, 3.608143e-003
2.404798e+003, 2.738032e-003
2.406726e+003, 3.634199e-003
2.408655e+003, 4.122032e-003
2.410583e+003, 3.890051e-003
2.412512e+003, 3.761874e-003
2.414440e+003, 3.999449e-003
2.416369e+003, 3.615522e-003
2.418297e+003, 2.279710e-003
2.420226e+003, 1.965624e-003
2.422154e+003, 3.126960e-003
2.424083e+003, 5.044158e-003
2.426011e+003, 4.109819e-003
2.427939e+003, 2.678811e-003
2.429868e+003, 4.188056e-003
2.431796e+003, 5.276686e-003
2.433725e+003, 5.740038e-003
2.435653e+003, 4.301376e-003
2.437582e+003, 3.157899e-003
2.439510e+003, 5.010092e-003
2.441439e+003, 5.871601e-003
2.443367e+003, 5.059640e-003
2.445296e+003, 5.152422e-003
2.447224e+003, 5.272434e-003
2.449153e+003, 4.985114e-003
2.451081e+003, 5.492361e-003
2.453010e+003, 4.810477e-003
2.454938e+003, 4.901333e-003
2.456866e+003, 5.484294e-003
2.458795e+003, 4.470144e-003
2.460723e+003, 3.517722e-003
2.462652e+003, 3.589035e-003
2.464580e+003, 3.363519e-003
2.466509e+003, 4.050447e-003
2.468437e+003, 5.206592e-003
2.470366e+003, 5.024325e-003
2.472294e+003, 4.315730e-003
2.474223e+003, 4.108517e-003
2.476151e+003, 4.065616e-003
2.478080e+003, 3.614694e-003
2.480008e+003, 4.191536e-003
2.481937e+003, 3.591932e-003
2.483865e+003, 4.298758e-003
2.485793e+003, 4.015450e-003
2.487722e+003, 2.914581e-003
2.489650e+003, 3.399580e-003
2.491579e+003, 4.508896e-003
2.493507e+003, 4.913482e-003
2.495436e+003, 4.997828e-003
2.497364e+003, 5.214183e-003
2.499293e+003, 5.412819e-003
2.501221e+003, 4.435574e-003
2.503150e+003, 3.795275e-003
2.505078e+003, 3.163740e-003
2.507007e+003, 3.353632e-003
2.508935e+003, 4.054215e-003
2.510864e+003, 5.022237e-003
2.512792e+003, 4.744353e-003
2.514720e+003, 4.224935e-003
2.516649e+003, 4.387790e-003
2.518577e+003, 5.916980e-003
2.520506e+003, 6.261360e-003
2.522434e+003, 4.859224e-003
2.524363e+003, 4.234023e-003
2.526291e+003, 4.808738e-003
2.528220e+003, 3.522056e-003
2.530148e+003, 2.920091e-003
2.532077e+003, 4.336749e-003
2.534005e+003, 4.768151e-003
2.535934e+003, 4.224352e-003
2.537862e+003, 4.481162e-003
2.539791e+003, 5.505667e-003
2.541719e+003, 5.782409e-003
2.543647e+003, 5.685810e-003
2.545576e+003, 4.837923e-003
2.547504e+003, 4.658605e-003
2.549433e+003, 5.425430e-003
2.551361e+003, 5.304781e-003
2.553290e+003, 5.110500e-003
2.555218e+003, 5.895981e-003
2.557147e+003, 6.286486e-003
2.559075e+003, 5.662939e-003
2.561004e+003, 5.117047e-003
2.562932e+003, 4.718592e-003
2.564861e+003, 4.253767e-003
2.566789e+003, 4.550169e-003
2.568718e+003, 5.145261e-003
2.570646e+003, 4.847128e-003
2.572574e+003, 4.714690e-003
2.574503e+003, 5.328252e-003
2.576431e+003, 5.323347e-003
2.578360e+003, 4.682873e-003
2.580288e+003, 4.923241e-003
2.582217e+003, 5.404973e-003
2.584145e+003, 7.002083e-003
2.586074e+003, 6.659771e-003
2.588002e+003, 5.640211e-003
2.589931e+003, 4.945097e-003
2.591859e+003, 3.283032e-003
2.593788e+003, 4.104611e-003
2.595716e+003, 6.271353e-003
2.597645e+003, 5.839059e-003
2.599573e+003, 5.428556e-003
2.601501e+003, 5.842555e-003
2.603430e+003, 6.212937e-003
2.605358e+003, 6.601517e-003
2.607287e+003, 6.941660e-003
2.609215e+003, 7.454359e-003
2.611144e+003, 6.831354e-003
2.613072e+003, 6.923527e-003
2.615001e+003, 6.707690e-003
2.616929e+003, 5.901078e-003
2.618858e+003, 5.125314e-003
2.620786e+003, 5.748086e-003
2.622715e+003, 7.270406e-003
2.624643e+003, 7.609140e-003
2.626572e+003, 6.260959e-003
2.628500e+003, 5.452675e-003
2.630428e+003, 5.829591e-003
2.632357e+003, 7.422926e-003
2.634285e+003, 7.436799e-003
2.636214e+003, 6.922586e-003
2.638142e+003, 7.093977e-003
2.640071e+003, 6.601867e-003
2.641999e+003, 6.328735e-003
2.643928e+003, 6.535342e-003
2.645856e+003, 6.897125e-003
2.647785e+003, 6.922748e-003
2.649713e+003, 6.430971e-003
2.651642e+003, 7.172585e-003
2.653570e+003, 7.492016e-003
2.655499e+003, 7.181641e-003
2.657427e+003, 6.846923e-003
2.659355e+003, 6.441019e-003
2.661284e+003, 6.905506e-003
2.663212e+003, 7.009995e-003
2.665141e+003, 6.736168e-003
2.667069e+003, 6.840537e-003
2.668998e+003, 7.061480e-003
2.670926e+003, 7.185926e-003
2.672855e+003, 6.870509e-003
2.674783e+003, 7.401451e-003
2.676712e+003, 7.309460e-003
2.678640e+003, 6.917124e-003
2.680569e+003, 7.291974e-003
2.682497e+003, 7.068215e-003
2.684426e+003, 6.692577e-003
2.686354e+003, 6.597620e-003
2.688282e+003, 6.169134e-003
2.690211e+003, 6.274763e-003
2.692139e+003, 7.240872e-003
2.694068e+003, 7.016384e-003
2.695996e+003, 6.644432e-003
2.697925e+003, 6.546032e-003
2.699853e+003, 6.607240e-003
2.701782e+003, 6.727649e-003
2.703710e+003, 7.216112e-003
2.705639e+003, 6.896710e-003
2.707567e+003, 6.411357e-003
2.709496e+003, 7.147258e-003
2.711424e+003, 6.971191e-003
2.713353e+003, 7.042749e-003
2.715281e+003, 7.531250e-003
2.717209e+003, 7.279635e-003
2.719138e+003, 6.648567e-003
2.721066e+003, 6.523687e-003
2.722995e+003, 6.710039e-003
2.724923e+003, 6.315050e-003
2.726852e+003, 6.770299e-003
2.728780e+003, 7.168994e-003
2.730709e+003, 7.071894e-003
2.732637e+003, 7.786233e-003
2.734566e+003, 8.339891e-003
2.736494e+003, 8.110436e-003
2.738423e+003, 7.370483e-003
2.740351e+003, 7.472559e-003
2.742280e+003, 7.920175e-003
2.744208e+003, 7.537239e-003
2.746136e+003, 7.217376e-003
2.748065e+003, 7.863946e-003
2.749993e+003, 8.285468e-003
2.751922e+003, 7.793275e-003
2.753850e+003, 7.134697e-003
2.755779e+003, 7.237195e-003
2.757707e+003, 7.411818e-003
2.759636e+003, 8.055924e-003
2.761564e+003, 7.904656e-003
2.763493e+003, 7.962359e-003
2.765421e+003, 8.939488e-003
2.767350e+003, 8.660073e-003
2.769278e+003, 8.967737e-003
2.771207e+003, 9.894111e-003
2.773135e+003, 9.137849e-003
2.775063e+003, 8.093052e-003
2.776992e+003, 8.251814e-003
2.778920e+003, 8.466002e-003
2.780849e+003, 8.216777e-003
2.782777e+003, 8.009508e-003
2.784706e+003, 8.408865e-003
2.786634e+003, 8.961393e-003
2.788563e+003, 9.355271e-003
2.790491e+003, 9.023263e-003
2.792420e+003, 8.296697e-003
2.794348e+003, 8.314567e-003
2.796277e+003, 8.284165e-003
2.798205e+003, 8.279352e-003
2.800134e+003, 8.774654e-003
2.802062e+003, 9.662660e-003
2.803990e+003, 9.652103e-003
2.805919e+003, 9.281511e-003
2.807847e+003, 8.754846e-003
2.809776e+003, 9.069990e-003
2.811704e+003, 9.816470e-003
2.813633e+003, 9.507366e-003
2.815561e+003, 8.645017e-003
2.817490e+003, 8.669512e-003
2.819418e+003, 9.099568e-003
2.821347e+003, 8.999126e-003
2.823275e+003, 8.589481e-003
2.825204e+003, 7.772975e-003
2.827132e+003, 8.069797e-003
2.829061e+003, 9.352551e-003
2.830989e+003, 9.931252e-003
2.832917e+003, 9.931546e-003
2.834846e+003, 9.105310e-003
2.836774e+003, 9.415153e-003
2.838703e+003, 1.038002e-002
2.840631e+003, 1.021713e-002
2.842560e+003, 9.412224e-003
2.844488e+003, 8.813495e-003
2.846417e+003, 9.232761e-003
2.848345e+003, 9.400780e-003
2.850274e+003, 9.830327e-003
2.852202e+003, 9.084598e-003
2.854131e+003, 8.288395e-003
2.856059e+003, 8.685060e-003
2.857988e+003, 8.562899e-003
2.859916e+003, 9.324888e-003
2.861844e+003, 9.483300e-003
2.863773e+003, 9.854640e-003
2.865701e+003, 1.092096e-002
2.867630e+003, 1.195446e-002
2.869558e+003, 1.199904e-002
2.871487e+003, 1.156199e-002
2.873415e+003, 1.011832e-002
2.875344e+003, 9.333449e-003
2.877272e+003, 1.088490e-002
2.879201e+003, 1.170820e-002
2.881129e+003, 1.117482e-002
2.883058e+003, 1.148318e-002
2.884986e+003, 1.119787e-002
2.886915e+003, 1.063019e-002
2.888843e+003, 1.102715e-002
2.890771e+003, 1.158940e-002
2.892700e+003, 1.186455e-002
2.894628e+003, 1.043396e-002
2.896557e+003, 9.933248e-003
2.898485e+003, 1.018858e-002
2.900414e+003, 9.277279e-003
2.902342e+003, 9.271181e-003
2.904271e+003, 1.077639e-002
2.906199e+003, 1.132928e-002
2.908128e+003, 1.089828e-002
2.910056e+003, 1.101362e-002
2.911985e+003, 1.089698e-002
2.913913e+003, 1.025745e-002
2.915842e+003, 1.039216e-002
2.917770e+003, 1.073972e-002
2.919698e+003, 1.047665e-002
2.921627e+003, 1.155818e-002
2.923555e+003, 1.206576e-002
2.925484e+003, 1.118060e-002
2.927412e+003, 9.950489e-003
2.929341e+003, 1.057327e-002
2.931269e+003, 1.140581e-002
2.933198e+003, 1.228761e-002
2.935126e+003, 1.304456e-002
2.937055e+003, 1.325452e-002
2.938983e+003, 1.338248e-002
2.940912e+003, 1.377294e-002
2.942840e+003, 1.296296e-002
2.944769e+003, 1.197164e-002
2.946697e+003, 1.142749e-002
2.948625e+003, 1.283142e-002
2.950554e+003, 1.369691e-002
2.952482e+003, 1.398508e-002
2.954411e+003, 1.407959e-002
2.956339e+003, 1.370782e-002
2.958268e+003, 1.276350e-002
2.960196e+003, 1.312791e-002
2.962125e+003, 1.445368e-002
2.964053e+003, 1.434833e-002
2.965982e+003, 1.452044e-002
2.967910e+003, 1.440277e-002
2.969839e+003, 1.371576e-002
2.971767e+003, 1.293406e-002
2.973696e+003, 1.338641e-002
2.975624e+003, 1.365130e-002
2.977552e+003, 1.355621e-002
2.979481e+003, 1.363370e-002
2.981409e+003, 1.340204e-002
2.983338e+003, 1.361361e-002
2.985266e+003, 1.333056e-002
2.987195e+003, 1.340621e-002
2.989123e+003, 1.291062e-002
2.991052e+003, 1.277601e-002
2.992980e+003, 1.235108e-002
2.994909e+003, 1.276908e-002
2.996837e+003, 1.409425e-002
2.998766e+003, 1.518694e-002
3.000694e+003, 1.563829e-002
3.002623e+003, 1.440830e-002
3.004551e+003, 1.360371e-002
3.006479e+003, 1.301887e-002
3.008408e+003, 1.209297e-002
3.010336e+003, 1.283122e-002
3.012265e+003, 1.270326e-002
3.014193e+003, 1.306493e-002
3.016122e+003, 1.309359e-002
3.018050e+003, 1.323351e-002
3.019979e+003, 1.463404e-002
3.021907e+003, 1.495378e-002
3.023836e+003, 1.444974e-002
3.025764e+003, 1.481617e-002
3.027693e+003, 1.593985e-002
3.029621e+003, 1.463786e-002
3.031550e+003, 1.264733e-002
3.033478e+003, 1.325185e-002
3.035406e+003, 1.441791e-002
3.037335e+003, 1.537118e-002
3.039263e+003, 1.479109e-002
3.041192e+003, 1.468274e-002
3.043120e+003, 1.620036e-002
3.045049e+003, 1.497842e-002
3.046977e+003, 1.443860e-002
3.048906e+003, 1.587259e-002
3.050834e+003, 1.505106e-002
3.052763e+003, 1.352236e-002
3.054691e+003, 1.482723e-002
3.056620e+003, 1.495783e-002
3.058548e+003, 1.431190e-002
3.060477e+003, 1.528195e-002
3.062405e+003, 1.471344e-002
3.064333e+003, 1.415560e-002
3.066262e+003, 1.471033e-002
3.068190e+003, 1.503453e-002
3.070119e+003, 1.513912e-002
3.072047e+003, 1.626578e-002
3.073976e+003, 1.544941e-002
3.075904e+003, 1.503780e-002
3.077833e+003, 1.591487e-002
3.079761e+003, 1.731428e-002
3.081690e+003, 1.687419e-002
3.083618e+003, 1.418700e-002
3.085547e+003, 1.452969e-002
3.087475e+003, 1.640522e-002
3.089404e+003, 1.478486e-002
3.091332e+003, 1.298920e-002
3.093260e+003, 1.448503e-002
3.095189e+003, 1.655470e-002
3.097117e+003, 1.639049e-002
3.099046e+003, 1.547095e-002
3.100974e+003, 1.478671e-002
3.102903e+003, 1.640559e-002
3.104831e+003, 1.697287e-002
3.106760e+003, 1.649868e-002
3.108688e+003, 1.606812e-002
3.110617e+003, 1.686458e-002
3.112545e+003, 1.680200e-002
3.114474e+003, 1.728002e-002
3.116402e+003, 1.727205e-002
3.118331e+003, 1.607070e-002
3.120259e+003, 1.588250e-002
3.122188e+003, 1.635768e-002
3.124116e+003, 1.629800e-002
3.126044e+003, 1.547745e-002
3.127973e+003, 1.553929e-002
3.129901e+003, 1.650042e-002
3.131830e+003, 1.640240e-002
3.133758e+003, 1.780380e-002
3.135687e+003, 1.848896e-002
3.137615e+003, 1.869222e-002
3.139544e+003, 1.763530e-002
3.141472e+003, 1.758981e-002
3.143401e+003, 1.820660e-002
3.145329e+003, 1.781693e-002
3.147258e+003, 1.587354e-002
3.149186e+003, 1.446362e-002
3.151115e+003, 1.606504e-002
3.153043e+003, 1.741268e-002
3.154971e+003, 1.756911e-002
3.156900e+003, 1.682718e-002
3.158828e+003, 1.636372e-002
3.160757e+003, 1.749813e-002
3.162685e+003, 1.900593e-002
3.164614e+003, 1.858649e-002
3.166542e+003, 1.839712e-002
3.168471e+003, 1.881513e-002
3.170399e+003, 1.811742e-002
3.172328e+003, 1.647478e-002
3.174256e+003, 1.697539e-002
3.176185e+003, 1.856334e-002
3.178113e+003, 1.839425e-002
3.180042e+003, 1.832582e-002
3.181970e+003, 1.924754e-002
3.183898e+003, 1.904600e-002
3.185827e+003, 1.921710e-002
3.187755e+003, 1.873733e-002
3.189684e+003, 1.938145e-002
3.191612e+003, 1.991419e-002
3.193541e+003, 1.921536e-002
3.195469e+003, 2.072853e-002
3.197398e+003, 2.052746e-002
3.199326e+003, 1.706393e-002
3.201255e+003, 1.667533e-002
3.203183e+003, 1.824796e-002
3.205112e+003, 1.878129e-002
3.207040e+003, 2.009513e-002
3.208969e+003, 2.104821e-002
3.210897e+003, 2.060879e-002
3.212825e+003, 1.961230e-002
3.214754e+003, 1.980068e-002
3.216682e+003, 1.841153e-002
3.218611e+003, 1.712901e-002
3.220539e+003, 1.637891e-002
3.222468e+003, 1.790771e-002
3.224396e+003, 1.920176e-002
3.226325e+003, 1.914919e-002
3.228253e+003, 1.905608e-002
3.230182e+003, 2.002409e-002
3.232110e+003, 2.101825e-002
3.234039e+003, 2.061337e-002
3.235967e+003, 1.935796e-002
3.237896e+003, 1.806672e-002
3.239824e+003, 1.791287e-002
3.241752e+003, 1.803664e-002
3.243681e+003, 1.808614e-002
3.245609e+003, 1.755053e-002
3.247538e+003, 1.813463e-002
3.249466e+003, 2.204325e-002
3.251395e+003, 2.250784e-002
3.253323e+003, 1.901420e-002
3.255252e+003, 1.855131e-002
3.257180e+003, 1.887756e-002
3.259109e+003, 1.987505e-002
3.261037e+003, 1.969372e-002
3.262966e+003, 1.865360e-002
3.264894e+003, 1.833790e-002
3.266823e+003, 1.922703e-002
3.268751e+003, 1.870770e-002
3.270679e+003, 1.980641e-002
3.272608e+003, 2.040377e-002
3.274536e+003, 1.882114e-002
3.276465e+003, 1.813520e-002
3.278393e+003, 1.885592e-002
3.280322e+003, 1.952994e-002
3.282250e+003, 1.838481e-002
3.284179e+003, 1.832550e-002
3.286107e+003, 1.948827e-002
3.288036e+003, 1.975473e-002
3.289964e+003, 1.863690e-002
3.291893e+003, 1.766060e-002
3.293821e+003, 1.885567e-002
3.295750e+003, 2.059010e-002
3.297678e+003, 2.078017e-002
3.299606e+003, 2.015775e-002
3.301535e+003, 1.950196e-002
3.303463e+003, 1.984113e-002
3.305392e+003, 1.936419e-002
3.307320e+003, 1.862754e-002
3.309249e+003, 1.691921e-002
3.311177e+003, 1.850231e-002
3.313106e+003, 1.974558e-002
3.315034e+003, 1.933901e-002
3.316963e+003, 1.984645e-002
3.318891e+003, 2.068342e-002
3.320820e+003, 2.133941e-002
3.322748e+003, 2.068747e-002
3.324677e+003, 2.083961e-002
3.326605e+003, 2.163450e-002
3.328533e+003, 2.010817e-002
3.330462e+003, 1.925305e-002
3.332390e+003, 2.031607e-002
3.334319e+003, 2.119019e-002
3.336247e+003, 2.161502e-002
3.338176e+003, 2.211673e-002
3.340104e+003, 2.252113e-002
3.342033e+003, 2.333946e-002
3.343961e+003, 2.300800e-002
3.345890e+003, 2.185031e-002
3.347818e+003, 2.109180e-002
3.349747e+003, 2.027718e-002
3.351675e+003, 2.025958e-002
3.353604e+003, 2.198512e-002
3.355532e+003, 2.213085e-002
3.357460e+003, 2.105488e-002
3.359389e+003, 1.965937e-002
3.361317e+003, 1.994396e-002
3.363246e+003, 2.105640e-002
3.365174e+003, 2.085900e-002
3.367103e+003, 1.917515e-002
3.369031e+003, 1.977707e-002
3.370960e+003, 1.984740e-002
3.372888e+003, 1.822666e-002
3.374817e+003, 1.826516e-002
3.376745e+003, 1.799851e-002
3.378674e+003, 1.961752e-002
3.380602e+003, 2.172452e-002
3.382531e+003, 2.313728e-002
3.384459e+003, 2.402409e-002
3.386387e+003, 2.290642e-002
3.388316e+003, 2.295755e-002
3.390244e+003, 2.343844e-002
3.392173e+003, 2.398070e-002
3.394101e+003, 2.291572e-002
3.396030e+003, 2.057804e-002
3.397958e+003, 1.992636e-002
3.399887e+003, 2.125324e-002
3.401815e+003, 2.353962e-002
3.403744e+003, 2.368782e-002
3.405672e+003, 2.529782e-002
3.407601e+003, 2.491044e-002
3.409529e+003, 2.450023e-002
3.411458e+003, 2.283075e-002
3.413386e+003, 2.198217e-002
3.415314e+003, 2.331960e-002
3.417243e+003, 2.440541e-002
3.419171e+003, 2.457870e-002
3.421100e+003, 2.479645e-002
3.423028e+003, 2.356019e-002
3.424957e+003, 2.172098e-002
3.426885e+003, 2.173967e-002
3.428814e+003, 2.442108e-002
3.430742e+003, 2.423168e-002
3.432671e+003, 2.295615e-002
3.434599e+003, 2.297885e-002
3.436528e+003, 2.190272e-002
3.438456e+003, 2.374572e-002
3.440385e+003, 2.531559e-002
3.442313e+003, 2.481785e-002
3.444241e+003, 2.421310e-002
3.446170e+003, 2.228355e-002
3.448098e+003, 2.432429e-002
3.450027e+003, 2.701985e-002
3.451955e+003, 2.667898e-002
3.453884e+003, 2.440476e-002
3.455812e+003, 2.370995e-002
3.457741e+003, 2.372758e-002
3.459669e+003, 2.475383e-002
3.461598e+003, 2.645243e-002
3.463526e+003, 2.643669e-002
3.465455e+003, 2.638817e-002
3.467383e+003, 2.950417e-002
3.469312e+003, 3.169812e-002
3.471240e+003, 3.192202e-002
3.473168e+003, 3.141353e-002
3.475097e+003, 3.255501e-002
3.477025e+003, 3.409884e-002
3.478954e+003, 3.490373e-002
3.480882e+003, 3.564522e-002
3.482811e+003, 3.894222e-002
3.484739e+003, 4.117045e-002
3.486668e+003, 4.107276e-002
3.488596e+003, 4.071285e-002
3.490525e+003, 4.124285e-002
3.492453e+003, 4.265577e-002
3.494382e+003, 4.410645e-002
3.496310e+003, 4.472661e-002
3.498239e+003, 4.369047e-002
3.500167e+003, 4.234813e-002
3.502095e+003, 4.139962e-002
3.504024e+003, 3.824474e-002
3.505952e+003, 3.681075e-002
3.507881e+003, 3.612343e-002
3.509809e+003, 3.521823e-002
3.511738e+003, 3.511540e-002
3.513666e+003, 3.548092e-002
3.515595e+003, 3.542229e-002
3.517523e+003, 3.483175e-002
3.519452e+003, 3.748180e-002
3.521380e+003, 3.952285e-002
3.523309e+003, 4.124479e-002
3.525237e+003, 4.316331e-002
3.527166e+003, 4.645121e-002
3.529094e+003, 4.956954e-002
3.531022e+003, 5.005275e-002
3.532951e+003, 4.901111e-002
3.534879e+003, 4.639877e-002
3.536808e+003, 4.367436e-002
3.538736e+003, 4.412370e-002
3.540665e+003, 4.515834e-002
3.542593e+003, 4.121533e-002
3.544522e+003, 3.589882e-002
3.546450e+003, 3.478841e-002
3.548379e+003, 3.518357e-002
3.550307e+003, 3.228091e-002
3.552236e+003, 2.905019e-002
3.554164e+003, 3.028874e-002
3.556093e+003, 3.200319e-002
3.558021e+003, 3.101798e-002
3.559949e+003, 2.995858e-002
3.561878e+003, 2.888340e-002
3.563806e+003, 2.581814e-002
3.565735e+003, 2.289333e-002
3.567663e+003, 2.179453e-002
3.569592e+003, 2.178999e-002
3.571520e+003, 2.198672e-002
3.573449e+003, 2.090176e-002
3.575377e+003, 2.098630e-002
3.577306e+003, 1.908992e-002
3.579234e+003, 1.761838e-002
3.581163e+003, 2.007695e-002
3.583091e+003, 2.207304e-002
3.585020e+003, 2.210313e-002
3.586948e+003, 1.904575e-002
3.588876e+003, 1.801238e-002
3.590805e+003, 1.856747e-002
3.592733e+003, 1.768438e-002
3.594662e+003, 1.628803e-002
3.596590e+003, 1.625934e-002
3.598519e+003, 1.720086e-002
3.600447e+003, 1.763335e-002
3.602376e+003, 1.795826e-002
3.604304e+003, 1.929877e-002
3.606233e+003, 1.877490e-002
3.608161e+003, 1.681140e-002
3.610090e+003, 1.550434e-002
3.612018e+003, 1.408661e-002
3.613947e+003, 1.431681e-002
3.615875e+003, 1.482023e-002
3.617803e+003, 1.341400e-002
3.619732e+003, 1.211354e-002
3.621660e+003, 1.382059e-002
3.623589e+003, 1.609587e-002
3.625517e+003, 1.616975e-002
3.627446e+003, 1.542810e-002
3.629374e+003, 1.771350e-002
3.631303e+003, 1.508091e-002
3.633231e+003, 1.356394e-002
3.635160e+003, 1.348512e-002
3.637088e+003, 1.407008e-002
3.639017e+003, 1.223274e-002
3.640945e+003, 1.062655e-002
3.642874e+003, 9.171099e-003
3.644802e+003, 5.929770e-003
3.646730e+003, 4.931121e-003
3.648659e+003, 8.459473e-003
3.650587e+003, 1.071761e-002
3.652516e+003, 9.600950e-003
3.654444e+003, 9.619045e-003
3.656373e+003, 1.105518e-002
3.658301e+003, 1.262872e-002
3.660230e+003, 1.394550e-002
3.662158e+003, 1.401135e-002
3.664087e+003, 1.274700e-002
3.666015e+003, 1.060842e-002
3.667944e+003, 1.148700e-002
3.669872e+003, 1.264459e-002
3.671801e+003, 9.786348e-003
3.673729e+003, 7.193029e-003
3.675657e+003, 4.380099e-003
3.677586e+003, 2.230652e-003
3.679514e+003, 1.833906e-003
3.681443e+003, 4.652833e-003
3.683371e+003, 8.350498e-003
3.685300e+003, 6.350021e-003
3.687228e+003, 5.595430e-003
3.689157e+003, 8.944170e-003
3.691085e+003, 1.135812e-002
3.693014e+003, 8.366510e-003
3.694942e+003, 5.057627e-003
3.696871e+003, 5.588118e-003
3.698799e+003, 9.307681e-003
3.700728e+003, 1.089525e-002
3.702656e+003, 1.115105e-002
3.704584e+003, 1.198940e-002
3.706513e+003, 1.039667e-002
3.708441e+003, 7.943398e-003
3.710370e+003, 9.644055e-003
3.712298e+003, 1.185059e-002
3.714227e+003, 1.013489e-002
3.716155e+003, 6.923028e-003
3.718084e+003, 4.519384e-003
3.720012e+003, 5.580353e-003
3.721941e+003, 6.926297e-003
3.723869e+003, 6.280159e-003
3.725798e+003, 8.154024e-003
3.727726e+003, 7.814956e-003
3.729655e+003, 7.170580e-003
3.731583e+003, 7.314649e-003
3.733511e+003, 7.187833e-003
3.735440e+003, 9.905138e-003
3.737368e+003, 9.738518e-003
3.739297e+003, 6.656731e-003
3.741225e+003, 5.815323e-003
3.743154e+003, 7.990849e-003
3.745082e+003, 1.090354e-002
3.747011e+003, 8.648440e-003
3.748939e+003, 7.809776e-003
3.750868e+003, 1.090930e-002
3.752796e+003, 1.002623e-002
3.754725e+003, 6.963743e-003
3.756653e+003, 5.611912e-003
3.758582e+003, 7.831684e-003
3.760510e+003, 8.808680e-003
3.762438e+003, 8.813272e-003
3.764367e+003, 8.406986e-003
3.766295e+003, 9.061204e-003
3.768224e+003, 8.026733e-003
3.770152e+003, 6.096355e-003
3.772081e+003, 6.907501e-003
3.774009e+003, 6.023400e-003
3.775938e+003, 4.761816e-003
3.777866e+003, 3.534788e-003
3.779795e+003, 4.845316e-003
3.781723e+003, 7.543199e-003
3.783652e+003, 7.884533e-003
3.785580e+003, 7.257626e-003
3.787509e+003, 7.374577e-003
3.789437e+003, 8.648562e-003
3.791365e+003, 8.606964e-003
3.793294e+003, 5.905222e-003
3.795222e+003, 4.505575e-003
3.797151e+003, 7.152135e-003
3.799079e+003, 8.697299e-003
3.801008e+003, 7.486564e-003
3.802936e+003, 5.874868e-003
3.804865e+003, 7.182090e-003
3.806793e+003, 8.887116e-003
3.808722e+003, 9.681711e-003
3.810650e+003, 7.998183e-003
3.812579e+003, 4.979710e-003
3.814507e+003, 7.223560e-003
3.816436e+003, 9.573983e-003
3.818364e+003, 8.252669e-003
3.820292e+003, 6.709732e-003
3.822221e+003, 6.151417e-003
3.824149e+003, 5.549088e-003
3.826078e+003, 8.081555e-003
3.828006e+003, 8.036897e-003
3.829935e+003, 4.246991e-003
3.831863e+003, 5.245822e-003
3.833792e+003, 7.794346e-003
3.835720e+003, 8.231941e-003
3.837649e+003, 6.143847e-003
3.839577e+003, 6.196213e-003
3.841506e+003, 7.911599e-003
3.843434e+003, 7.657248e-003
3.845363e+003, 6.958370e-003
3.847291e+003, 4.654576e-003
3.849219e+003, 5.420740e-003
3.851148e+003, 4.840560e-003
3.853076e+003, 5.353414e-003
3.855005e+003, 5.892287e-003
3.856933e+003, 5.471179e-003
3.858862e+003, 6.400175e-003
3.860790e+003, 5.828314e-003
3.862719e+003, 5.576950e-003
3.864647e+003, 6.310261e-003
3.866576e+003, 7.225290e-003
3.868504e+003, 5.114238e-003
3.870433e+003, 4.315595e-003
3.872361e+003, 3.660773e-003
3.874290e+003, 2.090970e-003
3.876218e+003, 2.657028e-003
3.878146e+003, 3.502824e-003
3.880075e+003, 3.175962e-003
3.882003e+003, 3.656339e-003
3.883932e+003, 5.707330e-003
3.885860e+003, 6.617344e-003
3.887789e+003, 6.107173e-003
3.889717e+003, 3.357959e-003
3.891646e+003, 1.573156e-003
3.893574e+003, 4.227864e-003
3.895503e+003, 4.974924e-003
3.897431e+003, 6.850121e-003
3.899360e+003, 8.273306e-003
3.901288e+003, 6.646409e-003
3.903217e+003, 5.216124e-003
3.905145e+003, 5.224016e-003
3.907073e+003, 6.496328e-003
3.909002e+003, 7.428644e-003
3.910930e+003, 8.717972e-003
3.912859e+003, 7.627695e-003
3.914787e+003, 7.707712e-003
3.916716e+003, 7.673083e-003
3.918644e+003, 5.893554e-003
3.920573e+003, 5.994518e-003
3.922501e+003, 5.431895e-003
3.924430e+003, 3.644598e-003
3.926358e+003, 6.536688e-003
3.928287e+003, 7.710809e-003
3.930215e+003, 7.510442e-003
3.932144e+003, 7.927589e-003
3.934072e+003, 4.700761e-003
3.936000e+003, 4.530981e-003
3.937929e+003, 7.150767e-003
3.939857e+003, 4.342419e-003
3.941786e+003, 2.180828e-004
3.943714e+003, 4.108211e-003
3.945643e+003, 1.010533e-002
3.947571e+003, 8.734723e-003
3.949500e+003, 3.326497e-003
3.951428e+003, 2.839214e-003
3.953357e+003, 6.297039e-003
3.955285e+003, 8.620772e-003
3.957214e+003, 8.327065e-003
3.959142e+003, 7.344370e-003
3.961071e+003, 6.107311e-003
3.962999e+003, 3.169366e-003
3.964927e+003, 4.630458e-003
3.966856e+003, 7.255885e-003
3.968784e+003, 7.478311e-003
3.970713e+003, 7.575665e-003
3.972641e+003, 5.690715e-003
3.974570e+003, 2.638426e-003
3.976498e+003, 3.099143e-004
3.978427e+003, -1.014981e-003
3.980355e+003, -9.849938e-004
3.982284e+003, 3.048970e-003
3.984212e+003, 5.556092e-003
3.986141e+003, 6.191813e-003
3.988069e+003, 6.483083e-003
3.989998e+003, 4.656819e-003
3.991926e+003, 4.700387e-003
3.993854e+003, 5.942396e-003
3.995783e+003, 8.098406e-003
3.997711e+003, 8.516835e-003
3.999640e+003, 6.014096e-003
4.001568e+003, 0.000000e+000
##END=



