##NAMES=Ferberite
##RRUFFID=R050090
##IDEAL CHEMISTRY=Fe^2+^W^6+^O_4_
##LOCALITY=Yaogangxian mine, Cheng Zhu City, South Hunan, China
##OWNER=RRUFF
##SOURCE=Rock Currier
##DESCRIPTION=Dark gray tabular crystal
##STATUS=The identification of this mineral has been confirmed by X-ray diffraction and chemical analysis
##URL=rruff.info/R050090
##MEASURED CHEMISTRY=(Fe^2+^_0.56_Mn_0.44_)W_1.00_O_4_
3.991926e+002, 0.000000e+000
4.011211e+002, 2.803175e-001
4.030496e+002, 2.815990e-001
4.049780e+002, 2.884786e-001
4.069065e+002, 2.902848e-001
4.088350e+002, 2.984784e-001
4.107634e+002, 3.073017e-001
4.126919e+002, 3.093181e-001
4.146204e+002, 3.107142e-001
4.165488e+002, 3.041698e-001
4.184773e+002, 2.984759e-001
4.204058e+002, 2.943859e-001
4.223342e+002, 2.893381e-001
4.242627e+002, 2.834547e-001
4.261912e+002, 2.810344e-001
4.281196e+002, 2.836627e-001
4.300481e+002, 2.883100e-001
4.319766e+002, 2.969981e-001
4.339050e+002, 3.069474e-001
4.358335e+002, 3.151779e-001
4.377620e+002, 3.241102e-001
4.396904e+002, 3.306182e-001
4.416189e+002, 3.360312e-001
4.435474e+002, 3.437440e-001
4.454758e+002, 3.503033e-001
4.474043e+002, 3.582626e-001
4.493328e+002, 3.635229e-001
4.512612e+002, 3.665059e-001
4.531897e+002, 3.676755e-001
4.551182e+002, 3.679684e-001
4.570466e+002, 3.682019e-001
4.589751e+002, 3.684134e-001
4.609036e+002, 3.674424e-001
4.628320e+002, 3.657293e-001
4.647605e+002, 3.608834e-001
4.666890e+002, 3.600243e-001
4.686174e+002, 3.610703e-001
4.705459e+002, 3.605818e-001
4.724744e+002, 3.605419e-001
4.744028e+002, 3.644241e-001
4.763313e+002, 3.677062e-001
4.782598e+002, 3.720455e-001
4.801882e+002, 3.783061e-001
4.821167e+002, 3.836720e-001
4.840452e+002, 3.867041e-001
4.859736e+002, 3.894443e-001
4.879021e+002, 3.946382e-001
4.898306e+002, 3.981687e-001
4.917590e+002, 4.003112e-001
4.936875e+002, 4.031357e-001
4.956160e+002, 4.039703e-001
4.975444e+002, 4.050299e-001
4.994729e+002, 4.061763e-001
5.014014e+002, 4.041427e-001
5.033298e+002, 4.004694e-001
5.052583e+002, 3.985929e-001
5.071868e+002, 3.953877e-001
5.091152e+002, 3.932118e-001
5.110437e+002, 3.905825e-001
5.129722e+002, 3.855183e-001
5.149006e+002, 3.830757e-001
5.168291e+002, 3.802654e-001
5.187576e+002, 3.744591e-001
5.206860e+002, 3.689053e-001
5.226145e+002, 3.640647e-001
5.245430e+002, 3.600042e-001
5.264714e+002, 3.573730e-001
5.283999e+002, 3.551225e-001
5.303284e+002, 3.521759e-001
5.322568e+002, 3.493230e-001
5.341853e+002, 3.483820e-001
5.361138e+002, 3.481206e-001
5.380422e+002, 3.482134e-001
5.399707e+002, 3.486368e-001
5.418992e+002, 3.505763e-001
5.438276e+002, 3.519630e-001
5.457561e+002, 3.533645e-001
5.476846e+002, 3.568344e-001
5.496130e+002, 3.601939e-001
5.515415e+002, 3.635895e-001
5.534700e+002, 3.662954e-001
5.553984e+002, 3.699137e-001
5.573269e+002, 3.757731e-001
5.592554e+002, 3.799398e-001
5.611838e+002, 3.832758e-001
5.631123e+002, 3.867657e-001
5.650408e+002, 3.901278e-001
5.669692e+002, 3.944415e-001
5.688977e+002, 3.983893e-001
5.708262e+002, 4.012190e-001
5.727546e+002, 4.040673e-001
5.746831e+002, 4.062020e-001
5.766116e+002, 4.077654e-001
5.785400e+002, 4.095588e-001
5.804685e+002, 4.117903e-001
5.823970e+002, 4.134842e-001
5.843254e+002, 4.129066e-001
5.862539e+002, 4.119255e-001
5.881824e+002, 4.119238e-001
5.901108e+002, 4.128275e-001
5.920393e+002, 4.127786e-001
5.939678e+002, 4.107426e-001
5.958962e+002, 4.087099e-001
5.978247e+002, 4.076517e-001
5.997532e+002, 4.071203e-001
6.016816e+002, 4.050979e-001
6.036101e+002, 4.026436e-001
6.055386e+002, 4.012770e-001
6.074670e+002, 3.997225e-001
6.093955e+002, 3.979807e-001
6.113240e+002, 3.952841e-001
6.132524e+002, 3.927080e-001
6.151809e+002, 3.900644e-001
6.171094e+002, 3.877261e-001
6.190378e+002, 3.849722e-001
6.209663e+002, 3.818437e-001
6.228948e+002, 3.792064e-001
6.248232e+002, 3.766443e-001
6.267517e+002, 3.740749e-001
6.286802e+002, 3.712337e-001
6.306086e+002, 3.678217e-001
6.325371e+002, 3.647205e-001
6.344656e+002, 3.620239e-001
6.363940e+002, 3.579980e-001
6.383225e+002, 3.544276e-001
6.402510e+002, 3.513238e-001
6.421794e+002, 3.481917e-001
6.441079e+002, 3.451659e-001
6.460364e+002, 3.415881e-001
6.479648e+002, 3.381307e-001
6.498933e+002, 3.358111e-001
6.518218e+002, 3.331344e-001
6.537502e+002, 3.295108e-001
6.556787e+002, 3.260389e-001
6.576072e+002, 3.231589e-001
6.595356e+002, 3.200816e-001
6.614641e+002, 3.167267e-001
6.633926e+002, 3.133476e-001
6.653210e+002, 3.102137e-001
6.672495e+002, 3.066561e-001
6.691780e+002, 3.035344e-001
6.711064e+002, 3.005921e-001
6.730349e+002, 2.970498e-001
6.749634e+002, 2.930436e-001
6.768918e+002, 2.891436e-001
6.788203e+002, 2.864974e-001
6.807488e+002, 2.840431e-001
6.826772e+002, 2.810064e-001
6.846057e+002, 2.772252e-001
6.865342e+002, 2.739327e-001
6.884626e+002, 2.713095e-001
6.903911e+002, 2.681130e-001
6.923196e+002, 2.644302e-001
6.942480e+002, 2.613115e-001
6.961765e+002, 2.588800e-001
6.981050e+002, 2.559465e-001
7.000334e+002, 2.530383e-001
7.019619e+002, 2.495544e-001
7.038904e+002, 2.455095e-001
7.058188e+002, 2.415714e-001
7.077473e+002, 2.375322e-001
7.096758e+002, 2.336164e-001
7.116042e+002, 2.296609e-001
7.135327e+002, 2.256467e-001
7.154612e+002, 2.213092e-001
7.173896e+002, 2.168188e-001
7.193181e+002, 2.123398e-001
7.212466e+002, 2.078035e-001
7.231750e+002, 2.034896e-001
7.251035e+002, 1.991308e-001
7.270320e+002, 1.943492e-001
7.289604e+002, 1.895515e-001
7.308889e+002, 1.853083e-001
7.328174e+002, 1.813704e-001
7.347458e+002, 1.772914e-001
7.366743e+002, 1.734506e-001
7.386028e+002, 1.702680e-001
7.405313e+002, 1.675923e-001
7.424597e+002, 1.659611e-001
7.443882e+002, 1.652159e-001
7.463167e+002, 1.649290e-001
7.482451e+002, 1.650020e-001
7.501736e+002, 1.666529e-001
7.521021e+002, 1.697020e-001
7.540305e+002, 1.736379e-001
7.559590e+002, 1.780010e-001
7.578875e+002, 1.825268e-001
7.598159e+002, 1.875503e-001
7.617444e+002, 1.933225e-001
7.636729e+002, 1.990811e-001
7.656013e+002, 2.048472e-001
7.675298e+002, 2.107902e-001
7.694583e+002, 2.165131e-001
7.713867e+002, 2.220941e-001
7.733152e+002, 2.277615e-001
7.752437e+002, 2.331810e-001
7.771721e+002, 2.385149e-001
7.791006e+002, 2.434871e-001
7.810291e+002, 2.481721e-001
7.829575e+002, 2.528080e-001
7.848860e+002, 2.572241e-001
7.868145e+002, 2.609456e-001
7.887429e+002, 2.643143e-001
7.906714e+002, 2.676918e-001
7.925999e+002, 2.703812e-001
7.945283e+002, 2.726284e-001
7.964568e+002, 2.742916e-001
7.983853e+002, 2.755297e-001
8.003137e+002, 2.763232e-001
8.022422e+002, 2.767325e-001
8.041707e+002, 2.772158e-001
8.060991e+002, 2.768023e-001
8.080276e+002, 2.759555e-001
8.099561e+002, 2.748255e-001
8.118845e+002, 2.729799e-001
8.138130e+002, 2.711838e-001
8.157415e+002, 2.686212e-001
8.176699e+002, 2.653575e-001
8.195984e+002, 2.622558e-001
8.215269e+002, 2.593089e-001
8.234553e+002, 2.556322e-001
8.253838e+002, 2.517528e-001
8.273123e+002, 2.482299e-001
8.292407e+002, 2.444245e-001
8.311692e+002, 2.397416e-001
8.330977e+002, 2.351339e-001
8.350261e+002, 2.310578e-001
8.369546e+002, 2.268819e-001
8.388831e+002, 2.219975e-001
8.408115e+002, 2.176293e-001
8.427400e+002, 2.136627e-001
8.446685e+002, 2.096276e-001
8.465969e+002, 2.057178e-001
8.485254e+002, 2.019394e-001
8.504539e+002, 1.986385e-001
8.523823e+002, 1.954560e-001
8.543108e+002, 1.920891e-001
8.562393e+002, 1.882778e-001
8.581677e+002, 1.843285e-001
8.600962e+002, 1.799974e-001
8.620247e+002, 1.752661e-001
8.639531e+002, 1.700418e-001
8.658816e+002, 1.644070e-001
8.678101e+002, 1.580722e-001
8.697385e+002, 1.510946e-001
8.716670e+002, 1.436898e-001
8.735955e+002, 1.358586e-001
8.755239e+002, 1.276282e-001
8.774524e+002, 1.190571e-001
8.793809e+002, 1.099352e-001
8.813093e+002, 1.006928e-001
8.832378e+002, 9.153033e-002
8.851663e+002, 8.216475e-002
8.870947e+002, 7.330278e-002
8.890232e+002, 6.491028e-002
8.909517e+002, 5.678588e-002
8.928801e+002, 4.969776e-002
8.948085e+002, 4.399936e-002
8.967370e+002, 3.930877e-002
8.986655e+002, 3.573355e-002
9.005939e+002, 3.323729e-002
9.025224e+002, 3.146051e-002
9.044509e+002, 3.011178e-002
9.063793e+002, 2.889315e-002
9.083078e+002, 2.819177e-002
9.102363e+002, 2.780901e-002
9.121647e+002, 2.719619e-002
9.140932e+002, 2.656955e-002
9.160217e+002, 2.615430e-002
9.179501e+002, 2.585164e-002
9.198786e+002, 2.552323e-002
9.218071e+002, 2.527775e-002
9.237355e+002, 2.533037e-002
9.256640e+002, 2.552379e-002
9.275925e+002, 2.547044e-002
9.295209e+002, 2.532311e-002
9.314494e+002, 2.516473e-002
9.333779e+002, 2.508537e-002
9.353063e+002, 2.487298e-002
9.372348e+002, 2.446541e-002
9.391633e+002, 2.398292e-002
9.410917e+002, 2.339982e-002
9.430202e+002, 2.312632e-002
9.449487e+002, 2.316746e-002
9.468771e+002, 2.303633e-002
9.488056e+002, 2.273102e-002
9.507341e+002, 2.247115e-002
9.526625e+002, 2.225407e-002
9.545910e+002, 2.213396e-002
9.565195e+002, 2.187556e-002
9.584479e+002, 2.159572e-002
9.603764e+002, 2.134844e-002
9.623049e+002, 2.101174e-002
9.642333e+002, 2.061960e-002
9.661618e+002, 2.041364e-002
9.680903e+002, 2.022127e-002
9.700187e+002, 2.021935e-002
9.719472e+002, 2.024580e-002
9.738757e+002, 2.007465e-002
9.758041e+002, 1.988814e-002
9.777326e+002, 1.978948e-002
9.796611e+002, 1.970840e-002
9.815895e+002, 1.962214e-002
9.835180e+002, 1.963691e-002
9.854465e+002, 1.960824e-002
9.873749e+002, 1.947998e-002
9.893034e+002, 1.945969e-002
9.912319e+002, 1.938782e-002
9.931603e+002, 1.947992e-002
9.950888e+002, 1.952257e-002
9.970173e+002, 1.940535e-002
9.989457e+002, 1.928558e-002
1.000874e+003, 1.940705e-002
1.002803e+003, 1.964209e-002
1.004731e+003, 1.981681e-002
1.006660e+003, 1.985854e-002
1.008588e+003, 1.980117e-002
1.010517e+003, 1.987426e-002
1.012445e+003, 2.001978e-002
1.014373e+003, 2.005791e-002
1.016302e+003, 2.029084e-002
1.018230e+003, 2.054317e-002
1.020159e+003, 2.055572e-002
1.022087e+003, 2.058678e-002
1.024016e+003, 2.079887e-002
1.025944e+003, 2.089934e-002
1.027873e+003, 2.083815e-002
1.029801e+003, 2.107022e-002
1.031730e+003, 2.134466e-002
1.033658e+003, 2.128849e-002
1.035587e+003, 2.130447e-002
1.037515e+003, 2.156000e-002
1.039444e+003, 2.165948e-002
1.041372e+003, 2.158962e-002
1.043301e+003, 2.157482e-002
1.045229e+003, 2.193172e-002
1.047157e+003, 2.230925e-002
1.049086e+003, 2.227509e-002
1.051014e+003, 2.234621e-002
1.052943e+003, 2.259211e-002
1.054871e+003, 2.268086e-002
1.056800e+003, 2.276338e-002
1.058728e+003, 2.290583e-002
1.060657e+003, 2.312773e-002
1.062585e+003, 2.326955e-002
1.064514e+003, 2.326559e-002
1.066442e+003, 2.343785e-002
1.068371e+003, 2.357930e-002
1.070299e+003, 2.375003e-002
1.072228e+003, 2.400869e-002
1.074156e+003, 2.411018e-002
1.076084e+003, 2.421134e-002
1.078013e+003, 2.424097e-002
1.079941e+003, 2.413976e-002
1.081870e+003, 2.432950e-002
1.083798e+003, 2.475382e-002
1.085727e+003, 2.499853e-002
1.087655e+003, 2.511293e-002
1.089584e+003, 2.537603e-002
1.091512e+003, 2.565590e-002
1.093441e+003, 2.575939e-002
1.095369e+003, 2.607264e-002
1.097298e+003, 2.645707e-002
1.099226e+003, 2.668985e-002
1.101155e+003, 2.683247e-002
1.103083e+003, 2.694952e-002
1.105011e+003, 2.720029e-002
1.106940e+003, 2.743537e-002
1.108868e+003, 2.767447e-002
1.110797e+003, 2.806476e-002
1.112725e+003, 2.851644e-002
1.114654e+003, 2.861792e-002
1.116582e+003, 2.885690e-002
1.118511e+003, 2.922260e-002
1.120439e+003, 2.952511e-002
1.122368e+003, 2.968947e-002
1.124296e+003, 2.990939e-002
1.126225e+003, 3.025338e-002
1.128153e+003, 3.060611e-002
1.130082e+003, 3.099013e-002
1.132010e+003, 3.124472e-002
1.133938e+003, 3.135758e-002
1.135867e+003, 3.158887e-002
1.137795e+003, 3.205333e-002
1.139724e+003, 3.249708e-002
1.141652e+003, 3.273958e-002
1.143581e+003, 3.291953e-002
1.145509e+003, 3.330937e-002
1.147438e+003, 3.351396e-002
1.149366e+003, 3.369601e-002
1.151295e+003, 3.396351e-002
1.153223e+003, 3.429122e-002
1.155152e+003, 3.464366e-002
1.157080e+003, 3.478093e-002
1.159009e+003, 3.503270e-002
1.160937e+003, 3.537925e-002
1.162865e+003, 3.557561e-002
1.164794e+003, 3.568274e-002
1.166722e+003, 3.571639e-002
1.168651e+003, 3.589817e-002
1.170579e+003, 3.621275e-002
1.172508e+003, 3.636613e-002
1.174436e+003, 3.643477e-002
1.176365e+003, 3.669947e-002
1.178293e+003, 3.697113e-002
1.180222e+003, 3.698700e-002
1.182150e+003, 3.707194e-002
1.184079e+003, 3.737427e-002
1.186007e+003, 3.751564e-002
1.187936e+003, 3.775395e-002
1.189864e+003, 3.821013e-002
1.191792e+003, 3.840249e-002
1.193721e+003, 3.851245e-002
1.195649e+003, 3.877285e-002
1.197578e+003, 3.890193e-002
1.199506e+003, 3.910071e-002
1.201435e+003, 3.925995e-002
1.203363e+003, 3.956081e-002
1.205292e+003, 3.998154e-002
1.207220e+003, 4.014142e-002
1.209149e+003, 4.034464e-002
1.211077e+003, 4.052489e-002
1.213006e+003, 4.062913e-002
1.214934e+003, 4.078064e-002
1.216863e+003, 4.111890e-002
1.218791e+003, 4.156959e-002
1.220719e+003, 4.183232e-002
1.222648e+003, 4.201865e-002
1.224576e+003, 4.230287e-002
1.226505e+003, 4.270680e-002
1.228433e+003, 4.321130e-002
1.230362e+003, 4.349774e-002
1.232290e+003, 4.377928e-002
1.234219e+003, 4.401597e-002
1.236147e+003, 4.422496e-002
1.238076e+003, 4.464114e-002
1.240004e+003, 4.515572e-002
1.241933e+003, 4.553184e-002
1.243861e+003, 4.585947e-002
1.245790e+003, 4.619684e-002
1.247718e+003, 4.644289e-002
1.249646e+003, 4.670224e-002
1.251575e+003, 4.724919e-002
1.253503e+003, 4.770761e-002
1.255432e+003, 4.802755e-002
1.257360e+003, 4.813283e-002
1.259289e+003, 4.850031e-002
1.261217e+003, 4.927385e-002
1.263146e+003, 4.964915e-002
1.265074e+003, 4.972003e-002
1.267003e+003, 5.027153e-002
1.268931e+003, 5.068379e-002
1.270860e+003, 5.103756e-002
1.272788e+003, 5.157141e-002
1.274717e+003, 5.214210e-002
1.276645e+003, 5.260269e-002
1.278573e+003, 5.290999e-002
1.280502e+003, 5.319352e-002
1.282430e+003, 5.366419e-002
1.284359e+003, 5.415660e-002
1.286287e+003, 5.438183e-002
1.288216e+003, 5.475325e-002
1.290144e+003, 5.510530e-002
1.292073e+003, 5.540702e-002
1.294001e+003, 5.576346e-002
1.295930e+003, 5.620631e-002
1.297858e+003, 5.654541e-002
1.299787e+003, 5.662378e-002
1.301715e+003, 5.697558e-002
1.303644e+003, 5.760571e-002
1.305572e+003, 5.810888e-002
1.307500e+003, 5.831981e-002
1.309429e+003, 5.859157e-002
1.311357e+003, 5.905726e-002
1.313286e+003, 5.935119e-002
1.315214e+003, 5.949489e-002
1.317143e+003, 5.978975e-002
1.319071e+003, 6.027624e-002
1.321000e+003, 6.070548e-002
1.322928e+003, 6.103868e-002
1.324857e+003, 6.130788e-002
1.326785e+003, 6.167544e-002
1.328714e+003, 6.215292e-002
1.330642e+003, 6.252369e-002
1.332571e+003, 6.287960e-002
1.334499e+003, 6.319765e-002
1.336427e+003, 6.357758e-002
1.338356e+003, 6.399196e-002
1.340284e+003, 6.429499e-002
1.342213e+003, 6.458376e-002
1.344141e+003, 6.478141e-002
1.346070e+003, 6.489433e-002
1.347998e+003, 6.520043e-002
1.349927e+003, 6.563287e-002
1.351855e+003, 6.597614e-002
1.353784e+003, 6.629043e-002
1.355712e+003, 6.652371e-002
1.357641e+003, 6.673171e-002
1.359569e+003, 6.717134e-002
1.361498e+003, 6.753435e-002
1.363426e+003, 6.769766e-002
1.365354e+003, 6.793048e-002
1.367283e+003, 6.827905e-002
1.369211e+003, 6.868567e-002
1.371140e+003, 6.900926e-002
1.373068e+003, 6.932475e-002
1.374997e+003, 6.969172e-002
1.376925e+003, 7.016015e-002
1.378854e+003, 7.055332e-002
1.380782e+003, 7.088292e-002
1.382711e+003, 7.098978e-002
1.384639e+003, 7.115876e-002
1.386568e+003, 7.169461e-002
1.388496e+003, 7.198516e-002
1.390424e+003, 7.226544e-002
1.392353e+003, 7.269926e-002
1.394281e+003, 7.307657e-002
1.396210e+003, 7.330213e-002
1.398138e+003, 7.392038e-002
1.400067e+003, 7.427122e-002
1.401995e+003, 7.448725e-002
1.403924e+003, 7.454619e-002
1.405852e+003, 7.490963e-002
1.407781e+003, 7.558526e-002
1.409709e+003, 7.625858e-002
1.411638e+003, 7.658696e-002
1.413566e+003, 7.659098e-002
1.415495e+003, 7.667445e-002
1.417423e+003, 7.696897e-002
1.419351e+003, 7.733457e-002
1.421280e+003, 7.787216e-002
1.423208e+003, 7.810767e-002
1.425137e+003, 7.839131e-002
1.427065e+003, 7.892674e-002
1.428994e+003, 7.925754e-002
1.430922e+003, 7.944627e-002
1.432851e+003, 7.959995e-002
1.434779e+003, 7.975352e-002
1.436708e+003, 8.012061e-002
1.438636e+003, 8.069593e-002
1.440565e+003, 8.105830e-002
1.442493e+003, 8.109372e-002
1.444422e+003, 8.131377e-002
1.446350e+003, 8.160300e-002
1.448278e+003, 8.180653e-002
1.450207e+003, 8.201481e-002
1.452135e+003, 8.214361e-002
1.454064e+003, 8.256918e-002
1.455992e+003, 8.262568e-002
1.457921e+003, 8.249898e-002
1.459849e+003, 8.335324e-002
1.461778e+003, 8.396851e-002
1.463706e+003, 8.413332e-002
1.465635e+003, 8.403674e-002
1.467563e+003, 8.433464e-002
1.469492e+003, 8.448674e-002
1.471420e+003, 8.452782e-002
1.473349e+003, 8.460040e-002
1.475277e+003, 8.510369e-002
1.477205e+003, 8.544425e-002
1.479134e+003, 8.580440e-002
1.481062e+003, 8.590490e-002
1.482991e+003, 8.617698e-002
1.484919e+003, 8.645053e-002
1.486848e+003, 8.678247e-002
1.488776e+003, 8.719175e-002
1.490705e+003, 8.731105e-002
1.492633e+003, 8.791845e-002
1.494562e+003, 8.861083e-002
1.496490e+003, 8.885556e-002
1.498419e+003, 8.909670e-002
1.500347e+003, 8.956759e-002
1.502276e+003, 9.004378e-002
1.504204e+003, 9.022279e-002
1.506132e+003, 9.009933e-002
1.508061e+003, 9.059899e-002
1.509989e+003, 9.147095e-002
1.511918e+003, 9.180669e-002
1.513846e+003, 9.227762e-002
1.515775e+003, 9.287853e-002
1.517703e+003, 9.328312e-002
1.519632e+003, 9.371540e-002
1.521560e+003, 9.375470e-002
1.523489e+003, 9.439277e-002
1.525417e+003, 9.514839e-002
1.527346e+003, 9.587878e-002
1.529274e+003, 9.627612e-002
1.531203e+003, 9.654655e-002
1.533131e+003, 9.682333e-002
1.535059e+003, 9.737853e-002
1.536988e+003, 9.786476e-002
1.538916e+003, 9.773245e-002
1.540845e+003, 9.805925e-002
1.542773e+003, 9.918467e-002
1.544702e+003, 9.991883e-002
1.546630e+003, 1.002864e-001
1.548559e+003, 1.007471e-001
1.550487e+003, 1.010267e-001
1.552416e+003, 1.015114e-001
1.554344e+003, 1.017443e-001
1.556273e+003, 1.023468e-001
1.558201e+003, 1.022554e-001
1.560130e+003, 1.024906e-001
1.562058e+003, 1.038386e-001
1.563986e+003, 1.044737e-001
1.565915e+003, 1.046188e-001
1.567843e+003, 1.052366e-001
1.569772e+003, 1.056993e-001
1.571700e+003, 1.061290e-001
1.573629e+003, 1.062742e-001
1.575557e+003, 1.064090e-001
1.577486e+003, 1.068217e-001
1.579414e+003, 1.077634e-001
1.581343e+003, 1.081442e-001
1.583271e+003, 1.084645e-001
1.585200e+003, 1.086431e-001
1.587128e+003, 1.089824e-001
1.589057e+003, 1.093921e-001
1.590985e+003, 1.096512e-001
1.592913e+003, 1.101321e-001
1.594842e+003, 1.108010e-001
1.596770e+003, 1.112173e-001
1.598699e+003, 1.115405e-001
1.600627e+003, 1.120687e-001
1.602556e+003, 1.124984e-001
1.604484e+003, 1.127039e-001
1.606413e+003, 1.129888e-001
1.608341e+003, 1.134312e-001
1.610270e+003, 1.137131e-001
1.612198e+003, 1.139876e-001
1.614127e+003, 1.144628e-001
1.616055e+003, 1.149342e-001
1.617984e+003, 1.152040e-001
1.619912e+003, 1.160206e-001
1.621840e+003, 1.166061e-001
1.623769e+003, 1.167709e-001
1.625697e+003, 1.169855e-001
1.627626e+003, 1.174448e-001
1.629554e+003, 1.177466e-001
1.631483e+003, 1.178370e-001
1.633411e+003, 1.182422e-001
1.635340e+003, 1.184783e-001
1.637268e+003, 1.186398e-001
1.639197e+003, 1.190631e-001
1.641125e+003, 1.195026e-001
1.643054e+003, 1.197254e-001
1.644982e+003, 1.196679e-001
1.646911e+003, 1.191906e-001
1.648839e+003, 1.194192e-001
1.650767e+003, 1.198288e-001
1.652696e+003, 1.190816e-001
1.654624e+003, 1.189441e-001
1.656553e+003, 1.195590e-001
1.658481e+003, 1.196814e-001
1.660410e+003, 1.197785e-001
1.662338e+003, 1.196195e-001
1.664267e+003, 1.197130e-001
1.666195e+003, 1.200688e-001
1.668124e+003, 1.198920e-001
1.670052e+003, 1.195375e-001
1.671981e+003, 1.198269e-001
1.673909e+003, 1.199947e-001
1.675838e+003, 1.197494e-001
1.677766e+003, 1.200787e-001
1.679694e+003, 1.204662e-001
1.681623e+003, 1.205453e-001
1.683551e+003, 1.204684e-001
1.685480e+003, 1.205178e-001
1.687408e+003, 1.211197e-001
1.689337e+003, 1.211998e-001
1.691265e+003, 1.215551e-001
1.693194e+003, 1.215604e-001
1.695122e+003, 1.215639e-001
1.697051e+003, 1.217640e-001
1.698979e+003, 1.222525e-001
1.700908e+003, 1.218188e-001
1.702836e+003, 1.227207e-001
1.704765e+003, 1.231317e-001
1.706693e+003, 1.234879e-001
1.708621e+003, 1.235333e-001
1.710550e+003, 1.237301e-001
1.712478e+003, 1.240733e-001
1.714407e+003, 1.239980e-001
1.716335e+003, 1.240229e-001
1.718264e+003, 1.241777e-001
1.720192e+003, 1.248728e-001
1.722121e+003, 1.253910e-001
1.724049e+003, 1.256172e-001
1.725978e+003, 1.258794e-001
1.727906e+003, 1.264140e-001
1.729835e+003, 1.265381e-001
1.731763e+003, 1.263686e-001
1.733692e+003, 1.259019e-001
1.735620e+003, 1.260819e-001
1.737548e+003, 1.267055e-001
1.739477e+003, 1.266232e-001
1.741405e+003, 1.265633e-001
1.743334e+003, 1.265718e-001
1.745262e+003, 1.267076e-001
1.747191e+003, 1.270722e-001
1.749119e+003, 1.271811e-001
1.751048e+003, 1.270704e-001
1.752976e+003, 1.275340e-001
1.754905e+003, 1.280795e-001
1.756833e+003, 1.281740e-001
1.758762e+003, 1.284541e-001
1.760690e+003, 1.287987e-001
1.762619e+003, 1.287434e-001
1.764547e+003, 1.290126e-001
1.766475e+003, 1.291696e-001
1.768404e+003, 1.292658e-001
1.770332e+003, 1.298304e-001
1.772261e+003, 1.296978e-001
1.774189e+003, 1.293124e-001
1.776118e+003, 1.296249e-001
1.778046e+003, 1.305142e-001
1.779975e+003, 1.307146e-001
1.781903e+003, 1.304601e-001
1.783832e+003, 1.305280e-001
1.785760e+003, 1.308340e-001
1.787689e+003, 1.315425e-001
1.789617e+003, 1.316982e-001
1.791546e+003, 1.316645e-001
1.793474e+003, 1.321708e-001
1.795402e+003, 1.327394e-001
1.797331e+003, 1.330128e-001
1.799259e+003, 1.334490e-001
1.801188e+003, 1.336243e-001
1.803116e+003, 1.337305e-001
1.805045e+003, 1.340199e-001
1.806973e+003, 1.344817e-001
1.808902e+003, 1.349194e-001
1.810830e+003, 1.351658e-001
1.812759e+003, 1.353071e-001
1.814687e+003, 1.353824e-001
1.816616e+003, 1.355203e-001
1.818544e+003, 1.358247e-001
1.820473e+003, 1.364727e-001
1.822401e+003, 1.373844e-001
1.824329e+003, 1.372880e-001
1.826258e+003, 1.370195e-001
1.828186e+003, 1.379410e-001
1.830115e+003, 1.385481e-001
1.832043e+003, 1.386337e-001
1.833972e+003, 1.390945e-001
1.835900e+003, 1.397007e-001
1.837829e+003, 1.400168e-001
1.839757e+003, 1.402036e-001
1.841686e+003, 1.405094e-001
1.843614e+003, 1.409135e-001
1.845543e+003, 1.412467e-001
1.847471e+003, 1.414672e-001
1.849400e+003, 1.413303e-001
1.851328e+003, 1.415044e-001
1.853256e+003, 1.420463e-001
1.855185e+003, 1.422396e-001
1.857113e+003, 1.424529e-001
1.859042e+003, 1.431134e-001
1.860970e+003, 1.433661e-001
1.862899e+003, 1.435145e-001
1.864827e+003, 1.439690e-001
1.866756e+003, 1.441378e-001
1.868684e+003, 1.446785e-001
1.870613e+003, 1.456518e-001
1.872541e+003, 1.457453e-001
1.874470e+003, 1.458288e-001
1.876398e+003, 1.463640e-001
1.878327e+003, 1.461288e-001
1.880255e+003, 1.465162e-001
1.882183e+003, 1.474367e-001
1.884112e+003, 1.475573e-001
1.886040e+003, 1.474267e-001
1.887969e+003, 1.477983e-001
1.889897e+003, 1.481164e-001
1.891826e+003, 1.484282e-001
1.893754e+003, 1.482848e-001
1.895683e+003, 1.482228e-001
1.897611e+003, 1.487002e-001
1.899540e+003, 1.496100e-001
1.901468e+003, 1.495879e-001
1.903397e+003, 1.503486e-001
1.905325e+003, 1.516188e-001
1.907254e+003, 1.516557e-001
1.909182e+003, 1.516856e-001
1.911110e+003, 1.520313e-001
1.913039e+003, 1.517555e-001
1.914967e+003, 1.518580e-001
1.916896e+003, 1.528154e-001
1.918824e+003, 1.535215e-001
1.920753e+003, 1.536873e-001
1.922681e+003, 1.540239e-001
1.924610e+003, 1.547649e-001
1.926538e+003, 1.548215e-001
1.928467e+003, 1.551383e-001
1.930395e+003, 1.553320e-001
1.932324e+003, 1.553734e-001
1.934252e+003, 1.559054e-001
1.936181e+003, 1.567465e-001
1.938109e+003, 1.563095e-001
1.940037e+003, 1.565553e-001
1.941966e+003, 1.573074e-001
1.943894e+003, 1.575168e-001
1.945823e+003, 1.577411e-001
1.947751e+003, 1.579871e-001
1.949680e+003, 1.586146e-001
1.951608e+003, 1.586283e-001
1.953537e+003, 1.571703e-001
1.955465e+003, 1.564045e-001
1.957394e+003, 1.577552e-001
1.959322e+003, 1.590484e-001
1.961251e+003, 1.591806e-001
1.963179e+003, 1.585452e-001
1.965108e+003, 1.586000e-001
1.967036e+003, 1.590921e-001
1.968964e+003, 1.594592e-001
1.970893e+003, 1.612278e-001
1.972821e+003, 1.623518e-001
1.974750e+003, 1.627649e-001
1.976678e+003, 1.647914e-001
1.978607e+003, 1.669110e-001
1.980535e+003, 1.665461e-001
1.982464e+003, 1.643863e-001
1.984392e+003, 1.636706e-001
1.986321e+003, 1.648156e-001
1.988249e+003, 1.665880e-001
1.990178e+003, 1.662698e-001
1.992106e+003, 1.659718e-001
1.994035e+003, 1.675518e-001
1.995963e+003, 1.670190e-001
1.997891e+003, 1.664675e-001
1.999820e+003, 1.662927e-001
2.001748e+003, 1.642081e-001
2.003677e+003, 1.643849e-001
2.005605e+003, 1.661104e-001
2.007534e+003, 1.658330e-001
2.009462e+003, 1.661657e-001
2.011391e+003, 1.679020e-001
2.013319e+003, 1.689395e-001
2.015248e+003, 1.691553e-001
2.017176e+003, 1.701378e-001
2.019105e+003, 1.712492e-001
2.021033e+003, 1.694115e-001
2.022962e+003, 1.663337e-001
2.024890e+003, 1.671591e-001
2.026818e+003, 1.702804e-001
2.028747e+003, 1.706123e-001
2.030675e+003, 1.703614e-001
2.032604e+003, 1.706962e-001
2.034532e+003, 1.716112e-001
2.036461e+003, 1.720013e-001
2.038389e+003, 1.697683e-001
2.040318e+003, 1.698265e-001
2.042246e+003, 1.711553e-001
2.044175e+003, 1.705219e-001
2.046103e+003, 1.705898e-001
2.048032e+003, 1.708732e-001
2.049960e+003, 1.714215e-001
2.051889e+003, 1.715948e-001
2.053817e+003, 1.719335e-001
2.055746e+003, 1.720744e-001
2.057674e+003, 1.722003e-001
2.059603e+003, 1.731417e-001
2.061531e+003, 1.729833e-001
2.063459e+003, 1.732368e-001
2.065388e+003, 1.738422e-001
2.067316e+003, 1.740221e-001
2.069245e+003, 1.736382e-001
2.071173e+003, 1.741573e-001
2.073102e+003, 1.749658e-001
2.075030e+003, 1.757551e-001
2.076959e+003, 1.760555e-001
2.078887e+003, 1.765495e-001
2.080816e+003, 1.769949e-001
2.082744e+003, 1.763169e-001
2.084673e+003, 1.758430e-001
2.086601e+003, 1.767569e-001
2.088530e+003, 1.764199e-001
2.090458e+003, 1.760614e-001
2.092386e+003, 1.765331e-001
2.094315e+003, 1.783513e-001
2.096243e+003, 1.796569e-001
2.098172e+003, 1.793430e-001
2.100100e+003, 1.787287e-001
2.102029e+003, 1.785933e-001
2.103957e+003, 1.798681e-001
2.105886e+003, 1.798566e-001
2.107814e+003, 1.795437e-001
2.109743e+003, 1.797750e-001
2.111671e+003, 1.800675e-001
2.113600e+003, 1.808633e-001
2.115528e+003, 1.812317e-001
2.117457e+003, 1.800098e-001
2.119385e+003, 1.799931e-001
2.121313e+003, 1.809643e-001
2.123242e+003, 1.810262e-001
2.125170e+003, 1.802284e-001
2.127099e+003, 1.801047e-001
2.129027e+003, 1.795255e-001
2.130956e+003, 1.792574e-001
2.132884e+003, 1.789501e-001
2.134813e+003, 1.794538e-001
2.136741e+003, 1.816360e-001
2.138670e+003, 1.824097e-001
2.140598e+003, 1.810420e-001
2.142527e+003, 1.802254e-001
2.144455e+003, 1.825477e-001
2.146384e+003, 1.836015e-001
2.148312e+003, 1.822058e-001
2.150240e+003, 1.822078e-001
2.152169e+003, 1.831511e-001
2.154097e+003, 1.814999e-001
2.156026e+003, 1.797092e-001
2.157954e+003, 1.818877e-001
2.159883e+003, 1.882199e-001
2.161811e+003, 1.901084e-001
2.163740e+003, 1.894260e-001
2.165668e+003, 1.882337e-001
2.167597e+003, 1.880840e-001
2.169525e+003, 1.897164e-001
2.171454e+003, 1.905164e-001
2.173382e+003, 1.885713e-001
2.175311e+003, 1.892638e-001
2.177239e+003, 1.912806e-001
2.179167e+003, 1.901637e-001
2.181096e+003, 1.895716e-001
2.183024e+003, 1.926061e-001
2.184953e+003, 1.928213e-001
2.186881e+003, 1.908181e-001
2.188810e+003, 1.903810e-001
2.190738e+003, 1.907623e-001
2.192667e+003, 1.901402e-001
2.194595e+003, 1.895029e-001
2.196524e+003, 1.915184e-001
2.198452e+003, 1.923931e-001
2.200381e+003, 1.925514e-001
2.202309e+003, 1.929409e-001
2.204238e+003, 1.918415e-001
2.206166e+003, 1.918327e-001
2.208094e+003, 1.935750e-001
2.210023e+003, 1.944904e-001
2.211951e+003, 1.933347e-001
2.213880e+003, 1.927547e-001
2.215808e+003, 1.938032e-001
2.217737e+003, 1.932964e-001
2.219665e+003, 1.934893e-001
2.221594e+003, 1.934444e-001
2.223522e+003, 1.934976e-001
2.225451e+003, 1.944898e-001
2.227379e+003, 1.950880e-001
2.229308e+003, 1.960729e-001
2.231236e+003, 1.961221e-001
2.233165e+003, 1.951452e-001
2.235093e+003, 1.950125e-001
2.237021e+003, 1.962002e-001
2.238950e+003, 1.959661e-001
2.240878e+003, 1.953416e-001
2.242807e+003, 1.958107e-001
2.244735e+003, 1.956104e-001
2.246664e+003, 1.952114e-001
2.248592e+003, 1.951434e-001
2.250521e+003, 1.958195e-001
2.252449e+003, 1.965671e-001
2.254378e+003, 1.975044e-001
2.256306e+003, 1.976991e-001
2.258235e+003, 1.975544e-001
2.260163e+003, 1.971233e-001
2.262092e+003, 1.967920e-001
2.264020e+003, 1.979079e-001
2.265948e+003, 1.992924e-001
2.267877e+003, 1.986556e-001
2.269805e+003, 1.980362e-001
2.271734e+003, 1.985444e-001
2.273662e+003, 1.992063e-001
2.275591e+003, 1.993365e-001
2.277519e+003, 1.994866e-001
2.279448e+003, 1.993155e-001
2.281376e+003, 1.998083e-001
2.283305e+003, 2.006347e-001
2.285233e+003, 2.005527e-001
2.287162e+003, 2.006308e-001
2.289090e+003, 2.002230e-001
2.291019e+003, 1.999918e-001
2.292947e+003, 2.004956e-001
2.294875e+003, 2.017112e-001
2.296804e+003, 2.017381e-001
2.298732e+003, 2.014733e-001
2.300661e+003, 2.013801e-001
2.302589e+003, 2.018978e-001
2.304518e+003, 2.021407e-001
2.306446e+003, 2.015886e-001
2.308375e+003, 2.016722e-001
2.310303e+003, 2.023414e-001
2.312232e+003, 2.028200e-001
2.314160e+003, 2.037129e-001
2.316089e+003, 2.039552e-001
2.318017e+003, 2.042690e-001
2.319946e+003, 2.050508e-001
2.321874e+003, 2.057626e-001
2.323802e+003, 2.057403e-001
2.325731e+003, 2.048067e-001
2.327659e+003, 2.042862e-001
2.329588e+003, 2.040885e-001
2.331516e+003, 2.042724e-001
2.333445e+003, 2.046732e-001
2.335373e+003, 2.043821e-001
2.337302e+003, 2.044572e-001
2.339230e+003, 2.048654e-001
2.341159e+003, 2.051018e-001
2.343087e+003, 2.051074e-001
2.345016e+003, 2.045742e-001
2.346944e+003, 2.046263e-001
2.348873e+003, 2.050119e-001
2.350801e+003, 2.056813e-001
2.352729e+003, 2.065619e-001
2.354658e+003, 2.073620e-001
2.356586e+003, 2.073998e-001
2.358515e+003, 2.075221e-001
2.360443e+003, 2.077287e-001
2.362372e+003, 2.077029e-001
2.364300e+003, 2.081716e-001
2.366229e+003, 2.090237e-001
2.368157e+003, 2.092157e-001
2.370086e+003, 2.086544e-001
2.372014e+003, 2.081146e-001
2.373942e+003, 2.083344e-001
2.375871e+003, 2.086505e-001
2.377799e+003, 2.087058e-001
2.379728e+003, 2.086774e-001
2.381656e+003, 2.083131e-001
2.383585e+003, 2.082950e-001
2.385513e+003, 2.087443e-001
2.387442e+003, 2.092411e-001
2.389370e+003, 2.098650e-001
2.391299e+003, 2.102286e-001
2.393227e+003, 2.104959e-001
2.395156e+003, 2.107356e-001
2.397084e+003, 2.110272e-001
2.399012e+003, 2.110443e-001
2.400941e+003, 2.109264e-001
2.402869e+003, 2.114003e-001
2.404798e+003, 2.120640e-001
2.406726e+003, 2.117319e-001
2.408655e+003, 2.121677e-001
2.410583e+003, 2.135122e-001
2.412512e+003, 2.137209e-001
2.414440e+003, 2.132981e-001
2.416369e+003, 2.136421e-001
2.418297e+003, 2.139889e-001
2.420226e+003, 2.138736e-001
2.422154e+003, 2.136634e-001
2.424083e+003, 2.144355e-001
2.426011e+003, 2.149568e-001
2.427939e+003, 2.144425e-001
2.429868e+003, 2.144011e-001
2.431796e+003, 2.147426e-001
2.433725e+003, 2.146786e-001
2.435653e+003, 2.149418e-001
2.437582e+003, 2.154724e-001
2.439510e+003, 2.165713e-001
2.441439e+003, 2.172252e-001
2.443367e+003, 2.169098e-001
2.445296e+003, 2.166849e-001
2.447224e+003, 2.175936e-001
2.449153e+003, 2.181401e-001
2.451081e+003, 2.175895e-001
2.453010e+003, 2.178744e-001
2.454938e+003, 2.187662e-001
2.456866e+003, 2.193575e-001
2.458795e+003, 2.198755e-001
2.460723e+003, 2.190024e-001
2.462652e+003, 2.184620e-001
2.464580e+003, 2.188596e-001
2.466509e+003, 2.194583e-001
2.468437e+003, 2.199318e-001
2.470366e+003, 2.198707e-001
2.472294e+003, 2.194539e-001
2.474223e+003, 2.197596e-001
2.476151e+003, 2.210609e-001
2.478080e+003, 2.210424e-001
2.480008e+003, 2.203904e-001
2.481937e+003, 2.207838e-001
2.483865e+003, 2.201695e-001
2.485793e+003, 2.205538e-001
2.487722e+003, 2.222842e-001
2.489650e+003, 2.226766e-001
2.491579e+003, 2.226366e-001
2.493507e+003, 2.223820e-001
2.495436e+003, 2.215251e-001
2.497364e+003, 2.217892e-001
2.499293e+003, 2.224401e-001
2.501221e+003, 2.219600e-001
2.503150e+003, 2.224551e-001
2.505078e+003, 2.232374e-001
2.507007e+003, 2.233792e-001
2.508935e+003, 2.236753e-001
2.510864e+003, 2.241198e-001
2.512792e+003, 2.249553e-001
2.514720e+003, 2.252078e-001
2.516649e+003, 2.249892e-001
2.518577e+003, 2.251172e-001
2.520506e+003, 2.255913e-001
2.522434e+003, 2.259198e-001
2.524363e+003, 2.260375e-001
2.526291e+003, 2.262891e-001
2.528220e+003, 2.272359e-001
2.530148e+003, 2.274521e-001
2.532077e+003, 2.268624e-001
2.534005e+003, 2.266070e-001
2.535934e+003, 2.270034e-001
2.537862e+003, 2.272583e-001
2.539791e+003, 2.276497e-001
2.541719e+003, 2.276264e-001
2.543647e+003, 2.275767e-001
2.545576e+003, 2.274645e-001
2.547504e+003, 2.278998e-001
2.549433e+003, 2.279128e-001
2.551361e+003, 2.274906e-001
2.553290e+003, 2.284821e-001
2.555218e+003, 2.296075e-001
2.557147e+003, 2.286628e-001
2.559075e+003, 2.280885e-001
2.561004e+003, 2.291520e-001
2.562932e+003, 2.297395e-001
2.564861e+003, 2.300038e-001
2.566789e+003, 2.300997e-001
2.568718e+003, 2.305037e-001
2.570646e+003, 2.306741e-001
2.572574e+003, 2.309860e-001
2.574503e+003, 2.315531e-001
2.576431e+003, 2.312000e-001
2.578360e+003, 2.306706e-001
2.580288e+003, 2.306145e-001
2.582217e+003, 2.312547e-001
2.584145e+003, 2.320588e-001
2.586074e+003, 2.325768e-001
2.588002e+003, 2.326908e-001
2.589931e+003, 2.330142e-001
2.591859e+003, 2.340312e-001
2.593788e+003, 2.345245e-001
2.595716e+003, 2.345503e-001
2.597645e+003, 2.340415e-001
2.599573e+003, 2.338380e-001
2.601501e+003, 2.340646e-001
2.603430e+003, 2.337728e-001
2.605358e+003, 2.339241e-001
2.607287e+003, 2.345172e-001
2.609215e+003, 2.344138e-001
2.611144e+003, 2.343680e-001
2.613072e+003, 2.348955e-001
2.615001e+003, 2.353970e-001
2.616929e+003, 2.355154e-001
2.618858e+003, 2.352388e-001
2.620786e+003, 2.358239e-001
2.622715e+003, 2.366675e-001
2.624643e+003, 2.370037e-001
2.626572e+003, 2.370952e-001
2.628500e+003, 2.372083e-001
2.630428e+003, 2.376160e-001
2.632357e+003, 2.376489e-001
2.634285e+003, 2.372631e-001
2.636214e+003, 2.371061e-001
2.638142e+003, 2.373107e-001
2.640071e+003, 2.373834e-001
2.641999e+003, 2.377520e-001
2.643928e+003, 2.381492e-001
2.645856e+003, 2.386862e-001
2.647785e+003, 2.390290e-001
2.649713e+003, 2.388301e-001
2.651642e+003, 2.388947e-001
2.653570e+003, 2.392203e-001
2.655499e+003, 2.393452e-001
2.657427e+003, 2.394695e-001
2.659355e+003, 2.393207e-001
2.661284e+003, 2.391061e-001
2.663212e+003, 2.393920e-001
2.665141e+003, 2.398736e-001
2.667069e+003, 2.400597e-001
2.668998e+003, 2.397806e-001
2.670926e+003, 2.397979e-001
2.672855e+003, 2.395828e-001
2.674783e+003, 2.392252e-001
2.676712e+003, 2.394432e-001
2.678640e+003, 2.399938e-001
2.680569e+003, 2.407301e-001
2.682497e+003, 2.413617e-001
2.684426e+003, 2.414437e-001
2.686354e+003, 2.416252e-001
2.688282e+003, 2.421418e-001
2.690211e+003, 2.424977e-001
2.692139e+003, 2.424565e-001
2.694068e+003, 2.425783e-001
2.695996e+003, 2.434512e-001
2.697925e+003, 2.436580e-001
2.699853e+003, 2.432118e-001
2.701782e+003, 2.426365e-001
2.703710e+003, 2.428788e-001
2.705639e+003, 2.433498e-001
2.707567e+003, 2.439214e-001
2.709496e+003, 2.446989e-001
2.711424e+003, 2.449598e-001
2.713353e+003, 2.452149e-001
2.715281e+003, 2.455140e-001
2.717209e+003, 2.458052e-001
2.719138e+003, 2.456358e-001
2.721066e+003, 2.452587e-001
2.722995e+003, 2.455756e-001
2.724923e+003, 2.457109e-001
2.726852e+003, 2.459022e-001
2.728780e+003, 2.464134e-001
2.730709e+003, 2.463754e-001
2.732637e+003, 2.468979e-001
2.734566e+003, 2.480090e-001
2.736494e+003, 2.485671e-001
2.738423e+003, 2.484473e-001
2.740351e+003, 2.482563e-001
2.742280e+003, 2.489219e-001
2.744208e+003, 2.490189e-001
2.746136e+003, 2.483859e-001
2.748065e+003, 2.485888e-001
2.749993e+003, 2.490761e-001
2.751922e+003, 2.496648e-001
2.753850e+003, 2.499251e-001
2.755779e+003, 2.498023e-001
2.757707e+003, 2.502361e-001
2.759636e+003, 2.508723e-001
2.761564e+003, 2.510259e-001
2.763493e+003, 2.511583e-001
2.765421e+003, 2.515013e-001
2.767350e+003, 2.517572e-001
2.769278e+003, 2.520135e-001
2.771207e+003, 2.519106e-001
2.773135e+003, 2.519014e-001
2.775063e+003, 2.520668e-001
2.776992e+003, 2.520641e-001
2.778920e+003, 2.528373e-001
2.780849e+003, 2.534741e-001
2.782777e+003, 2.533775e-001
2.784706e+003, 2.531323e-001
2.786634e+003, 2.530618e-001
2.788563e+003, 2.531763e-001
2.790491e+003, 2.541842e-001
2.792420e+003, 2.546920e-001
2.794348e+003, 2.544613e-001
2.796277e+003, 2.544650e-001
2.798205e+003, 2.552348e-001
2.800134e+003, 2.555662e-001
2.802062e+003, 2.557102e-001
2.803990e+003, 2.557735e-001
2.805919e+003, 2.562006e-001
2.807847e+003, 2.570294e-001
2.809776e+003, 2.570870e-001
2.811704e+003, 2.567745e-001
2.813633e+003, 2.567989e-001
2.815561e+003, 2.570552e-001
2.817490e+003, 2.574785e-001
2.819418e+003, 2.575304e-001
2.821347e+003, 2.579057e-001
2.823275e+003, 2.581906e-001
2.825204e+003, 2.587813e-001
2.827132e+003, 2.590138e-001
2.829061e+003, 2.589328e-001
2.830989e+003, 2.594173e-001
2.832917e+003, 2.604302e-001
2.834846e+003, 2.609905e-001
2.836774e+003, 2.610023e-001
2.838703e+003, 2.609292e-001
2.840631e+003, 2.609619e-001
2.842560e+003, 2.605891e-001
2.844488e+003, 2.610664e-001
2.846417e+003, 2.617314e-001
2.848345e+003, 2.616439e-001
2.850274e+003, 2.615593e-001
2.852202e+003, 2.613195e-001
2.854131e+003, 2.613896e-001
2.856059e+003, 2.620280e-001
2.857988e+003, 2.621250e-001
2.859916e+003, 2.621753e-001
2.861844e+003, 2.625925e-001
2.863773e+003, 2.627535e-001
2.865701e+003, 2.633680e-001
2.867630e+003, 2.637859e-001
2.869558e+003, 2.635408e-001
2.871487e+003, 2.636714e-001
2.873415e+003, 2.641657e-001
2.875344e+003, 2.648890e-001
2.877272e+003, 2.646439e-001
2.879201e+003, 2.648258e-001
2.881129e+003, 2.653304e-001
2.883058e+003, 2.654030e-001
2.884986e+003, 2.654984e-001
2.886915e+003, 2.659042e-001
2.888843e+003, 2.663530e-001
2.890771e+003, 2.665474e-001
2.892700e+003, 2.665202e-001
2.894628e+003, 2.666516e-001
2.896557e+003, 2.668867e-001
2.898485e+003, 2.671082e-001
2.900414e+003, 2.679479e-001
2.902342e+003, 2.683059e-001
2.904271e+003, 2.684511e-001
2.906199e+003, 2.688022e-001
2.908128e+003, 2.683576e-001
2.910056e+003, 2.683471e-001
2.911985e+003, 2.697326e-001
2.913913e+003, 2.700867e-001
2.915842e+003, 2.701463e-001
2.917770e+003, 2.704523e-001
2.919698e+003, 2.702415e-001
2.921627e+003, 2.703627e-001
2.923555e+003, 2.703529e-001
2.925484e+003, 2.698399e-001
2.927412e+003, 2.693684e-001
2.929341e+003, 2.689136e-001
2.931269e+003, 2.682192e-001
2.933198e+003, 2.690749e-001
2.935126e+003, 2.693131e-001
2.937055e+003, 2.687142e-001
2.938983e+003, 2.697996e-001
2.940912e+003, 2.706641e-001
2.942840e+003, 2.701171e-001
2.944769e+003, 2.699105e-001
2.946697e+003, 2.705858e-001
2.948625e+003, 2.714379e-001
2.950554e+003, 2.718224e-001
2.952482e+003, 2.719250e-001
2.954411e+003, 2.718814e-001
2.956339e+003, 2.718884e-001
2.958268e+003, 2.726535e-001
2.960196e+003, 2.731176e-001
2.962125e+003, 2.726002e-001
2.964053e+003, 2.727470e-001
2.965982e+003, 2.728164e-001
2.967910e+003, 2.728755e-001
2.969839e+003, 2.735994e-001
2.971767e+003, 2.739333e-001
2.973696e+003, 2.740358e-001
2.975624e+003, 2.745905e-001
2.977552e+003, 2.752452e-001
2.979481e+003, 2.756354e-001
2.981409e+003, 2.750750e-001
2.983338e+003, 2.744757e-001
2.985266e+003, 2.743781e-001
2.987195e+003, 2.751995e-001
2.989123e+003, 2.760537e-001
2.991052e+003, 2.759512e-001
2.992980e+003, 2.758629e-001
2.994909e+003, 2.760902e-001
2.996837e+003, 2.769467e-001
2.998766e+003, 2.771011e-001
3.000694e+003, 2.765272e-001
3.002623e+003, 2.768237e-001
3.004551e+003, 2.774263e-001
3.006479e+003, 2.778658e-001
3.008408e+003, 2.778127e-001
3.010336e+003, 2.778628e-001
3.012265e+003, 2.783324e-001
3.014193e+003, 2.790360e-001
3.016122e+003, 2.792441e-001
3.018050e+003, 2.791224e-001
3.019979e+003, 2.796159e-001
3.021907e+003, 2.803829e-001
3.023836e+003, 2.801855e-001
3.025764e+003, 2.795662e-001
3.027693e+003, 2.802865e-001
3.029621e+003, 2.803809e-001
3.031550e+003, 2.804728e-001
3.033478e+003, 2.810680e-001
3.035406e+003, 2.809931e-001
3.037335e+003, 2.810988e-001
3.039263e+003, 2.820292e-001
3.041192e+003, 2.830198e-001
3.043120e+003, 2.833846e-001
3.045049e+003, 2.837586e-001
3.046977e+003, 2.830429e-001
3.048906e+003, 2.828221e-001
3.050834e+003, 2.832909e-001
3.052763e+003, 2.835740e-001
3.054691e+003, 2.839480e-001
3.056620e+003, 2.845060e-001
3.058548e+003, 2.841719e-001
3.060477e+003, 2.838471e-001
3.062405e+003, 2.845341e-001
3.064333e+003, 2.840370e-001
3.066262e+003, 2.841475e-001
3.068190e+003, 2.851585e-001
3.070119e+003, 2.860346e-001
3.072047e+003, 2.863214e-001
3.073976e+003, 2.858959e-001
3.075904e+003, 2.864979e-001
3.077833e+003, 2.875242e-001
3.079761e+003, 2.879673e-001
3.081690e+003, 2.876817e-001
3.083618e+003, 2.879397e-001
3.085547e+003, 2.880373e-001
3.087475e+003, 2.881714e-001
3.089404e+003, 2.878909e-001
3.091332e+003, 2.886095e-001
3.093260e+003, 2.896675e-001
3.095189e+003, 2.898996e-001
3.097117e+003, 2.893448e-001
3.099046e+003, 2.901950e-001
3.100974e+003, 2.912825e-001
3.102903e+003, 2.913908e-001
3.104831e+003, 2.909903e-001
3.106760e+003, 2.914373e-001
3.108688e+003, 2.925056e-001
3.110617e+003, 2.919023e-001
3.112545e+003, 2.914910e-001
3.114474e+003, 2.916280e-001
3.116402e+003, 2.918411e-001
3.118331e+003, 2.922030e-001
3.120259e+003, 2.928991e-001
3.122188e+003, 2.936007e-001
3.124116e+003, 2.938872e-001
3.126044e+003, 2.942088e-001
3.127973e+003, 2.948455e-001
3.129901e+003, 2.953553e-001
3.131830e+003, 2.957767e-001
3.133758e+003, 2.953581e-001
3.135687e+003, 2.955714e-001
3.137615e+003, 2.967348e-001
3.139544e+003, 2.966557e-001
3.141472e+003, 2.961654e-001
3.143401e+003, 2.950888e-001
3.145329e+003, 2.951649e-001
3.147258e+003, 2.957574e-001
3.149186e+003, 2.962637e-001
3.151115e+003, 2.967990e-001
3.153043e+003, 2.965109e-001
3.154971e+003, 2.968098e-001
3.156900e+003, 2.973949e-001
3.158828e+003, 2.973402e-001
3.160757e+003, 2.978583e-001
3.162685e+003, 2.975512e-001
3.164614e+003, 2.979903e-001
3.166542e+003, 2.990215e-001
3.168471e+003, 2.992442e-001
3.170399e+003, 2.994387e-001
3.172328e+003, 3.003370e-001
3.174256e+003, 3.002858e-001
3.176185e+003, 3.002251e-001
3.178113e+003, 3.009064e-001
3.180042e+003, 3.010805e-001
3.181970e+003, 3.006252e-001
3.183898e+003, 3.007021e-001
3.185827e+003, 3.009976e-001
3.187755e+003, 3.012792e-001
3.189684e+003, 3.015414e-001
3.191612e+003, 3.013724e-001
3.193541e+003, 3.014427e-001
3.195469e+003, 3.013356e-001
3.197398e+003, 3.018381e-001
3.199326e+003, 3.020825e-001
3.201255e+003, 3.020477e-001
3.203183e+003, 3.030296e-001
3.205112e+003, 3.034927e-001
3.207040e+003, 3.035543e-001
3.208969e+003, 3.034770e-001
3.210897e+003, 3.034438e-001
3.212825e+003, 3.037161e-001
3.214754e+003, 3.041823e-001
3.216682e+003, 3.047265e-001
3.218611e+003, 3.043090e-001
3.220539e+003, 3.035237e-001
3.222468e+003, 3.046504e-001
3.224396e+003, 3.054525e-001
3.226325e+003, 3.050655e-001
3.228253e+003, 3.050807e-001
3.230182e+003, 3.047929e-001
3.232110e+003, 3.053501e-001
3.234039e+003, 3.067312e-001
3.235967e+003, 3.066325e-001
3.237896e+003, 3.059185e-001
3.239824e+003, 3.061279e-001
3.241752e+003, 3.066074e-001
3.243681e+003, 3.069381e-001
3.245609e+003, 3.078638e-001
3.247538e+003, 3.081325e-001
3.249466e+003, 3.075903e-001
3.251395e+003, 3.080515e-001
3.253323e+003, 3.085050e-001
3.255252e+003, 3.086351e-001
3.257180e+003, 3.077544e-001
3.259109e+003, 3.077348e-001
3.261037e+003, 3.084366e-001
3.262966e+003, 3.090408e-001
3.264894e+003, 3.093983e-001
3.266823e+003, 3.100855e-001
3.268751e+003, 3.106545e-001
3.270679e+003, 3.107133e-001
3.272608e+003, 3.108563e-001
3.274536e+003, 3.108769e-001
3.276465e+003, 3.118832e-001
3.278393e+003, 3.115753e-001
3.280322e+003, 3.108956e-001
3.282250e+003, 3.113671e-001
3.284179e+003, 3.122413e-001
3.286107e+003, 3.119443e-001
3.288036e+003, 3.122764e-001
3.289964e+003, 3.137104e-001
3.291893e+003, 3.146110e-001
3.293821e+003, 3.137396e-001
3.295750e+003, 3.129629e-001
3.297678e+003, 3.119971e-001
3.299606e+003, 3.118119e-001
3.301535e+003, 3.126653e-001
3.303463e+003, 3.137489e-001
3.305392e+003, 3.143966e-001
3.307320e+003, 3.130800e-001
3.309249e+003, 3.129766e-001
3.311177e+003, 3.144839e-001
3.313106e+003, 3.139831e-001
3.315034e+003, 3.140307e-001
3.316963e+003, 3.159336e-001
3.318891e+003, 3.160493e-001
3.320820e+003, 3.154632e-001
3.322748e+003, 3.158695e-001
3.324677e+003, 3.158969e-001
3.326605e+003, 3.151682e-001
3.328533e+003, 3.148239e-001
3.330462e+003, 3.148950e-001
3.332390e+003, 3.157266e-001
3.334319e+003, 3.159073e-001
3.336247e+003, 3.162131e-001
3.338176e+003, 3.167541e-001
3.340104e+003, 3.153991e-001
3.342033e+003, 3.155228e-001
3.343961e+003, 3.167652e-001
3.345890e+003, 3.169834e-001
3.347818e+003, 3.163856e-001
3.349747e+003, 3.168065e-001
3.351675e+003, 3.176396e-001
3.353604e+003, 3.177319e-001
3.355532e+003, 3.189112e-001
3.357460e+003, 3.196564e-001
3.359389e+003, 3.188776e-001
3.361317e+003, 3.178177e-001
3.363246e+003, 3.186302e-001
3.365174e+003, 3.202272e-001
3.367103e+003, 3.196759e-001
3.369031e+003, 3.182669e-001
3.370960e+003, 3.172035e-001
3.372888e+003, 3.174662e-001
3.374817e+003, 3.181536e-001
3.376745e+003, 3.189757e-001
3.378674e+003, 3.194303e-001
3.380602e+003, 3.191919e-001
3.382531e+003, 3.196542e-001
3.384459e+003, 3.200356e-001
3.386387e+003, 3.196213e-001
3.388316e+003, 3.187354e-001
3.390244e+003, 3.186005e-001
3.392173e+003, 3.195165e-001
3.394101e+003, 3.201500e-001
3.396030e+003, 3.207302e-001
3.397958e+003, 3.202681e-001
3.399887e+003, 3.195128e-001
3.401815e+003, 3.198813e-001
3.403744e+003, 3.206272e-001
3.405672e+003, 3.210686e-001
3.407601e+003, 3.209130e-001
3.409529e+003, 3.212523e-001
3.411458e+003, 3.222562e-001
3.413386e+003, 3.216684e-001
3.415314e+003, 3.206362e-001
3.417243e+003, 3.204947e-001
3.419171e+003, 3.216330e-001
3.421100e+003, 3.224686e-001
3.423028e+003, 3.217073e-001
3.424957e+003, 3.214193e-001
3.426885e+003, 3.217534e-001
3.428814e+003, 3.223528e-001
3.430742e+003, 3.228842e-001
3.432671e+003, 3.221322e-001
3.434599e+003, 3.216308e-001
3.436528e+003, 3.215854e-001
3.438456e+003, 3.218402e-001
3.440385e+003, 3.229043e-001
3.442313e+003, 3.233561e-001
3.444241e+003, 3.223345e-001
3.446170e+003, 3.221312e-001
3.448098e+003, 3.228705e-001
3.450027e+003, 3.216844e-001
3.451955e+003, 3.215960e-001
3.453884e+003, 3.226919e-001
3.455812e+003, 3.229685e-001
3.457741e+003, 3.227341e-001
3.459669e+003, 3.226769e-001
3.461598e+003, 3.228025e-001
3.463526e+003, 3.224604e-001
3.465455e+003, 3.226448e-001
3.467383e+003, 3.222187e-001
3.469312e+003, 3.225697e-001
3.471240e+003, 3.233762e-001
3.473168e+003, 3.235809e-001
3.475097e+003, 3.228766e-001
3.477025e+003, 3.224146e-001
3.478954e+003, 3.218291e-001
3.480882e+003, 3.210399e-001
3.482811e+003, 3.221902e-001
3.484739e+003, 3.231824e-001
3.486668e+003, 3.224173e-001
3.488596e+003, 3.224674e-001
3.490525e+003, 3.219285e-001
3.492453e+003, 3.213408e-001
3.494382e+003, 3.220798e-001
3.496310e+003, 3.220780e-001
3.498239e+003, 3.206855e-001
3.500167e+003, 3.201377e-001
3.502095e+003, 3.209799e-001
3.504024e+003, 3.212716e-001
3.505952e+003, 3.191347e-001
3.507881e+003, 3.189396e-001
3.509809e+003, 3.204232e-001
3.511738e+003, 3.203558e-001
3.513666e+003, 3.210948e-001
3.515595e+003, 3.215375e-001
3.517523e+003, 3.206858e-001
3.519452e+003, 3.210834e-001
3.521380e+003, 3.210903e-001
3.523309e+003, 3.212039e-001
3.525237e+003, 3.207856e-001
3.527166e+003, 3.201166e-001
3.529094e+003, 3.203179e-001
3.531022e+003, 3.203844e-001
3.532951e+003, 3.202305e-001
3.534879e+003, 3.210140e-001
3.536808e+003, 3.211883e-001
3.538736e+003, 3.205234e-001
3.540665e+003, 3.202043e-001
3.542593e+003, 3.203488e-001
3.544522e+003, 3.201533e-001
3.546450e+003, 3.189686e-001
3.548379e+003, 3.197418e-001
3.550307e+003, 3.203346e-001
3.552236e+003, 3.193731e-001
3.554164e+003, 3.194263e-001
3.556093e+003, 3.197483e-001
3.558021e+003, 3.184392e-001
3.559949e+003, 3.189670e-001
3.561878e+003, 3.186445e-001
3.563806e+003, 3.161752e-001
3.565735e+003, 3.163823e-001
3.567663e+003, 3.189810e-001
3.569592e+003, 3.202515e-001
3.571520e+003, 3.198266e-001
3.573449e+003, 3.181037e-001
3.575377e+003, 3.171091e-001
3.577306e+003, 3.171710e-001
3.579234e+003, 3.169832e-001
3.581163e+003, 3.182863e-001
3.583091e+003, 3.200584e-001
3.585020e+003, 3.201272e-001
3.586948e+003, 3.206601e-001
3.588876e+003, 3.204544e-001
3.590805e+003, 3.202935e-001
3.592733e+003, 3.196984e-001
3.594662e+003, 3.187612e-001
3.596590e+003, 3.183853e-001
3.598519e+003, 3.180890e-001
3.600447e+003, 3.178145e-001
3.602376e+003, 3.177982e-001
3.604304e+003, 3.178636e-001
3.606233e+003, 3.171884e-001
3.608161e+003, 3.176449e-001
3.610090e+003, 3.194933e-001
3.612018e+003, 3.185915e-001
3.613947e+003, 3.192204e-001
3.615875e+003, 3.194470e-001
3.617803e+003, 3.196773e-001
3.619732e+003, 3.214155e-001
3.621660e+003, 3.206608e-001
3.623589e+003, 3.185370e-001
3.625517e+003, 3.188214e-001
3.627446e+003, 3.191369e-001
3.629374e+003, 3.196391e-001
3.631303e+003, 3.179885e-001
3.633231e+003, 3.187417e-001
3.635160e+003, 3.195278e-001
3.637088e+003, 3.198730e-001
3.639017e+003, 3.215514e-001
3.640945e+003, 3.211124e-001
3.642874e+003, 3.195405e-001
3.644802e+003, 3.186817e-001
3.646730e+003, 3.184856e-001
3.648659e+003, 3.183634e-001
3.650587e+003, 3.192264e-001
3.652516e+003, 3.210309e-001
3.654444e+003, 3.213864e-001
3.656373e+003, 3.224063e-001
3.658301e+003, 3.216402e-001
3.660230e+003, 3.214044e-001
3.662158e+003, 3.219045e-001
3.664087e+003, 3.212837e-001
3.666015e+003, 3.211265e-001
3.667944e+003, 3.228442e-001
3.669872e+003, 3.222681e-001
3.671801e+003, 3.221686e-001
3.673729e+003, 3.223001e-001
3.675657e+003, 3.227987e-001
3.677586e+003, 3.211111e-001
3.679514e+003, 3.230645e-001
3.681443e+003, 3.228655e-001
3.683371e+003, 3.198926e-001
3.685300e+003, 3.201158e-001
3.687228e+003, 3.216438e-001
3.689157e+003, 3.232029e-001
3.691085e+003, 3.221846e-001
3.693014e+003, 3.210474e-001
3.694942e+003, 3.225561e-001
3.696871e+003, 3.232951e-001
3.698799e+003, 3.223974e-001
3.700728e+003, 3.221205e-001
3.702656e+003, 3.241902e-001
3.704584e+003, 3.252503e-001
3.706513e+003, 3.252640e-001
3.708441e+003, 3.240253e-001
3.710370e+003, 3.254435e-001
3.712298e+003, 3.283356e-001
3.714227e+003, 3.278206e-001
3.716155e+003, 3.258883e-001
3.718084e+003, 3.250857e-001
3.720012e+003, 3.252486e-001
3.721941e+003, 3.272734e-001
3.723869e+003, 3.281659e-001
3.725798e+003, 3.270782e-001
3.727726e+003, 3.260069e-001
3.729655e+003, 3.257267e-001
3.731583e+003, 3.291202e-001
3.733511e+003, 3.299021e-001
3.735440e+003, 3.295456e-001
3.737368e+003, 3.290968e-001
3.739297e+003, 3.290353e-001
3.741225e+003, 3.287061e-001
3.743154e+003, 3.280233e-001
3.745082e+003, 3.311899e-001
3.747011e+003, 3.303670e-001
3.748939e+003, 3.303419e-001
3.750868e+003, 3.297218e-001
3.752796e+003, 3.309145e-001
3.754725e+003, 3.300297e-001
3.756653e+003, 3.298538e-001
3.758582e+003, 3.295770e-001
3.760510e+003, 3.288916e-001
3.762438e+003, 3.289796e-001
3.764367e+003, 3.303221e-001
3.766295e+003, 3.317035e-001
3.768224e+003, 3.321350e-001
3.770152e+003, 3.336622e-001
3.772081e+003, 3.325986e-001
3.774009e+003, 3.313748e-001
3.775938e+003, 3.306773e-001
3.777866e+003, 3.313098e-001
3.779795e+003, 3.317547e-001
3.781723e+003, 3.309233e-001
3.783652e+003, 3.312362e-001
3.785580e+003, 3.316489e-001
3.787509e+003, 3.327492e-001
3.789437e+003, 3.333944e-001
3.791365e+003, 3.322127e-001
3.793294e+003, 3.309956e-001
3.795222e+003, 3.307642e-001
3.797151e+003, 3.317369e-001
3.799079e+003, 3.325521e-001
3.801008e+003, 3.336833e-001
3.802936e+003, 3.343268e-001
3.804865e+003, 3.334662e-001
3.806793e+003, 3.329893e-001
3.808722e+003, 3.335018e-001
3.810650e+003, 3.350077e-001
3.812579e+003, 3.345386e-001
3.814507e+003, 3.335259e-001
3.816436e+003, 3.357209e-001
3.818364e+003, 3.340172e-001
3.820292e+003, 3.332305e-001
3.822221e+003, 3.360377e-001
3.824149e+003, 3.365780e-001
3.826078e+003, 3.360638e-001
3.828006e+003, 3.358482e-001
3.829935e+003, 3.359911e-001
3.831863e+003, 3.354931e-001
3.833792e+003, 3.334645e-001
3.835720e+003, 3.350188e-001
3.837649e+003, 3.371882e-001
3.839577e+003, 3.369827e-001
3.841506e+003, 3.367147e-001
3.843434e+003, 3.371250e-001
3.845363e+003, 3.360384e-001
3.847291e+003, 3.356139e-001
3.849219e+003, 3.361807e-001
3.851148e+003, 3.367112e-001
3.853076e+003, 3.395338e-001
3.855005e+003, 3.404902e-001
3.856933e+003, 3.382324e-001
3.858862e+003, 3.389875e-001
3.860790e+003, 3.389278e-001
3.862719e+003, 3.396983e-001
3.864647e+003, 3.396465e-001
3.866576e+003, 3.394938e-001
3.868504e+003, 3.381564e-001
3.870433e+003, 3.398177e-001
3.872361e+003, 3.398747e-001
3.874290e+003, 3.393242e-001
3.876218e+003, 3.387785e-001
3.878146e+003, 3.396240e-001
3.880075e+003, 3.417771e-001
3.882003e+003, 3.409448e-001
3.883932e+003, 3.396415e-001
3.885860e+003, 3.408559e-001
3.887789e+003, 3.403454e-001
3.889717e+003, 3.395349e-001
3.891646e+003, 3.400095e-001
3.893574e+003, 3.399537e-001
3.895503e+003, 3.405361e-001
3.897431e+003, 3.409917e-001
3.899360e+003, 3.424592e-001
3.901288e+003, 3.431121e-001
3.903217e+003, 3.431706e-001
3.905145e+003, 3.416893e-001
3.907073e+003, 3.411717e-001
3.909002e+003, 3.417288e-001
3.910930e+003, 3.412634e-001
3.912859e+003, 3.426458e-001
3.914787e+003, 3.436326e-001
3.916716e+003, 3.431225e-001
3.918644e+003, 3.426906e-001
3.920573e+003, 3.426156e-001
3.922501e+003, 3.429907e-001
3.924430e+003, 3.448553e-001
3.926358e+003, 3.446800e-001
3.928287e+003, 3.444963e-001
3.930215e+003, 3.448462e-001
3.932144e+003, 3.442768e-001
3.934072e+003, 3.433531e-001
3.936000e+003, 3.438102e-001
3.937929e+003, 3.449045e-001
3.939857e+003, 3.455793e-001
3.941786e+003, 3.449442e-001
3.943714e+003, 3.437874e-001
3.945643e+003, 3.430565e-001
3.947571e+003, 3.461627e-001
3.949500e+003, 3.474238e-001
3.951428e+003, 3.460892e-001
3.953357e+003, 3.464330e-001
3.955285e+003, 3.480008e-001
3.957214e+003, 3.473274e-001
3.959142e+003, 3.461341e-001
3.961071e+003, 3.459321e-001
3.962999e+003, 3.462899e-001
3.964927e+003, 3.467562e-001
3.966856e+003, 3.471135e-001
3.968784e+003, 3.463900e-001
3.970713e+003, 3.460100e-001
3.972641e+003, 3.463027e-001
3.974570e+003, 3.465948e-001
3.976498e+003, 3.463094e-001
3.978427e+003, 3.468285e-001
3.980355e+003, 3.476391e-001
3.982284e+003, 3.497972e-001
3.984212e+003, 3.516536e-001
3.986141e+003, 3.498578e-001
3.988069e+003, 3.496714e-001
3.989998e+003, 3.511642e-001
3.991926e+003, 3.509115e-001
3.993854e+003, 3.508654e-001
3.995783e+003, 3.518836e-001
3.997711e+003, 3.505743e-001
3.999640e+003, 3.507398e-001
4.001568e+003, 0.000000e+000
##END=



