##NAMES=Fluorapatite
##RRUFFID=R040098
##IDEAL CHEMISTRY=Ca_5_(PO_4_)_3_F
##LOCALITY=Cerro de Mercado mine, Durango, Mexico
##OWNER=RRUFF
##SOURCE=Marcus Origlieri
##DESCRIPTION=Pale yellow short hexagonal prism
##STATUS=The identification of this mineral has been confirmed by X-ray diffraction and chemical analysis
##URL=rruff.info/R040098
##MEASURED CHEMISTRY=Ca_5.00_((P_0.98_Si_0.01_S_0.01_)O_4_)_3_F_1.00_
3.991926e+002, 0.000000e+000
4.011211e+002, 1.480439e-002
4.030496e+002, 1.484025e-002
4.049780e+002, 1.344640e-002
4.069065e+002, 1.286798e-002
4.088350e+002, 1.408837e-002
4.107634e+002, 1.396066e-002
4.126919e+002, 1.444839e-002
4.146204e+002, 1.515784e-002
4.165488e+002, 1.440551e-002
4.184773e+002, 1.452222e-002
4.204058e+002, 1.424648e-002
4.223342e+002, 1.374928e-002
4.242627e+002, 1.418316e-002
4.261912e+002, 1.462405e-002
4.281196e+002, 1.330767e-002
4.300481e+002, 1.283670e-002
4.319766e+002, 1.417182e-002
4.339050e+002, 1.352124e-002
4.358335e+002, 1.358106e-002
4.377620e+002, 1.402717e-002
4.396904e+002, 1.343529e-002
4.416189e+002, 1.372091e-002
4.435474e+002, 1.476825e-002
4.454758e+002, 1.491683e-002
4.474043e+002, 1.430469e-002
4.493328e+002, 1.429345e-002
4.512612e+002, 1.480204e-002
4.531897e+002, 1.537981e-002
4.551182e+002, 1.515187e-002
4.570466e+002, 1.527457e-002
4.589751e+002, 1.719782e-002
4.609036e+002, 1.865435e-002
4.628320e+002, 1.916963e-002
4.647605e+002, 2.082060e-002
4.666890e+002, 2.316123e-002
4.686174e+002, 2.544455e-002
4.705459e+002, 2.746548e-002
4.724744e+002, 2.743979e-002
4.744028e+002, 2.615231e-002
4.763313e+002, 2.539498e-002
4.782598e+002, 2.445102e-002
4.801882e+002, 2.357137e-002
4.821167e+002, 2.211070e-002
4.840452e+002, 2.042167e-002
4.859736e+002, 1.984771e-002
4.879021e+002, 1.974608e-002
4.898306e+002, 1.945761e-002
4.917590e+002, 1.989469e-002
4.936875e+002, 2.083646e-002
4.956160e+002, 2.069853e-002
4.975444e+002, 2.085440e-002
4.994729e+002, 2.201716e-002
5.014014e+002, 2.265574e-002
5.033298e+002, 2.369706e-002
5.052583e+002, 2.543109e-002
5.071868e+002, 2.660799e-002
5.091152e+002, 2.826333e-002
5.110437e+002, 3.055546e-002
5.129722e+002, 3.230368e-002
5.149006e+002, 3.470938e-002
5.168291e+002, 3.796711e-002
5.187576e+002, 4.087622e-002
5.206860e+002, 4.239788e-002
5.226145e+002, 4.354123e-002
5.245430e+002, 4.467499e-002
5.264714e+002, 4.613705e-002
5.283999e+002, 4.880443e-002
5.303284e+002, 5.209032e-002
5.322568e+002, 5.654721e-002
5.341853e+002, 6.194518e-002
5.361138e+002, 6.788458e-002
5.380422e+002, 7.535900e-002
5.399707e+002, 8.436534e-002
5.418992e+002, 9.431418e-002
5.438276e+002, 1.067345e-001
5.457561e+002, 1.210989e-001
5.476846e+002, 1.375339e-001
5.496130e+002, 1.563289e-001
5.515415e+002, 1.765111e-001
5.534700e+002, 1.981601e-001
5.553984e+002, 2.200437e-001
5.573269e+002, 2.403781e-001
5.592554e+002, 2.575938e-001
5.611838e+002, 2.712517e-001
5.631123e+002, 2.819686e-001
5.650408e+002, 2.867780e-001
5.669692e+002, 2.861916e-001
5.688977e+002, 2.830560e-001
5.708262e+002, 2.778453e-001
5.727546e+002, 2.679441e-001
5.746831e+002, 2.515351e-001
5.766116e+002, 2.244927e-001
5.785400e+002, 1.885200e-001
5.804685e+002, 1.564399e-001
5.823970e+002, 1.364315e-001
5.843254e+002, 1.261854e-001
5.862539e+002, 1.212911e-001
5.881824e+002, 1.200269e-001
5.901108e+002, 1.248849e-001
5.920393e+002, 1.385191e-001
5.939678e+002, 1.616698e-001
5.958962e+002, 1.918240e-001
5.978247e+002, 2.175130e-001
5.997532e+002, 2.225549e-001
6.016816e+002, 2.038846e-001
6.036101e+002, 1.733245e-001
6.055386e+002, 1.427566e-001
6.074670e+002, 1.172033e-001
6.093955e+002, 9.619839e-002
6.113240e+002, 7.825145e-002
6.132524e+002, 6.269425e-002
6.151809e+002, 4.952461e-002
6.171094e+002, 3.899826e-002
6.190378e+002, 3.126570e-002
6.209663e+002, 2.628248e-002
6.228948e+002, 2.273739e-002
6.248232e+002, 1.972164e-002
6.267517e+002, 1.711141e-002
6.286802e+002, 1.562248e-002
6.306086e+002, 1.464659e-002
6.325371e+002, 1.337708e-002
6.344656e+002, 1.199059e-002
6.363940e+002, 1.135407e-002
6.383225e+002, 1.077030e-002
6.402510e+002, 1.009728e-002
6.421794e+002, 9.941936e-003
6.441079e+002, 1.022934e-002
6.460364e+002, 1.085949e-002
6.479648e+002, 1.157903e-002
6.498933e+002, 1.179994e-002
6.518218e+002, 1.164154e-002
6.537502e+002, 1.116956e-002
6.556787e+002, 1.040748e-002
6.576072e+002, 1.001732e-002
6.595356e+002, 9.620291e-003
6.614641e+002, 9.216744e-003
6.633926e+002, 9.134084e-003
6.653210e+002, 9.336852e-003
6.672495e+002, 9.221059e-003
6.691780e+002, 8.967848e-003
6.711064e+002, 8.896917e-003
6.730349e+002, 8.878446e-003
6.749634e+002, 8.865261e-003
6.768918e+002, 8.888661e-003
6.788203e+002, 8.917778e-003
6.807488e+002, 9.053694e-003
6.826772e+002, 8.953854e-003
6.846057e+002, 8.827580e-003
6.865342e+002, 8.818341e-003
6.884626e+002, 8.902085e-003
6.903911e+002, 8.956352e-003
6.923196e+002, 9.198220e-003
6.942480e+002, 9.363871e-003
6.961765e+002, 9.487161e-003
6.981050e+002, 9.787067e-003
7.000334e+002, 9.813637e-003
7.019619e+002, 9.864947e-003
7.038904e+002, 1.008397e-002
7.058188e+002, 1.018482e-002
7.077473e+002, 1.033481e-002
7.096758e+002, 1.062056e-002
7.116042e+002, 1.084918e-002
7.135327e+002, 1.112232e-002
7.154612e+002, 1.133735e-002
7.173896e+002, 1.146074e-002
7.193181e+002, 1.157604e-002
7.212466e+002, 1.188343e-002
7.231750e+002, 1.214146e-002
7.251035e+002, 1.226644e-002
7.270320e+002, 1.247535e-002
7.289604e+002, 1.270454e-002
7.308889e+002, 1.304945e-002
7.328174e+002, 1.347865e-002
7.347458e+002, 1.381782e-002
7.366743e+002, 1.399811e-002
7.386028e+002, 1.402700e-002
7.405313e+002, 1.449370e-002
7.424597e+002, 1.489347e-002
7.443882e+002, 1.533525e-002
7.463167e+002, 1.558014e-002
7.482451e+002, 1.553598e-002
7.501736e+002, 1.554733e-002
7.521021e+002, 1.560038e-002
7.540305e+002, 1.559210e-002
7.559590e+002, 1.557078e-002
7.578875e+002, 1.526280e-002
7.598159e+002, 1.493779e-002
7.617444e+002, 1.488531e-002
7.636729e+002, 1.502190e-002
7.656013e+002, 1.504750e-002
7.675298e+002, 1.499874e-002
7.694583e+002, 1.479389e-002
7.713867e+002, 1.480095e-002
7.733152e+002, 1.485282e-002
7.752437e+002, 1.512489e-002
7.771721e+002, 1.526419e-002
7.791006e+002, 1.554600e-002
7.810291e+002, 1.571794e-002
7.829575e+002, 1.580638e-002
7.848860e+002, 1.607674e-002
7.868145e+002, 1.649125e-002
7.887429e+002, 1.676893e-002
7.906714e+002, 1.702362e-002
7.925999e+002, 1.712065e-002
7.945283e+002, 1.729189e-002
7.964568e+002, 1.757971e-002
7.983853e+002, 1.790789e-002
8.003137e+002, 1.830043e-002
8.022422e+002, 1.888699e-002
8.041707e+002, 1.919859e-002
8.060991e+002, 1.940434e-002
8.080276e+002, 1.957947e-002
8.099561e+002, 1.981370e-002
8.118845e+002, 2.027580e-002
8.138130e+002, 2.090762e-002
8.157415e+002, 2.116789e-002
8.176699e+002, 2.152683e-002
8.195984e+002, 2.201938e-002
8.215269e+002, 2.272826e-002
8.234553e+002, 2.347570e-002
8.253838e+002, 2.412935e-002
8.273123e+002, 2.461126e-002
8.292407e+002, 2.512071e-002
8.311692e+002, 2.580949e-002
8.330977e+002, 2.655043e-002
8.350261e+002, 2.710746e-002
8.369546e+002, 2.777840e-002
8.388831e+002, 2.853144e-002
8.408115e+002, 2.919545e-002
8.427400e+002, 3.019889e-002
8.446685e+002, 3.138727e-002
8.465969e+002, 3.250258e-002
8.485254e+002, 3.375859e-002
8.504539e+002, 3.509893e-002
8.523823e+002, 3.641263e-002
8.543108e+002, 3.778949e-002
8.562393e+002, 3.939304e-002
8.581677e+002, 4.079633e-002
8.600962e+002, 4.196138e-002
8.620247e+002, 4.328557e-002
8.639531e+002, 4.533216e-002
8.658816e+002, 4.793050e-002
8.678101e+002, 5.060469e-002
8.697385e+002, 5.274629e-002
8.716670e+002, 5.445364e-002
8.735955e+002, 5.525951e-002
8.755239e+002, 5.509977e-002
8.774524e+002, 5.517685e-002
8.793809e+002, 5.587650e-002
8.813093e+002, 5.649487e-002
8.832378e+002, 5.674925e-002
8.851663e+002, 5.725020e-002
8.870947e+002, 5.790013e-002
8.890232e+002, 5.868833e-002
8.909517e+002, 5.983035e-002
8.928801e+002, 6.090994e-002
8.948085e+002, 6.198780e-002
8.967370e+002, 6.302878e-002
8.986655e+002, 6.393375e-002
9.005939e+002, 6.529786e-002
9.025224e+002, 6.712248e-002
9.044509e+002, 6.900127e-002
9.063793e+002, 7.090857e-002
9.083078e+002, 7.305824e-002
9.102363e+002, 7.548154e-002
9.121647e+002, 7.848213e-002
9.140932e+002, 8.174194e-002
9.160217e+002, 8.510838e-002
9.179501e+002, 8.857665e-002
9.198786e+002, 9.213910e-002
9.218071e+002, 9.614103e-002
9.237355e+002, 1.004277e-001
9.256640e+002, 1.047243e-001
9.275925e+002, 1.095020e-001
9.295209e+002, 1.146066e-001
9.314494e+002, 1.199744e-001
9.333779e+002, 1.258356e-001
9.353063e+002, 1.312822e-001
9.372348e+002, 1.358088e-001
9.391633e+002, 1.400543e-001
9.410917e+002, 1.447541e-001
9.430202e+002, 1.502703e-001
9.449487e+002, 1.567722e-001
9.468771e+002, 1.644683e-001
9.488056e+002, 1.728723e-001
9.507341e+002, 1.820878e-001
9.526625e+002, 1.930982e-001
9.545910e+002, 2.059479e-001
9.565195e+002, 2.209474e-001
9.584479e+002, 2.369239e-001
9.603764e+002, 2.517490e-001
9.623049e+002, 2.620302e-001
9.642333e+002, 2.567140e-001
9.661618e+002, 2.350055e-001
9.680903e+002, 2.193182e-001
9.700187e+002, 2.189280e-001
9.719472e+002, 2.273854e-001
9.738757e+002, 2.396921e-001
9.758041e+002, 2.539717e-001
9.777326e+002, 2.679831e-001
9.796611e+002, 2.810277e-001
9.815895e+002, 2.931291e-001
9.835180e+002, 3.056034e-001
9.854465e+002, 3.194180e-001
9.873749e+002, 3.341666e-001
9.893034e+002, 3.493710e-001
9.912319e+002, 3.647445e-001
9.931603e+002, 3.799149e-001
9.950888e+002, 3.944428e-001
9.970173e+002, 4.084764e-001
9.989457e+002, 4.224467e-001
1.000874e+003, 4.354623e-001
1.002803e+003, 4.472715e-001
1.004731e+003, 4.588161e-001
1.006660e+003, 4.712012e-001
1.008588e+003, 4.834532e-001
1.010517e+003, 4.955431e-001
1.012445e+003, 5.076181e-001
1.014373e+003, 5.190536e-001
1.016302e+003, 5.298905e-001
1.018230e+003, 5.390871e-001
1.020159e+003, 5.450972e-001
1.022087e+003, 5.484501e-001
1.024016e+003, 5.503500e-001
1.025944e+003, 5.501322e-001
1.027873e+003, 5.458655e-001
1.029801e+003, 5.378472e-001
1.031730e+003, 5.266331e-001
1.033658e+003, 5.138199e-001
1.035587e+003, 4.981871e-001
1.037515e+003, 4.791218e-001
1.039444e+003, 4.580272e-001
1.041372e+003, 4.360163e-001
1.043301e+003, 4.142286e-001
1.045229e+003, 3.935795e-001
1.047157e+003, 3.743956e-001
1.049086e+003, 3.562066e-001
1.051014e+003, 3.387450e-001
1.052943e+003, 3.222517e-001
1.054871e+003, 3.067583e-001
1.056800e+003, 2.919039e-001
1.058728e+003, 2.772912e-001
1.060657e+003, 2.633817e-001
1.062585e+003, 2.502931e-001
1.064514e+003, 2.375923e-001
1.066442e+003, 2.251685e-001
1.068371e+003, 2.132656e-001
1.070299e+003, 2.012045e-001
1.072228e+003, 1.893778e-001
1.074156e+003, 1.781564e-001
1.076084e+003, 1.672253e-001
1.078013e+003, 1.566850e-001
1.079941e+003, 1.476872e-001
1.081870e+003, 1.422523e-001
1.083798e+003, 1.435089e-001
1.085727e+003, 1.531102e-001
1.087655e+003, 1.691303e-001
1.089584e+003, 1.833248e-001
1.091512e+003, 1.857028e-001
1.093441e+003, 1.761330e-001
1.095369e+003, 1.616527e-001
1.097298e+003, 1.467696e-001
1.099226e+003, 1.329376e-001
1.101155e+003, 1.203642e-001
1.103083e+003, 1.093996e-001
1.105011e+003, 9.956709e-002
1.106940e+003, 9.042933e-002
1.108868e+003, 8.244610e-002
1.110797e+003, 7.485926e-002
1.112725e+003, 6.727728e-002
1.114654e+003, 6.016911e-002
1.116582e+003, 5.363866e-002
1.118511e+003, 4.739369e-002
1.120439e+003, 4.171297e-002
1.122368e+003, 3.697976e-002
1.124296e+003, 3.282329e-002
1.126225e+003, 2.934188e-002
1.128153e+003, 2.651484e-002
1.130082e+003, 2.407785e-002
1.132010e+003, 2.193131e-002
1.133938e+003, 2.012903e-002
1.135867e+003, 1.867473e-002
1.137795e+003, 1.776133e-002
1.139724e+003, 1.695805e-002
1.141652e+003, 1.622230e-002
1.143581e+003, 1.583401e-002
1.145509e+003, 1.567443e-002
1.147438e+003, 1.548484e-002
1.149366e+003, 1.533820e-002
1.151295e+003, 1.511802e-002
1.153223e+003, 1.447556e-002
1.155152e+003, 1.386536e-002
1.157080e+003, 1.316706e-002
1.159009e+003, 1.246884e-002
1.160937e+003, 1.198618e-002
1.162865e+003, 1.170721e-002
1.164794e+003, 1.121679e-002
1.166722e+003, 1.069499e-002
1.168651e+003, 1.051426e-002
1.170579e+003, 1.051051e-002
1.172508e+003, 1.060581e-002
1.174436e+003, 1.067432e-002
1.176365e+003, 1.088394e-002
1.178293e+003, 1.100673e-002
1.180222e+003, 1.068767e-002
1.182150e+003, 9.908579e-003
1.184079e+003, 9.220379e-003
1.186007e+003, 8.629271e-003
1.187936e+003, 8.032423e-003
1.189864e+003, 7.765559e-003
1.191792e+003, 7.743437e-003
1.193721e+003, 7.478535e-003
1.195649e+003, 7.129657e-003
1.197578e+003, 6.776971e-003
1.199506e+003, 6.337667e-003
1.201435e+003, 6.033447e-003
1.203363e+003, 5.788232e-003
1.205292e+003, 5.401040e-003
1.207220e+003, 5.471366e-003
1.209149e+003, 5.637988e-003
1.211077e+003, 5.494700e-003
1.213006e+003, 5.187734e-003
1.214934e+003, 5.007547e-003
1.216863e+003, 4.787445e-003
1.218791e+003, 4.746098e-003
1.220719e+003, 4.638536e-003
1.222648e+003, 4.350071e-003
1.224576e+003, 4.216189e-003
1.226505e+003, 4.320665e-003
1.228433e+003, 4.236457e-003
1.230362e+003, 3.982940e-003
1.232290e+003, 4.014613e-003
1.234219e+003, 4.027948e-003
1.236147e+003, 4.027192e-003
1.238076e+003, 4.120161e-003
1.240004e+003, 3.984510e-003
1.241933e+003, 3.804773e-003
1.243861e+003, 3.718883e-003
1.245790e+003, 3.921747e-003
1.247718e+003, 4.046789e-003
1.249646e+003, 3.914837e-003
1.251575e+003, 3.842148e-003
1.253503e+003, 3.698664e-003
1.255432e+003, 3.501739e-003
1.257360e+003, 3.590374e-003
1.259289e+003, 3.581120e-003
1.261217e+003, 3.415982e-003
1.263146e+003, 3.456867e-003
1.265074e+003, 3.580113e-003
1.267003e+003, 3.746708e-003
1.268931e+003, 3.626904e-003
1.270860e+003, 3.303164e-003
1.272788e+003, 3.180281e-003
1.274717e+003, 3.053497e-003
1.276645e+003, 3.155545e-003
1.278573e+003, 3.426170e-003
1.280502e+003, 3.422880e-003
1.282430e+003, 3.299234e-003
1.284359e+003, 3.364302e-003
1.286287e+003, 3.367153e-003
1.288216e+003, 3.268432e-003
1.290144e+003, 3.260161e-003
1.292073e+003, 3.215203e-003
1.294001e+003, 2.974272e-003
1.295930e+003, 3.191573e-003
1.297858e+003, 3.401265e-003
1.299787e+003, 3.452622e-003
1.301715e+003, 3.381179e-003
1.303644e+003, 3.224312e-003
1.305572e+003, 3.101208e-003
1.307500e+003, 3.291349e-003
1.309429e+003, 3.331920e-003
1.311357e+003, 3.353371e-003
1.313286e+003, 3.419360e-003
1.315214e+003, 3.415060e-003
1.317143e+003, 3.354698e-003
1.319071e+003, 3.329331e-003
1.321000e+003, 3.334035e-003
1.322928e+003, 3.375886e-003
1.324857e+003, 3.345721e-003
1.326785e+003, 3.262597e-003
1.328714e+003, 3.228573e-003
1.330642e+003, 3.413246e-003
1.332571e+003, 3.551943e-003
1.334499e+003, 3.494348e-003
1.336427e+003, 3.400061e-003
1.338356e+003, 3.347114e-003
1.340284e+003, 3.366523e-003
1.342213e+003, 3.442434e-003
1.344141e+003, 3.467821e-003
1.346070e+003, 3.578372e-003
1.347998e+003, 3.724929e-003
1.349927e+003, 3.710315e-003
1.351855e+003, 3.708096e-003
1.353784e+003, 3.674027e-003
1.355712e+003, 3.649104e-003
1.357641e+003, 3.608163e-003
1.359569e+003, 3.543361e-003
1.361498e+003, 3.835291e-003
1.363426e+003, 4.123875e-003
1.365354e+003, 4.017451e-003
1.367283e+003, 3.860773e-003
1.369211e+003, 3.800289e-003
1.371140e+003, 3.764225e-003
1.373068e+003, 3.852332e-003
1.374997e+003, 3.901210e-003
1.376925e+003, 4.118358e-003
1.378854e+003, 3.949552e-003
1.380782e+003, 3.963336e-003
1.382711e+003, 4.131247e-003
1.384639e+003, 4.241135e-003
1.386568e+003, 4.188442e-003
1.388496e+003, 4.205700e-003
1.390424e+003, 4.489160e-003
1.392353e+003, 4.631370e-003
1.394281e+003, 4.639890e-003
1.396210e+003, 4.529795e-003
1.398138e+003, 4.559116e-003
1.400067e+003, 4.632412e-003
1.401995e+003, 4.755908e-003
1.403924e+003, 4.769620e-003
1.405852e+003, 5.105479e-003
1.407781e+003, 5.467310e-003
1.409709e+003, 5.388189e-003
1.411638e+003, 5.419675e-003
1.413566e+003, 5.591858e-003
1.415495e+003, 5.696527e-003
1.417423e+003, 5.729130e-003
1.419351e+003, 5.550704e-003
1.421280e+003, 5.538783e-003
1.423208e+003, 5.742805e-003
1.425137e+003, 5.910075e-003
1.427065e+003, 5.941752e-003
1.428994e+003, 5.938719e-003
1.430922e+003, 5.954559e-003
1.432851e+003, 5.987026e-003
1.434779e+003, 5.877336e-003
1.436708e+003, 5.572084e-003
1.438636e+003, 5.598324e-003
1.440565e+003, 5.628462e-003
1.442493e+003, 5.772947e-003
1.444422e+003, 5.785238e-003
1.446350e+003, 5.800812e-003
1.448278e+003, 5.738788e-003
1.450207e+003, 5.953716e-003
1.452135e+003, 6.143153e-003
1.454064e+003, 6.089755e-003
1.455992e+003, 5.982441e-003
1.457921e+003, 5.953539e-003
1.459849e+003, 6.145957e-003
1.461778e+003, 6.200556e-003
1.463706e+003, 6.157870e-003
1.465635e+003, 6.198861e-003
1.467563e+003, 6.333021e-003
1.469492e+003, 6.392376e-003
1.471420e+003, 6.215855e-003
1.473349e+003, 5.986013e-003
1.475277e+003, 5.908159e-003
1.477205e+003, 5.891830e-003
1.479134e+003, 6.094304e-003
1.481062e+003, 6.200986e-003
1.482991e+003, 6.009961e-003
1.484919e+003, 5.907239e-003
1.486848e+003, 5.764895e-003
1.488776e+003, 5.593153e-003
1.490705e+003, 5.696412e-003
1.492633e+003, 6.015903e-003
1.494562e+003, 6.039553e-003
1.496490e+003, 5.830235e-003
1.498419e+003, 5.738533e-003
1.500347e+003, 5.694169e-003
1.502276e+003, 5.929835e-003
1.504204e+003, 6.121947e-003
1.506132e+003, 5.981030e-003
1.508061e+003, 6.065009e-003
1.509989e+003, 6.279584e-003
1.511918e+003, 6.345530e-003
1.513846e+003, 6.284161e-003
1.515775e+003, 6.002045e-003
1.517703e+003, 5.791377e-003
1.519632e+003, 5.971688e-003
1.521560e+003, 5.946699e-003
1.523489e+003, 6.100889e-003
1.525417e+003, 6.280861e-003
1.527346e+003, 6.297628e-003
1.529274e+003, 6.149899e-003
1.531203e+003, 6.299644e-003
1.533131e+003, 6.394654e-003
1.535059e+003, 6.406310e-003
1.536988e+003, 6.669943e-003
1.538916e+003, 6.803337e-003
1.540845e+003, 6.781785e-003
1.542773e+003, 7.165640e-003
1.544702e+003, 7.537367e-003
1.546630e+003, 7.545357e-003
1.548559e+003, 7.624783e-003
1.550487e+003, 7.623650e-003
1.552416e+003, 7.677649e-003
1.554344e+003, 7.770664e-003
1.556273e+003, 7.945494e-003
1.558201e+003, 7.869627e-003
1.560130e+003, 7.668479e-003
1.562058e+003, 7.984045e-003
1.563986e+003, 8.176202e-003
1.565915e+003, 8.350676e-003
1.567843e+003, 8.214188e-003
1.569772e+003, 7.950452e-003
1.571700e+003, 8.012475e-003
1.573629e+003, 8.320978e-003
1.575557e+003, 8.292585e-003
1.577486e+003, 8.249117e-003
1.579414e+003, 8.433952e-003
1.581343e+003, 8.334932e-003
1.583271e+003, 8.374898e-003
1.585200e+003, 8.576919e-003
1.587128e+003, 8.528912e-003
1.589057e+003, 8.244005e-003
1.590985e+003, 8.143672e-003
1.592913e+003, 8.154123e-003
1.594842e+003, 8.284548e-003
1.596770e+003, 8.616237e-003
1.598699e+003, 8.576628e-003
1.600627e+003, 8.445536e-003
1.602556e+003, 8.388644e-003
1.604484e+003, 8.219942e-003
1.606413e+003, 8.139570e-003
1.608341e+003, 8.222086e-003
1.610270e+003, 8.011319e-003
1.612198e+003, 7.774326e-003
1.614127e+003, 7.898098e-003
1.616055e+003, 7.992710e-003
1.617984e+003, 7.588624e-003
1.619912e+003, 7.571271e-003
1.621840e+003, 7.869067e-003
1.623769e+003, 7.830901e-003
1.625697e+003, 7.736329e-003
1.627626e+003, 7.740208e-003
1.629554e+003, 7.688319e-003
1.631483e+003, 7.657653e-003
1.633411e+003, 7.568461e-003
1.635340e+003, 7.117716e-003
1.637268e+003, 6.909571e-003
1.639197e+003, 7.217211e-003
1.641125e+003, 7.666757e-003
1.643054e+003, 7.789007e-003
1.644982e+003, 7.454574e-003
1.646911e+003, 7.270076e-003
1.648839e+003, 7.245069e-003
1.650767e+003, 7.411455e-003
1.652696e+003, 7.334216e-003
1.654624e+003, 7.239524e-003
1.656553e+003, 7.470792e-003
1.658481e+003, 7.602422e-003
1.660410e+003, 7.568900e-003
1.662338e+003, 7.391042e-003
1.664267e+003, 7.300167e-003
1.666195e+003, 7.300366e-003
1.668124e+003, 7.254004e-003
1.670052e+003, 7.205311e-003
1.671981e+003, 7.420558e-003
1.673909e+003, 7.392903e-003
1.675838e+003, 7.028173e-003
1.677766e+003, 7.097092e-003
1.679694e+003, 7.020891e-003
1.681623e+003, 6.868125e-003
1.683551e+003, 6.823936e-003
1.685480e+003, 6.765618e-003
1.687408e+003, 7.244448e-003
1.689337e+003, 7.369245e-003
1.691265e+003, 7.323446e-003
1.693194e+003, 7.187211e-003
1.695122e+003, 6.903986e-003
1.697051e+003, 6.796364e-003
1.698979e+003, 7.235882e-003
1.700908e+003, 7.110461e-003
1.702836e+003, 7.294182e-003
1.704765e+003, 7.197363e-003
1.706693e+003, 7.012600e-003
1.708621e+003, 6.864947e-003
1.710550e+003, 6.853689e-003
1.712478e+003, 7.047237e-003
1.714407e+003, 7.063598e-003
1.716335e+003, 7.036075e-003
1.718264e+003, 6.866993e-003
1.720192e+003, 6.994959e-003
1.722121e+003, 7.238120e-003
1.724049e+003, 7.448244e-003
1.725978e+003, 7.233849e-003
1.727906e+003, 7.187615e-003
1.729835e+003, 7.238987e-003
1.731763e+003, 7.393821e-003
1.733692e+003, 7.302986e-003
1.735620e+003, 7.027715e-003
1.737548e+003, 6.930454e-003
1.739477e+003, 6.694341e-003
1.741405e+003, 6.612584e-003
1.743334e+003, 6.721296e-003
1.745262e+003, 6.962441e-003
1.747191e+003, 7.380377e-003
1.749119e+003, 7.366111e-003
1.751048e+003, 7.089553e-003
1.752976e+003, 6.921642e-003
1.754905e+003, 7.205321e-003
1.756833e+003, 7.303665e-003
1.758762e+003, 6.987158e-003
1.760690e+003, 6.815036e-003
1.762619e+003, 6.757574e-003
1.764547e+003, 6.744442e-003
1.766475e+003, 6.648331e-003
1.768404e+003, 6.917807e-003
1.770332e+003, 7.049487e-003
1.772261e+003, 6.780307e-003
1.774189e+003, 6.854337e-003
1.776118e+003, 6.894221e-003
1.778046e+003, 6.958382e-003
1.779975e+003, 7.166734e-003
1.781903e+003, 7.201440e-003
1.783832e+003, 7.033370e-003
1.785760e+003, 6.764149e-003
1.787689e+003, 6.778672e-003
1.789617e+003, 6.871178e-003
1.791546e+003, 6.957890e-003
1.793474e+003, 6.869483e-003
1.795402e+003, 7.001692e-003
1.797331e+003, 7.419081e-003
1.799259e+003, 7.383525e-003
1.801188e+003, 7.176910e-003
1.803116e+003, 7.366024e-003
1.805045e+003, 7.347564e-003
1.806973e+003, 7.060302e-003
1.808902e+003, 7.092470e-003
1.810830e+003, 7.163581e-003
1.812759e+003, 7.167868e-003
1.814687e+003, 6.566996e-003
1.816616e+003, 6.515167e-003
1.818544e+003, 7.061438e-003
1.820473e+003, 7.373503e-003
1.822401e+003, 7.491714e-003
1.824329e+003, 7.604230e-003
1.826258e+003, 7.289104e-003
1.828186e+003, 7.213676e-003
1.830115e+003, 7.268336e-003
1.832043e+003, 7.303260e-003
1.833972e+003, 7.200770e-003
1.835900e+003, 7.260744e-003
1.837829e+003, 7.246356e-003
1.839757e+003, 7.432206e-003
1.841686e+003, 7.635196e-003
1.843614e+003, 7.323523e-003
1.845543e+003, 6.919430e-003
1.847471e+003, 7.248417e-003
1.849400e+003, 7.449225e-003
1.851328e+003, 6.798276e-003
1.853256e+003, 6.747137e-003
1.855185e+003, 6.902076e-003
1.857113e+003, 6.889749e-003
1.859042e+003, 7.802644e-003
1.860970e+003, 8.178951e-003
1.862899e+003, 7.825914e-003
1.864827e+003, 7.285739e-003
1.866756e+003, 6.747140e-003
1.868684e+003, 6.448843e-003
1.870613e+003, 7.041967e-003
1.872541e+003, 7.270653e-003
1.874470e+003, 7.207450e-003
1.876398e+003, 7.053150e-003
1.878327e+003, 6.667807e-003
1.880255e+003, 6.830379e-003
1.882183e+003, 6.849222e-003
1.884112e+003, 6.607343e-003
1.886040e+003, 6.436176e-003
1.887969e+003, 6.531640e-003
1.889897e+003, 6.865242e-003
1.891826e+003, 6.797741e-003
1.893754e+003, 6.752010e-003
1.895683e+003, 6.497114e-003
1.897611e+003, 6.058942e-003
1.899540e+003, 5.707831e-003
1.901468e+003, 5.813078e-003
1.903397e+003, 6.063171e-003
1.905325e+003, 6.293525e-003
1.907254e+003, 5.884050e-003
1.909182e+003, 5.866007e-003
1.911110e+003, 6.115116e-003
1.913039e+003, 6.010860e-003
1.914967e+003, 5.412033e-003
1.916896e+003, 5.704573e-003
1.918824e+003, 5.891226e-003
1.920753e+003, 5.900704e-003
1.922681e+003, 5.538704e-003
1.924610e+003, 5.310639e-003
1.926538e+003, 4.898959e-003
1.928467e+003, 4.713387e-003
1.930395e+003, 4.584920e-003
1.932324e+003, 5.100863e-003
1.934252e+003, 5.000100e-003
1.936181e+003, 4.695117e-003
1.938109e+003, 4.854884e-003
1.940037e+003, 5.559424e-003
1.941966e+003, 4.803875e-003
1.943894e+003, 3.102478e-003
1.945823e+003, 2.380743e-003
1.947751e+003, 3.384299e-003
1.949680e+003, 4.499421e-003
1.951608e+003, 4.394448e-003
1.953537e+003, 2.929950e-003
1.955465e+003, 1.649596e-003
1.957394e+003, 7.905381e-004
1.959322e+003, 9.606174e-004
1.961251e+003, -4.369588e-004
1.963179e+003, 6.093577e-004
1.965108e+003, 2.498393e-003
1.967036e+003, 1.776468e-003
1.968964e+003, 1.029904e-003
1.970893e+003, 1.807951e-003
1.972821e+003, 1.374155e-003
1.974750e+003, 9.703222e-004
1.976678e+003, 1.874648e-003
1.978607e+003, 4.069745e-003
1.980535e+003, 4.327448e-003
1.982464e+003, 4.747234e-003
1.984392e+003, 5.104310e-003
1.986321e+003, 4.731084e-003
1.988249e+003, 4.011214e-003
1.990178e+003, 4.445610e-003
1.992106e+003, 4.861662e-003
1.994035e+003, 4.539485e-003
1.995963e+003, 3.889474e-003
1.997891e+003, 4.210733e-003
1.999820e+003, 2.763939e-003
2.001748e+003, 1.144846e-003
2.003677e+003, 2.570522e-003
2.005605e+003, 3.532247e-003
2.007534e+003, 2.918754e-003
2.009462e+003, 2.331167e-003
2.011391e+003, 2.417913e-003
2.013319e+003, 3.804135e-003
2.015248e+003, 3.013250e-003
2.017176e+003, 1.901545e-003
2.019105e+003, -9.308874e-005
2.021033e+003, -3.367848e-004
2.022962e+003, 9.227379e-004
2.024890e+003, 1.073714e-003
2.026818e+003, -5.393131e-004
2.028747e+003, -1.386002e-003
2.030675e+003, -5.752794e-005
2.032604e+003, -2.398573e-004
2.034532e+003, -5.465885e-004
2.036461e+003, 6.658526e-004
2.038389e+003, 1.137971e-003
2.040318e+003, 1.822642e-003
2.042246e+003, 8.287890e-004
2.044175e+003, 3.892334e-004
2.046103e+003, 1.657799e-003
2.048032e+003, 4.413627e-003
2.049960e+003, 4.907065e-003
2.051889e+003, 3.018436e-003
2.053817e+003, 2.198051e-003
2.055746e+003, 4.170734e-003
2.057674e+003, 5.887215e-003
2.059603e+003, 5.696211e-003
2.061531e+003, 4.841912e-003
2.063459e+003, 4.489029e-003
2.065388e+003, 4.378812e-003
2.067316e+003, 4.963692e-003
2.069245e+003, 5.571499e-003
2.071173e+003, 5.880517e-003
2.073102e+003, 4.818123e-003
2.075030e+003, 4.650373e-003
2.076959e+003, 5.249036e-003
2.078887e+003, 5.763301e-003
2.080816e+003, 5.870730e-003
2.082744e+003, 5.933760e-003
2.084673e+003, 6.312429e-003
2.086601e+003, 6.923489e-003
2.088530e+003, 6.810451e-003
2.090458e+003, 6.442621e-003
2.092386e+003, 5.688651e-003
2.094315e+003, 5.108012e-003
2.096243e+003, 5.296791e-003
2.098172e+003, 6.064264e-003
2.100100e+003, 6.047919e-003
2.102029e+003, 6.325837e-003
2.103957e+003, 6.759743e-003
2.105886e+003, 7.120653e-003
2.107814e+003, 7.527276e-003
2.109743e+003, 7.782934e-003
2.111671e+003, 7.489917e-003
2.113600e+003, 6.953815e-003
2.115528e+003, 6.464270e-003
2.117457e+003, 7.004977e-003
2.119385e+003, 7.355965e-003
2.121313e+003, 7.075261e-003
2.123242e+003, 6.429064e-003
2.125170e+003, 5.158587e-003
2.127099e+003, 4.552322e-003
2.129027e+003, 4.511653e-003
2.130956e+003, 3.359509e-003
2.132884e+003, 4.363473e-003
2.134813e+003, 5.867064e-003
2.136741e+003, 5.304904e-003
2.138670e+003, 4.145244e-003
2.140598e+003, 4.666367e-003
2.142527e+003, 4.330236e-003
2.144455e+003, 3.246633e-003
2.146384e+003, 3.314148e-003
2.148312e+003, 4.611454e-003
2.150240e+003, 2.891856e-003
2.152169e+003, 1.697353e-003
2.154097e+003, 9.027343e-004
2.156026e+003, -8.532378e-004
2.157954e+003, 3.761016e-004
2.159883e+003, 6.389092e-003
2.161811e+003, 7.103284e-003
2.163740e+003, 4.871892e-003
2.165668e+003, 5.207018e-003
2.167597e+003, 4.706831e-003
2.169525e+003, 5.712742e-003
2.171454e+003, 7.299796e-003
2.173382e+003, 4.877274e-003
2.175311e+003, 3.162324e-003
2.177239e+003, 4.107814e-003
2.179167e+003, 5.392729e-003
2.181096e+003, 4.707716e-003
2.183024e+003, 5.447099e-003
2.184953e+003, 4.881009e-003
2.186881e+003, 4.905061e-003
2.188810e+003, 6.514550e-003
2.190738e+003, 6.256924e-003
2.192667e+003, 5.602434e-003
2.194595e+003, 6.980416e-003
2.196524e+003, 7.702014e-003
2.198452e+003, 7.243467e-003
2.200381e+003, 7.180921e-003
2.202309e+003, 7.459755e-003
2.204238e+003, 7.324910e-003
2.206166e+003, 8.157780e-003
2.208094e+003, 8.912052e-003
2.210023e+003, 9.307919e-003
2.211951e+003, 9.438802e-003
2.213880e+003, 9.758447e-003
2.215808e+003, 9.988064e-003
2.217737e+003, 9.100785e-003
2.219665e+003, 8.216877e-003
2.221594e+003, 8.982146e-003
2.223522e+003, 8.901834e-003
2.225451e+003, 9.034391e-003
2.227379e+003, 9.800822e-003
2.229308e+003, 9.975270e-003
2.231236e+003, 1.012819e-002
2.233165e+003, 1.058785e-002
2.235093e+003, 1.084900e-002
2.237021e+003, 1.213200e-002
2.238950e+003, 1.185564e-002
2.240878e+003, 1.145557e-002
2.242807e+003, 1.049023e-002
2.244735e+003, 1.047486e-002
2.246664e+003, 1.254385e-002
2.248592e+003, 1.278179e-002
2.250521e+003, 1.136240e-002
2.252449e+003, 1.210804e-002
2.254378e+003, 1.319373e-002
2.256306e+003, 1.221761e-002
2.258235e+003, 1.058191e-002
2.260163e+003, 1.136576e-002
2.262092e+003, 1.239041e-002
2.264020e+003, 1.274404e-002
2.265948e+003, 1.234838e-002
2.267877e+003, 1.284064e-002
2.269805e+003, 1.357230e-002
2.271734e+003, 1.309284e-002
2.273662e+003, 1.247850e-002
2.275591e+003, 1.295413e-002
2.277519e+003, 1.367785e-002
2.279448e+003, 1.385821e-002
2.281376e+003, 1.375188e-002
2.283305e+003, 1.438247e-002
2.285233e+003, 1.415951e-002
2.287162e+003, 1.390805e-002
2.289090e+003, 1.359039e-002
2.291019e+003, 1.352285e-002
2.292947e+003, 1.403167e-002
2.294875e+003, 1.417826e-002
2.296804e+003, 1.366438e-002
2.298732e+003, 1.405177e-002
2.300661e+003, 1.424638e-002
2.302589e+003, 1.410277e-002
2.304518e+003, 1.439203e-002
2.306446e+003, 1.425695e-002
2.308375e+003, 1.372813e-002
2.310303e+003, 1.334661e-002
2.312232e+003, 1.344144e-002
2.314160e+003, 1.371862e-002
2.316089e+003, 1.360468e-002
2.318017e+003, 1.409999e-002
2.319946e+003, 1.453159e-002
2.321874e+003, 1.489653e-002
2.323802e+003, 1.526034e-002
2.325731e+003, 1.491252e-002
2.327659e+003, 1.372152e-002
2.329588e+003, 1.328625e-002
2.331516e+003, 1.361030e-002
2.333445e+003, 1.364040e-002
2.335373e+003, 1.342061e-002
2.337302e+003, 1.345930e-002
2.339230e+003, 1.316678e-002
2.341159e+003, 1.275444e-002
2.343087e+003, 1.289471e-002
2.345016e+003, 1.306638e-002
2.346944e+003, 1.282063e-002
2.348873e+003, 1.263106e-002
2.350801e+003, 1.283892e-002
2.352729e+003, 1.341062e-002
2.354658e+003, 1.350913e-002
2.356586e+003, 1.354791e-002
2.358515e+003, 1.394481e-002
2.360443e+003, 1.357421e-002
2.362372e+003, 1.304443e-002
2.364300e+003, 1.310148e-002
2.366229e+003, 1.298673e-002
2.368157e+003, 1.293587e-002
2.370086e+003, 1.320369e-002
2.372014e+003, 1.341696e-002
2.373942e+003, 1.330950e-002
2.375871e+003, 1.322281e-002
2.377799e+003, 1.309495e-002
2.379728e+003, 1.254675e-002
2.381656e+003, 1.235881e-002
2.383585e+003, 1.242712e-002
2.385513e+003, 1.208794e-002
2.387442e+003, 1.204733e-002
2.389370e+003, 1.287874e-002
2.391299e+003, 1.376336e-002
2.393227e+003, 1.381636e-002
2.395156e+003, 1.355174e-002
2.397084e+003, 1.323412e-002
2.399012e+003, 1.272038e-002
2.400941e+003, 1.260671e-002
2.402869e+003, 1.269697e-002
2.404798e+003, 1.187787e-002
2.406726e+003, 1.222710e-002
2.408655e+003, 1.264040e-002
2.410583e+003, 1.284699e-002
2.412512e+003, 1.281875e-002
2.414440e+003, 1.336680e-002
2.416369e+003, 1.368251e-002
2.418297e+003, 1.334717e-002
2.420226e+003, 1.285836e-002
2.422154e+003, 1.272848e-002
2.424083e+003, 1.346502e-002
2.426011e+003, 1.404900e-002
2.427939e+003, 1.378936e-002
2.429868e+003, 1.346976e-002
2.431796e+003, 1.342088e-002
2.433725e+003, 1.369192e-002
2.435653e+003, 1.360156e-002
2.437582e+003, 1.333437e-002
2.439510e+003, 1.378770e-002
2.441439e+003, 1.417820e-002
2.443367e+003, 1.404804e-002
2.445296e+003, 1.472174e-002
2.447224e+003, 1.510924e-002
2.449153e+003, 1.497596e-002
2.451081e+003, 1.446396e-002
2.453010e+003, 1.444963e-002
2.454938e+003, 1.430385e-002
2.456866e+003, 1.421394e-002
2.458795e+003, 1.462668e-002
2.460723e+003, 1.488707e-002
2.462652e+003, 1.457700e-002
2.464580e+003, 1.351600e-002
2.466509e+003, 1.324266e-002
2.468437e+003, 1.360409e-002
2.470366e+003, 1.316749e-002
2.472294e+003, 1.349378e-002
2.474223e+003, 1.391549e-002
2.476151e+003, 1.307375e-002
2.478080e+003, 1.323779e-002
2.480008e+003, 1.473598e-002
2.481937e+003, 1.510458e-002
2.483865e+003, 1.501767e-002
2.485793e+003, 1.442882e-002
2.487722e+003, 1.405281e-002
2.489650e+003, 1.373239e-002
2.491579e+003, 1.326863e-002
2.493507e+003, 1.336899e-002
2.495436e+003, 1.328767e-002
2.497364e+003, 1.340995e-002
2.499293e+003, 1.416961e-002
2.501221e+003, 1.412236e-002
2.503150e+003, 1.408284e-002
2.505078e+003, 1.397211e-002
2.507007e+003, 1.405431e-002
2.508935e+003, 1.491549e-002
2.510864e+003, 1.477017e-002
2.512792e+003, 1.371487e-002
2.514720e+003, 1.263148e-002
2.516649e+003, 1.305443e-002
2.518577e+003, 1.464132e-002
2.520506e+003, 1.460446e-002
2.522434e+003, 1.423285e-002
2.524363e+003, 1.426975e-002
2.526291e+003, 1.529622e-002
2.528220e+003, 1.574809e-002
2.530148e+003, 1.545237e-002
2.532077e+003, 1.513704e-002
2.534005e+003, 1.460892e-002
2.535934e+003, 1.408884e-002
2.537862e+003, 1.465664e-002
2.539791e+003, 1.514375e-002
2.541719e+003, 1.486149e-002
2.543647e+003, 1.456144e-002
2.545576e+003, 1.448121e-002
2.547504e+003, 1.443437e-002
2.549433e+003, 1.448877e-002
2.551361e+003, 1.444715e-002
2.553290e+003, 1.431691e-002
2.555218e+003, 1.427970e-002
2.557147e+003, 1.462826e-002
2.559075e+003, 1.508521e-002
2.561004e+003, 1.488861e-002
2.562932e+003, 1.510494e-002
2.564861e+003, 1.511742e-002
2.566789e+003, 1.486536e-002
2.568718e+003, 1.549283e-002
2.570646e+003, 1.480475e-002
2.572574e+003, 1.497343e-002
2.574503e+003, 1.568836e-002
2.576431e+003, 1.515898e-002
2.578360e+003, 1.535878e-002
2.580288e+003, 1.603329e-002
2.582217e+003, 1.537665e-002
2.584145e+003, 1.498204e-002
2.586074e+003, 1.536209e-002
2.588002e+003, 1.664818e-002
2.589931e+003, 1.728881e-002
2.591859e+003, 1.648989e-002
2.593788e+003, 1.536331e-002
2.595716e+003, 1.545295e-002
2.597645e+003, 1.559000e-002
2.599573e+003, 1.527980e-002
2.601501e+003, 1.523321e-002
2.603430e+003, 1.529950e-002
2.605358e+003, 1.505020e-002
2.607287e+003, 1.536394e-002
2.609215e+003, 1.551326e-002
2.611144e+003, 1.569341e-002
2.613072e+003, 1.594398e-002
2.615001e+003, 1.593923e-002
2.616929e+003, 1.551729e-002
2.618858e+003, 1.559030e-002
2.620786e+003, 1.573640e-002
2.622715e+003, 1.607228e-002
2.624643e+003, 1.596115e-002
2.626572e+003, 1.526714e-002
2.628500e+003, 1.502108e-002
2.630428e+003, 1.559161e-002
2.632357e+003, 1.579342e-002
2.634285e+003, 1.628715e-002
2.636214e+003, 1.678995e-002
2.638142e+003, 1.655539e-002
2.640071e+003, 1.626845e-002
2.641999e+003, 1.655980e-002
2.643928e+003, 1.668086e-002
2.645856e+003, 1.681072e-002
2.647785e+003, 1.660541e-002
2.649713e+003, 1.631238e-002
2.651642e+003, 1.593249e-002
2.653570e+003, 1.568094e-002
2.655499e+003, 1.556257e-002
2.657427e+003, 1.568508e-002
2.659355e+003, 1.566458e-002
2.661284e+003, 1.569936e-002
2.663212e+003, 1.528637e-002
2.665141e+003, 1.521405e-002
2.667069e+003, 1.508494e-002
2.668998e+003, 1.493772e-002
2.670926e+003, 1.484740e-002
2.672855e+003, 1.474151e-002
2.674783e+003, 1.503071e-002
2.676712e+003, 1.510849e-002
2.678640e+003, 1.491178e-002
2.680569e+003, 1.526128e-002
2.682497e+003, 1.520985e-002
2.684426e+003, 1.537057e-002
2.686354e+003, 1.483158e-002
2.688282e+003, 1.500507e-002
2.690211e+003, 1.515309e-002
2.692139e+003, 1.487681e-002
2.694068e+003, 1.517952e-002
2.695996e+003, 1.564948e-002
2.697925e+003, 1.589335e-002
2.699853e+003, 1.610713e-002
2.701782e+003, 1.615521e-002
2.703710e+003, 1.612451e-002
2.705639e+003, 1.579732e-002
2.707567e+003, 1.537485e-002
2.709496e+003, 1.531285e-002
2.711424e+003, 1.538537e-002
2.713353e+003, 1.513529e-002
2.715281e+003, 1.576464e-002
2.717209e+003, 1.630471e-002
2.719138e+003, 1.585999e-002
2.721066e+003, 1.504646e-002
2.722995e+003, 1.480238e-002
2.724923e+003, 1.499574e-002
2.726852e+003, 1.557711e-002
2.728780e+003, 1.610054e-002
2.730709e+003, 1.591832e-002
2.732637e+003, 1.549063e-002
2.734566e+003, 1.543758e-002
2.736494e+003, 1.553152e-002
2.738423e+003, 1.610824e-002
2.740351e+003, 1.601706e-002
2.742280e+003, 1.589628e-002
2.744208e+003, 1.593399e-002
2.746136e+003, 1.573597e-002
2.748065e+003, 1.608827e-002
2.749993e+003, 1.624466e-002
2.751922e+003, 1.607573e-002
2.753850e+003, 1.597029e-002
2.755779e+003, 1.566875e-002
2.757707e+003, 1.556529e-002
2.759636e+003, 1.589507e-002
2.761564e+003, 1.644001e-002
2.763493e+003, 1.683235e-002
2.765421e+003, 1.632337e-002
2.767350e+003, 1.611653e-002
2.769278e+003, 1.633693e-002
2.771207e+003, 1.639680e-002
2.773135e+003, 1.643421e-002
2.775063e+003, 1.653410e-002
2.776992e+003, 1.663962e-002
2.778920e+003, 1.656156e-002
2.780849e+003, 1.613969e-002
2.782777e+003, 1.632732e-002
2.784706e+003, 1.680008e-002
2.786634e+003, 1.625160e-002
2.788563e+003, 1.619936e-002
2.790491e+003, 1.700030e-002
2.792420e+003, 1.736650e-002
2.794348e+003, 1.694351e-002
2.796277e+003, 1.640992e-002
2.798205e+003, 1.612713e-002
2.800134e+003, 1.619071e-002
2.802062e+003, 1.685256e-002
2.803990e+003, 1.692672e-002
2.805919e+003, 1.653795e-002
2.807847e+003, 1.705085e-002
2.809776e+003, 1.738748e-002
2.811704e+003, 1.675103e-002
2.813633e+003, 1.602411e-002
2.815561e+003, 1.621630e-002
2.817490e+003, 1.664695e-002
2.819418e+003, 1.711791e-002
2.821347e+003, 1.752974e-002
2.823275e+003, 1.694156e-002
2.825204e+003, 1.645959e-002
2.827132e+003, 1.679339e-002
2.829061e+003, 1.663190e-002
2.830989e+003, 1.612677e-002
2.832917e+003, 1.650445e-002
2.834846e+003, 1.725446e-002
2.836774e+003, 1.745495e-002
2.838703e+003, 1.813270e-002
2.840631e+003, 1.769675e-002
2.842560e+003, 1.685296e-002
2.844488e+003, 1.694581e-002
2.846417e+003, 1.733523e-002
2.848345e+003, 1.773926e-002
2.850274e+003, 1.791645e-002
2.852202e+003, 1.786002e-002
2.854131e+003, 1.791748e-002
2.856059e+003, 1.805268e-002
2.857988e+003, 1.789280e-002
2.859916e+003, 1.740141e-002
2.861844e+003, 1.798872e-002
2.863773e+003, 1.760407e-002
2.865701e+003, 1.703187e-002
2.867630e+003, 1.671125e-002
2.869558e+003, 1.670562e-002
2.871487e+003, 1.661917e-002
2.873415e+003, 1.725678e-002
2.875344e+003, 1.787680e-002
2.877272e+003, 1.845845e-002
2.879201e+003, 1.842629e-002
2.881129e+003, 1.849037e-002
2.883058e+003, 1.798931e-002
2.884986e+003, 1.726057e-002
2.886915e+003, 1.718425e-002
2.888843e+003, 1.736469e-002
2.890771e+003, 1.759996e-002
2.892700e+003, 1.802741e-002
2.894628e+003, 1.851238e-002
2.896557e+003, 1.835058e-002
2.898485e+003, 1.798173e-002
2.900414e+003, 1.871530e-002
2.902342e+003, 1.863815e-002
2.904271e+003, 1.801187e-002
2.906199e+003, 1.787537e-002
2.908128e+003, 1.787560e-002
2.910056e+003, 1.782184e-002
2.911985e+003, 1.798367e-002
2.913913e+003, 1.870119e-002
2.915842e+003, 1.907769e-002
2.917770e+003, 1.854376e-002
2.919698e+003, 1.910784e-002
2.921627e+003, 1.958195e-002
2.923555e+003, 1.937031e-002
2.925484e+003, 1.871683e-002
2.927412e+003, 1.778384e-002
2.929341e+003, 1.755817e-002
2.931269e+003, 1.746072e-002
2.933198e+003, 1.812318e-002
2.935126e+003, 1.889224e-002
2.937055e+003, 1.848663e-002
2.938983e+003, 1.812268e-002
2.940912e+003, 1.763741e-002
2.942840e+003, 1.749279e-002
2.944769e+003, 1.723552e-002
2.946697e+003, 1.736675e-002
2.948625e+003, 1.805442e-002
2.950554e+003, 1.873687e-002
2.952482e+003, 1.837185e-002
2.954411e+003, 1.806066e-002
2.956339e+003, 1.832511e-002
2.958268e+003, 1.840199e-002
2.960196e+003, 1.885654e-002
2.962125e+003, 1.924377e-002
2.964053e+003, 1.843470e-002
2.965982e+003, 1.844629e-002
2.967910e+003, 1.805234e-002
2.969839e+003, 1.817175e-002
2.971767e+003, 1.837561e-002
2.973696e+003, 1.850687e-002
2.975624e+003, 1.848567e-002
2.977552e+003, 1.816943e-002
2.979481e+003, 1.756431e-002
2.981409e+003, 1.757137e-002
2.983338e+003, 1.739057e-002
2.985266e+003, 1.723731e-002
2.987195e+003, 1.759805e-002
2.989123e+003, 1.751997e-002
2.991052e+003, 1.744328e-002
2.992980e+003, 1.882058e-002
2.994909e+003, 1.923923e-002
2.996837e+003, 1.853619e-002
2.998766e+003, 1.829678e-002
3.000694e+003, 1.824341e-002
3.002623e+003, 1.814547e-002
3.004551e+003, 1.819307e-002
3.006479e+003, 1.774965e-002
3.008408e+003, 1.851849e-002
3.010336e+003, 1.854180e-002
3.012265e+003, 1.796402e-002
3.014193e+003, 1.769082e-002
3.016122e+003, 1.891857e-002
3.018050e+003, 1.879006e-002
3.019979e+003, 1.849352e-002
3.021907e+003, 1.851995e-002
3.023836e+003, 1.842264e-002
3.025764e+003, 1.862392e-002
3.027693e+003, 1.886669e-002
3.029621e+003, 1.816199e-002
3.031550e+003, 1.901505e-002
3.033478e+003, 1.989564e-002
3.035406e+003, 1.975637e-002
3.037335e+003, 1.888442e-002
3.039263e+003, 1.820786e-002
3.041192e+003, 1.922757e-002
3.043120e+003, 1.969717e-002
3.045049e+003, 1.925033e-002
3.046977e+003, 1.884678e-002
3.048906e+003, 1.778390e-002
3.050834e+003, 1.773532e-002
3.052763e+003, 1.792738e-002
3.054691e+003, 1.791327e-002
3.056620e+003, 1.847051e-002
3.058548e+003, 1.949898e-002
3.060477e+003, 1.858843e-002
3.062405e+003, 1.814736e-002
3.064333e+003, 1.831103e-002
3.066262e+003, 1.871960e-002
3.068190e+003, 1.895110e-002
3.070119e+003, 1.894805e-002
3.072047e+003, 1.903192e-002
3.073976e+003, 1.845354e-002
3.075904e+003, 1.829535e-002
3.077833e+003, 1.872644e-002
3.079761e+003, 1.842568e-002
3.081690e+003, 1.856363e-002
3.083618e+003, 1.946641e-002
3.085547e+003, 1.946002e-002
3.087475e+003, 1.929096e-002
3.089404e+003, 1.943792e-002
3.091332e+003, 1.963484e-002
3.093260e+003, 1.998733e-002
3.095189e+003, 1.974510e-002
3.097117e+003, 1.988852e-002
3.099046e+003, 2.018513e-002
3.100974e+003, 1.975104e-002
3.102903e+003, 1.912570e-002
3.104831e+003, 1.946069e-002
3.106760e+003, 1.998618e-002
3.108688e+003, 2.020465e-002
3.110617e+003, 2.028729e-002
3.112545e+003, 1.992104e-002
3.114474e+003, 1.923943e-002
3.116402e+003, 1.945130e-002
3.118331e+003, 1.937372e-002
3.120259e+003, 1.912553e-002
3.122188e+003, 1.955753e-002
3.124116e+003, 1.937723e-002
3.126044e+003, 1.947987e-002
3.127973e+003, 2.036526e-002
3.129901e+003, 2.027602e-002
3.131830e+003, 1.990854e-002
3.133758e+003, 1.979047e-002
3.135687e+003, 2.009701e-002
3.137615e+003, 2.007466e-002
3.139544e+003, 1.973729e-002
3.141472e+003, 1.972798e-002
3.143401e+003, 1.976524e-002
3.145329e+003, 2.035059e-002
3.147258e+003, 2.083184e-002
3.149186e+003, 2.001645e-002
3.151115e+003, 1.966334e-002
3.153043e+003, 1.983648e-002
3.154971e+003, 2.045649e-002
3.156900e+003, 2.033883e-002
3.158828e+003, 1.988223e-002
3.160757e+003, 2.065273e-002
3.162685e+003, 2.102633e-002
3.164614e+003, 2.127949e-002
3.166542e+003, 2.060075e-002
3.168471e+003, 1.959210e-002
3.170399e+003, 2.023978e-002
3.172328e+003, 2.089525e-002
3.174256e+003, 2.077245e-002
3.176185e+003, 2.032980e-002
3.178113e+003, 2.032879e-002
3.180042e+003, 2.010653e-002
3.181970e+003, 2.039626e-002
3.183898e+003, 1.977591e-002
3.185827e+003, 1.996405e-002
3.187755e+003, 1.990937e-002
3.189684e+003, 2.008741e-002
3.191612e+003, 2.092179e-002
3.193541e+003, 2.065301e-002
3.195469e+003, 2.040211e-002
3.197398e+003, 2.166535e-002
3.199326e+003, 2.100821e-002
3.201255e+003, 2.062237e-002
3.203183e+003, 2.083809e-002
3.205112e+003, 2.003772e-002
3.207040e+003, 1.992463e-002
3.208969e+003, 2.016184e-002
3.210897e+003, 2.031677e-002
3.212825e+003, 2.061028e-002
3.214754e+003, 2.059941e-002
3.216682e+003, 2.158777e-002
3.218611e+003, 2.195904e-002
3.220539e+003, 2.116052e-002
3.222468e+003, 2.078810e-002
3.224396e+003, 2.123598e-002
3.226325e+003, 2.130089e-002
3.228253e+003, 2.135239e-002
3.230182e+003, 2.178425e-002
3.232110e+003, 2.180847e-002
3.234039e+003, 2.108518e-002
3.235967e+003, 2.191345e-002
3.237896e+003, 2.236736e-002
3.239824e+003, 2.114994e-002
3.241752e+003, 2.031663e-002
3.243681e+003, 2.070135e-002
3.245609e+003, 2.050894e-002
3.247538e+003, 2.136241e-002
3.249466e+003, 2.102928e-002
3.251395e+003, 2.062476e-002
3.253323e+003, 2.116596e-002
3.255252e+003, 2.197011e-002
3.257180e+003, 2.162802e-002
3.259109e+003, 2.190687e-002
3.261037e+003, 2.139835e-002
3.262966e+003, 2.158169e-002
3.264894e+003, 2.177394e-002
3.266823e+003, 2.220566e-002
3.268751e+003, 2.148855e-002
3.270679e+003, 2.118022e-002
3.272608e+003, 2.185061e-002
3.274536e+003, 2.253233e-002
3.276465e+003, 2.178398e-002
3.278393e+003, 2.049549e-002
3.280322e+003, 2.035660e-002
3.282250e+003, 2.153315e-002
3.284179e+003, 2.221400e-002
3.286107e+003, 2.170039e-002
3.288036e+003, 2.130723e-002
3.289964e+003, 2.184962e-002
3.291893e+003, 2.268624e-002
3.293821e+003, 2.230273e-002
3.295750e+003, 2.117246e-002
3.297678e+003, 2.179412e-002
3.299606e+003, 2.200680e-002
3.301535e+003, 2.145701e-002
3.303463e+003, 2.199908e-002
3.305392e+003, 2.237097e-002
3.307320e+003, 2.181658e-002
3.309249e+003, 2.155635e-002
3.311177e+003, 2.163908e-002
3.313106e+003, 2.272828e-002
3.315034e+003, 2.254446e-002
3.316963e+003, 2.160292e-002
3.318891e+003, 2.176363e-002
3.320820e+003, 2.307199e-002
3.322748e+003, 2.207855e-002
3.324677e+003, 2.063178e-002
3.326605e+003, 2.090810e-002
3.328533e+003, 2.141489e-002
3.330462e+003, 2.239753e-002
3.332390e+003, 2.284893e-002
3.334319e+003, 2.211484e-002
3.336247e+003, 2.078894e-002
3.338176e+003, 1.979178e-002
3.340104e+003, 1.975599e-002
3.342033e+003, 2.081679e-002
3.343961e+003, 2.052266e-002
3.345890e+003, 1.984000e-002
3.347818e+003, 2.086960e-002
3.349747e+003, 2.122125e-002
3.351675e+003, 2.085706e-002
3.353604e+003, 2.192337e-002
3.355532e+003, 2.286108e-002
3.357460e+003, 2.204947e-002
3.359389e+003, 2.111645e-002
3.361317e+003, 2.292028e-002
3.363246e+003, 2.418179e-002
3.365174e+003, 2.295118e-002
3.367103e+003, 2.227353e-002
3.369031e+003, 2.167676e-002
3.370960e+003, 2.218785e-002
3.372888e+003, 2.269142e-002
3.374817e+003, 2.329056e-002
3.376745e+003, 2.298895e-002
3.378674e+003, 2.350889e-002
3.380602e+003, 2.325603e-002
3.382531e+003, 2.196382e-002
3.384459e+003, 2.211901e-002
3.386387e+003, 2.174792e-002
3.388316e+003, 2.119007e-002
3.390244e+003, 2.344214e-002
3.392173e+003, 2.423901e-002
3.394101e+003, 2.394513e-002
3.396030e+003, 2.287975e-002
3.397958e+003, 2.280494e-002
3.399887e+003, 2.274998e-002
3.401815e+003, 2.331953e-002
3.403744e+003, 2.205094e-002
3.405672e+003, 2.161930e-002
3.407601e+003, 2.256453e-002
3.409529e+003, 2.202867e-002
3.411458e+003, 2.217542e-002
3.413386e+003, 2.185524e-002
3.415314e+003, 2.052002e-002
3.417243e+003, 2.089394e-002
3.419171e+003, 2.133398e-002
3.421100e+003, 2.257663e-002
3.423028e+003, 2.267506e-002
3.424957e+003, 2.254117e-002
3.426885e+003, 2.245707e-002
3.428814e+003, 2.181377e-002
3.430742e+003, 2.172585e-002
3.432671e+003, 2.228679e-002
3.434599e+003, 2.213913e-002
3.436528e+003, 2.132779e-002
3.438456e+003, 2.174966e-002
3.440385e+003, 2.280681e-002
3.442313e+003, 2.264945e-002
3.444241e+003, 2.224435e-002
3.446170e+003, 2.170374e-002
3.448098e+003, 2.157611e-002
3.450027e+003, 2.235897e-002
3.451955e+003, 2.328232e-002
3.453884e+003, 2.254405e-002
3.455812e+003, 2.132785e-002
3.457741e+003, 2.046322e-002
3.459669e+003, 1.960074e-002
3.461598e+003, 1.974743e-002
3.463526e+003, 2.043743e-002
3.465455e+003, 2.134982e-002
3.467383e+003, 2.201973e-002
3.469312e+003, 2.307472e-002
3.471240e+003, 2.441351e-002
3.473168e+003, 2.260971e-002
3.475097e+003, 2.088210e-002
3.477025e+003, 2.111035e-002
3.478954e+003, 2.212031e-002
3.480882e+003, 2.242252e-002
3.482811e+003, 2.293520e-002
3.484739e+003, 2.223910e-002
3.486668e+003, 2.195201e-002
3.488596e+003, 2.331930e-002
3.490525e+003, 2.420856e-002
3.492453e+003, 2.341294e-002
3.494382e+003, 2.161314e-002
3.496310e+003, 2.118995e-002
3.498239e+003, 2.190690e-002
3.500167e+003, 2.133595e-002
3.502095e+003, 2.164208e-002
3.504024e+003, 2.205631e-002
3.505952e+003, 2.174468e-002
3.507881e+003, 2.262453e-002
3.509809e+003, 2.431056e-002
3.511738e+003, 2.541618e-002
3.513666e+003, 2.388208e-002
3.515595e+003, 2.114790e-002
3.517523e+003, 2.010431e-002
3.519452e+003, 1.949889e-002
3.521380e+003, 2.201392e-002
3.523309e+003, 2.216149e-002
3.525237e+003, 2.045615e-002
3.527166e+003, 2.122660e-002
3.529094e+003, 2.372784e-002
3.531022e+003, 2.330417e-002
3.532951e+003, 2.335592e-002
3.534879e+003, 2.344132e-002
3.536808e+003, 2.287984e-002
3.538736e+003, 2.117480e-002
3.540665e+003, 2.067449e-002
3.542593e+003, 2.240022e-002
3.544522e+003, 2.427284e-002
3.546450e+003, 2.487302e-002
3.548379e+003, 2.448062e-002
3.550307e+003, 2.332933e-002
3.552236e+003, 2.275243e-002
3.554164e+003, 2.152881e-002
3.556093e+003, 2.184988e-002
3.558021e+003, 2.128749e-002
3.559949e+003, 2.124069e-002
3.561878e+003, 2.169626e-002
3.563806e+003, 2.210879e-002
3.565735e+003, 2.106500e-002
3.567663e+003, 2.066255e-002
3.569592e+003, 1.948185e-002
3.571520e+003, 2.057020e-002
3.573449e+003, 2.136671e-002
3.575377e+003, 2.114827e-002
3.577306e+003, 2.139894e-002
3.579234e+003, 2.223541e-002
3.581163e+003, 2.185106e-002
3.583091e+003, 2.182585e-002
3.585020e+003, 2.337806e-002
3.586948e+003, 2.416253e-002
3.588876e+003, 2.286760e-002
3.590805e+003, 2.069569e-002
3.592733e+003, 1.943329e-002
3.594662e+003, 2.069928e-002
3.596590e+003, 2.184122e-002
3.598519e+003, 2.113713e-002
3.600447e+003, 2.099548e-002
3.602376e+003, 2.307995e-002
3.604304e+003, 2.351656e-002
3.606233e+003, 2.292440e-002
3.608161e+003, 2.191500e-002
3.610090e+003, 2.238982e-002
3.612018e+003, 2.071977e-002
3.613947e+003, 1.947172e-002
3.615875e+003, 2.082532e-002
3.617803e+003, 2.248808e-002
3.619732e+003, 2.218582e-002
3.621660e+003, 2.106711e-002
3.623589e+003, 2.078885e-002
3.625517e+003, 2.212612e-002
3.627446e+003, 2.269629e-002
3.629374e+003, 2.287518e-002
3.631303e+003, 2.154870e-002
3.633231e+003, 2.144176e-002
3.635160e+003, 2.077032e-002
3.637088e+003, 2.060283e-002
3.639017e+003, 2.126805e-002
3.640945e+003, 2.208191e-002
3.642874e+003, 2.179005e-002
3.644802e+003, 2.157081e-002
3.646730e+003, 2.176904e-002
3.648659e+003, 2.295177e-002
3.650587e+003, 2.286057e-002
3.652516e+003, 2.193523e-002
3.654444e+003, 2.170222e-002
3.656373e+003, 2.346829e-002
3.658301e+003, 2.277671e-002
3.660230e+003, 2.296472e-002
3.662158e+003, 2.281652e-002
3.664087e+003, 2.171203e-002
3.666015e+003, 2.151855e-002
3.667944e+003, 2.135174e-002
3.669872e+003, 1.998912e-002
3.671801e+003, 2.141549e-002
3.673729e+003, 2.253378e-002
3.675657e+003, 2.268867e-002
3.677586e+003, 2.004001e-002
3.679514e+003, 2.142629e-002
3.681443e+003, 2.228397e-002
3.683371e+003, 2.263954e-002
3.685300e+003, 2.428468e-002
3.687228e+003, 2.306161e-002
3.689157e+003, 2.199683e-002
3.691085e+003, 2.173249e-002
3.693014e+003, 2.054576e-002
3.694942e+003, 2.120049e-002
3.696871e+003, 2.155392e-002
3.698799e+003, 2.143562e-002
3.700728e+003, 2.149254e-002
3.702656e+003, 2.171465e-002
3.704584e+003, 2.135656e-002
3.706513e+003, 2.199530e-002
3.708441e+003, 2.285659e-002
3.710370e+003, 2.319753e-002
3.712298e+003, 2.086451e-002
3.714227e+003, 1.929182e-002
3.716155e+003, 2.023916e-002
3.718084e+003, 1.991055e-002
3.720012e+003, 1.983586e-002
3.721941e+003, 2.064439e-002
3.723869e+003, 2.106739e-002
3.725798e+003, 2.004012e-002
3.727726e+003, 2.022774e-002
3.729655e+003, 2.153138e-002
3.731583e+003, 2.199232e-002
3.733511e+003, 2.129561e-002
3.735440e+003, 2.126682e-002
3.737368e+003, 2.240086e-002
3.739297e+003, 2.211277e-002
3.741225e+003, 2.175000e-002
3.743154e+003, 2.195741e-002
3.745082e+003, 2.311466e-002
3.747011e+003, 2.237859e-002
3.748939e+003, 2.415435e-002
3.750868e+003, 2.445524e-002
3.752796e+003, 2.498650e-002
3.754725e+003, 2.238847e-002
3.756653e+003, 2.254054e-002
3.758582e+003, 2.330669e-002
3.760510e+003, 2.327487e-002
3.762438e+003, 2.253854e-002
3.764367e+003, 2.363910e-002
3.766295e+003, 2.506584e-002
3.768224e+003, 2.412046e-002
3.770152e+003, 2.290379e-002
3.772081e+003, 2.312894e-002
3.774009e+003, 2.128947e-002
3.775938e+003, 1.975154e-002
3.777866e+003, 1.990058e-002
3.779795e+003, 2.192137e-002
3.781723e+003, 2.412835e-002
3.783652e+003, 2.576397e-002
3.785580e+003, 2.481258e-002
3.787509e+003, 2.448587e-002
3.789437e+003, 2.457893e-002
3.791365e+003, 2.387621e-002
3.793294e+003, 2.205865e-002
3.795222e+003, 2.236520e-002
3.797151e+003, 2.297391e-002
3.799079e+003, 2.304906e-002
3.801008e+003, 2.262390e-002
3.802936e+003, 2.137739e-002
3.804865e+003, 2.004451e-002
3.806793e+003, 2.088268e-002
3.808722e+003, 2.174622e-002
3.810650e+003, 2.345155e-002
3.812579e+003, 2.504091e-002
3.814507e+003, 2.375693e-002
3.816436e+003, 2.262582e-002
3.818364e+003, 2.152251e-002
3.820292e+003, 2.222881e-002
3.822221e+003, 2.342168e-002
3.824149e+003, 2.257090e-002
3.826078e+003, 2.268554e-002
3.828006e+003, 2.359383e-002
3.829935e+003, 2.314746e-002
3.831863e+003, 2.253906e-002
3.833792e+003, 2.266844e-002
3.835720e+003, 2.285546e-002
3.837649e+003, 2.371081e-002
3.839577e+003, 2.328887e-002
3.841506e+003, 2.402826e-002
3.843434e+003, 2.583834e-002
3.845363e+003, 2.482762e-002
3.847291e+003, 2.192127e-002
3.849219e+003, 2.245146e-002
3.851148e+003, 2.427087e-002
3.853076e+003, 2.548878e-002
3.855005e+003, 2.552119e-002
3.856933e+003, 2.337561e-002
3.858862e+003, 2.252923e-002
3.860790e+003, 2.257591e-002
3.862719e+003, 2.325434e-002
3.864647e+003, 2.329216e-002
3.866576e+003, 2.274889e-002
3.868504e+003, 2.215782e-002
3.870433e+003, 2.364818e-002
3.872361e+003, 2.503520e-002
3.874290e+003, 2.375796e-002
3.876218e+003, 2.233521e-002
3.878146e+003, 2.448739e-002
3.880075e+003, 2.536744e-002
3.882003e+003, 2.445070e-002
3.883932e+003, 2.340141e-002
3.885860e+003, 2.446756e-002
3.887789e+003, 2.500304e-002
3.889717e+003, 2.428731e-002
3.891646e+003, 2.616297e-002
3.893574e+003, 2.569133e-002
3.895503e+003, 2.325876e-002
3.897431e+003, 2.114149e-002
3.899360e+003, 2.200253e-002
3.901288e+003, 2.084777e-002
3.903217e+003, 2.174702e-002
3.905145e+003, 2.373336e-002
3.907073e+003, 2.469966e-002
3.909002e+003, 2.559854e-002
3.910930e+003, 2.412781e-002
3.912859e+003, 2.244343e-002
3.914787e+003, 2.123990e-002
3.916716e+003, 1.989090e-002
3.918644e+003, 2.165625e-002
3.920573e+003, 2.192840e-002
3.922501e+003, 2.203071e-002
3.924430e+003, 2.163977e-002
3.926358e+003, 2.127070e-002
3.928287e+003, 2.184014e-002
3.930215e+003, 2.293840e-002
3.932144e+003, 2.266059e-002
3.934072e+003, 2.360985e-002
3.936000e+003, 2.425919e-002
3.937929e+003, 2.236735e-002
3.939857e+003, 2.257488e-002
3.941786e+003, 2.426972e-002
3.943714e+003, 2.335699e-002
3.945643e+003, 2.267530e-002
3.947571e+003, 2.327251e-002
3.949500e+003, 2.475027e-002
3.951428e+003, 2.412240e-002
3.953357e+003, 2.262913e-002
3.955285e+003, 2.431142e-002
3.957214e+003, 2.585720e-002
3.959142e+003, 2.468452e-002
3.961071e+003, 2.470272e-002
3.962999e+003, 2.655004e-002
3.964927e+003, 2.714433e-002
3.966856e+003, 2.305694e-002
3.968784e+003, 2.118838e-002
3.970713e+003, 2.207131e-002
3.972641e+003, 2.332398e-002
3.974570e+003, 2.378739e-002
3.976498e+003, 2.281390e-002
3.978427e+003, 2.340829e-002
3.980355e+003, 2.474955e-002
3.982284e+003, 2.156306e-002
3.984212e+003, 2.027313e-002
3.986141e+003, 2.352410e-002
3.988069e+003, 2.549532e-002
3.989998e+003, 2.407348e-002
3.991926e+003, 2.631483e-002
3.993854e+003, 2.899272e-002
3.995783e+003, 2.718774e-002
3.997711e+003, 2.571990e-002
3.999640e+003, 2.573045e-002
##END=



