##NAMES=Fluorcalciomicrolite
##RRUFFID=R050625
##IDEAL CHEMISTRY=(Ca,Na)_2_Ta^5+^_2_O_6_F
##LOCALITY=Urubu mine, Itinga, Minas Gerais, Brazil
##OWNER=RRUFF
##SOURCE=Gemological Center
##DESCRIPTION=Yellow fragment
##STATUS=The identification of this mineral has been confirmed by X-ray diffraction and chemical analysis
##URL=rruff.info/R050625
##MEASURED CHEMISTRY=(Ca_0.98_Na_0.92_)_∑=1.90_(Ta_1.88_Nb_0.11_Sn_0.01_)_∑=2_O_6_[F_0.86_(OH)_0.01_]_∑=0.87_
399.1926, 0.2176311
401.1211, 0.2183560
403.0496, 0.2194058
404.9780, 0.2149319
406.9065, 0.2010901
408.8350, 0.1996640
410.7634, 0.2018103
412.6919, 0.1985780
414.6204, 0.1955463
416.5488, 0.1881906
418.4773, 0.1813011
420.4058, 0.1769440
422.3342, 0.1720718
424.2627, 0.1710264
426.1912, 0.1709310
428.1196, 0.1661823
430.0481, 0.1637867
431.9766, 0.1618272
433.9050, 0.1567686
435.8335, 0.1527003
437.7620, 0.1487308
439.6904, 0.1455129
441.6189, 0.1427639
443.5474, 0.1384902
445.4758, 0.1337411
447.4043, 0.1298029
449.3328, 0.1262989
451.2612, 0.1230485
453.1897, 0.1195203
455.1182, 0.1155706
457.0466, 0.1113767
458.9751, 0.1088690
460.9036, 0.1061364
462.8320, 0.1012441
464.7605, 9.5483117E-02
466.6890, 9.1752447E-02
468.6174, 8.8664383E-02
470.5459, 8.5385278E-02
472.4744, 8.3004802E-02
474.4028, 8.0216862E-02
476.3313, 7.9533830E-02
478.2598, 8.0717750E-02
480.1882, 8.2271807E-02
482.1167, 8.4830187E-02
484.0452, 8.8640541E-02
485.9736, 9.3031317E-02
487.9021, 9.8419897E-02
489.8306, 0.1048422
491.7590, 0.1133886
493.6875, 0.1244607
495.6160, 0.1379123
497.5444, 0.1526792
499.4729, 0.1693416
501.4014, 0.1872766
503.3298, 0.2054123
505.2583, 0.2234881
507.1868, 0.2409734
509.1152, 0.2579390
511.0437, 0.2739865
512.9722, 0.2883385
514.9006, 0.2999383
516.8291, 0.3128177
518.7576, 0.3246456
520.6860, 0.3357390
522.6145, 0.3443990
524.5430, 0.3530724
526.4714, 0.3599343
528.3999, 0.3674012
530.3284, 0.3747185
532.2568, 0.3781086
534.1853, 0.3828048
536.1138, 0.3862299
538.0422, 0.3875569
539.9707, 0.3869524
541.8992, 0.3876274
543.8276, 0.3870507
545.7561, 0.3857077
547.6846, 0.3868189
549.6130, 0.3856660
551.5415, 0.3845847
553.4700, 0.3811563
555.3984, 0.3721951
557.3269, 0.3644667
559.2554, 0.3601159
561.1838, 0.3549462
563.1123, 0.3485615
565.0408, 0.3406604
566.9692, 0.3323536
568.8977, 0.3278030
570.8262, 0.3215288
572.7546, 0.3131450
574.6831, 0.3062134
576.6116, 0.3007400
578.5400, 0.2947304
580.4685, 0.2887118
582.3970, 0.2831617
584.3254, 0.2762766
586.2539, 0.2696151
588.1824, 0.2654221
590.1108, 0.2618205
592.0393, 0.2565673
593.9678, 0.2521509
595.8962, 0.2480066
597.8247, 0.2430464
599.7532, 0.2383723
601.6816, 0.2342899
603.6101, 0.2308643
605.5386, 0.2278328
607.4670, 0.2245405
609.3955, 0.2205566
611.3240, 0.2172183
613.2524, 0.2142284
615.1809, 0.2110059
617.1094, 0.2081308
619.0378, 0.2057561
620.9663, 0.2029853
622.8948, 0.2002921
624.8232, 0.1974629
626.7517, 0.1950102
628.6802, 0.1930624
630.6086, 0.1907949
632.5371, 0.1886974
634.4656, 0.1871899
636.3940, 0.1855034
638.3225, 0.1835254
640.2510, 0.1815635
642.1794, 0.1796964
644.1079, 0.1778001
646.0364, 0.1759766
647.9648, 0.1744053
649.8933, 0.1732390
651.8218, 0.1721276
653.7502, 0.1712231
655.6787, 0.1705092
657.6072, 0.1688137
659.5356, 0.1674693
661.4641, 0.1663160
663.3926, 0.1640730
665.3210, 0.1619581
667.2495, 0.1595433
669.1780, 0.1562600
671.1064, 0.1533503
673.0349, 0.1509264
674.9634, 0.1486312
676.8918, 0.1462846
678.8203, 0.1437990
680.7488, 0.1408573
682.6772, 0.1382551
684.6057, 0.1360132
686.5342, 0.1335375
688.4626, 0.1309051
690.3911, 0.1289032
692.3196, 0.1272869
694.2480, 0.1252178
696.1765, 0.1223758
698.1050, 0.1197850
700.0334, 0.1176338
701.9619, 0.1157512
703.8904, 0.1140002
705.8188, 0.1123253
707.7473, 0.1107523
709.6758, 0.1085488
711.6042, 0.1061840
713.5327, 0.1043313
715.4612, 0.1026621
717.3896, 0.1009366
719.3181, 9.8679028E-02
721.2466, 9.6640781E-02
723.1750, 9.4873242E-02
725.1035, 9.2930727E-02
727.0320, 9.1057122E-02
728.9604, 8.9365020E-02
730.8889, 8.7725677E-02
732.8174, 8.5745558E-02
734.7458, 8.3547652E-02
736.6743, 8.2026757E-02
738.6028, 8.0575377E-02
740.5313, 7.8386940E-02
742.4597, 7.6142788E-02
744.3882, 7.4299827E-02
746.3167, 7.2501317E-02
748.2451, 7.0484191E-02
750.1736, 6.8362273E-02
752.1021, 6.6292740E-02
754.0305, 6.4422771E-02
755.9590, 6.2614799E-02
757.8875, 6.0374591E-02
759.8159, 5.8142789E-02
761.7444, 5.5845682E-02
763.6729, 5.3497519E-02
765.6013, 5.1576730E-02
767.5298, 4.9559351E-02
769.4583, 4.7513518E-02
771.3867, 4.5687459E-02
773.3152, 4.3844908E-02
775.2437, 4.1892041E-02
777.1721, 4.0296320E-02
779.1006, 3.8486511E-02
781.0291, 3.6352161E-02
782.9575, 3.4297131E-02
784.8860, 3.2574840E-02
786.8145, 3.1163320E-02
788.7429, 2.9701389E-02
790.6714, 2.8209180E-02
792.5999, 2.7149610E-02
794.5283, 2.6811739E-02
796.4568, 2.6394101E-02
798.3853, 2.5703849E-02
800.3137, 2.4962731E-02
802.2422, 2.4080589E-02
804.1707, 2.3402009E-02
806.0991, 2.2871500E-02
808.0276, 2.2767151E-02
809.9561, 2.2731241E-02
811.8845, 2.2490939E-02
813.8130, 2.2128871E-02
815.7415, 2.1726601E-02
817.6699, 2.1645220E-02
819.5984, 2.1575119E-02
821.5269, 2.1160150E-02
823.4553, 2.0689109E-02
825.3838, 2.0470049E-02
827.3123, 2.0170640E-02
829.2407, 2.0001231E-02
831.1692, 1.9975210E-02
833.0977, 1.9628180E-02
835.0261, 1.9255910E-02
836.9546, 1.8967619E-02
838.8831, 1.8511141E-02
840.8115, 1.8314060E-02
842.7400, 1.8302370E-02
844.6685, 1.8056730E-02
846.5969, 1.7539930E-02
848.5254, 1.7410720E-02
850.4539, 1.7523769E-02
852.3823, 1.7432690E-02
854.3108, 1.7382801E-02
856.2393, 1.7220210E-02
858.1677, 1.7026650E-02
860.0962, 1.7060701E-02
862.0247, 1.7375279E-02
863.9531, 1.7524431E-02
865.8816, 1.7285930E-02
867.8101, 1.7332980E-02
869.7385, 1.7404839E-02
871.6670, 1.7342830E-02
873.5955, 1.7584460E-02
875.5239, 1.7757490E-02
877.4524, 1.8055260E-02
879.3809, 1.8095890E-02
881.3093, 1.8134050E-02
883.2378, 1.8354470E-02
885.1663, 1.8411560E-02
887.0947, 1.8575709E-02
889.0232, 1.8681230E-02
890.9517, 1.8772610E-02
892.8801, 1.9128891E-02
894.8085, 1.9298930E-02
896.7370, 1.9305360E-02
898.6655, 1.9501420E-02
900.5939, 1.9586651E-02
902.5224, 1.9845020E-02
904.4509, 2.0044800E-02
906.3793, 1.9829821E-02
908.3078, 1.9804070E-02
910.2363, 1.9631891E-02
912.1647, 1.9030491E-02
914.0932, 1.8873719E-02
916.0217, 1.9127460E-02
917.9501, 1.9248130E-02
919.8786, 1.8999090E-02
921.8071, 1.8800071E-02
923.7355, 1.8456530E-02
925.6640, 1.8238610E-02
927.5925, 1.8021461E-02
929.5209, 1.7918460E-02
931.4494, 1.7828731E-02
933.3779, 1.7362021E-02
935.3063, 1.6824560E-02
937.2348, 1.6655520E-02
939.1633, 1.6494840E-02
941.0917, 1.6194250E-02
943.0202, 1.6023200E-02
944.9487, 1.6033409E-02
946.8771, 1.5958941E-02
948.8056, 1.5507350E-02
950.7341, 1.5076150E-02
952.6625, 1.5143800E-02
954.5910, 1.4861740E-02
956.5195, 1.4329850E-02
958.4479, 1.4388790E-02
960.3764, 1.4660050E-02
962.3049, 1.4576720E-02
964.2333, 1.4622570E-02
966.1618, 1.4625530E-02
968.0903, 1.4573460E-02
970.0187, 1.4595140E-02
971.9472, 1.4687000E-02
973.8757, 1.4744910E-02
975.8041, 1.4342180E-02
977.7326, 1.4375380E-02
979.6611, 1.4703620E-02
981.5895, 1.4860660E-02
983.5180, 1.4894140E-02
985.4465, 1.4821180E-02
987.3749, 1.4752180E-02
989.3034, 1.4771050E-02
991.2319, 1.4965490E-02
993.1603, 1.5262390E-02
995.0888, 1.5248950E-02
997.0173, 1.5535930E-02
998.9457, 1.5905069E-02
1000.874, 1.6128089E-02
1002.803, 1.6451400E-02
1004.731, 1.6652999E-02
1006.660, 1.6575789E-02
1008.588, 1.6344720E-02
1010.517, 1.6295491E-02
1012.445, 1.6597500E-02
1014.373, 1.7010421E-02
1016.302, 1.7057329E-02
1018.230, 1.6962590E-02
1020.159, 1.6985791E-02
1022.087, 1.7125141E-02
1024.016, 1.7020790E-02
1025.944, 1.6627330E-02
1027.873, 1.6267341E-02
1029.801, 1.6345071E-02
1031.730, 1.6422730E-02
1033.658, 1.6585501E-02
1035.587, 1.6484840E-02
1037.515, 1.6134299E-02
1039.444, 1.6074199E-02
1041.372, 1.6086441E-02
1043.301, 1.5857959E-02
1045.229, 1.5860230E-02
1047.157, 1.5608030E-02
1049.086, 1.5443600E-02
1051.014, 1.5645079E-02
1052.943, 1.5762510E-02
1054.871, 1.5461560E-02
1056.800, 1.5248890E-02
1058.728, 1.5318790E-02
1060.657, 1.5085920E-02
1062.585, 1.4681500E-02
1064.514, 1.4479500E-02
1066.442, 1.4489330E-02
1068.371, 1.4293950E-02
1070.299, 1.3884810E-02
1072.228, 1.3664020E-02
1074.156, 1.3608270E-02
1076.084, 1.3495570E-02
1078.013, 1.3343500E-02
1079.941, 1.3260310E-02
1081.870, 1.3113070E-02
1083.798, 1.3035760E-02
1085.727, 1.2876400E-02
1087.655, 1.2765580E-02
1089.584, 1.2763770E-02
1091.512, 1.2648910E-02
1093.441, 1.2648450E-02
1095.369, 1.2783860E-02
1097.298, 1.2541640E-02
1099.226, 1.2125190E-02
1101.155, 1.1982310E-02
1103.083, 1.2042800E-02
1105.011, 1.1903370E-02
1106.940, 1.1740170E-02
1108.868, 1.1693200E-02
1110.797, 1.1359530E-02
1112.725, 1.1186630E-02
1114.654, 1.1215880E-02
1116.582, 1.0952370E-02
1118.511, 1.0560810E-02
1120.439, 1.0495180E-02
1122.368, 1.0496330E-02
1124.296, 1.0094480E-02
1126.225, 9.7519998E-03
1128.153, 9.8967655E-03
1130.082, 1.0022930E-02
1132.010, 1.0122160E-02
1133.938, 1.0245040E-02
1135.867, 1.0094030E-02
1137.795, 9.7637447E-03
1139.724, 9.6535096E-03
1141.652, 9.7284783E-03
1143.581, 9.7233485E-03
1145.509, 9.3396511E-03
1147.438, 9.1968765E-03
1149.366, 9.2512053E-03
1151.295, 9.0822503E-03
1153.223, 8.8733444E-03
1155.152, 8.9532901E-03
1157.080, 8.9456001E-03
1159.009, 8.9269690E-03
1160.937, 8.8710738E-03
1162.865, 8.6849146E-03
1164.794, 8.4110098E-03
1166.722, 8.1847114E-03
1168.651, 8.2776593E-03
1170.579, 8.3741155E-03
1172.508, 8.3188387E-03
1174.436, 8.3747273E-03
1176.365, 8.2958108E-03
1178.293, 8.4178690E-03
1180.222, 8.5864319E-03
1182.150, 8.5384492E-03
1184.079, 8.6487243E-03
1186.007, 8.7876329E-03
1187.936, 8.6437939E-03
1189.864, 8.2792640E-03
1191.792, 8.3845807E-03
1193.721, 8.7463465E-03
1195.649, 8.7918229E-03
1197.578, 8.6315237E-03
1199.506, 8.7167108E-03
1201.435, 8.7196333E-03
1203.363, 8.6150914E-03
1205.292, 8.6031584E-03
1207.220, 8.4724268E-03
1209.149, 8.2925521E-03
1211.077, 8.3588595E-03
1213.006, 8.5202176E-03
1214.934, 8.5640391E-03
1216.863, 8.4199281E-03
1218.791, 8.4155882E-03
1220.719, 8.4425462E-03
1222.648, 8.5169291E-03
1224.576, 8.4973378E-03
1226.505, 8.5569303E-03
1228.433, 8.8054966E-03
1230.362, 9.0884091E-03
1232.290, 9.0395315E-03
1234.219, 9.0308022E-03
1236.147, 9.1435602E-03
1238.076, 9.1682570E-03
1240.004, 9.0643596E-03
1241.933, 9.0006664E-03
1243.861, 9.1612544E-03
1245.790, 9.3734916E-03
1247.718, 9.5027238E-03
1249.646, 9.5263021E-03
1251.575, 9.6776774E-03
1253.503, 1.0009020E-02
1255.432, 1.0243640E-02
1257.360, 1.0308870E-02
1259.289, 1.0408030E-02
1261.217, 1.0650310E-02
1263.146, 1.0790920E-02
1265.074, 1.0875840E-02
1267.003, 1.1095810E-02
1268.931, 1.1314970E-02
1270.860, 1.1388050E-02
1272.788, 1.1524080E-02
1274.717, 1.1677230E-02
1276.645, 1.1714040E-02
1278.573, 1.1814940E-02
1280.502, 1.1677670E-02
1282.430, 1.1594720E-02
1284.359, 1.1663080E-02
1286.287, 1.1743750E-02
1288.216, 1.1861100E-02
1290.144, 1.1991040E-02
1292.073, 1.2059220E-02
1294.001, 1.1970210E-02
1295.930, 1.2029190E-02
1297.858, 1.1994640E-02
1299.787, 1.2071370E-02
1301.715, 1.2403010E-02
1303.644, 1.2735140E-02
1305.572, 1.2915530E-02
1307.500, 1.2700510E-02
1309.429, 1.2646660E-02
1311.357, 1.2669910E-02
1313.286, 1.2764000E-02
1315.214, 1.2861990E-02
1317.143, 1.2787700E-02
1319.071, 1.2794670E-02
1321.000, 1.3084720E-02
1322.928, 1.3316200E-02
1324.857, 1.3370610E-02
1326.785, 1.3448530E-02
1328.714, 1.3376420E-02
1330.642, 1.3497240E-02
1332.571, 1.3813500E-02
1334.499, 1.3646180E-02
1336.427, 1.3779160E-02
1338.356, 1.3924660E-02
1340.284, 1.3950910E-02
1342.213, 1.4146930E-02
1344.141, 1.4373090E-02
1346.070, 1.4408610E-02
1347.998, 1.4358120E-02
1349.927, 1.4031710E-02
1351.855, 1.4103790E-02
1353.784, 1.4569900E-02
1355.712, 1.4766440E-02
1357.641, 1.4872280E-02
1359.569, 1.4745080E-02
1361.498, 1.4845370E-02
1363.426, 1.5117710E-02
1365.354, 1.5138860E-02
1367.283, 1.5213280E-02
1369.211, 1.5260800E-02
1371.140, 1.5202450E-02
1373.068, 1.5282130E-02
1374.997, 1.5481520E-02
1376.925, 1.5590330E-02
1378.854, 1.5793810E-02
1380.782, 1.5784759E-02
1382.711, 1.5979260E-02
1384.639, 1.6234631E-02
1386.568, 1.6292220E-02
1388.496, 1.6642390E-02
1390.424, 1.6764730E-02
1392.353, 1.6821761E-02
1394.281, 1.6865630E-02
1396.210, 1.7179521E-02
1398.138, 1.7598171E-02
1400.067, 1.7618241E-02
1401.995, 1.7528281E-02
1403.924, 1.7338470E-02
1405.852, 1.7502150E-02
1407.781, 1.7710080E-02
1409.709, 1.7683569E-02
1411.638, 1.7793169E-02
1413.566, 1.8120350E-02
1415.495, 1.8554460E-02
1417.423, 1.8537290E-02
1419.351, 1.8330591E-02
1421.280, 1.8218700E-02
1423.208, 1.8038301E-02
1425.137, 1.8101299E-02
1427.065, 1.8310450E-02
1428.994, 1.8631620E-02
1430.922, 1.8762801E-02
1432.851, 1.9012960E-02
1434.779, 1.9157130E-02
1436.708, 1.9131729E-02
1438.636, 1.9162470E-02
1440.565, 1.9168179E-02
1442.493, 1.9276051E-02
1444.422, 1.9301379E-02
1446.350, 1.9316960E-02
1448.278, 1.9286750E-02
1450.207, 1.9189620E-02
1452.135, 1.9235419E-02
1454.064, 1.9467190E-02
1455.992, 1.9681750E-02
1457.921, 1.9324010E-02
1459.849, 1.8936930E-02
1461.778, 1.9244671E-02
1463.706, 1.9504709E-02
1465.635, 1.9342950E-02
1467.563, 1.9223200E-02
1469.492, 1.9376989E-02
1471.420, 1.9685980E-02
1473.349, 1.9891940E-02
1475.277, 2.0106440E-02
1477.205, 2.0499760E-02
1479.134, 2.0659771E-02
1481.062, 2.0539811E-02
1482.991, 2.0439940E-02
1484.919, 2.0600660E-02
1486.848, 2.0904791E-02
1488.776, 2.1229889E-02
1490.705, 2.1349991E-02
1492.633, 2.1300940E-02
1494.562, 2.1287570E-02
1496.490, 2.1537909E-02
1498.419, 2.1580750E-02
1500.347, 2.1568291E-02
1502.276, 2.1685030E-02
1504.204, 2.1958740E-02
1506.132, 2.2291150E-02
1508.061, 2.2370720E-02
1509.989, 2.2181621E-02
1511.918, 2.2090411E-02
1513.846, 2.2370961E-02
1515.775, 2.2731431E-02
1517.703, 2.2786170E-02
1519.632, 2.2814959E-02
1521.560, 2.2989800E-02
1523.489, 2.2906629E-02
1525.417, 2.2979110E-02
1527.346, 2.3186630E-02
1529.274, 2.3249280E-02
1531.203, 2.3387320E-02
1533.131, 2.3639010E-02
1535.059, 2.3698630E-02
1536.988, 2.3972610E-02
1538.916, 2.4447091E-02
1540.845, 2.4648691E-02
1542.773, 2.4805671E-02
1544.702, 2.4802901E-02
1546.630, 2.4600349E-02
1548.559, 2.4792900E-02
1550.487, 2.4900800E-02
1552.416, 2.4790879E-02
1554.344, 2.4967020E-02
1556.273, 2.5552521E-02
1558.201, 2.6232161E-02
1560.130, 2.6195191E-02
1562.058, 2.5887281E-02
1563.986, 2.5974860E-02
1565.915, 2.6058700E-02
1567.843, 2.6304569E-02
1569.772, 2.6299359E-02
1571.700, 2.6096750E-02
1573.629, 2.6413500E-02
1575.557, 2.6830539E-02
1577.486, 2.6693361E-02
1579.414, 2.6567411E-02
1581.343, 2.6638459E-02
1583.271, 2.6779210E-02
1585.200, 2.6898280E-02
1587.128, 2.6793711E-02
1589.057, 2.6838250E-02
1590.985, 2.6897131E-02
1592.913, 2.6815711E-02
1594.842, 2.7023319E-02
1596.770, 2.7181489E-02
1598.699, 2.7166121E-02
1600.627, 2.7037639E-02
1602.556, 2.7295111E-02
1604.484, 2.7733721E-02
1606.413, 2.7616151E-02
1608.341, 2.7270731E-02
1610.270, 2.7493080E-02
1612.198, 2.7688811E-02
1614.127, 2.7588300E-02
1616.055, 2.8150801E-02
1617.984, 2.8435610E-02
1619.912, 2.8035810E-02
1621.840, 2.8022051E-02
1623.769, 2.8111299E-02
1625.697, 2.8165370E-02
1627.626, 2.8368860E-02
1629.554, 2.8688099E-02
1631.483, 2.8894899E-02
1633.411, 2.9020719E-02
1635.340, 2.9091340E-02
1637.268, 2.8866051E-02
1639.197, 2.8925169E-02
1641.125, 2.9190799E-02
1643.054, 2.9253069E-02
1644.982, 2.9604670E-02
1646.911, 2.9711340E-02
1648.839, 2.9401669E-02
1650.767, 2.9513679E-02
1652.696, 3.0416070E-02
1654.624, 3.0529760E-02
1656.553, 2.9729789E-02
1658.481, 2.9228780E-02
1660.410, 2.9294729E-02
1662.338, 2.9736390E-02
1664.267, 2.9879440E-02
1666.195, 2.9896740E-02
1668.124, 2.9977599E-02
1670.052, 3.0124441E-02
1671.981, 3.0198270E-02
1673.909, 3.0163551E-02
1675.838, 2.9936090E-02
1677.766, 2.9704999E-02
1679.694, 2.9704651E-02
1681.623, 3.0082811E-02
1683.551, 3.0725241E-02
1685.480, 3.0621480E-02
1687.408, 3.0282030E-02
1689.337, 3.0098969E-02
1691.265, 3.0244030E-02
1693.194, 3.0482100E-02
1695.122, 3.0617351E-02
1697.051, 3.0631660E-02
1698.979, 3.1096920E-02
1700.908, 3.1144571E-02
1702.836, 3.0696150E-02
1704.765, 3.0933490E-02
1706.693, 3.1150460E-02
1708.621, 3.1076090E-02
1710.550, 3.0710150E-02
1712.478, 3.0720230E-02
1714.407, 3.1290252E-02
1716.335, 3.1712782E-02
1718.264, 3.1669471E-02
1720.192, 3.1284511E-02
1722.121, 3.1357128E-02
1724.049, 3.1423099E-02
1725.978, 3.1377029E-02
1727.906, 3.1176250E-02
1729.835, 3.1615950E-02
1731.763, 3.1637371E-02
1733.692, 3.1489231E-02
1735.620, 3.1181701E-02
1737.548, 3.0477520E-02
1739.477, 3.0300859E-02
1741.405, 2.9962700E-02
1743.334, 2.9505281E-02
1745.262, 2.9304730E-02
1747.191, 2.9837260E-02
1749.119, 3.0742159E-02
1751.048, 3.1016840E-02
1752.976, 3.1158520E-02
1754.905, 3.1469259E-02
1756.833, 3.1983241E-02
1758.762, 3.1930849E-02
1760.690, 3.2434762E-02
1762.619, 3.3262521E-02
1764.547, 3.3453111E-02
1766.475, 3.4009431E-02
1768.404, 3.4445159E-02
1770.332, 3.4525670E-02
1772.261, 3.4845181E-02
1774.189, 3.4764331E-02
1776.118, 3.4510352E-02
1778.046, 3.4133609E-02
1779.975, 3.4067821E-02
1781.903, 3.4364529E-02
1783.832, 3.4527659E-02
1785.760, 3.4655750E-02
1787.689, 3.4218181E-02
1789.617, 3.4717150E-02
1791.546, 3.5739589E-02
1793.474, 3.5790510E-02
1795.402, 3.5477161E-02
1797.331, 3.5425082E-02
1799.259, 3.4938801E-02
1801.188, 3.4943171E-02
1803.116, 3.5706870E-02
1805.045, 3.5989169E-02
1806.973, 3.5825290E-02
1808.902, 3.6233060E-02
1810.830, 3.6277290E-02
1812.759, 3.5880711E-02
1814.687, 3.5958908E-02
1816.616, 3.6306899E-02
1818.544, 3.6345951E-02
1820.473, 3.6375780E-02
1822.401, 3.6403880E-02
1824.329, 3.6661550E-02
1826.258, 3.6627799E-02
1828.186, 3.7008170E-02
1830.115, 3.7606489E-02
1832.043, 3.7524190E-02
1833.972, 3.7390750E-02
1835.900, 3.7141699E-02
1837.829, 3.7235260E-02
1839.757, 3.7759058E-02
1841.686, 3.8332950E-02
1843.614, 3.8833998E-02
1845.543, 3.8955688E-02
1847.471, 3.8763542E-02
1849.400, 3.8175859E-02
1851.328, 3.8038541E-02
1853.256, 3.8765982E-02
1855.185, 3.9548632E-02
1857.113, 4.0026110E-02
1859.042, 3.9929550E-02
1860.970, 3.9756291E-02
1862.899, 3.9440840E-02
1864.827, 3.8984541E-02
1866.756, 3.9418001E-02
1868.684, 3.9503641E-02
1870.613, 3.9376151E-02
1872.541, 3.9266180E-02
1874.470, 3.9635532E-02
1876.398, 4.0601771E-02
1878.327, 4.0989101E-02
1880.255, 4.1239470E-02
1882.183, 4.1396700E-02
1884.112, 4.0973771E-02
1886.040, 4.1104540E-02
1887.969, 4.0963069E-02
1889.897, 4.2054679E-02
1891.826, 4.2307898E-02
1893.754, 4.1029170E-02
1895.683, 4.0205631E-02
1897.611, 4.0263232E-02
1899.540, 4.0793959E-02
1901.468, 4.0799230E-02
1903.397, 4.1018479E-02
1905.325, 4.1313499E-02
1907.254, 4.1096479E-02
1909.182, 4.0501360E-02
1911.110, 4.1066471E-02
1913.039, 4.2004392E-02
1914.967, 4.2431980E-02
1916.896, 4.1054521E-02
1918.824, 4.1245990E-02
1920.753, 4.1703220E-02
1922.681, 4.1994330E-02
1924.610, 4.3428689E-02
1926.538, 4.3628279E-02
1928.467, 4.3115951E-02
1930.395, 4.2410638E-02
1932.324, 4.2946819E-02
1934.252, 4.3394908E-02
1936.181, 4.3520391E-02
1938.109, 4.4405662E-02
1940.037, 4.4253550E-02
1941.966, 4.3769158E-02
1943.894, 4.3448269E-02
1945.823, 4.3548599E-02
1947.751, 4.4039931E-02
1949.680, 4.3776061E-02
1951.608, 4.2815272E-02
1953.537, 4.2118728E-02
1955.465, 4.2801552E-02
1957.394, 4.1918401E-02
1959.322, 4.1707389E-02
1961.251, 4.2964000E-02
1963.179, 4.3756451E-02
1965.108, 4.4960551E-02
1967.036, 4.4236589E-02
1968.964, 4.2117599E-02
1970.893, 4.2134639E-02
1972.821, 4.2923201E-02
1974.750, 4.1346211E-02
1976.678, 4.2822119E-02
1978.607, 4.7607310E-02
1980.535, 5.2906722E-02
1982.464, 5.2404329E-02
1984.392, 4.8652530E-02
1986.321, 4.4427380E-02
1988.249, 4.5860499E-02
1990.178, 4.9622700E-02
1992.106, 4.8927359E-02
1994.035, 4.7443692E-02
1995.963, 4.6789870E-02
1997.891, 4.7768898E-02
1999.820, 4.8636150E-02
2001.748, 4.6464290E-02
2003.677, 4.5841031E-02
2005.605, 4.5112021E-02
2007.534, 4.5728348E-02
2009.462, 4.8989601E-02
2011.391, 4.8899021E-02
2013.319, 4.5418609E-02
2015.248, 4.4783380E-02
2017.176, 4.6482261E-02
2019.105, 4.8497379E-02
2021.033, 4.7660120E-02
2022.962, 4.5097452E-02
2024.890, 4.4518169E-02
2026.818, 4.6669971E-02
2028.747, 4.8604451E-02
2030.675, 4.7416709E-02
2032.604, 4.7825482E-02
2034.532, 4.9040731E-02
2036.461, 4.7924351E-02
2038.389, 4.7170669E-02
2040.318, 4.8598099E-02
2042.246, 4.9323730E-02
2044.175, 4.7454439E-02
2046.103, 4.7679231E-02
2048.032, 4.8091780E-02
2049.960, 4.8353329E-02
2051.889, 4.8845120E-02
2053.817, 5.0301090E-02
2055.746, 5.0858639E-02
2057.674, 5.0593011E-02
2059.603, 5.0853141E-02
2061.531, 5.1024981E-02
2063.459, 5.0835978E-02
2065.388, 4.9426612E-02
2067.316, 4.9842689E-02
2069.245, 5.1087368E-02
2071.173, 5.1618900E-02
2073.102, 5.2053619E-02
2075.030, 5.2061468E-02
2076.959, 5.1924750E-02
2078.887, 5.2540291E-02
2080.816, 5.2164260E-02
2082.744, 5.2197389E-02
2084.673, 5.4586679E-02
2086.601, 5.4375421E-02
2088.530, 5.3922620E-02
2090.458, 5.4148920E-02
2092.386, 5.3662632E-02
2094.315, 5.1986288E-02
2096.243, 5.2142572E-02
2098.172, 5.3248100E-02
2100.100, 5.3135570E-02
2102.029, 5.2852489E-02
2103.957, 5.3817470E-02
2105.886, 5.3392079E-02
2107.814, 5.3530939E-02
2109.743, 5.4495011E-02
2111.671, 5.4274719E-02
2113.600, 5.4069020E-02
2115.528, 5.4799490E-02
2117.457, 5.4387242E-02
2119.385, 5.3582858E-02
2121.313, 5.4102279E-02
2123.242, 5.4020759E-02
2125.170, 5.3473748E-02
2127.099, 5.3742088E-02
2129.027, 5.3316981E-02
2130.956, 5.1501978E-02
2132.884, 5.0148211E-02
2134.813, 5.2095629E-02
2136.741, 5.2992791E-02
2138.670, 5.3589381E-02
2140.598, 5.1824190E-02
2142.527, 5.1865019E-02
2144.455, 5.3524882E-02
2146.384, 5.3877000E-02
2148.312, 5.3158648E-02
2150.240, 5.2137259E-02
2152.169, 5.2007660E-02
2154.097, 5.2241039E-02
2156.026, 5.2073222E-02
2157.954, 5.4606929E-02
2159.883, 5.8600899E-02
2161.811, 6.2075019E-02
2163.740, 6.2134519E-02
2165.668, 5.8948919E-02
2167.597, 5.9763402E-02
2169.525, 5.8294911E-02
2171.454, 5.5438671E-02
2173.382, 5.3576160E-02
2175.311, 5.4435808E-02
2177.239, 5.6328408E-02
2179.167, 5.7234880E-02
2181.096, 5.7117261E-02
2183.024, 5.7636451E-02
2184.953, 5.6770679E-02
2186.881, 5.7505298E-02
2188.810, 6.0451441E-02
2190.738, 5.8921661E-02
2192.667, 5.5961370E-02
2194.595, 5.5192038E-02
2196.524, 5.6172431E-02
2198.452, 5.9358470E-02
2200.381, 5.9491228E-02
2202.309, 5.7779580E-02
2204.238, 5.8427840E-02
2206.166, 6.0390491E-02
2208.094, 6.1942361E-02
2210.023, 6.1064709E-02
2211.951, 6.0423110E-02
2213.880, 5.9922870E-02
2215.808, 6.0516741E-02
2217.737, 6.0419261E-02
2219.665, 5.9865251E-02
2221.594, 6.0642689E-02
2223.522, 6.1560031E-02
2225.451, 6.1392531E-02
2227.379, 6.1527759E-02
2229.308, 6.0928140E-02
2231.236, 6.1044220E-02
2233.165, 6.0590871E-02
2235.093, 6.0056791E-02
2237.021, 5.9203330E-02
2238.950, 6.0017820E-02
2240.878, 5.9705030E-02
2242.807, 5.8324128E-02
2244.735, 5.9789609E-02
2246.664, 6.1987720E-02
2248.592, 6.1937969E-02
2250.521, 6.1262392E-02
2252.449, 6.0440101E-02
2254.378, 6.1238870E-02
2256.306, 6.2700547E-02
2258.235, 6.2496919E-02
2260.163, 6.1667200E-02
2262.092, 6.1307359E-02
2264.020, 6.3233078E-02
2265.948, 6.5446973E-02
2267.877, 6.4166076E-02
2269.805, 6.2632553E-02
2271.734, 6.3219547E-02
2273.662, 6.5724440E-02
2275.591, 6.5828219E-02
2277.519, 6.5078050E-02
2279.448, 6.4821512E-02
2281.376, 6.5675586E-02
2283.305, 6.5788828E-02
2285.233, 6.5751262E-02
2287.162, 6.5940283E-02
2289.090, 6.5353341E-02
2291.019, 6.5248862E-02
2292.947, 6.5535910E-02
2294.875, 6.5872394E-02
2296.804, 6.5853193E-02
2298.732, 6.5417901E-02
2300.661, 6.5415718E-02
2302.589, 6.5687977E-02
2304.518, 6.6224553E-02
2306.446, 6.6907719E-02
2308.375, 6.7669168E-02
2310.303, 6.6440932E-02
2312.232, 6.6118851E-02
2314.160, 6.7037553E-02
2316.089, 6.7766897E-02
2318.017, 6.7917816E-02
2319.946, 6.8511367E-02
2321.874, 6.9380909E-02
2323.802, 6.9721229E-02
2325.731, 6.8729647E-02
2327.659, 6.8217240E-02
2329.588, 6.8144053E-02
2331.516, 6.8520047E-02
2333.445, 6.9145568E-02
2335.373, 6.8862699E-02
2337.302, 6.8187132E-02
2339.230, 6.8050012E-02
2341.159, 6.7854479E-02
2343.087, 6.8237260E-02
2345.016, 6.8747193E-02
2346.944, 6.8610400E-02
2348.873, 6.8331853E-02
2350.801, 6.8536207E-02
2352.729, 6.8560667E-02
2354.658, 6.8514667E-02
2356.586, 6.8831898E-02
2358.515, 6.9314592E-02
2360.443, 7.0049770E-02
2362.372, 7.0470966E-02
2364.300, 7.0188977E-02
2366.229, 7.0193678E-02
2368.157, 6.9942087E-02
2370.086, 6.9153622E-02
2372.014, 6.9237970E-02
2373.942, 6.9623567E-02
2375.871, 6.9659419E-02
2377.799, 6.9539472E-02
2379.728, 6.9730319E-02
2381.656, 6.9481269E-02
2383.585, 6.9137573E-02
2385.513, 6.9555409E-02
2387.442, 7.0157528E-02
2389.370, 7.0484303E-02
2391.299, 7.1330063E-02
2393.227, 7.1933597E-02
2395.156, 7.1484201E-02
2397.084, 7.1084417E-02
2399.012, 7.1025006E-02
2400.941, 7.0662580E-02
2402.869, 7.0739619E-02
2404.798, 7.1871594E-02
2406.726, 7.2488919E-02
2408.655, 7.2366789E-02
2410.583, 7.2121508E-02
2412.512, 7.1218289E-02
2414.440, 7.0987374E-02
2416.369, 7.1762763E-02
2418.297, 7.2310150E-02
2420.226, 7.2746821E-02
2422.154, 7.2673813E-02
2424.083, 7.1571723E-02
2426.011, 7.1683638E-02
2427.939, 7.2103813E-02
2429.868, 7.2312392E-02
2431.796, 7.2825499E-02
2433.725, 7.3483959E-02
2435.653, 7.3124491E-02
2437.582, 7.3062703E-02
2439.510, 7.4058443E-02
2441.439, 7.3954247E-02
2443.367, 7.3669054E-02
2445.296, 7.3893689E-02
2447.224, 7.3409490E-02
2449.153, 7.2802879E-02
2451.081, 7.4108139E-02
2453.010, 7.5130977E-02
2454.938, 7.4861020E-02
2456.866, 7.5177997E-02
2458.795, 7.5549930E-02
2460.723, 7.5615741E-02
2462.652, 7.4984297E-02
2464.580, 7.5728647E-02
2466.509, 7.7188529E-02
2468.437, 7.7269629E-02
2470.366, 7.6950021E-02
2472.294, 7.6088510E-02
2474.223, 7.5109757E-02
2476.151, 7.4386768E-02
2478.080, 7.4493527E-02
2480.008, 7.5855874E-02
2481.937, 7.7308498E-02
2483.865, 7.6724790E-02
2485.793, 7.5807773E-02
2487.722, 7.6260492E-02
2489.650, 7.7284522E-02
2491.579, 7.7313967E-02
2493.507, 7.6928437E-02
2495.436, 7.6748706E-02
2497.364, 7.7292651E-02
2499.293, 7.6580979E-02
2501.221, 7.6997370E-02
2503.150, 7.7273563E-02
2505.078, 7.6373443E-02
2507.007, 7.6349191E-02
2508.935, 7.8475326E-02
2510.864, 7.9111218E-02
2512.792, 7.7435263E-02
2514.720, 7.7045828E-02
2516.649, 7.8055993E-02
2518.577, 7.8483783E-02
2520.506, 7.7340312E-02
2522.434, 7.6513462E-02
2524.363, 7.7030830E-02
2526.291, 7.8247979E-02
2528.220, 7.8578353E-02
2530.148, 7.9237953E-02
2532.077, 7.9234220E-02
2534.005, 7.8473739E-02
2535.934, 7.8336589E-02
2537.862, 7.8940913E-02
2539.791, 7.9707980E-02
2541.719, 7.9292148E-02
2543.647, 7.8649618E-02
2545.576, 7.9933777E-02
2547.504, 8.1014350E-02
2549.433, 8.1209123E-02
2551.361, 8.0732413E-02
2553.290, 7.9769753E-02
2555.218, 8.0157839E-02
2557.147, 8.0830723E-02
2559.075, 8.0664627E-02
2561.004, 8.0288440E-02
2562.932, 8.0083042E-02
2564.861, 8.0330253E-02
2566.789, 8.0277041E-02
2568.718, 8.0339640E-02
2570.646, 8.1072941E-02
2572.574, 8.1587583E-02
2574.503, 8.2290366E-02
2576.431, 8.2278408E-02
2578.360, 8.2112253E-02
2580.288, 8.2163461E-02
2582.217, 8.1574857E-02
2584.145, 8.1462048E-02
2586.074, 8.1168808E-02
2588.002, 8.1827261E-02
2589.931, 8.2435407E-02
2591.859, 8.2604073E-02
2593.788, 8.2569361E-02
2595.716, 8.2345933E-02
2597.645, 8.1600629E-02
2599.573, 8.1631668E-02
2601.501, 8.2987167E-02
2603.430, 8.4347762E-02
2605.358, 8.3639339E-02
2607.287, 8.2951494E-02
2609.215, 8.3425693E-02
2611.144, 8.4054992E-02
2613.072, 8.4100850E-02
2615.001, 8.3352990E-02
2616.929, 8.2988098E-02
2618.858, 8.4220707E-02
2620.786, 8.5197628E-02
2622.715, 8.4948033E-02
2624.643, 8.4865637E-02
2626.572, 8.4980130E-02
2628.500, 8.4532946E-02
2630.428, 8.3982550E-02
2632.357, 8.4710628E-02
2634.285, 8.5826412E-02
2636.214, 8.6420871E-02
2638.142, 8.6012661E-02
2640.071, 8.4893957E-02
2641.999, 8.4871128E-02
2643.928, 8.5525237E-02
2645.856, 8.6304434E-02
2647.785, 8.6383209E-02
2649.713, 8.6938962E-02
2651.642, 8.6745001E-02
2653.570, 8.6433969E-02
2655.499, 8.6885966E-02
2657.427, 8.7189972E-02
2659.355, 8.7091707E-02
2661.284, 8.6908802E-02
2663.212, 8.6634681E-02
2665.141, 8.6500309E-02
2667.069, 8.6023457E-02
2668.998, 8.6477220E-02
2670.926, 8.7171592E-02
2672.855, 8.6269207E-02
2674.783, 8.5993282E-02
2676.712, 8.6340681E-02
2678.640, 8.7757900E-02
2680.569, 8.8266060E-02
2682.497, 8.7684050E-02
2684.426, 8.7695979E-02
2686.354, 8.8373601E-02
2688.282, 8.8334717E-02
2690.211, 8.8524804E-02
2692.139, 8.8667363E-02
2694.068, 8.9055449E-02
2695.996, 8.8780321E-02
2697.925, 8.8616937E-02
2699.853, 8.9526087E-02
2701.782, 8.9332558E-02
2703.710, 8.8369317E-02
2705.639, 8.9187182E-02
2707.567, 8.9822657E-02
2709.496, 8.9182347E-02
2711.424, 8.8491298E-02
2713.353, 8.8537820E-02
2715.281, 8.9601293E-02
2717.209, 9.0280443E-02
2719.138, 8.9967087E-02
2721.066, 9.0253226E-02
2722.995, 9.0627797E-02
2724.923, 9.0456508E-02
2726.852, 9.0613604E-02
2728.780, 9.1257118E-02
2730.709, 9.0742134E-02
2732.637, 8.9764170E-02
2734.566, 8.9377612E-02
2736.494, 8.9936674E-02
2738.423, 9.0613604E-02
2740.351, 9.0207703E-02
2742.280, 9.0697892E-02
2744.208, 9.1135323E-02
2746.136, 9.1555417E-02
2748.065, 9.1689952E-02
2749.993, 9.1699980E-02
2751.922, 9.2255771E-02
2753.850, 9.2785761E-02
2755.779, 9.2518650E-02
2757.707, 9.2247367E-02
2759.636, 9.1898158E-02
2761.564, 9.1538377E-02
2763.493, 9.1729991E-02
2765.421, 9.2961527E-02
2767.350, 9.3811177E-02
2769.278, 9.4033107E-02
2771.207, 9.3483143E-02
2773.135, 9.3247794E-02
2775.063, 9.2928797E-02
2776.992, 9.2440180E-02
2778.920, 9.2826553E-02
2780.849, 9.4324648E-02
2782.777, 9.4252579E-02
2784.706, 9.3007542E-02
2786.634, 9.3757667E-02
2788.563, 9.4334647E-02
2790.491, 9.4195656E-02
2792.420, 9.4564803E-02
2794.348, 9.4643690E-02
2796.277, 9.3550801E-02
2798.205, 9.4171263E-02
2800.134, 9.5454730E-02
2802.062, 9.5871434E-02
2803.990, 9.6094228E-02
2805.919, 9.5569700E-02
2807.847, 9.6262552E-02
2809.776, 9.6346878E-02
2811.704, 9.5946357E-02
2813.633, 9.6377566E-02
2815.561, 9.6086033E-02
2817.490, 9.5478043E-02
2819.418, 9.5268928E-02
2821.347, 9.4781756E-02
2823.275, 9.5154151E-02
2825.204, 9.6311979E-02
2827.132, 9.6721038E-02
2829.061, 9.7148113E-02
2830.989, 9.7766921E-02
2832.917, 9.7483441E-02
2834.846, 9.6844681E-02
2836.774, 9.7682238E-02
2838.703, 9.8034993E-02
2840.631, 9.6564204E-02
2842.560, 9.5758997E-02
2844.488, 9.6801370E-02
2846.417, 9.7457483E-02
2848.345, 9.6634567E-02
2850.274, 9.7329460E-02
2852.202, 9.8048329E-02
2854.131, 9.6683413E-02
2856.059, 9.7203746E-02
2857.988, 9.8253436E-02
2859.916, 9.9143058E-02
2861.844, 9.9288590E-02
2863.773, 9.8031417E-02
2865.701, 9.9162638E-02
2867.630, 0.1004684
2869.558, 9.9388547E-02
2871.487, 9.8598570E-02
2873.415, 9.8923013E-02
2875.344, 9.8913223E-02
2877.272, 9.9420041E-02
2879.201, 9.9851057E-02
2881.129, 0.1002372
2883.058, 9.9615946E-02
2884.986, 9.9820353E-02
2886.915, 0.1003926
2888.843, 0.1005808
2890.771, 0.1010225
2892.700, 0.1009220
2894.628, 0.1010577
2896.557, 0.1008079
2898.485, 0.1009120
2900.414, 9.9839099E-02
2902.342, 9.9091023E-02
2904.271, 0.1002360
2906.199, 0.1012040
2908.128, 0.1017571
2910.056, 0.1015259
2911.985, 0.1020510
2913.913, 0.1027318
2915.842, 0.1016420
2917.770, 9.9843226E-02
2919.698, 9.9742413E-02
2921.627, 0.1006641
2923.555, 0.1009845
2925.484, 0.1013118
2927.412, 0.1011665
2929.341, 0.1002596
2931.269, 0.1007184
2933.198, 0.1019515
2935.126, 0.1020952
2937.055, 0.1016181
2938.983, 0.1021929
2940.912, 0.1019494
2942.840, 0.1028620
2944.769, 0.1048188
2946.697, 0.1036266
2948.625, 0.1025478
2950.554, 0.1038624
2952.482, 0.1031919
2954.411, 0.1025435
2956.339, 0.1032994
2958.268, 0.1045834
2960.196, 0.1046513
2962.125, 0.1045831
2964.053, 0.1055515
2965.982, 0.1056066
2967.910, 0.1048459
2969.839, 0.1043708
2971.767, 0.1055543
2973.696, 0.1057042
2975.624, 0.1053494
2977.552, 0.1067468
2979.481, 0.1071686
2981.409, 0.1063495
2983.338, 0.1060231
2985.266, 0.1054362
2987.195, 0.1061204
2989.123, 0.1065602
2991.052, 0.1063975
2992.980, 0.1074464
2994.909, 0.1072949
2996.837, 0.1076428
2998.766, 0.1086198
3000.694, 0.1080274
3002.623, 0.1070886
3004.551, 0.1070743
3006.479, 0.1074444
3008.408, 0.1075472
3010.336, 0.1086131
3012.265, 0.1091202
3014.193, 0.1083946
3016.122, 0.1078710
3018.050, 0.1080645
3019.979, 0.1093916
3021.907, 0.1101660
3023.836, 0.1089263
3025.764, 0.1079199
3027.693, 0.1075867
3029.621, 0.1083884
3031.550, 0.1102682
3033.478, 0.1108016
3035.406, 0.1106353
3037.335, 0.1101944
3039.263, 0.1106717
3041.192, 0.1100773
3043.120, 0.1096553
3045.049, 0.1093766
3046.977, 0.1096593
3048.906, 0.1104470
3050.834, 0.1109378
3052.763, 0.1106432
3054.691, 0.1103487
3056.620, 0.1109503
3058.548, 0.1128431
3060.477, 0.1135428
3062.405, 0.1132129
3064.333, 0.1107686
3066.262, 0.1095041
3068.190, 0.1105759
3070.119, 0.1120109
3072.047, 0.1131855
3073.976, 0.1132746
3075.904, 0.1128336
3077.833, 0.1124269
3079.761, 0.1111203
3081.690, 0.1117254
3083.618, 0.1140588
3085.547, 0.1136451
3087.475, 0.1121411
3089.404, 0.1125660
3091.332, 0.1133962
3093.260, 0.1146994
3095.189, 0.1139769
3097.117, 0.1134321
3099.046, 0.1144857
3100.974, 0.1156205
3102.903, 0.1155646
3104.831, 0.1145379
3106.760, 0.1146900
3108.688, 0.1156695
3110.617, 0.1173728
3112.545, 0.1177775
3114.474, 0.1148720
3116.402, 0.1147387
3118.331, 0.1153389
3120.259, 0.1155658
3122.188, 0.1166941
3124.116, 0.1163581
3126.044, 0.1157664
3127.973, 0.1143717
3129.901, 0.1147774
3131.830, 0.1154336
3133.758, 0.1138119
3135.687, 0.1146802
3137.615, 0.1164717
3139.544, 0.1164982
3141.472, 0.1150511
3143.401, 0.1155087
3145.329, 0.1172997
3147.258, 0.1173175
3149.186, 0.1173410
3151.115, 0.1180505
3153.043, 0.1180423
3154.971, 0.1159990
3156.900, 0.1145096
3158.828, 0.1148938
3160.757, 0.1177591
3162.685, 0.1201483
3164.614, 0.1198235
3166.542, 0.1182890
3168.471, 0.1161898
3170.399, 0.1156824
3172.328, 0.1167735
3174.256, 0.1177951
3176.185, 0.1173790
3178.113, 0.1179392
3180.042, 0.1180881
3181.970, 0.1183129
3183.898, 0.1192274
3185.827, 0.1200169
3187.755, 0.1196986
3189.684, 0.1180318
3191.612, 0.1185088
3193.541, 0.1194458
3195.469, 0.1195539
3197.398, 0.1200323
3199.326, 0.1201729
3201.255, 0.1197765
3203.183, 0.1185980
3205.112, 0.1185845
3207.040, 0.1197767
3208.969, 0.1196745
3210.897, 0.1198163
3212.825, 0.1213045
3214.754, 0.1219554
3216.682, 0.1206136
3218.611, 0.1199353
3220.539, 0.1212530
3222.468, 0.1204861
3224.396, 0.1199102
3226.325, 0.1200122
3228.253, 0.1200955
3230.182, 0.1222532
3232.110, 0.1228588
3234.039, 0.1221008
3235.967, 0.1214900
3237.896, 0.1209525
3239.824, 0.1226807
3241.752, 0.1227754
3243.681, 0.1213281
3245.609, 0.1215528
3247.538, 0.1235501
3249.466, 0.1239876
3251.395, 0.1218796
3253.323, 0.1216118
3255.252, 0.1225260
3257.180, 0.1250023
3259.109, 0.1248092
3261.037, 0.1238394
3262.966, 0.1243152
3264.894, 0.1251288
3266.823, 0.1240807
3268.751, 0.1220722
3270.679, 0.1218274
3272.608, 0.1248784
3274.536, 0.1265858
3276.465, 0.1250946
3278.393, 0.1249104
3280.322, 0.1252292
3282.250, 0.1245843
3284.179, 0.1242989
3286.107, 0.1245595
3288.036, 0.1244547
3289.964, 0.1247747
3291.893, 0.1244672
3293.821, 0.1248824
3295.750, 0.1245734
3297.678, 0.1241543
3299.606, 0.1253091
3301.535, 0.1271639
3303.463, 0.1280183
3305.392, 0.1278480
3307.320, 0.1277648
3309.249, 0.1282109
3311.177, 0.1277423
3313.106, 0.1278983
3315.034, 0.1278775
3316.963, 0.1266237
3318.891, 0.1263191
3320.820, 0.1276311
3322.748, 0.1297771
3324.677, 0.1279947
3326.605, 0.1270822
3328.533, 0.1285410
3330.462, 0.1277979
3332.390, 0.1259446
3334.319, 0.1281576
3336.247, 0.1312964
3338.176, 0.1311707
3340.104, 0.1297589
3342.033, 0.1267339
3343.961, 0.1256034
3345.890, 0.1269463
3347.818, 0.1292461
3349.747, 0.1315670
3351.675, 0.1327724
3353.604, 0.1299090
3355.532, 0.1279048
3357.460, 0.1283441
3359.389, 0.1293726
3361.317, 0.1303217
3363.246, 0.1299349
3365.174, 0.1292479
3367.103, 0.1288258
3369.031, 0.1275031
3370.960, 0.1274673
3372.888, 0.1296040
3374.817, 0.1293725
3376.745, 0.1270814
3378.674, 0.1282571
3380.602, 0.1286363
3382.531, 0.1286928
3384.459, 0.1315517
3386.387, 0.1334378
3388.316, 0.1332930
3390.244, 0.1334097
3392.173, 0.1309975
3394.101, 0.1302579
3396.030, 0.1320788
3397.958, 0.1317853
3399.887, 0.1318758
3401.815, 0.1331850
3403.744, 0.1337146
3405.672, 0.1347301
3407.601, 0.1354319
3409.529, 0.1357495
3411.458, 0.1337530
3413.386, 0.1323550
3415.314, 0.1314037
3417.243, 0.1291615
3419.171, 0.1298819
3421.100, 0.1305687
3423.028, 0.1310006
3424.957, 0.1340341
3426.885, 0.1331082
3428.814, 0.1311323
3430.742, 0.1285782
3432.671, 0.1287716
3434.599, 0.1309656
3436.528, 0.1318253
3438.456, 0.1338271
3440.385, 0.1349365
3442.313, 0.1343829
3444.241, 0.1344593
3446.170, 0.1355208
3448.098, 0.1347053
3450.027, 0.1322656
3451.955, 0.1323410
3453.884, 0.1333444
3455.812, 0.1334883
3457.741, 0.1334522
3459.669, 0.1331462
3461.598, 0.1306458
3463.526, 0.1299601
3465.455, 0.1317492
3467.383, 0.1329073
3469.312, 0.1343325
3471.240, 0.1328402
3473.168, 0.1308472
3475.097, 0.1352222
3477.025, 0.1370504
3478.954, 0.1358328
3480.882, 0.1347628
3482.811, 0.1336373
3484.739, 0.1322445
3486.668, 0.1320363
3488.596, 0.1324939
3490.525, 0.1331536
3492.453, 0.1351789
3494.382, 0.1359322
3496.310, 0.1362741
3498.239, 0.1329641
3500.167, 0.1324400
3502.095, 0.1336170
3504.024, 0.1345503
3505.952, 0.1339194
3507.881, 0.1329161
3509.809, 0.1354262
3511.738, 0.1355329
3513.666, 0.1349348
3515.595, 0.1366885
3517.523, 0.1357996
3519.452, 0.1321704
3521.380, 0.1311755
3523.309, 0.1331151
3525.237, 0.1353170
3527.166, 0.1375123
3529.094, 0.1355765
3531.022, 0.1331998
3532.951, 0.1342413
3534.879, 0.1364835
3536.808, 0.1377821
3538.736, 0.1383593
3540.665, 0.1383147
3542.593, 0.1385374
3544.522, 0.1381189
3546.450, 0.1366328
3548.379, 0.1356196
3550.307, 0.1342099
3552.236, 0.1326499
3554.164, 0.1348974
3556.093, 0.1388302
3558.021, 0.1381819
3559.949, 0.1352038
3561.878, 0.1370355
3563.806, 0.1367745
3565.735, 0.1352175
3567.663, 0.1348822
3569.592, 0.1353145
3571.520, 0.1333976
3573.449, 0.1314373
3575.377, 0.1313995
3577.306, 0.1358809
3579.234, 0.1381551
3581.163, 0.1378906
3583.091, 0.1374983
3585.020, 0.1379807
3586.948, 0.1376416
3588.876, 0.1371613
3590.805, 0.1364165
3592.733, 0.1370429
3594.662, 0.1377474
3596.590, 0.1356165
3598.519, 0.1341920
3600.447, 0.1339825
3602.376, 0.1348301
3604.304, 0.1374927
3606.233, 0.1375410
3608.161, 0.1358617
3610.090, 0.1339142
3612.018, 0.1326088
3613.947, 0.1342399
3615.875, 0.1370338
3617.803, 0.1365083
3619.732, 0.1329387
3621.660, 0.1340592
3623.589, 0.1381850
3625.517, 0.1389160
3627.446, 0.1383548
3629.374, 0.1382331
3631.303, 0.1375544
3633.231, 0.1351932
3635.160, 0.1333026
3637.088, 0.1326724
3639.017, 0.1317659
3640.945, 0.1326612
3642.874, 0.1347439
3644.802, 0.1345928
3646.730, 0.1366311
3648.659, 0.1380512
3650.587, 0.1361503
3652.516, 0.1384174
3654.444, 0.1409269
3656.373, 0.1390001
3658.301, 0.1361538
3660.230, 0.1357793
3662.158, 0.1395822
3664.087, 0.1389203
3666.015, 0.1357993
3667.944, 0.1359686
3669.872, 0.1371819
3671.801, 0.1352888
3673.729, 0.1333293
3675.657, 0.1342872
3677.586, 0.1367241
3679.514, 0.1372407
3681.443, 0.1365943
3683.371, 0.1369459
3685.300, 0.1380581
3687.228, 0.1391790
3689.157, 0.1365538
3691.085, 0.1357223
3693.014, 0.1374177
3694.942, 0.1378155
3696.871, 0.1373341
3698.799, 0.1404872
3700.728, 0.1412555
3702.656, 0.1427711
3704.584, 0.1438222
3706.513, 0.1422769
3708.441, 0.1408170
3710.370, 0.1406627
3712.298, 0.1426206
3714.227, 0.1413127
3716.155, 0.1391055
3718.084, 0.1375464
3720.012, 0.1365118
3721.941, 0.1349745
3723.869, 0.1358686
3725.798, 0.1416676
3727.726, 0.1430787
3729.655, 0.1416596
3731.583, 0.1406302
3733.511, 0.1434537
3735.440, 0.1436567
3737.368, 0.1384408
3739.297, 0.1369484
3741.225, 0.1399381
3743.154, 0.1427720
3745.082, 0.1429902
3747.011, 0.1399906
3748.939, 0.1394484
3750.868, 0.1416144
3752.796, 0.1433995
3754.725, 0.1422841
3756.653, 0.1402411
3758.582, 0.1431879
3760.510, 0.1424728
3762.438, 0.1397024
3764.367, 0.1402939
3766.295, 0.1422230
3768.224, 0.1431990
3770.152, 0.1437481
3772.081, 0.1415454
3774.009, 0.1427756
3775.938, 0.1453937
3777.866, 0.1452043
3779.795, 0.1454445
3781.723, 0.1459873
3783.652, 0.1435463
3785.580, 0.1435943
3787.509, 0.1441521
3789.437, 0.1453619
3791.365, 0.1455712
3793.294, 0.1455489
3795.222, 0.1453215
3797.151, 0.1457751
3799.079, 0.1463585
3801.008, 0.1458812
3802.936, 0.1456257
3804.865, 0.1451705
3806.793, 0.1437978
3808.722, 0.1433086
3810.650, 0.1461005
3812.579, 0.1471935
3814.507, 0.1467265
3816.436, 0.1458831
3818.364, 0.1447717
3820.292, 0.1440333
3822.221, 0.1465733
3824.149, 0.1452848
3826.078, 0.1430880
3828.006, 0.1474229
3829.935, 0.1512778
3831.863, 0.1505477
3833.792, 0.1472311
3835.720, 0.1447718
3837.649, 0.1456475
3839.577, 0.1451835
3841.506, 0.1454451
3843.434, 0.1452453
3845.363, 0.1457310
3847.291, 0.1467333
3849.219, 0.1485200
3851.148, 0.1531161
3853.076, 0.1520493
3855.005, 0.1483456
3856.933, 0.1476485
3858.862, 0.1494592
3860.790, 0.1509786
3862.719, 0.1502384
3864.647, 0.1492274
3866.576, 0.1498045
3868.504, 0.1457571
3870.433, 0.1414354
3872.361, 0.1437604
3874.290, 0.1494116
3876.218, 0.1485155
3878.146, 0.1474584
3880.075, 0.1473764
3882.003, 0.1483461
3883.932, 0.1514717
3885.860, 0.1498268
3887.789, 0.1471508
3889.717, 0.1476339
3891.646, 0.1483161
3893.574, 0.1496138
3895.503, 0.1516391
3897.431, 0.1521378
3899.360, 0.1507886
3901.288, 0.1529102
3903.217, 0.1566368
3905.145, 0.1524075
3907.073, 0.1507282
3909.002, 0.1540144
3910.930, 0.1523587
3912.859, 0.1512231
3914.787, 0.1534957
3916.716, 0.1551124
3918.644, 0.1544291
3920.573, 0.1529849
3922.501, 0.1537602
3924.430, 0.1529080
3926.358, 0.1495703
3928.287, 0.1502384
3930.215, 0.1516019
3932.144, 0.1513582
3934.072, 0.1516466
3936.000, 0.1514362
3937.929, 0.1551912
3939.857, 0.1561440
3941.786, 0.1530818
3943.714, 0.1536173
3945.643, 0.1567390
3947.571, 0.1569864
3949.500, 0.1544902
3951.428, 0.1557921
3953.357, 0.1551794
3955.285, 0.1556768
3957.214, 0.1534021
3959.142, 0.1513491
3961.071, 0.1541741
3962.999, 0.1542319
3964.927, 0.1519653
3966.856, 0.1499348
3968.784, 0.1529636
3970.713, 0.1562988
3972.641, 0.1565350
3974.570, 0.1534376
3976.498, 0.1508963
3978.427, 0.1527439
3980.355, 0.1529229
3982.284, 0.1510280
3984.212, 0.1519993
3986.141, 0.1554697
3988.069, 0.1599903
3989.998, 0.1586315
3991.926, 0.1543336
3993.854, 0.1527635
3995.783, 0.1543173
3997.711, 0.1583255
3999.640, 0.1584019
##END=



