##NAMES=Fluorophlogopite
##RRUFFID=R040075
##IDEAL CHEMISTRY=KMg_3_(Si_3_Al)O_10_F_2_
##LOCALITY=unknown
##OWNER=RRUFF
##SOURCE=University of Arizona Mineral Museum
##DESCRIPTION=Green hexagonal tablet
##STATUS=The identification of this mineral has been confirmed by X-ray diffraction and chemical analysis
##URL=rruff.info/R040075
##MEASURED CHEMISTRY=(K_0.93_[box]_0.04_Na_0.03_)(Mg_0.66_Fe_0.30_Ti_0.02_)_3_(Si_0.75_Al_0.25_)_4_O_10_(F_0.90_(OH)_0.06_Cl_0.04_)
3.991926e+002, 0.000000e+000
4.011211e+002, 3.741995e-001
4.030496e+002, 3.759266e-001
4.049780e+002, 3.670911e-001
4.069065e+002, 3.908054e-001
4.088350e+002, 3.947157e-001
4.107634e+002, 3.789044e-001
4.126919e+002, 3.866698e-001
4.146204e+002, 4.020177e-001
4.165488e+002, 3.993585e-001
4.184773e+002, 3.972951e-001
4.204058e+002, 3.969198e-001
4.223342e+002, 4.064385e-001
4.242627e+002, 4.098873e-001
4.261912e+002, 4.029328e-001
4.281196e+002, 4.049321e-001
4.300481e+002, 4.054986e-001
4.319766e+002, 3.960230e-001
4.339050e+002, 3.884862e-001
4.358335e+002, 3.895852e-001
4.377620e+002, 3.892336e-001
4.396904e+002, 3.846211e-001
4.416189e+002, 3.764947e-001
4.435474e+002, 3.691216e-001
4.454758e+002, 3.619338e-001
4.474043e+002, 3.527687e-001
4.493328e+002, 3.442816e-001
4.512612e+002, 3.356597e-001
4.531897e+002, 3.265553e-001
4.551182e+002, 3.163148e-001
4.570466e+002, 3.056199e-001
4.589751e+002, 2.945085e-001
4.609036e+002, 2.820792e-001
4.628320e+002, 2.693399e-001
4.647605e+002, 2.584228e-001
4.666890e+002, 2.466694e-001
4.686174e+002, 2.353951e-001
4.705459e+002, 2.256172e-001
4.724744e+002, 2.177761e-001
4.744028e+002, 2.101440e-001
4.763313e+002, 2.051813e-001
4.782598e+002, 2.037631e-001
4.801882e+002, 2.029376e-001
4.821167e+002, 2.019810e-001
4.840452e+002, 1.999821e-001
4.859736e+002, 1.972540e-001
4.879021e+002, 1.961863e-001
4.898306e+002, 1.955767e-001
4.917590e+002, 1.926469e-001
4.936875e+002, 1.887918e-001
4.956160e+002, 1.850763e-001
4.975444e+002, 1.804819e-001
4.994729e+002, 1.759664e-001
5.014014e+002, 1.726627e-001
5.033298e+002, 1.694979e-001
5.052583e+002, 1.664148e-001
5.071868e+002, 1.644108e-001
5.091152e+002, 1.636353e-001
5.110437e+002, 1.629952e-001
5.129722e+002, 1.621870e-001
5.149006e+002, 1.623766e-001
5.168291e+002, 1.641294e-001
5.187576e+002, 1.656392e-001
5.206860e+002, 1.660746e-001
5.226145e+002, 1.673550e-001
5.245430e+002, 1.700369e-001
5.264714e+002, 1.731123e-001
5.283999e+002, 1.770616e-001
5.303284e+002, 1.808744e-001
5.322568e+002, 1.847685e-001
5.341853e+002, 1.889635e-001
5.361138e+002, 1.938105e-001
5.380422e+002, 1.996080e-001
5.399707e+002, 2.046645e-001
5.418992e+002, 2.099096e-001
5.438276e+002, 2.161330e-001
5.457561e+002, 2.227663e-001
5.476846e+002, 2.294567e-001
5.496130e+002, 2.362449e-001
5.515415e+002, 2.440144e-001
5.534700e+002, 2.525720e-001
5.553984e+002, 2.592648e-001
5.573269e+002, 2.655904e-001
5.592554e+002, 2.724695e-001
5.611838e+002, 2.788484e-001
5.631123e+002, 2.846890e-001
5.650408e+002, 2.896176e-001
5.669692e+002, 2.945928e-001
5.688977e+002, 2.997059e-001
5.708262e+002, 3.037077e-001
5.727546e+002, 3.077282e-001
5.746831e+002, 3.114162e-001
5.766116e+002, 3.137413e-001
5.785400e+002, 3.158987e-001
5.804685e+002, 3.182074e-001
5.823970e+002, 3.201196e-001
5.843254e+002, 3.223269e-001
5.862539e+002, 3.239506e-001
5.881824e+002, 3.248216e-001
5.901108e+002, 3.244056e-001
5.920393e+002, 3.235848e-001
5.939678e+002, 3.235898e-001
5.958962e+002, 3.241022e-001
5.978247e+002, 3.243793e-001
5.997532e+002, 3.228655e-001
6.016816e+002, 3.207815e-001
6.036101e+002, 3.189018e-001
6.055386e+002, 3.179152e-001
6.074670e+002, 3.156062e-001
6.093955e+002, 3.125297e-001
6.113240e+002, 3.090388e-001
6.132524e+002, 3.051450e-001
6.151809e+002, 3.002840e-001
6.171094e+002, 2.950982e-001
6.190378e+002, 2.909304e-001
6.209663e+002, 2.871443e-001
6.228948e+002, 2.824275e-001
6.248232e+002, 2.784314e-001
6.267517e+002, 2.771553e-001
6.286802e+002, 2.787320e-001
6.306086e+002, 2.831718e-001
6.325371e+002, 2.893925e-001
6.344656e+002, 2.944671e-001
6.363940e+002, 2.974925e-001
6.383225e+002, 2.987764e-001
6.402510e+002, 2.988020e-001
6.421794e+002, 2.978940e-001
6.441079e+002, 2.958648e-001
6.460364e+002, 2.926387e-001
6.479648e+002, 2.886007e-001
6.498933e+002, 2.849228e-001
6.518218e+002, 2.814763e-001
6.537502e+002, 2.777814e-001
6.556787e+002, 2.739069e-001
6.576072e+002, 2.697074e-001
6.595356e+002, 2.655905e-001
6.614641e+002, 2.617244e-001
6.633926e+002, 2.580571e-001
6.653210e+002, 2.542433e-001
6.672495e+002, 2.507788e-001
6.691780e+002, 2.467544e-001
6.711064e+002, 2.427985e-001
6.730349e+002, 2.391527e-001
6.749634e+002, 2.357395e-001
6.768918e+002, 2.324299e-001
6.788203e+002, 2.288100e-001
6.807488e+002, 2.250299e-001
6.826772e+002, 2.216311e-001
6.846057e+002, 2.182650e-001
6.865342e+002, 2.143970e-001
6.884626e+002, 2.105026e-001
6.903911e+002, 2.073096e-001
6.923196e+002, 2.045604e-001
6.942480e+002, 2.025267e-001
6.961765e+002, 2.011113e-001
6.981050e+002, 2.003092e-001
7.000334e+002, 1.994822e-001
7.019619e+002, 1.992478e-001
7.038904e+002, 1.989228e-001
7.058188e+002, 1.982299e-001
7.077473e+002, 1.977931e-001
7.096758e+002, 1.976571e-001
7.116042e+002, 1.970412e-001
7.135327e+002, 1.963285e-001
7.154612e+002, 1.956434e-001
7.173896e+002, 1.945599e-001
7.193181e+002, 1.930808e-001
7.212466e+002, 1.916372e-001
7.231750e+002, 1.901116e-001
7.251035e+002, 1.882728e-001
7.270320e+002, 1.860096e-001
7.289604e+002, 1.838278e-001
7.308889e+002, 1.813150e-001
7.328174e+002, 1.786039e-001
7.347458e+002, 1.758805e-001
7.366743e+002, 1.733836e-001
7.386028e+002, 1.709989e-001
7.405313e+002, 1.691484e-001
7.424597e+002, 1.672618e-001
7.443882e+002, 1.654288e-001
7.463167e+002, 1.637454e-001
7.482451e+002, 1.620822e-001
7.501736e+002, 1.605204e-001
7.521021e+002, 1.592964e-001
7.540305e+002, 1.581497e-001
7.559590e+002, 1.571701e-001
7.578875e+002, 1.562108e-001
7.598159e+002, 1.551413e-001
7.617444e+002, 1.535937e-001
7.636729e+002, 1.522019e-001
7.656013e+002, 1.511818e-001
7.675298e+002, 1.502499e-001
7.694583e+002, 1.492597e-001
7.713867e+002, 1.480423e-001
7.733152e+002, 1.463966e-001
7.752437e+002, 1.450314e-001
7.771721e+002, 1.435029e-001
7.791006e+002, 1.416286e-001
7.810291e+002, 1.401029e-001
7.829575e+002, 1.391331e-001
7.848860e+002, 1.376478e-001
7.868145e+002, 1.362210e-001
7.887429e+002, 1.353175e-001
7.906714e+002, 1.344350e-001
7.925999e+002, 1.333166e-001
7.945283e+002, 1.322007e-001
7.964568e+002, 1.312414e-001
7.983853e+002, 1.305586e-001
8.003137e+002, 1.295790e-001
8.022422e+002, 1.284913e-001
8.041707e+002, 1.273977e-001
8.060991e+002, 1.261146e-001
8.080276e+002, 1.245923e-001
8.099561e+002, 1.229140e-001
8.118845e+002, 1.211999e-001
8.138130e+002, 1.198653e-001
8.157415e+002, 1.186746e-001
8.176699e+002, 1.175843e-001
8.195984e+002, 1.166500e-001
8.215269e+002, 1.160097e-001
8.234553e+002, 1.153240e-001
8.253838e+002, 1.148115e-001
8.273123e+002, 1.143586e-001
8.292407e+002, 1.138837e-001
8.311692e+002, 1.134268e-001
8.330977e+002, 1.127675e-001
8.350261e+002, 1.119768e-001
8.369546e+002, 1.115392e-001
8.388831e+002, 1.108854e-001
8.408115e+002, 1.101716e-001
8.427400e+002, 1.095746e-001
8.446685e+002, 1.092540e-001
8.465969e+002, 1.087018e-001
8.485254e+002, 1.080300e-001
8.504539e+002, 1.072197e-001
8.523823e+002, 1.065897e-001
8.543108e+002, 1.061619e-001
8.562393e+002, 1.060772e-001
8.581677e+002, 1.054533e-001
8.600962e+002, 1.047937e-001
8.620247e+002, 1.046649e-001
8.639531e+002, 1.047465e-001
8.658816e+002, 1.044738e-001
8.678101e+002, 1.045906e-001
8.697385e+002, 1.048209e-001
8.716670e+002, 1.052131e-001
8.735955e+002, 1.056995e-001
8.755239e+002, 1.059879e-001
8.774524e+002, 1.059808e-001
8.793809e+002, 1.061049e-001
8.813093e+002, 1.068723e-001
8.832378e+002, 1.080962e-001
8.851663e+002, 1.091150e-001
8.870947e+002, 1.109731e-001
8.890232e+002, 1.135988e-001
8.909517e+002, 1.164057e-001
8.928801e+002, 1.192518e-001
8.948085e+002, 1.225382e-001
8.967370e+002, 1.260905e-001
8.986655e+002, 1.293690e-001
9.005939e+002, 1.321891e-001
9.025224e+002, 1.348069e-001
9.044509e+002, 1.370848e-001
9.063793e+002, 1.390348e-001
9.083078e+002, 1.408342e-001
9.102363e+002, 1.427876e-001
9.121647e+002, 1.447855e-001
9.140932e+002, 1.469878e-001
9.160217e+002, 1.490794e-001
9.179501e+002, 1.513171e-001
9.198786e+002, 1.538801e-001
9.218071e+002, 1.567466e-001
9.237355e+002, 1.599704e-001
9.256640e+002, 1.632760e-001
9.275925e+002, 1.666844e-001
9.295209e+002, 1.703940e-001
9.314494e+002, 1.744052e-001
9.333779e+002, 1.788158e-001
9.353063e+002, 1.834608e-001
9.372348e+002, 1.888732e-001
9.391633e+002, 1.946208e-001
9.410917e+002, 2.005715e-001
9.430202e+002, 2.070704e-001
9.449487e+002, 2.140316e-001
9.468771e+002, 2.215090e-001
9.488056e+002, 2.295763e-001
9.507341e+002, 2.378877e-001
9.526625e+002, 2.467000e-001
9.545910e+002, 2.549994e-001
9.565195e+002, 2.625748e-001
9.584479e+002, 2.693729e-001
9.603764e+002, 2.753799e-001
9.623049e+002, 2.801598e-001
9.642333e+002, 2.836289e-001
9.661618e+002, 2.854691e-001
9.680903e+002, 2.855984e-001
9.700187e+002, 2.844616e-001
9.719472e+002, 2.827668e-001
9.738757e+002, 2.804044e-001
9.758041e+002, 2.773758e-001
9.777326e+002, 2.742761e-001
9.796611e+002, 2.714900e-001
9.815895e+002, 2.697688e-001
9.835180e+002, 2.697287e-001
9.854465e+002, 2.701598e-001
9.873749e+002, 2.710840e-001
9.893034e+002, 2.726491e-001
9.912319e+002, 2.744233e-001
9.931603e+002, 2.761595e-001
9.950888e+002, 2.777485e-001
9.970173e+002, 2.783290e-001
9.989457e+002, 2.778999e-001
1.000874e+003, 2.762454e-001
1.002803e+003, 2.731073e-001
1.004731e+003, 2.683258e-001
1.006660e+003, 2.620417e-001
1.008588e+003, 2.540536e-001
1.010517e+003, 2.445136e-001
1.012445e+003, 2.335819e-001
1.014373e+003, 2.217180e-001
1.016302e+003, 2.092315e-001
1.018230e+003, 1.966016e-001
1.020159e+003, 1.842222e-001
1.022087e+003, 1.724568e-001
1.024016e+003, 1.617207e-001
1.025944e+003, 1.519476e-001
1.027873e+003, 1.428400e-001
1.029801e+003, 1.346263e-001
1.031730e+003, 1.271579e-001
1.033658e+003, 1.203035e-001
1.035587e+003, 1.140494e-001
1.037515e+003, 1.083983e-001
1.039444e+003, 1.030945e-001
1.041372e+003, 9.850354e-002
1.043301e+003, 9.463253e-002
1.045229e+003, 9.125166e-002
1.047157e+003, 8.827253e-002
1.049086e+003, 8.555397e-002
1.051014e+003, 8.327000e-002
1.052943e+003, 8.138760e-002
1.054871e+003, 7.938726e-002
1.056800e+003, 7.753117e-002
1.058728e+003, 7.603928e-002
1.060657e+003, 7.479429e-002
1.062585e+003, 7.350367e-002
1.064514e+003, 7.219870e-002
1.066442e+003, 7.089674e-002
1.068371e+003, 6.959378e-002
1.070299e+003, 6.811205e-002
1.072228e+003, 6.713412e-002
1.074156e+003, 6.591827e-002
1.076084e+003, 6.416683e-002
1.078013e+003, 6.253930e-002
1.079941e+003, 6.099478e-002
1.081870e+003, 5.903637e-002
1.083798e+003, 5.694649e-002
1.085727e+003, 5.497946e-002
1.087655e+003, 5.286882e-002
1.089584e+003, 5.071207e-002
1.091512e+003, 4.883974e-002
1.093441e+003, 4.664424e-002
1.095369e+003, 4.439244e-002
1.097298e+003, 4.250155e-002
1.099226e+003, 4.068380e-002
1.101155e+003, 3.877639e-002
1.103083e+003, 3.685318e-002
1.105011e+003, 3.522396e-002
1.106940e+003, 3.351455e-002
1.108868e+003, 3.170292e-002
1.110797e+003, 3.028149e-002
1.112725e+003, 2.895720e-002
1.114654e+003, 2.786826e-002
1.116582e+003, 2.676898e-002
1.118511e+003, 2.568891e-002
1.120439e+003, 2.479546e-002
1.122368e+003, 2.417367e-002
1.124296e+003, 2.345793e-002
1.126225e+003, 2.274885e-002
1.128153e+003, 2.206097e-002
1.130082e+003, 2.150751e-002
1.132010e+003, 2.114175e-002
1.133938e+003, 2.086530e-002
1.135867e+003, 2.043935e-002
1.137795e+003, 1.991873e-002
1.139724e+003, 1.948605e-002
1.141652e+003, 1.909433e-002
1.143581e+003, 1.859540e-002
1.145509e+003, 1.804187e-002
1.147438e+003, 1.758417e-002
1.149366e+003, 1.726617e-002
1.151295e+003, 1.695701e-002
1.153223e+003, 1.683492e-002
1.155152e+003, 1.672460e-002
1.157080e+003, 1.653646e-002
1.159009e+003, 1.600582e-002
1.160937e+003, 1.575405e-002
1.162865e+003, 1.557766e-002
1.164794e+003, 1.528601e-002
1.166722e+003, 1.500291e-002
1.168651e+003, 1.469466e-002
1.170579e+003, 1.440915e-002
1.172508e+003, 1.431548e-002
1.174436e+003, 1.404975e-002
1.176365e+003, 1.376468e-002
1.178293e+003, 1.348182e-002
1.180222e+003, 1.300569e-002
1.182150e+003, 1.259443e-002
1.184079e+003, 1.247883e-002
1.186007e+003, 1.217345e-002
1.187936e+003, 1.192919e-002
1.189864e+003, 1.175073e-002
1.191792e+003, 1.143731e-002
1.193721e+003, 1.111112e-002
1.195649e+003, 1.079203e-002
1.197578e+003, 1.044377e-002
1.199506e+003, 1.016925e-002
1.201435e+003, 9.875729e-003
1.203363e+003, 9.758621e-003
1.205292e+003, 9.651979e-003
1.207220e+003, 9.222481e-003
1.209149e+003, 8.752828e-003
1.211077e+003, 8.569859e-003
1.213006e+003, 8.335713e-003
1.214934e+003, 8.161481e-003
1.216863e+003, 8.005399e-003
1.218791e+003, 7.734648e-003
1.220719e+003, 7.287183e-003
1.222648e+003, 7.081742e-003
1.224576e+003, 7.131391e-003
1.226505e+003, 6.893770e-003
1.228433e+003, 6.595495e-003
1.230362e+003, 6.381368e-003
1.232290e+003, 5.965110e-003
1.234219e+003, 5.639866e-003
1.236147e+003, 5.559713e-003
1.238076e+003, 5.463566e-003
1.240004e+003, 5.247612e-003
1.241933e+003, 5.004290e-003
1.243861e+003, 4.880326e-003
1.245790e+003, 4.747870e-003
1.247718e+003, 4.657187e-003
1.249646e+003, 4.664888e-003
1.251575e+003, 4.647158e-003
1.253503e+003, 4.669620e-003
1.255432e+003, 4.617492e-003
1.257360e+003, 4.733600e-003
1.259289e+003, 4.628274e-003
1.261217e+003, 4.337056e-003
1.263146e+003, 4.069759e-003
1.265074e+003, 3.981123e-003
1.267003e+003, 3.972732e-003
1.268931e+003, 4.036390e-003
1.270860e+003, 4.168212e-003
1.272788e+003, 4.078796e-003
1.274717e+003, 3.885285e-003
1.276645e+003, 3.821254e-003
1.278573e+003, 3.677345e-003
1.280502e+003, 3.851365e-003
1.282430e+003, 3.926944e-003
1.284359e+003, 3.966793e-003
1.286287e+003, 3.999031e-003
1.288216e+003, 3.870619e-003
1.290144e+003, 3.807259e-003
1.292073e+003, 3.830728e-003
1.294001e+003, 3.719839e-003
1.295930e+003, 3.723484e-003
1.297858e+003, 3.722467e-003
1.299787e+003, 3.666018e-003
1.301715e+003, 3.596953e-003
1.303644e+003, 3.614366e-003
1.305572e+003, 3.563283e-003
1.307500e+003, 3.560838e-003
1.309429e+003, 3.473361e-003
1.311357e+003, 3.513282e-003
1.313286e+003, 3.465644e-003
1.315214e+003, 3.324219e-003
1.317143e+003, 3.225737e-003
1.319071e+003, 3.591903e-003
1.321000e+003, 3.996499e-003
1.322928e+003, 3.766817e-003
1.324857e+003, 3.659280e-003
1.326785e+003, 3.699121e-003
1.328714e+003, 3.645801e-003
1.330642e+003, 3.560992e-003
1.332571e+003, 3.699367e-003
1.334499e+003, 3.818756e-003
1.336427e+003, 3.762717e-003
1.338356e+003, 3.758466e-003
1.340284e+003, 3.935582e-003
1.342213e+003, 3.962884e-003
1.344141e+003, 3.795794e-003
1.346070e+003, 3.716995e-003
1.347998e+003, 3.601911e-003
1.349927e+003, 3.611339e-003
1.351855e+003, 3.732399e-003
1.353784e+003, 3.928464e-003
1.355712e+003, 4.207055e-003
1.357641e+003, 4.449714e-003
1.359569e+003, 4.450709e-003
1.361498e+003, 4.386637e-003
1.363426e+003, 4.302270e-003
1.365354e+003, 4.244552e-003
1.367283e+003, 4.415302e-003
1.369211e+003, 4.806699e-003
1.371140e+003, 5.015025e-003
1.373068e+003, 5.405568e-003
1.374997e+003, 6.023730e-003
1.376925e+003, 6.108187e-003
1.378854e+003, 5.887432e-003
1.380782e+003, 5.559225e-003
1.382711e+003, 4.928090e-003
1.384639e+003, 4.619651e-003
1.386568e+003, 4.540317e-003
1.388496e+003, 4.915324e-003
1.390424e+003, 4.737371e-003
1.392353e+003, 4.611643e-003
1.394281e+003, 4.757189e-003
1.396210e+003, 5.293344e-003
1.398138e+003, 5.245397e-003
1.400067e+003, 5.381063e-003
1.401995e+003, 5.143537e-003
1.403924e+003, 5.138620e-003
1.405852e+003, 5.574365e-003
1.407781e+003, 5.708559e-003
1.409709e+003, 5.606635e-003
1.411638e+003, 5.541918e-003
1.413566e+003, 5.543445e-003
1.415495e+003, 5.550645e-003
1.417423e+003, 5.269752e-003
1.419351e+003, 5.407103e-003
1.421280e+003, 5.601474e-003
1.423208e+003, 5.404772e-003
1.425137e+003, 5.498031e-003
1.427065e+003, 5.367800e-003
1.428994e+003, 5.205959e-003
1.430922e+003, 5.292401e-003
1.432851e+003, 5.176697e-003
1.434779e+003, 5.128459e-003
1.436708e+003, 5.343857e-003
1.438636e+003, 5.384404e-003
1.440565e+003, 4.986574e-003
1.442493e+003, 4.859759e-003
1.444422e+003, 4.843930e-003
1.446350e+003, 4.709804e-003
1.448278e+003, 4.891468e-003
1.450207e+003, 4.870631e-003
1.452135e+003, 4.764002e-003
1.454064e+003, 4.506953e-003
1.455992e+003, 3.882933e-003
1.457921e+003, 5.106028e-003
1.459849e+003, 5.072337e-003
1.461778e+003, 4.717072e-003
1.463706e+003, 4.137387e-003
1.465635e+003, 4.358693e-003
1.467563e+003, 3.827135e-003
1.469492e+003, 3.489241e-003
1.471420e+003, 2.756527e-003
1.473349e+003, 3.080131e-003
1.475277e+003, 3.010482e-003
1.477205e+003, 3.558841e-003
1.479134e+003, 3.188711e-003
1.481062e+003, 3.157253e-003
1.482991e+003, 3.262385e-003
1.484919e+003, 3.159516e-003
1.486848e+003, 2.793387e-003
1.488776e+003, 2.633885e-003
1.490705e+003, 3.095431e-003
1.492633e+003, 3.174215e-003
1.494562e+003, 2.982539e-003
1.496490e+003, 3.163931e-003
1.498419e+003, 3.040343e-003
1.500347e+003, 3.409185e-003
1.502276e+003, 3.306242e-003
1.504204e+003, 2.669168e-003
1.506132e+003, 2.576820e-003
1.508061e+003, 3.452695e-003
1.509989e+003, 3.476247e-003
1.511918e+003, 3.456556e-003
1.513846e+003, 3.337797e-003
1.515775e+003, 3.072555e-003
1.517703e+003, 3.506594e-003
1.519632e+003, 2.793631e-003
1.521560e+003, 3.525863e-003
1.523489e+003, 3.745478e-003
1.525417e+003, 3.618620e-003
1.527346e+003, 3.814903e-003
1.529274e+003, 4.218276e-003
1.531203e+003, 4.163726e-003
1.533131e+003, 4.122792e-003
1.535059e+003, 4.642172e-003
1.536988e+003, 3.924787e-003
1.538916e+003, 3.637610e-003
1.540845e+003, 4.464778e-003
1.542773e+003, 4.792581e-003
1.544702e+003, 4.660378e-003
1.546630e+003, 5.316538e-003
1.548559e+003, 4.940989e-003
1.550487e+003, 5.186176e-003
1.552416e+003, 5.011972e-003
1.554344e+003, 5.348234e-003
1.556273e+003, 4.977913e-003
1.558201e+003, 4.963878e-003
1.560130e+003, 5.628529e-003
1.562058e+003, 5.466879e-003
1.563986e+003, 5.560752e-003
1.565915e+003, 5.790105e-003
1.567843e+003, 5.270771e-003
1.569772e+003, 5.698710e-003
1.571700e+003, 5.616480e-003
1.573629e+003, 5.352856e-003
1.575557e+003, 4.624172e-003
1.577486e+003, 5.494044e-003
1.579414e+003, 5.196201e-003
1.581343e+003, 5.333647e-003
1.583271e+003, 5.521028e-003
1.585200e+003, 5.447301e-003
1.587128e+003, 5.470383e-003
1.589057e+003, 5.650278e-003
1.590985e+003, 5.614090e-003
1.592913e+003, 5.667895e-003
1.594842e+003, 5.774450e-003
1.596770e+003, 5.802472e-003
1.598699e+003, 5.649308e-003
1.600627e+003, 5.615044e-003
1.602556e+003, 5.644636e-003
1.604484e+003, 5.630156e-003
1.606413e+003, 5.383277e-003
1.608341e+003, 5.303436e-003
1.610270e+003, 5.445705e-003
1.612198e+003, 5.343445e-003
1.614127e+003, 5.258737e-003
1.616055e+003, 4.852107e-003
1.617984e+003, 5.801762e-003
1.619912e+003, 5.384444e-003
1.621840e+003, 5.328832e-003
1.623769e+003, 5.725894e-003
1.625697e+003, 5.340494e-003
1.627626e+003, 5.590455e-003
1.629554e+003, 5.811663e-003
1.631483e+003, 5.522856e-003
1.633411e+003, 4.910437e-003
1.635340e+003, 5.200420e-003
1.637268e+003, 5.695406e-003
1.639197e+003, 5.696194e-003
1.641125e+003, 5.747230e-003
1.643054e+003, 5.473677e-003
1.644982e+003, 4.793987e-003
1.646911e+003, 5.608700e-003
1.648839e+003, 5.478971e-003
1.650767e+003, 4.170132e-003
1.652696e+003, 4.026710e-003
1.654624e+003, 5.557999e-003
1.656553e+003, 4.713853e-003
1.658481e+003, 4.440163e-003
1.660410e+003, 4.422624e-003
1.662338e+003, 4.401974e-003
1.664267e+003, 4.642067e-003
1.666195e+003, 4.304554e-003
1.668124e+003, 3.800588e-003
1.670052e+003, 4.485480e-003
1.671981e+003, 4.178256e-003
1.673909e+003, 3.342047e-003
1.675838e+003, 3.901657e-003
1.677766e+003, 3.531304e-003
1.679694e+003, 3.632500e-003
1.681623e+003, 3.480764e-003
1.683551e+003, 2.512307e-003
1.685480e+003, 3.900511e-003
1.687408e+003, 3.507351e-003
1.689337e+003, 3.623998e-003
1.691265e+003, 3.283449e-003
1.693194e+003, 2.869106e-003
1.695122e+003, 2.087339e-003
1.697051e+003, 3.415122e-003
1.698979e+003, 2.083470e-003
1.700908e+003, 3.773643e-003
1.702836e+003, 2.724993e-003
1.704765e+003, 2.805219e-003
1.706693e+003, 2.730824e-003
1.708621e+003, 2.498626e-003
1.710550e+003, 2.435563e-003
1.712478e+003, 1.878053e-003
1.714407e+003, 1.793554e-003
1.716335e+003, 1.589950e-003
1.718264e+003, 2.436091e-003
1.720192e+003, 2.584616e-003
1.722121e+003, 2.228870e-003
1.724049e+003, 2.022279e-003
1.725978e+003, 1.987449e-003
1.727906e+003, 1.959600e-003
1.729835e+003, 1.914608e-003
1.731763e+003, 1.303118e-003
1.733692e+003, 1.005694e-003
1.735620e+003, 1.966306e-003
1.737548e+003, 9.176072e-004
1.739477e+003, 6.462192e-004
1.741405e+003, 1.025377e-003
1.743334e+003, 8.230261e-004
1.745262e+003, 8.231124e-004
1.747191e+003, 1.141686e-003
1.749119e+003, 1.124714e-003
1.751048e+003, 9.223568e-004
1.752976e+003, 1.649884e-003
1.754905e+003, 1.677246e-003
1.756833e+003, 1.763489e-003
1.758762e+003, 1.891890e-003
1.760690e+003, 1.904924e-003
1.762619e+003, 2.687026e-003
1.764547e+003, 2.409406e-003
1.766475e+003, 2.223851e-003
1.768404e+003, 2.219966e-003
1.770332e+003, 1.954750e-003
1.772261e+003, 2.189549e-003
1.774189e+003, 2.309433e-003
1.776118e+003, 2.160027e-003
1.778046e+003, 2.179184e-003
1.779975e+003, 1.872863e-003
1.781903e+003, 1.809032e-003
1.783832e+003, 1.946550e-003
1.785760e+003, 2.451160e-003
1.787689e+003, 2.051068e-003
1.789617e+003, 1.948330e-003
1.791546e+003, 2.219949e-003
1.793474e+003, 2.690930e-003
1.795402e+003, 2.235652e-003
1.797331e+003, 2.166698e-003
1.799259e+003, 2.128481e-003
1.801188e+003, 2.208001e-003
1.803116e+003, 1.791446e-003
1.805045e+003, 1.702788e-003
1.806973e+003, 1.819393e-003
1.808902e+003, 2.024794e-003
1.810830e+003, 2.348816e-003
1.812759e+003, 2.106234e-003
1.814687e+003, 2.015251e-003
1.816616e+003, 1.913625e-003
1.818544e+003, 1.344962e-003
1.820473e+003, 1.203565e-003
1.822401e+003, 1.098577e-003
1.824329e+003, 1.342847e-003
1.826258e+003, 1.928284e-003
1.828186e+003, 1.411987e-003
1.830115e+003, 1.884771e-003
1.832043e+003, 1.804789e-003
1.833972e+003, 1.599555e-003
1.835900e+003, 1.618053e-003
1.837829e+003, 1.819326e-003
1.839757e+003, 1.953233e-003
1.841686e+003, 1.469682e-003
1.843614e+003, 1.075438e-003
1.845543e+003, 1.869564e-003
1.847471e+003, 1.693206e-003
1.849400e+003, 1.513677e-003
1.851328e+003, 9.918178e-004
1.853256e+003, 1.144201e-003
1.855185e+003, 8.634516e-004
1.857113e+003, 8.185775e-004
1.859042e+003, 1.274702e-003
1.860970e+003, 1.564973e-003
1.862899e+003, 1.299336e-003
1.864827e+003, 2.492011e-004
1.866756e+003, -1.903432e-004
1.868684e+003, -6.130032e-005
1.870613e+003, 3.675383e-004
1.872541e+003, 2.940079e-004
1.874470e+003, -2.838074e-005
1.876398e+003, -3.123910e-004
1.878327e+003, 1.351068e-004
1.880255e+003, 6.861096e-004
1.882183e+003, 5.262063e-004
1.884112e+003, -3.918901e-005
1.886040e+003, 2.007263e-004
1.887969e+003, -7.429971e-005
1.889897e+003, -3.334339e-006
1.891826e+003, -1.517631e-005
1.893754e+003, 1.488640e-004
1.895683e+003, -2.843342e-004
1.897611e+003, -5.673325e-004
1.899540e+003, -3.289065e-004
1.901468e+003, -5.431380e-004
1.903397e+003, -1.083315e-003
1.905325e+003, -9.481502e-004
1.907254e+003, -7.970780e-004
1.909182e+003, -9.191956e-004
1.911110e+003, -1.044625e-003
1.913039e+003, -1.183065e-003
1.914967e+003, -1.608538e-003
1.916896e+003, -1.940459e-003
1.918824e+003, -1.410217e-003
1.920753e+003, -1.724373e-003
1.922681e+003, -2.386604e-003
1.924610e+003, -2.707426e-003
1.926538e+003, -2.667050e-003
1.928467e+003, -2.497717e-003
1.930395e+003, -2.434795e-003
1.932324e+003, -3.105015e-003
1.934252e+003, -3.478154e-003
1.936181e+003, -4.095208e-003
1.938109e+003, -4.465304e-003
1.940037e+003, -3.802521e-003
1.941966e+003, -2.399203e-003
1.943894e+003, -2.405427e-003
1.945823e+003, -3.047946e-003
1.947751e+003, -2.692917e-003
1.949680e+003, -3.052940e-003
1.951608e+003, -4.122775e-003
1.953537e+003, -5.475326e-003
1.955465e+003, -5.125020e-003
1.957394e+003, -6.226810e-003
1.959322e+003, -6.831100e-003
1.961251e+003, -6.121858e-003
1.963179e+003, -6.037229e-003
1.965108e+003, -6.593387e-003
1.967036e+003, -6.374854e-003
1.968964e+003, -6.750968e-003
1.970893e+003, -7.352203e-003
1.972821e+003, -7.718949e-003
1.974750e+003, -7.238848e-003
1.976678e+003, -7.370033e-003
1.978607e+003, -6.704419e-003
1.980535e+003, -6.088596e-003
1.982464e+003, -5.011992e-003
1.984392e+003, -4.980109e-003
1.986321e+003, -5.085689e-003
1.988249e+003, -4.735462e-003
1.990178e+003, -4.866101e-003
1.992106e+003, -4.937214e-003
1.994035e+003, -4.805571e-003
1.995963e+003, -6.348057e-003
1.997891e+003, -7.243505e-003
1.999820e+003, -6.977132e-003
2.001748e+003, -5.951762e-003
2.003677e+003, -6.432196e-003
2.005605e+003, -7.956410e-003
2.007534e+003, -8.714025e-003
2.009462e+003, -7.838671e-003
2.011391e+003, -8.167448e-003
2.013319e+003, -7.269236e-003
2.015248e+003, -6.620940e-003
2.017176e+003, -7.976820e-003
2.019105e+003, -9.255466e-003
2.021033e+003, -8.757580e-003
2.022962e+003, -7.738600e-003
2.024890e+003, -5.256867e-003
2.026818e+003, -5.942020e-003
2.028747e+003, -7.774989e-003
2.030675e+003, -7.946948e-003
2.032604e+003, -6.522906e-003
2.034532e+003, -4.788943e-003
2.036461e+003, -4.273360e-003
2.038389e+003, -3.669693e-003
2.040318e+003, -2.706002e-003
2.042246e+003, -2.881933e-003
2.044175e+003, -3.226158e-003
2.046103e+003, -4.269055e-003
2.048032e+003, -2.580584e-003
2.049960e+003, 1.759404e-004
2.051889e+003, -1.638194e-003
2.053817e+003, -3.256712e-003
2.055746e+003, -1.196616e-003
2.057674e+003, 7.193433e-004
2.059603e+003, 4.650818e-004
2.061531e+003, -1.641742e-003
2.063459e+003, -1.300963e-003
2.065388e+003, 6.888261e-005
2.067316e+003, -2.127889e-004
2.069245e+003, 8.834798e-005
2.071173e+003, 1.159565e-003
2.073102e+003, 1.255883e-003
2.075030e+003, 1.701435e-004
2.076959e+003, -1.870249e-004
2.078887e+003, 2.769001e-004
2.080816e+003, 1.262350e-003
2.082744e+003, 1.329117e-003
2.084673e+003, 1.080079e-003
2.086601e+003, 1.251872e-003
2.088530e+003, 7.754164e-004
2.090458e+003, 6.414438e-004
2.092386e+003, 9.481427e-004
2.094315e+003, 2.484079e-003
2.096243e+003, 3.067034e-003
2.098172e+003, 1.931480e-003
2.100100e+003, 9.321083e-004
2.102029e+003, 1.319731e-003
2.103957e+003, 1.350935e-003
2.105886e+003, 2.209810e-003
2.107814e+003, 2.029039e-003
2.109743e+003, 2.064194e-003
2.111671e+003, 2.744331e-003
2.113600e+003, 2.295920e-003
2.115528e+003, 1.283857e-003
2.117457e+003, 1.309345e-003
2.119385e+003, 1.306666e-003
2.121313e+003, 1.219353e-003
2.123242e+003, 1.490670e-003
2.125170e+003, 1.749156e-003
2.127099e+003, 5.635915e-004
2.129027e+003, -7.518557e-004
2.130956e+003, -2.303115e-003
2.132884e+003, -3.193929e-003
2.134813e+003, -2.234340e-003
2.136741e+003, -1.241711e-003
2.138670e+003, -2.246690e-004
2.140598e+003, 3.841739e-004
2.142527e+003, -1.355255e-003
2.144455e+003, -2.083612e-003
2.146384e+003, -4.882423e-004
2.148312e+003, -7.240040e-004
2.150240e+003, -1.368358e-003
2.152169e+003, -7.176927e-004
2.154097e+003, -2.457757e-003
2.156026e+003, -3.461162e-003
2.157954e+003, -7.615893e-004
2.159883e+003, 4.586620e-004
2.161811e+003, -1.205922e-003
2.163740e+003, -3.248084e-004
2.165668e+003, 2.760319e-003
2.167597e+003, 3.211331e-003
2.169525e+003, 1.921608e-003
2.171454e+003, -3.478816e-004
2.173382e+003, -2.233868e-003
2.175311e+003, -7.574238e-004
2.177239e+003, 1.042820e-003
2.179167e+003, 2.462243e-003
2.181096e+003, 9.037862e-004
2.183024e+003, -1.213025e-003
2.184953e+003, -1.305800e-003
2.186881e+003, 6.190197e-004
2.188810e+003, 1.665213e-003
2.190738e+003, 2.358329e-003
2.192667e+003, -1.677479e-004
2.194595e+003, -8.251208e-005
2.196524e+003, 1.647814e-003
2.198452e+003, 2.130204e-003
2.200381e+003, 1.517936e-004
2.202309e+003, -7.971841e-004
2.204238e+003, 1.059940e-003
2.206166e+003, 2.532877e-003
2.208094e+003, 2.756256e-003
2.210023e+003, 4.252127e-003
2.211951e+003, 4.106952e-003
2.213880e+003, 2.948908e-003
2.215808e+003, 1.929804e-003
2.217737e+003, 1.838599e-003
2.219665e+003, 1.316098e-003
2.221594e+003, 2.983788e-003
2.223522e+003, 4.694433e-003
2.225451e+003, 4.346511e-003
2.227379e+003, 3.035188e-003
2.229308e+003, 2.236504e-003
2.231236e+003, 2.692440e-003
2.233165e+003, 3.209381e-003
2.235093e+003, 3.728943e-003
2.237021e+003, 3.926595e-003
2.238950e+003, 3.247253e-003
2.240878e+003, 3.533521e-003
2.242807e+003, 4.092643e-003
2.244735e+003, 4.224259e-003
2.246664e+003, 3.304225e-003
2.248592e+003, 2.703851e-003
2.250521e+003, 2.476080e-003
2.252449e+003, 3.039595e-003
2.254378e+003, 4.838625e-003
2.256306e+003, 5.970825e-003
2.258235e+003, 6.172359e-003
2.260163e+003, 5.938383e-003
2.262092e+003, 4.990323e-003
2.264020e+003, 5.418164e-003
2.265948e+003, 5.175775e-003
2.267877e+003, 4.511141e-003
2.269805e+003, 4.537872e-003
2.271734e+003, 5.971175e-003
2.273662e+003, 5.348146e-003
2.275591e+003, 4.306392e-003
2.277519e+003, 3.998430e-003
2.279448e+003, 4.353309e-003
2.281376e+003, 5.245044e-003
2.283305e+003, 6.690125e-003
2.285233e+003, 6.818984e-003
2.287162e+003, 6.318616e-003
2.289090e+003, 5.411000e-003
2.291019e+003, 5.192958e-003
2.292947e+003, 5.777587e-003
2.294875e+003, 6.521902e-003
2.296804e+003, 6.580808e-003
2.298732e+003, 6.147993e-003
2.300661e+003, 5.601482e-003
2.302589e+003, 5.427445e-003
2.304518e+003, 6.149653e-003
2.306446e+003, 6.463822e-003
2.308375e+003, 6.070585e-003
2.310303e+003, 6.150710e-003
2.312232e+003, 6.793357e-003
2.314160e+003, 7.230851e-003
2.316089e+003, 6.733731e-003
2.318017e+003, 6.880498e-003
2.319946e+003, 7.393744e-003
2.321874e+003, 7.835793e-003
2.323802e+003, 8.179884e-003
2.325731e+003, 7.842910e-003
2.327659e+003, 6.916103e-003
2.329588e+003, 5.853456e-003
2.331516e+003, 5.483712e-003
2.333445e+003, 5.914534e-003
2.335373e+003, 6.380565e-003
2.337302e+003, 6.129854e-003
2.339230e+003, 6.227832e-003
2.341159e+003, 6.510589e-003
2.343087e+003, 6.087410e-003
2.345016e+003, 6.220663e-003
2.346944e+003, 6.237186e-003
2.348873e+003, 5.984366e-003
2.350801e+003, 5.981587e-003
2.352729e+003, 6.075857e-003
2.354658e+003, 5.909901e-003
2.356586e+003, 6.240523e-003
2.358515e+003, 6.232505e-003
2.360443e+003, 6.101001e-003
2.362372e+003, 5.886823e-003
2.364300e+003, 6.088379e-003
2.366229e+003, 6.112522e-003
2.368157e+003, 5.587914e-003
2.370086e+003, 5.707254e-003
2.372014e+003, 6.334719e-003
2.373942e+003, 6.175541e-003
2.375871e+003, 6.127717e-003
2.377799e+003, 5.590619e-003
2.379728e+003, 5.651358e-003
2.381656e+003, 5.915467e-003
2.383585e+003, 5.852207e-003
2.385513e+003, 5.856459e-003
2.387442e+003, 5.961846e-003
2.389370e+003, 6.058974e-003
2.391299e+003, 6.309933e-003
2.393227e+003, 6.257987e-003
2.395156e+003, 5.738067e-003
2.397084e+003, 5.482211e-003
2.399012e+003, 5.590946e-003
2.400941e+003, 5.346536e-003
2.402869e+003, 5.425124e-003
2.404798e+003, 5.529502e-003
2.406726e+003, 6.130983e-003
2.408655e+003, 6.018480e-003
2.410583e+003, 5.482141e-003
2.412512e+003, 5.289156e-003
2.414440e+003, 5.396223e-003
2.416369e+003, 5.696375e-003
2.418297e+003, 6.400956e-003
2.420226e+003, 6.111663e-003
2.422154e+003, 5.596875e-003
2.424083e+003, 5.820808e-003
2.426011e+003, 5.934897e-003
2.427939e+003, 5.989423e-003
2.429868e+003, 5.661825e-003
2.431796e+003, 5.773500e-003
2.433725e+003, 6.464764e-003
2.435653e+003, 5.823646e-003
2.437582e+003, 5.925759e-003
2.439510e+003, 5.687250e-003
2.441439e+003, 5.389894e-003
2.443367e+003, 5.705761e-003
2.445296e+003, 5.959800e-003
2.447224e+003, 6.024604e-003
2.449153e+003, 6.698849e-003
2.451081e+003, 6.570085e-003
2.453010e+003, 6.236334e-003
2.454938e+003, 6.018238e-003
2.456866e+003, 6.346948e-003
2.458795e+003, 6.123002e-003
2.460723e+003, 6.007198e-003
2.462652e+003, 6.156530e-003
2.464580e+003, 5.926338e-003
2.466509e+003, 6.070481e-003
2.468437e+003, 6.767022e-003
2.470366e+003, 6.636077e-003
2.472294e+003, 6.345717e-003
2.474223e+003, 5.479736e-003
2.476151e+003, 5.821764e-003
2.478080e+003, 6.788151e-003
2.480008e+003, 6.575330e-003
2.481937e+003, 6.308984e-003
2.483865e+003, 6.123656e-003
2.485793e+003, 6.023730e-003
2.487722e+003, 6.032182e-003
2.489650e+003, 5.979359e-003
2.491579e+003, 6.783921e-003
2.493507e+003, 7.551179e-003
2.495436e+003, 7.993672e-003
2.497364e+003, 7.346023e-003
2.499293e+003, 6.927841e-003
2.501221e+003, 6.853542e-003
2.503150e+003, 6.682712e-003
2.505078e+003, 5.824220e-003
2.507007e+003, 5.940473e-003
2.508935e+003, 6.736984e-003
2.510864e+003, 6.963531e-003
2.512792e+003, 6.932458e-003
2.514720e+003, 7.841957e-003
2.516649e+003, 7.811064e-003
2.518577e+003, 7.136451e-003
2.520506e+003, 6.287675e-003
2.522434e+003, 6.590384e-003
2.524363e+003, 6.970487e-003
2.526291e+003, 7.032961e-003
2.528220e+003, 6.982930e-003
2.530148e+003, 6.381441e-003
2.532077e+003, 5.169575e-003
2.534005e+003, 5.429578e-003
2.535934e+003, 5.768454e-003
2.537862e+003, 6.248783e-003
2.539791e+003, 6.683278e-003
2.541719e+003, 7.318895e-003
2.543647e+003, 7.356352e-003
2.545576e+003, 6.697320e-003
2.547504e+003, 6.413991e-003
2.549433e+003, 6.388262e-003
2.551361e+003, 6.140966e-003
2.553290e+003, 6.111355e-003
2.555218e+003, 6.659837e-003
2.557147e+003, 7.121573e-003
2.559075e+003, 7.514513e-003
2.561004e+003, 7.579951e-003
2.562932e+003, 7.166132e-003
2.564861e+003, 7.057777e-003
2.566789e+003, 7.079027e-003
2.568718e+003, 7.027701e-003
2.570646e+003, 7.450005e-003
2.572574e+003, 6.864108e-003
2.574503e+003, 6.494313e-003
2.576431e+003, 8.066376e-003
2.578360e+003, 8.553199e-003
2.580288e+003, 7.624389e-003
2.582217e+003, 7.421157e-003
2.584145e+003, 7.806724e-003
2.586074e+003, 7.752038e-003
2.588002e+003, 7.889262e-003
2.589931e+003, 8.366058e-003
2.591859e+003, 7.464597e-003
2.593788e+003, 6.921467e-003
2.595716e+003, 7.756313e-003
2.597645e+003, 7.932063e-003
2.599573e+003, 7.130419e-003
2.601501e+003, 6.648734e-003
2.603430e+003, 7.333091e-003
2.605358e+003, 8.148239e-003
2.607287e+003, 8.624621e-003
2.609215e+003, 8.719862e-003
2.611144e+003, 8.733713e-003
2.613072e+003, 8.776816e-003
2.615001e+003, 8.913884e-003
2.616929e+003, 8.804498e-003
2.618858e+003, 9.156987e-003
2.620786e+003, 9.450992e-003
2.622715e+003, 9.560283e-003
2.624643e+003, 9.244389e-003
2.626572e+003, 8.531312e-003
2.628500e+003, 8.191299e-003
2.630428e+003, 9.119383e-003
2.632357e+003, 9.850782e-003
2.634285e+003, 9.567060e-003
2.636214e+003, 8.644418e-003
2.638142e+003, 9.464196e-003
2.640071e+003, 9.560194e-003
2.641999e+003, 8.898016e-003
2.643928e+003, 8.828185e-003
2.645856e+003, 9.055758e-003
2.647785e+003, 8.959541e-003
2.649713e+003, 8.879329e-003
2.651642e+003, 8.776343e-003
2.653570e+003, 8.939371e-003
2.655499e+003, 9.118661e-003
2.657427e+003, 9.373641e-003
2.659355e+003, 9.435963e-003
2.661284e+003, 9.259827e-003
2.663212e+003, 8.660370e-003
2.665141e+003, 8.865001e-003
2.667069e+003, 8.580581e-003
2.668998e+003, 8.484202e-003
2.670926e+003, 9.062589e-003
2.672855e+003, 8.867037e-003
2.674783e+003, 8.868028e-003
2.676712e+003, 9.100833e-003
2.678640e+003, 9.012919e-003
2.680569e+003, 8.930619e-003
2.682497e+003, 9.274534e-003
2.684426e+003, 9.445347e-003
2.686354e+003, 9.294051e-003
2.688282e+003, 9.218380e-003
2.690211e+003, 8.989614e-003
2.692139e+003, 9.436540e-003
2.694068e+003, 9.771222e-003
2.695996e+003, 9.750666e-003
2.697925e+003, 9.434811e-003
2.699853e+003, 9.535530e-003
2.701782e+003, 9.245540e-003
2.703710e+003, 9.248009e-003
2.705639e+003, 9.264153e-003
2.707567e+003, 9.574614e-003
2.709496e+003, 9.792886e-003
2.711424e+003, 9.779758e-003
2.713353e+003, 9.918413e-003
2.715281e+003, 1.010857e-002
2.717209e+003, 1.039796e-002
2.719138e+003, 1.043020e-002
2.721066e+003, 1.016183e-002
2.722995e+003, 1.032697e-002
2.724923e+003, 1.078745e-002
2.726852e+003, 9.992822e-003
2.728780e+003, 9.068734e-003
2.730709e+003, 9.602105e-003
2.732637e+003, 1.008282e-002
2.734566e+003, 9.672793e-003
2.736494e+003, 9.495121e-003
2.738423e+003, 9.559593e-003
2.740351e+003, 9.667304e-003
2.742280e+003, 1.039663e-002
2.744208e+003, 1.073354e-002
2.746136e+003, 1.093950e-002
2.748065e+003, 1.033028e-002
2.749993e+003, 9.856279e-003
2.751922e+003, 9.609985e-003
2.753850e+003, 1.002727e-002
2.755779e+003, 1.046125e-002
2.757707e+003, 1.030762e-002
2.759636e+003, 1.008557e-002
2.761564e+003, 1.056270e-002
2.763493e+003, 1.032637e-002
2.765421e+003, 1.053015e-002
2.767350e+003, 1.071268e-002
2.769278e+003, 1.088421e-002
2.771207e+003, 1.121445e-002
2.773135e+003, 1.101966e-002
2.775063e+003, 1.081310e-002
2.776992e+003, 1.068569e-002
2.778920e+003, 1.048071e-002
2.780849e+003, 1.089530e-002
2.782777e+003, 1.052679e-002
2.784706e+003, 1.058213e-002
2.786634e+003, 1.067261e-002
2.788563e+003, 1.064904e-002
2.790491e+003, 1.096107e-002
2.792420e+003, 1.111361e-002
2.794348e+003, 1.105013e-002
2.796277e+003, 1.117726e-002
2.798205e+003, 1.120462e-002
2.800134e+003, 1.159012e-002
2.802062e+003, 1.151036e-002
2.803990e+003, 1.178539e-002
2.805919e+003, 1.226595e-002
2.807847e+003, 1.267539e-002
2.809776e+003, 1.224065e-002
2.811704e+003, 1.225412e-002
2.813633e+003, 1.222483e-002
2.815561e+003, 1.164479e-002
2.817490e+003, 1.157490e-002
2.819418e+003, 1.199336e-002
2.821347e+003, 1.161470e-002
2.823275e+003, 1.150162e-002
2.825204e+003, 1.203867e-002
2.827132e+003, 1.281292e-002
2.829061e+003, 1.262720e-002
2.830989e+003, 1.222238e-002
2.832917e+003, 1.191513e-002
2.834846e+003, 1.266647e-002
2.836774e+003, 1.383696e-002
2.838703e+003, 1.413276e-002
2.840631e+003, 1.366782e-002
2.842560e+003, 1.332767e-002
2.844488e+003, 1.248221e-002
2.846417e+003, 1.102439e-002
2.848345e+003, 1.042544e-002
2.850274e+003, 1.067186e-002
2.852202e+003, 1.127407e-002
2.854131e+003, 1.116721e-002
2.856059e+003, 1.097344e-002
2.857988e+003, 1.186163e-002
2.859916e+003, 1.246512e-002
2.861844e+003, 1.235981e-002
2.863773e+003, 1.316959e-002
2.865701e+003, 1.369736e-002
2.867630e+003, 1.384796e-002
2.869558e+003, 1.340019e-002
2.871487e+003, 1.267477e-002
2.873415e+003, 1.300983e-002
2.875344e+003, 1.328706e-002
2.877272e+003, 1.309372e-002
2.879201e+003, 1.328218e-002
2.881129e+003, 1.344720e-002
2.883058e+003, 1.330652e-002
2.884986e+003, 1.387262e-002
2.886915e+003, 1.374565e-002
2.888843e+003, 1.354332e-002
2.890771e+003, 1.394590e-002
2.892700e+003, 1.440318e-002
2.894628e+003, 1.442944e-002
2.896557e+003, 1.421010e-002
2.898485e+003, 1.419747e-002
2.900414e+003, 1.499922e-002
2.902342e+003, 1.575583e-002
2.904271e+003, 1.518916e-002
2.906199e+003, 1.498594e-002
2.908128e+003, 1.587827e-002
2.910056e+003, 1.583804e-002
2.911985e+003, 1.551175e-002
2.913913e+003, 1.489485e-002
2.915842e+003, 1.443895e-002
2.917770e+003, 1.399285e-002
2.919698e+003, 1.428762e-002
2.921627e+003, 1.398198e-002
2.923555e+003, 1.351365e-002
2.925484e+003, 1.292136e-002
2.927412e+003, 1.309914e-002
2.929341e+003, 1.424846e-002
2.931269e+003, 1.482951e-002
2.933198e+003, 1.447821e-002
2.935126e+003, 1.420896e-002
2.937055e+003, 1.321772e-002
2.938983e+003, 1.325104e-002
2.940912e+003, 1.413005e-002
2.942840e+003, 1.450171e-002
2.944769e+003, 1.498788e-002
2.946697e+003, 1.529063e-002
2.948625e+003, 1.603622e-002
2.950554e+003, 1.703001e-002
2.952482e+003, 1.706416e-002
2.954411e+003, 1.727217e-002
2.956339e+003, 1.705922e-002
2.958268e+003, 1.694925e-002
2.960196e+003, 1.739994e-002
2.962125e+003, 1.711302e-002
2.964053e+003, 1.680195e-002
2.965982e+003, 1.684598e-002
2.967910e+003, 1.629990e-002
2.969839e+003, 1.640216e-002
2.971767e+003, 1.641629e-002
2.973696e+003, 1.624687e-002
2.975624e+003, 1.602364e-002
2.977552e+003, 1.634907e-002
2.979481e+003, 1.686401e-002
2.981409e+003, 1.660049e-002
2.983338e+003, 1.531320e-002
2.985266e+003, 1.519058e-002
2.987195e+003, 1.564652e-002
2.989123e+003, 1.559543e-002
2.991052e+003, 1.582295e-002
2.992980e+003, 1.643869e-002
2.994909e+003, 1.576222e-002
2.996837e+003, 1.549090e-002
2.998766e+003, 1.532032e-002
3.000694e+003, 1.538710e-002
3.002623e+003, 1.556228e-002
3.004551e+003, 1.663064e-002
3.006479e+003, 1.747853e-002
3.008408e+003, 1.724561e-002
3.010336e+003, 1.647254e-002
3.012265e+003, 1.624707e-002
3.014193e+003, 1.609663e-002
3.016122e+003, 1.640884e-002
3.018050e+003, 1.698386e-002
3.019979e+003, 1.703641e-002
3.021907e+003, 1.728928e-002
3.023836e+003, 1.763851e-002
3.025764e+003, 1.728868e-002
3.027693e+003, 1.763791e-002
3.029621e+003, 1.752369e-002
3.031550e+003, 1.703817e-002
3.033478e+003, 1.655619e-002
3.035406e+003, 1.766798e-002
3.037335e+003, 1.832413e-002
3.039263e+003, 1.781020e-002
3.041192e+003, 1.691419e-002
3.043120e+003, 1.763453e-002
3.045049e+003, 1.836869e-002
3.046977e+003, 1.744885e-002
3.048906e+003, 1.719034e-002
3.050834e+003, 1.841731e-002
3.052763e+003, 1.875082e-002
3.054691e+003, 1.804696e-002
3.056620e+003, 1.813897e-002
3.058548e+003, 1.856571e-002
3.060477e+003, 1.894069e-002
3.062405e+003, 1.905021e-002
3.064333e+003, 1.947004e-002
3.066262e+003, 1.998636e-002
3.068190e+003, 1.974423e-002
3.070119e+003, 1.911034e-002
3.072047e+003, 1.948208e-002
3.073976e+003, 1.995524e-002
3.075904e+003, 1.928393e-002
3.077833e+003, 1.987523e-002
3.079761e+003, 2.020693e-002
3.081690e+003, 2.003558e-002
3.083618e+003, 1.968059e-002
3.085547e+003, 1.946249e-002
3.087475e+003, 1.963004e-002
3.089404e+003, 2.046352e-002
3.091332e+003, 2.051812e-002
3.093260e+003, 2.115381e-002
3.095189e+003, 2.088284e-002
3.097117e+003, 2.037121e-002
3.099046e+003, 2.028666e-002
3.100974e+003, 2.117088e-002
3.102903e+003, 2.169378e-002
3.104831e+003, 2.145659e-002
3.106760e+003, 2.118679e-002
3.108688e+003, 2.225691e-002
3.110617e+003, 2.222574e-002
3.112545e+003, 2.284201e-002
3.114474e+003, 2.250158e-002
3.116402e+003, 2.191330e-002
3.118331e+003, 2.191052e-002
3.120259e+003, 2.153800e-002
3.122188e+003, 2.101233e-002
3.124116e+003, 2.143173e-002
3.126044e+003, 2.274307e-002
3.127973e+003, 2.373092e-002
3.129901e+003, 2.298029e-002
3.131830e+003, 2.241489e-002
3.133758e+003, 2.260244e-002
3.135687e+003, 2.318318e-002
3.137615e+003, 2.335686e-002
3.139544e+003, 2.334869e-002
3.141472e+003, 2.418330e-002
3.143401e+003, 2.441908e-002
3.145329e+003, 2.332198e-002
3.147258e+003, 2.269231e-002
3.149186e+003, 2.264162e-002
3.151115e+003, 2.289500e-002
3.153043e+003, 2.304673e-002
3.154971e+003, 2.286768e-002
3.156900e+003, 2.286511e-002
3.158828e+003, 2.513043e-002
3.160757e+003, 2.594648e-002
3.162685e+003, 2.550806e-002
3.164614e+003, 2.552033e-002
3.166542e+003, 2.564430e-002
3.168471e+003, 2.553487e-002
3.170399e+003, 2.448265e-002
3.172328e+003, 2.333247e-002
3.174256e+003, 2.387383e-002
3.176185e+003, 2.417809e-002
3.178113e+003, 2.573652e-002
3.180042e+003, 2.670626e-002
3.181970e+003, 2.667364e-002
3.183898e+003, 2.545290e-002
3.185827e+003, 2.487998e-002
3.187755e+003, 2.466390e-002
3.189684e+003, 2.496523e-002
3.191612e+003, 2.506709e-002
3.193541e+003, 2.479785e-002
3.195469e+003, 2.404144e-002
3.197398e+003, 2.443994e-002
3.199326e+003, 2.558914e-002
3.201255e+003, 2.732311e-002
3.203183e+003, 2.733266e-002
3.205112e+003, 2.669400e-002
3.207040e+003, 2.656770e-002
3.208969e+003, 2.634344e-002
3.210897e+003, 2.541475e-002
3.212825e+003, 2.589698e-002
3.214754e+003, 2.691288e-002
3.216682e+003, 2.828131e-002
3.218611e+003, 2.734401e-002
3.220539e+003, 2.725168e-002
3.222468e+003, 2.758345e-002
3.224396e+003, 2.696191e-002
3.226325e+003, 2.601301e-002
3.228253e+003, 2.570855e-002
3.230182e+003, 2.704290e-002
3.232110e+003, 2.694394e-002
3.234039e+003, 2.679335e-002
3.235967e+003, 2.861959e-002
3.237896e+003, 2.890072e-002
3.239824e+003, 2.756646e-002
3.241752e+003, 2.729346e-002
3.243681e+003, 2.753498e-002
3.245609e+003, 2.756711e-002
3.247538e+003, 2.826197e-002
3.249466e+003, 2.890465e-002
3.251395e+003, 2.928014e-002
3.253323e+003, 2.875321e-002
3.255252e+003, 2.938152e-002
3.257180e+003, 2.970347e-002
3.259109e+003, 2.925161e-002
3.261037e+003, 2.923119e-002
3.262966e+003, 3.044248e-002
3.264894e+003, 3.043010e-002
3.266823e+003, 2.900953e-002
3.268751e+003, 2.837193e-002
3.270679e+003, 2.954711e-002
3.272608e+003, 2.970982e-002
3.274536e+003, 2.909984e-002
3.276465e+003, 2.910631e-002
3.278393e+003, 3.030368e-002
3.280322e+003, 3.055344e-002
3.282250e+003, 3.101069e-002
3.284179e+003, 3.148412e-002
3.286107e+003, 3.218567e-002
3.288036e+003, 3.136376e-002
3.289964e+003, 3.006649e-002
3.291893e+003, 2.960862e-002
3.293821e+003, 2.949004e-002
3.295750e+003, 2.875499e-002
3.297678e+003, 3.020423e-002
3.299606e+003, 3.127228e-002
3.301535e+003, 3.122566e-002
3.303463e+003, 3.137329e-002
3.305392e+003, 3.133775e-002
3.307320e+003, 3.082562e-002
3.309249e+003, 3.153624e-002
3.311177e+003, 3.109739e-002
3.313106e+003, 3.062269e-002
3.315034e+003, 3.156220e-002
3.316963e+003, 3.300103e-002
3.318891e+003, 3.242765e-002
3.320820e+003, 3.225606e-002
3.322748e+003, 3.206415e-002
3.324677e+003, 3.273742e-002
3.326605e+003, 3.223233e-002
3.328533e+003, 3.223646e-002
3.330462e+003, 3.284439e-002
3.332390e+003, 3.307957e-002
3.334319e+003, 3.164868e-002
3.336247e+003, 3.242478e-002
3.338176e+003, 3.301157e-002
3.340104e+003, 3.373671e-002
3.342033e+003, 3.340931e-002
3.343961e+003, 3.276153e-002
3.345890e+003, 3.280629e-002
3.347818e+003, 3.450778e-002
3.349747e+003, 3.451093e-002
3.351675e+003, 3.382229e-002
3.353604e+003, 3.357456e-002
3.355532e+003, 3.433423e-002
3.357460e+003, 3.475867e-002
3.359389e+003, 3.404285e-002
3.361317e+003, 3.368244e-002
3.363246e+003, 3.525130e-002
3.365174e+003, 3.527177e-002
3.367103e+003, 3.503698e-002
3.369031e+003, 3.485695e-002
3.370960e+003, 3.479768e-002
3.372888e+003, 3.522811e-002
3.374817e+003, 3.511546e-002
3.376745e+003, 3.561427e-002
3.378674e+003, 3.637595e-002
3.380602e+003, 3.593792e-002
3.382531e+003, 3.581788e-002
3.384459e+003, 3.448318e-002
3.386387e+003, 3.492207e-002
3.388316e+003, 3.681608e-002
3.390244e+003, 3.692396e-002
3.392173e+003, 3.612111e-002
3.394101e+003, 3.571042e-002
3.396030e+003, 3.557017e-002
3.397958e+003, 3.627222e-002
3.399887e+003, 3.662830e-002
3.401815e+003, 3.617744e-002
3.403744e+003, 3.633802e-002
3.405672e+003, 3.631445e-002
3.407601e+003, 3.540907e-002
3.409529e+003, 3.569639e-002
3.411458e+003, 3.605259e-002
3.413386e+003, 3.833868e-002
3.415314e+003, 3.996452e-002
3.417243e+003, 3.908020e-002
3.419171e+003, 3.760540e-002
3.421100e+003, 3.793675e-002
3.423028e+003, 3.878990e-002
3.424957e+003, 3.789134e-002
3.426885e+003, 3.624138e-002
3.428814e+003, 3.645965e-002
3.430742e+003, 3.640395e-002
3.432671e+003, 3.591252e-002
3.434599e+003, 3.542335e-002
3.436528e+003, 3.714353e-002
3.438456e+003, 3.867372e-002
3.440385e+003, 3.837918e-002
3.442313e+003, 3.730394e-002
3.444241e+003, 3.782742e-002
3.446170e+003, 3.811736e-002
3.448098e+003, 3.859032e-002
3.450027e+003, 3.848407e-002
3.451955e+003, 3.853609e-002
3.453884e+003, 3.886011e-002
3.455812e+003, 3.882276e-002
3.457741e+003, 3.782265e-002
3.459669e+003, 3.748708e-002
3.461598e+003, 3.686383e-002
3.463526e+003, 3.731561e-002
3.465455e+003, 3.809623e-002
3.467383e+003, 3.812893e-002
3.469312e+003, 3.705773e-002
3.471240e+003, 3.664880e-002
3.473168e+003, 3.601174e-002
3.475097e+003, 3.707493e-002
3.477025e+003, 3.825736e-002
3.478954e+003, 3.912833e-002
3.480882e+003, 3.810127e-002
3.482811e+003, 3.620265e-002
3.484739e+003, 3.640410e-002
3.486668e+003, 3.602282e-002
3.488596e+003, 3.486254e-002
3.490525e+003, 3.509642e-002
3.492453e+003, 3.589305e-002
3.494382e+003, 3.674476e-002
3.496310e+003, 3.681625e-002
3.498239e+003, 3.559938e-002
3.500167e+003, 3.523179e-002
3.502095e+003, 3.789546e-002
3.504024e+003, 3.906737e-002
3.505952e+003, 3.821430e-002
3.507881e+003, 3.721492e-002
3.509809e+003, 3.629349e-002
3.511738e+003, 3.601666e-002
3.513666e+003, 3.749117e-002
3.515595e+003, 3.803700e-002
3.517523e+003, 3.892153e-002
3.519452e+003, 3.983498e-002
3.521380e+003, 3.923799e-002
3.523309e+003, 3.802183e-002
3.525237e+003, 3.749807e-002
3.527166e+003, 3.766848e-002
3.529094e+003, 3.669635e-002
3.531022e+003, 3.535867e-002
3.532951e+003, 3.573890e-002
3.534879e+003, 3.579253e-002
3.536808e+003, 3.575664e-002
3.538736e+003, 3.617438e-002
3.540665e+003, 3.692155e-002
3.542593e+003, 3.532227e-002
3.544522e+003, 3.351396e-002
3.546450e+003, 3.455193e-002
3.548379e+003, 3.580730e-002
3.550307e+003, 3.667445e-002
3.552236e+003, 3.627864e-002
3.554164e+003, 3.460067e-002
3.556093e+003, 3.491432e-002
3.558021e+003, 3.480354e-002
3.559949e+003, 3.477461e-002
3.561878e+003, 3.452422e-002
3.563806e+003, 3.332143e-002
3.565735e+003, 3.239262e-002
3.567663e+003, 3.362616e-002
3.569592e+003, 3.476759e-002
3.571520e+003, 3.543761e-002
3.573449e+003, 3.557750e-002
3.575377e+003, 3.525791e-002
3.577306e+003, 3.652072e-002
3.579234e+003, 3.741658e-002
3.581163e+003, 3.508244e-002
3.583091e+003, 3.271687e-002
3.585020e+003, 3.260855e-002
3.586948e+003, 3.393093e-002
3.588876e+003, 3.457538e-002
3.590805e+003, 3.320561e-002
3.592733e+003, 3.115746e-002
3.594662e+003, 3.144699e-002
3.596590e+003, 3.168326e-002
3.598519e+003, 3.198351e-002
3.600447e+003, 3.250980e-002
3.602376e+003, 3.296329e-002
3.604304e+003, 3.133022e-002
3.606233e+003, 2.988253e-002
3.608161e+003, 2.871151e-002
3.610090e+003, 2.927359e-002
3.612018e+003, 2.921151e-002
3.613947e+003, 2.996498e-002
3.615875e+003, 2.963080e-002
3.617803e+003, 2.998171e-002
3.619732e+003, 2.857864e-002
3.621660e+003, 2.695100e-002
3.623589e+003, 2.721782e-002
3.625517e+003, 2.848252e-002
3.627446e+003, 2.770659e-002
3.629374e+003, 2.805472e-002
3.631303e+003, 2.797366e-002
3.633231e+003, 2.771099e-002
3.635160e+003, 2.739888e-002
3.637088e+003, 2.788450e-002
3.639017e+003, 2.738547e-002
3.640945e+003, 2.615717e-002
3.642874e+003, 2.616412e-002
3.644802e+003, 2.445428e-002
3.646730e+003, 2.233833e-002
3.648659e+003, 2.337945e-002
3.650587e+003, 2.569631e-002
3.652516e+003, 2.667637e-002
3.654444e+003, 2.653575e-002
3.656373e+003, 2.591018e-002
3.658301e+003, 2.498949e-002
3.660230e+003, 2.628285e-002
3.662158e+003, 2.527761e-002
3.664087e+003, 2.558979e-002
3.666015e+003, 2.660550e-002
3.667944e+003, 2.549795e-002
3.669872e+003, 2.281793e-002
3.671801e+003, 2.239973e-002
3.673729e+003, 2.307640e-002
3.675657e+003, 2.197969e-002
3.677586e+003, 2.098299e-002
3.679514e+003, 2.226351e-002
3.681443e+003, 2.436536e-002
3.683371e+003, 2.355542e-002
3.685300e+003, 2.136411e-002
3.687228e+003, 2.085340e-002
3.689157e+003, 2.138389e-002
3.691085e+003, 2.353878e-002
3.693014e+003, 2.461116e-002
3.694942e+003, 2.402028e-002
3.696871e+003, 2.300107e-002
3.698799e+003, 2.332436e-002
3.700728e+003, 2.298927e-002
3.702656e+003, 2.249650e-002
3.704584e+003, 2.521219e-002
3.706513e+003, 2.471781e-002
3.708441e+003, 2.162006e-002
3.710370e+003, 2.255766e-002
3.712298e+003, 2.313939e-002
3.714227e+003, 2.278572e-002
3.716155e+003, 2.237536e-002
3.718084e+003, 2.125544e-002
3.720012e+003, 1.947237e-002
3.721941e+003, 2.050759e-002
3.723869e+003, 2.158478e-002
3.725798e+003, 2.127376e-002
3.727726e+003, 2.131535e-002
3.729655e+003, 2.033130e-002
3.731583e+003, 1.708211e-002
3.733511e+003, 1.802533e-002
3.735440e+003, 1.994238e-002
3.737368e+003, 2.141960e-002
3.739297e+003, 2.024916e-002
3.741225e+003, 1.863667e-002
3.743154e+003, 1.648970e-002
3.745082e+003, 1.886961e-002
3.747011e+003, 2.022176e-002
3.748939e+003, 1.936812e-002
3.750868e+003, 1.989574e-002
3.752796e+003, 2.121726e-002
3.754725e+003, 2.217199e-002
3.756653e+003, 2.117526e-002
3.758582e+003, 1.969526e-002
3.760510e+003, 2.080706e-002
3.762438e+003, 2.240178e-002
3.764367e+003, 2.286825e-002
3.766295e+003, 2.096950e-002
3.768224e+003, 2.028109e-002
3.770152e+003, 2.097035e-002
3.772081e+003, 2.194430e-002
3.774009e+003, 2.151464e-002
3.775938e+003, 2.194685e-002
3.777866e+003, 2.118848e-002
3.779795e+003, 2.083881e-002
3.781723e+003, 2.211042e-002
3.783652e+003, 2.260802e-002
3.785580e+003, 2.169521e-002
3.787509e+003, 2.159369e-002
3.789437e+003, 2.207936e-002
3.791365e+003, 2.271453e-002
3.793294e+003, 2.302167e-002
3.795222e+003, 2.331206e-002
3.797151e+003, 2.133713e-002
3.799079e+003, 2.030838e-002
3.801008e+003, 2.033358e-002
3.802936e+003, 2.177590e-002
3.804865e+003, 2.172720e-002
3.806793e+003, 2.100641e-002
3.808722e+003, 2.102899e-002
3.810650e+003, 2.238263e-002
3.812579e+003, 2.337312e-002
3.814507e+003, 2.195349e-002
3.816436e+003, 1.988517e-002
3.818364e+003, 2.098455e-002
3.820292e+003, 2.083077e-002
3.822221e+003, 2.122843e-002
3.824149e+003, 2.260207e-002
3.826078e+003, 2.383293e-002
3.828006e+003, 2.435821e-002
3.829935e+003, 2.223717e-002
3.831863e+003, 2.235741e-002
3.833792e+003, 2.391021e-002
3.835720e+003, 2.231725e-002
3.837649e+003, 2.185035e-002
3.839577e+003, 2.403047e-002
3.841506e+003, 2.351430e-002
3.843434e+003, 2.262866e-002
3.845363e+003, 2.193603e-002
3.847291e+003, 2.181690e-002
3.849219e+003, 2.308705e-002
3.851148e+003, 2.276113e-002
3.853076e+003, 1.949542e-002
3.855005e+003, 1.986280e-002
3.856933e+003, 2.218133e-002
3.858862e+003, 2.257397e-002
3.860790e+003, 2.291396e-002
3.862719e+003, 2.471580e-002
3.864647e+003, 2.558554e-002
3.866576e+003, 2.508235e-002
3.868504e+003, 2.405472e-002
3.870433e+003, 2.342316e-002
3.872361e+003, 2.294759e-002
3.874290e+003, 2.197696e-002
3.876218e+003, 2.397684e-002
3.878146e+003, 2.394571e-002
3.880075e+003, 2.310443e-002
3.882003e+003, 2.316038e-002
3.883932e+003, 2.221887e-002
3.885860e+003, 2.118297e-002
3.887789e+003, 2.299323e-002
3.889717e+003, 2.234189e-002
3.891646e+003, 2.347464e-002
3.893574e+003, 2.526564e-002
3.895503e+003, 2.566146e-002
3.897431e+003, 2.483701e-002
3.899360e+003, 2.367991e-002
3.901288e+003, 2.239139e-002
3.903217e+003, 2.230942e-002
3.905145e+003, 2.424948e-002
3.907073e+003, 2.568841e-002
3.909002e+003, 2.407869e-002
3.910930e+003, 2.295998e-002
3.912859e+003, 2.165463e-002
3.914787e+003, 2.251721e-002
3.916716e+003, 2.359235e-002
3.918644e+003, 2.672150e-002
3.920573e+003, 2.772744e-002
3.922501e+003, 2.777775e-002
3.924430e+003, 2.550055e-002
3.926358e+003, 2.468763e-002
3.928287e+003, 2.423660e-002
3.930215e+003, 2.394118e-002
3.932144e+003, 2.285805e-002
3.934072e+003, 2.384283e-002
3.936000e+003, 2.575837e-002
3.937929e+003, 2.585095e-002
3.939857e+003, 2.514764e-002
3.941786e+003, 2.551459e-002
3.943714e+003, 2.618061e-002
3.945643e+003, 2.470373e-002
3.947571e+003, 2.410008e-002
3.949500e+003, 2.641528e-002
3.951428e+003, 2.789525e-002
3.953357e+003, 2.729285e-002
3.955285e+003, 2.630466e-002
3.957214e+003, 2.592884e-002
3.959142e+003, 2.429704e-002
3.961071e+003, 2.509663e-002
3.962999e+003, 2.467947e-002
3.964927e+003, 2.449533e-002
3.966856e+003, 2.562854e-002
3.968784e+003, 2.676105e-002
3.970713e+003, 2.536716e-002
3.972641e+003, 2.491392e-002
3.974570e+003, 2.525811e-002
3.976498e+003, 2.600894e-002
3.978427e+003, 2.714624e-002
3.980355e+003, 2.597633e-002
3.982284e+003, 2.466550e-002
3.984212e+003, 2.501900e-002
3.986141e+003, 2.543870e-002
3.988069e+003, 2.671720e-002
3.989998e+003, 2.803949e-002
3.991926e+003, 2.915870e-002
3.993854e+003, 2.883072e-002
3.995783e+003, 2.894482e-002
3.997711e+003, 2.713587e-002
3.999640e+003, 2.714858e-002
##END=



