##NAMES=Fluorapatite
##RRUFFID=R060070
##IDEAL CHEMISTRY=Ca_5_(PO_4_)_3_F
##LOCALITY=Panasqueira, Portugal
##OWNER=RRUFF
##SOURCE=Dave Bunk
##DESCRIPTION=Green hexagonal tablet
##STATUS=The identification of this mineral has been confirmed by X-ray diffraction and chemical analysis
##URL=rruff.info/R060070
##MEASURED CHEMISTRY=(Ca_0.99_Mn_0.01_)_5_(P_1.00_O_4_)_3_F_1.00_
3.991926e+002, 1.116646e-002
4.011211e+002, 4.518175e-003
4.030495e+002, 1.055167e-002
4.049780e+002, 1.674987e-002
4.069065e+002, 9.355487e-003
4.088349e+002, 8.577030e-003
4.107634e+002, 1.270253e-002
4.126919e+002, 1.076251e-002
4.146203e+002, 1.079151e-002
4.165488e+002, 1.019309e-002
4.184773e+002, 9.553639e-003
4.204057e+002, 9.575510e-003
4.223342e+002, 9.704707e-003
4.242627e+002, 6.468173e-003
4.261911e+002, 5.463795e-003
4.281196e+002, 5.190253e-003
4.300481e+002, 6.005259e-003
4.319765e+002, 1.027072e-002
4.339050e+002, 1.226761e-002
4.358335e+002, 1.494136e-002
4.377619e+002, 1.625585e-002
4.396904e+002, 1.423063e-002
4.416189e+002, 1.245259e-002
4.435473e+002, 1.260885e-002
4.454758e+002, 1.173888e-002
4.474043e+002, 1.218176e-002
4.493327e+002, 1.408800e-002
4.512612e+002, 1.523253e-002
4.531897e+002, 1.430732e-002
4.551181e+002, 1.404624e-002
4.570466e+002, 1.389173e-002
4.589751e+002, 1.548512e-002
4.609035e+002, 1.803404e-002
4.628320e+002, 1.949593e-002
4.647605e+002, 1.821066e-002
4.666889e+002, 2.305084e-002
4.686174e+002, 2.829333e-002
4.705459e+002, 2.937642e-002
4.724743e+002, 2.926560e-002
4.744028e+002, 2.687566e-002
4.763313e+002, 2.317465e-002
4.782597e+002, 2.072555e-002
4.801882e+002, 1.950574e-002
4.821167e+002, 1.857649e-002
4.840451e+002, 1.613070e-002
4.859736e+002, 1.526103e-002
4.879021e+002, 1.639051e-002
4.898305e+002, 1.591220e-002
4.917590e+002, 1.508580e-002
4.936875e+002, 1.609084e-002
4.956159e+002, 1.654969e-002
4.975444e+002, 1.781664e-002
4.994729e+002, 1.928173e-002
5.014013e+002, 1.905153e-002
5.033298e+002, 1.913334e-002
5.052583e+002, 2.045461e-002
5.071867e+002, 2.098132e-002
5.091152e+002, 2.157103e-002
5.110437e+002, 2.152518e-002
5.129721e+002, 2.262475e-002
5.149006e+002, 2.477232e-002
5.168290e+002, 2.687310e-002
5.187575e+002, 2.842646e-002
5.206860e+002, 2.987792e-002
5.226144e+002, 3.216666e-002
5.245429e+002, 3.576515e-002
5.264714e+002, 3.848235e-002
5.283998e+002, 4.134927e-002
5.303283e+002, 4.690653e-002
5.322568e+002, 5.369682e-002
5.341852e+002, 6.047608e-002
5.361137e+002, 6.799136e-002
5.380422e+002, 7.515615e-002
5.399706e+002, 8.363488e-002
5.418991e+002, 9.370551e-002
5.438276e+002, 1.061197e-001
5.457560e+002, 1.188387e-001
5.476845e+002, 1.331084e-001
5.496130e+002, 1.499214e-001
5.515414e+002, 1.681233e-001
5.534699e+002, 1.871899e-001
5.553984e+002, 2.075900e-001
5.573268e+002, 2.271071e-001
5.592553e+002, 2.438908e-001
5.611838e+002, 2.570548e-001
5.631122e+002, 2.681867e-001
5.650407e+002, 2.750604e-001
5.669692e+002, 2.763794e-001
5.688976e+002, 2.746889e-001
5.708261e+002, 2.713977e-001
5.727546e+002, 2.649508e-001
5.746830e+002, 2.542404e-001
5.766115e+002, 2.313709e-001
5.785400e+002, 1.965567e-001
5.804684e+002, 1.606162e-001
5.823969e+002, 1.363969e-001
5.843254e+002, 1.253192e-001
5.862538e+002, 1.218537e-001
5.881823e+002, 1.224161e-001
5.901108e+002, 1.291330e-001
5.920392e+002, 1.461106e-001
5.939677e+002, 1.712550e-001
5.958962e+002, 1.995581e-001
5.978246e+002, 2.210062e-001
5.997531e+002, 2.199457e-001
6.016816e+002, 1.963871e-001
6.036100e+002, 1.631875e-001
6.055385e+002, 1.331398e-001
6.074670e+002, 1.101725e-001
6.093954e+002, 9.143990e-002
6.113239e+002, 7.440290e-002
6.132524e+002, 5.882141e-002
6.151808e+002, 4.507056e-002
6.171093e+002, 3.424281e-002
6.190378e+002, 2.611498e-002
6.209662e+002, 2.069149e-002
6.228947e+002, 1.761585e-002
6.248232e+002, 1.543239e-002
6.267516e+002, 1.352077e-002
6.286801e+002, 1.255569e-002
6.306086e+002, 1.244242e-002
6.325370e+002, 1.199375e-002
6.344655e+002, 1.134810e-002
6.363940e+002, 1.137440e-002
6.383224e+002, 1.105420e-002
6.402509e+002, 1.066152e-002
6.421794e+002, 1.030348e-002
6.441078e+002, 9.965925e-003
6.460363e+002, 1.002706e-002
6.479648e+002, 1.027883e-002
6.498932e+002, 9.990643e-003
6.518217e+002, 9.770219e-003
6.537502e+002, 9.996955e-003
6.556786e+002, 1.012615e-002
6.576071e+002, 9.890160e-003
6.595356e+002, 9.937329e-003
6.614641e+002, 9.941475e-003
6.633925e+002, 9.961766e-003
6.653210e+002, 1.015679e-002
6.672495e+002, 1.030753e-002
6.691779e+002, 1.041331e-002
6.711064e+002, 1.000082e-002
6.730349e+002, 9.762128e-003
6.749633e+002, 9.725013e-003
6.768918e+002, 9.857495e-003
6.788203e+002, 9.907862e-003
6.807487e+002, 1.015142e-002
6.826772e+002, 9.809220e-003
6.846057e+002, 9.357501e-003
6.865341e+002, 9.770744e-003
6.884626e+002, 9.706910e-003
6.903911e+002, 9.736227e-003
6.923195e+002, 1.026367e-002
6.942480e+002, 1.072687e-002
6.961765e+002, 1.083110e-002
6.981049e+002, 1.058535e-002
7.000334e+002, 1.031762e-002
7.019619e+002, 1.015701e-002
7.038903e+002, 9.973080e-003
7.058188e+002, 9.772155e-003
7.077473e+002, 9.741990e-003
7.096757e+002, 9.767637e-003
7.116042e+002, 1.029782e-002
7.135327e+002, 1.117941e-002
7.154611e+002, 1.115229e-002
7.173896e+002, 1.088200e-002
7.193181e+002, 1.059855e-002
7.212465e+002, 1.056331e-002
7.231750e+002, 1.100073e-002
7.251035e+002, 1.123977e-002
7.270319e+002, 1.117094e-002
7.289604e+002, 1.168945e-002
7.308889e+002, 1.197017e-002
7.328173e+002, 1.163114e-002
7.347458e+002, 1.124079e-002
7.366743e+002, 1.127613e-002
7.386027e+002, 1.166862e-002
7.405312e+002, 1.178600e-002
7.424597e+002, 1.210698e-002
7.443881e+002, 1.200065e-002
7.463166e+002, 1.221041e-002
7.482451e+002, 1.262676e-002
7.501735e+002, 1.263503e-002
7.521020e+002, 1.266993e-002
7.540305e+002, 1.261173e-002
7.559589e+002, 1.239132e-002
7.578874e+002, 1.236491e-002
7.598159e+002, 1.257480e-002
7.617443e+002, 1.261901e-002
7.636728e+002, 1.262596e-002
7.656013e+002, 1.310386e-002
7.675297e+002, 1.348014e-002
7.694582e+002, 1.349025e-002
7.713867e+002, 1.343668e-002
7.733151e+002, 1.361535e-002
7.752436e+002, 1.411962e-002
7.771721e+002, 1.417695e-002
7.791005e+002, 1.447014e-002
7.810290e+002, 1.486802e-002
7.829575e+002, 1.494304e-002
7.848859e+002, 1.501756e-002
7.868144e+002, 1.541057e-002
7.887429e+002, 1.597662e-002
7.906713e+002, 1.611430e-002
7.925998e+002, 1.615525e-002
7.945283e+002, 1.641878e-002
7.964567e+002, 1.674287e-002
7.983852e+002, 1.713321e-002
8.003137e+002, 1.737620e-002
8.022421e+002, 1.751024e-002
8.041706e+002, 1.740981e-002
8.060991e+002, 1.757637e-002
8.080275e+002, 1.831801e-002
8.099560e+002, 1.912780e-002
8.118845e+002, 1.928490e-002
8.138129e+002, 1.928788e-002
8.157414e+002, 1.972604e-002
8.176699e+002, 2.013930e-002
8.195983e+002, 2.044654e-002
8.215268e+002, 2.083899e-002
8.234553e+002, 2.153605e-002
8.253837e+002, 2.163660e-002
8.273122e+002, 2.184410e-002
8.292407e+002, 2.261896e-002
8.311691e+002, 2.323669e-002
8.330976e+002, 2.364588e-002
8.350261e+002, 2.397794e-002
8.369545e+002, 2.402899e-002
8.388830e+002, 2.412184e-002
8.408115e+002, 2.482862e-002
8.427399e+002, 2.598303e-002
8.446684e+002, 2.679932e-002
8.465969e+002, 2.752190e-002
8.485253e+002, 2.821285e-002
8.504538e+002, 2.857379e-002
8.523823e+002, 2.894752e-002
8.543107e+002, 3.000359e-002
8.562392e+002, 3.112420e-002
8.581677e+002, 3.170650e-002
8.600961e+002, 3.247603e-002
8.620246e+002, 3.353276e-002
8.639531e+002, 3.436403e-002
8.658815e+002, 3.489452e-002
8.678100e+002, 3.523754e-002
8.697385e+002, 3.603426e-002
8.716669e+002, 3.726785e-002
8.735954e+002, 3.852551e-002
8.755239e+002, 3.969576e-002
8.774523e+002, 4.058291e-002
8.793808e+002, 4.118760e-002
8.813093e+002, 4.236289e-002
8.832377e+002, 4.402978e-002
8.851662e+002, 4.539582e-002
8.870947e+002, 4.653379e-002
8.890231e+002, 4.776468e-002
8.909516e+002, 4.925753e-002
8.928801e+002, 5.080441e-002
8.948085e+002, 5.206708e-002
8.967370e+002, 5.384516e-002
8.986655e+002, 5.600576e-002
9.005939e+002, 5.777051e-002
9.025224e+002, 5.936486e-002
9.044509e+002, 6.135067e-002
9.063793e+002, 6.304539e-002
9.083078e+002, 6.511192e-002
9.102363e+002, 6.793659e-002
9.121647e+002, 7.066546e-002
9.140932e+002, 7.357703e-002
9.160217e+002, 7.655755e-002
9.179501e+002, 7.938264e-002
9.198786e+002, 8.278323e-002
9.218071e+002, 8.595972e-002
9.237355e+002, 8.933837e-002
9.256640e+002, 9.321056e-002
9.275925e+002, 9.741285e-002
9.295209e+002, 1.017242e-001
9.314494e+002, 1.066733e-001
9.333779e+002, 1.116366e-001
9.353063e+002, 1.168763e-001
9.372348e+002, 1.226768e-001
9.391633e+002, 1.286980e-001
9.410917e+002, 1.352557e-001
9.430202e+002, 1.420214e-001
9.449487e+002, 1.501506e-001
9.468771e+002, 1.590582e-001
9.488056e+002, 1.683286e-001
9.507341e+002, 1.782819e-001
9.526625e+002, 1.886883e-001
9.545910e+002, 1.995240e-001
9.565195e+002, 2.084074e-001
9.584479e+002, 2.112422e-001
9.603764e+002, 2.171070e-001
9.623049e+002, 2.316272e-001
9.642333e+002, 2.420307e-001
9.661618e+002, 2.284637e-001
9.680903e+002, 2.043248e-001
9.700187e+002, 1.990240e-001
9.719472e+002, 2.090924e-001
9.738757e+002, 2.229029e-001
9.758041e+002, 2.366392e-001
9.777326e+002, 2.503307e-001
9.796611e+002, 2.639913e-001
9.815895e+002, 2.767546e-001
9.835180e+002, 2.893563e-001
9.854465e+002, 3.020681e-001
9.873749e+002, 3.140687e-001
9.893034e+002, 3.262611e-001
9.912319e+002, 3.383740e-001
9.931603e+002, 3.505331e-001
9.950888e+002, 3.633133e-001
9.970173e+002, 3.753941e-001
9.989457e+002, 3.876521e-001
1.000874e+003, 4.007141e-001
1.002803e+003, 4.134046e-001
1.004731e+003, 4.257064e-001
1.006660e+003, 4.364733e-001
1.008588e+003, 4.473777e-001
1.010517e+003, 4.583948e-001
1.012445e+003, 4.693246e-001
1.014373e+003, 4.790135e-001
1.016302e+003, 4.879562e-001
1.018230e+003, 4.946938e-001
1.020159e+003, 4.994238e-001
1.022087e+003, 5.014327e-001
1.024016e+003, 5.012630e-001
1.025944e+003, 5.017838e-001
1.027873e+003, 5.032665e-001
1.029801e+003, 5.008116e-001
1.031730e+003, 4.927267e-001
1.033658e+003, 4.820664e-001
1.035587e+003, 4.696201e-001
1.037515e+003, 4.540548e-001
1.039443e+003, 4.361268e-001
1.041372e+003, 4.166868e-001
1.043300e+003, 3.965018e-001
1.045229e+003, 3.770019e-001
1.047157e+003, 3.578239e-001
1.049086e+003, 3.395365e-001
1.051014e+003, 3.227162e-001
1.052943e+003, 3.060816e-001
1.054871e+003, 2.899587e-001
1.056800e+003, 2.738908e-001
1.058728e+003, 2.581079e-001
1.060657e+003, 2.429904e-001
1.062585e+003, 2.298246e-001
1.064514e+003, 2.178487e-001
1.066442e+003, 2.056940e-001
1.068370e+003, 1.933823e-001
1.070299e+003, 1.817438e-001
1.072227e+003, 1.705046e-001
1.074156e+003, 1.591412e-001
1.076084e+003, 1.472430e-001
1.078013e+003, 1.352658e-001
1.079941e+003, 1.239284e-001
1.081870e+003, 1.155647e-001
1.083798e+003, 1.141813e-001
1.085727e+003, 1.226551e-001
1.087655e+003, 1.421753e-001
1.089584e+003, 1.686133e-001
1.091512e+003, 1.869886e-001
1.093441e+003, 1.833529e-001
1.095369e+003, 1.658197e-001
1.097297e+003, 1.467742e-001
1.099226e+003, 1.297622e-001
1.101154e+003, 1.156654e-001
1.103083e+003, 1.037751e-001
1.105011e+003, 9.370644e-002
1.106940e+003, 8.443187e-002
1.108868e+003, 7.574173e-002
1.110797e+003, 6.763690e-002
1.112725e+003, 5.988454e-002
1.114654e+003, 5.267799e-002
1.116582e+003, 4.608138e-002
1.118511e+003, 4.015239e-002
1.120439e+003, 3.441794e-002
1.122368e+003, 2.903342e-002
1.124296e+003, 2.475956e-002
1.126224e+003, 2.148673e-002
1.128153e+003, 1.876111e-002
1.130081e+003, 1.653551e-002
1.132010e+003, 1.487930e-002
1.133938e+003, 1.346346e-002
1.135867e+003, 1.207755e-002
1.137795e+003, 1.121289e-002
1.139724e+003, 1.052103e-002
1.141652e+003, 9.724389e-003
1.143581e+003, 9.145389e-003
1.145509e+003, 8.647700e-003
1.147438e+003, 8.073884e-003
1.149366e+003, 7.319553e-003
1.151295e+003, 7.153334e-003
1.153223e+003, 7.126517e-003
1.155151e+003, 7.026868e-003
1.157080e+003, 6.629792e-003
1.159008e+003, 6.033159e-003
1.160937e+003, 5.831423e-003
1.162865e+003, 5.716315e-003
1.164794e+003, 5.641216e-003
1.166722e+003, 5.376636e-003
1.168651e+003, 5.177679e-003
1.170579e+003, 5.108371e-003
1.172508e+003, 4.627789e-003
1.174436e+003, 4.189184e-003
1.176365e+003, 3.909770e-003
1.178293e+003, 3.617664e-003
1.180222e+003, 3.574989e-003
1.182150e+003, 3.690456e-003
1.184078e+003, 3.661071e-003
1.186007e+003, 3.597579e-003
1.187935e+003, 3.566528e-003
1.189864e+003, 3.394301e-003
1.191792e+003, 3.387560e-003
1.193721e+003, 3.406657e-003
1.195649e+003, 3.332730e-003
1.197578e+003, 3.163294e-003
1.199506e+003, 3.089340e-003
1.201435e+003, 3.466018e-003
1.203363e+003, 3.473308e-003
1.205292e+003, 2.937024e-003
1.207220e+003, 2.610131e-003
1.209149e+003, 2.736275e-003
1.211077e+003, 2.586088e-003
1.213005e+003, 2.519690e-003
1.214934e+003, 2.598491e-003
1.216862e+003, 2.480506e-003
1.218791e+003, 2.263439e-003
1.220719e+003, 2.015151e-003
1.222648e+003, 1.832688e-003
1.224576e+003, 1.884725e-003
1.226505e+003, 2.171253e-003
1.228433e+003, 2.068458e-003
1.230362e+003, 2.087012e-003
1.232290e+003, 2.302452e-003
1.234219e+003, 1.742529e-003
1.236147e+003, 1.236815e-003
1.238076e+003, 1.349937e-003
1.240004e+003, 1.665872e-003
1.241932e+003, 1.707142e-003
1.243861e+003, 1.378722e-003
1.245789e+003, 1.334057e-003
1.247718e+003, 1.753707e-003
1.249646e+003, 2.012365e-003
1.251575e+003, 1.907759e-003
1.253503e+003, 1.629600e-003
1.255432e+003, 1.546166e-003
1.257360e+003, 1.307441e-003
1.259289e+003, 1.372063e-003
1.261217e+003, 1.552704e-003
1.263146e+003, 1.651496e-003
1.265074e+003, 1.797194e-003
1.267003e+003, 1.588161e-003
1.268931e+003, 1.395930e-003
1.270859e+003, 1.354487e-003
1.272788e+003, 1.122551e-003
1.274716e+003, 1.126241e-003
1.276645e+003, 1.232480e-003
1.278573e+003, 1.221562e-003
1.280502e+003, 1.235523e-003
1.282430e+003, 1.313406e-003
1.284359e+003, 1.125507e-003
1.286287e+003, 1.023858e-003
1.288216e+003, 1.192746e-003
1.290144e+003, 1.230731e-003
1.292073e+003, 1.340318e-003
1.294001e+003, 1.222895e-003
1.295930e+003, 1.121835e-003
1.297858e+003, 1.321534e-003
1.299786e+003, 1.211400e-003
1.301715e+003, 1.111501e-003
1.303643e+003, 8.511484e-004
1.305572e+003, 4.739692e-004
1.307500e+003, 8.481131e-004
1.309429e+003, 9.425750e-004
1.311357e+003, 7.268702e-004
1.313286e+003, 6.989658e-004
1.315214e+003, 4.868470e-004
1.317143e+003, 4.881723e-004
1.319071e+003, 8.271677e-004
1.321000e+003, 1.023819e-003
1.322928e+003, 9.065435e-004
1.324857e+003, 8.772207e-004
1.326785e+003, 8.863788e-004
1.328714e+003, 8.031902e-004
1.330642e+003, 8.838331e-004
1.332570e+003, 1.007486e-003
1.334499e+003, 1.061170e-003
1.336427e+003, 1.080626e-003
1.338356e+003, 1.001777e-003
1.340284e+003, 1.089751e-003
1.342213e+003, 1.178077e-003
1.344141e+003, 1.273226e-003
1.346070e+003, 9.753390e-004
1.347998e+003, 8.163235e-004
1.349927e+003, 6.928515e-004
1.351855e+003, 1.190849e-003
1.353784e+003, 1.529795e-003
1.355712e+003, 1.331862e-003
1.357641e+003, 1.112291e-003
1.359569e+003, 1.053847e-003
1.361497e+003, 9.640148e-004
1.363426e+003, 1.071319e-003
1.365354e+003, 1.171100e-003
1.367283e+003, 1.283160e-003
1.369211e+003, 1.579660e-003
1.371140e+003, 1.701062e-003
1.373068e+003, 1.438840e-003
1.374997e+003, 1.525218e-003
1.376925e+003, 1.712678e-003
1.378854e+003, 1.299834e-003
1.380782e+003, 1.324211e-003
1.382711e+003, 1.459094e-003
1.384639e+003, 1.440709e-003
1.386568e+003, 1.571678e-003
1.388496e+003, 1.810540e-003
1.390424e+003, 1.784637e-003
1.392353e+003, 1.838058e-003
1.394281e+003, 2.048933e-003
1.396210e+003, 2.016675e-003
1.398138e+003, 1.857591e-003
1.400067e+003, 1.655494e-003
1.401995e+003, 1.765897e-003
1.403924e+003, 2.118136e-003
1.405852e+003, 2.185554e-003
1.407781e+003, 1.832739e-003
1.409709e+003, 2.062887e-003
1.411638e+003, 2.528578e-003
1.413566e+003, 2.494503e-003
1.415495e+003, 2.449026e-003
1.417423e+003, 2.369239e-003
1.419351e+003, 2.203661e-003
1.421280e+003, 2.421922e-003
1.423208e+003, 2.985044e-003
1.425137e+003, 2.942069e-003
1.427065e+003, 2.548996e-003
1.428994e+003, 2.763902e-003
1.430922e+003, 3.209214e-003
1.432851e+003, 3.217787e-003
1.434779e+003, 2.940241e-003
1.436708e+003, 2.804596e-003
1.438636e+003, 2.869270e-003
1.440565e+003, 2.863717e-003
1.442493e+003, 2.981260e-003
1.444422e+003, 3.104900e-003
1.446350e+003, 2.985910e-003
1.448278e+003, 3.449991e-003
1.450207e+003, 3.731300e-003
1.452135e+003, 3.397014e-003
1.454064e+003, 2.971192e-003
1.455992e+003, 2.995782e-003
1.457921e+003, 3.251363e-003
1.459849e+003, 3.272875e-003
1.461778e+003, 3.170928e-003
1.463706e+003, 3.292101e-003
1.465635e+003, 3.496268e-003
1.467563e+003, 3.376200e-003
1.469492e+003, 3.097139e-003
1.471420e+003, 2.844639e-003
1.473349e+003, 3.036153e-003
1.475277e+003, 3.385494e-003
1.477205e+003, 3.133661e-003
1.479134e+003, 3.013803e-003
1.481062e+003, 3.065066e-003
1.482991e+003, 3.085745e-003
1.484919e+003, 3.256483e-003
1.486848e+003, 3.448598e-003
1.488776e+003, 3.096891e-003
1.490705e+003, 2.986018e-003
1.492633e+003, 3.129612e-003
1.494562e+003, 3.409985e-003
1.496490e+003, 3.349589e-003
1.498419e+003, 3.188091e-003
1.500347e+003, 3.245550e-003
1.502276e+003, 2.961391e-003
1.504204e+003, 2.889746e-003
1.506132e+003, 3.180031e-003
1.508061e+003, 3.138261e-003
1.509989e+003, 3.002934e-003
1.511918e+003, 2.962585e-003
1.513846e+003, 3.103984e-003
1.515775e+003, 3.253031e-003
1.517703e+003, 3.472946e-003
1.519632e+003, 3.474879e-003
1.521560e+003, 3.444319e-003
1.523489e+003, 3.395254e-003
1.525417e+003, 3.072307e-003
1.527346e+003, 2.682077e-003
1.529274e+003, 2.806967e-003
1.531203e+003, 3.178211e-003
1.533131e+003, 3.397698e-003
1.535059e+003, 3.356269e-003
1.536988e+003, 3.267645e-003
1.538916e+003, 3.608174e-003
1.540845e+003, 3.811529e-003
1.542773e+003, 3.858611e-003
1.544702e+003, 3.938082e-003
1.546630e+003, 4.054351e-003
1.548559e+003, 4.053470e-003
1.550487e+003, 3.964613e-003
1.552416e+003, 3.750144e-003
1.554344e+003, 3.705553e-003
1.556273e+003, 4.188061e-003
1.558201e+003, 4.112680e-003
1.560130e+003, 3.774029e-003
1.562058e+003, 3.733207e-003
1.563986e+003, 3.623659e-003
1.565915e+003, 3.752650e-003
1.567843e+003, 4.098461e-003
1.569772e+003, 4.077235e-003
1.571700e+003, 3.554313e-003
1.573629e+003, 3.552279e-003
1.575557e+003, 3.674138e-003
1.577486e+003, 3.673748e-003
1.579414e+003, 3.816838e-003
1.581343e+003, 4.099698e-003
1.583271e+003, 3.933994e-003
1.585200e+003, 3.584629e-003
1.587128e+003, 3.578312e-003
1.589057e+003, 3.352153e-003
1.590985e+003, 3.026547e-003
1.592913e+003, 3.314626e-003
1.594842e+003, 3.440667e-003
1.596770e+003, 3.507945e-003
1.598699e+003, 3.744666e-003
1.600627e+003, 4.042516e-003
1.602556e+003, 4.276709e-003
1.604484e+003, 4.007769e-003
1.606413e+003, 3.786710e-003
1.608341e+003, 4.089015e-003
1.610270e+003, 4.074168e-003
1.612198e+003, 4.046433e-003
1.614127e+003, 3.956174e-003
1.616055e+003, 4.035379e-003
1.617984e+003, 4.162063e-003
1.619912e+003, 3.884049e-003
1.621840e+003, 3.739064e-003
1.623769e+003, 3.800468e-003
1.625697e+003, 4.202334e-003
1.627626e+003, 4.355985e-003
1.629554e+003, 3.787138e-003
1.631483e+003, 2.719174e-003
1.633411e+003, 2.754280e-003
1.635340e+003, 3.452511e-003
1.637268e+003, 3.625541e-003
1.639197e+003, 3.694340e-003
1.641125e+003, 3.660480e-003
1.643054e+003, 3.668502e-003
1.644982e+003, 3.989924e-003
1.646911e+003, 3.846128e-003
1.648839e+003, 3.398118e-003
1.650767e+003, 3.602328e-003
1.652696e+003, 4.061721e-003
1.654624e+003, 4.249534e-003
1.656553e+003, 3.958767e-003
1.658481e+003, 3.900829e-003
1.660410e+003, 3.990057e-003
1.662338e+003, 3.255617e-003
1.664267e+003, 3.320494e-003
1.666195e+003, 4.304020e-003
1.668124e+003, 4.131599e-003
1.670052e+003, 3.742577e-003
1.671981e+003, 3.853044e-003
1.673909e+003, 4.252421e-003
1.675838e+003, 4.345573e-003
1.677766e+003, 4.514283e-003
1.679694e+003, 4.179233e-003
1.681623e+003, 3.713902e-003
1.683551e+003, 3.874774e-003
1.685480e+003, 4.248618e-003
1.687408e+003, 4.077706e-003
1.689337e+003, 4.299666e-003
1.691265e+003, 4.094634e-003
1.693194e+003, 3.672752e-003
1.695122e+003, 3.954822e-003
1.697051e+003, 4.115595e-003
1.698979e+003, 3.330826e-003
1.700908e+003, 3.307942e-003
1.702836e+003, 4.016499e-003
1.704765e+003, 4.244223e-003
1.706693e+003, 4.042483e-003
1.708621e+003, 4.095039e-003
1.710550e+003, 4.469454e-003
1.712478e+003, 4.426772e-003
1.714407e+003, 4.191048e-003
1.716335e+003, 4.123305e-003
1.718264e+003, 4.094964e-003
1.720192e+003, 4.207483e-003
1.722121e+003, 4.503706e-003
1.724049e+003, 4.996021e-003
1.725978e+003, 5.285605e-003
1.727906e+003, 5.110200e-003
1.729835e+003, 4.527627e-003
1.731763e+003, 3.726716e-003
1.733692e+003, 4.246914e-003
1.735620e+003, 5.073088e-003
1.737548e+003, 4.782429e-003
1.739477e+003, 4.013282e-003
1.741405e+003, 3.979621e-003
1.743334e+003, 3.897395e-003
1.745262e+003, 4.148201e-003
1.747191e+003, 4.316602e-003
1.749119e+003, 4.205970e-003
1.751048e+003, 4.220992e-003
1.752976e+003, 4.183764e-003
1.754905e+003, 4.561247e-003
1.756833e+003, 4.921979e-003
1.758762e+003, 4.296547e-003
1.760690e+003, 4.059585e-003
1.762619e+003, 4.358360e-003
1.764547e+003, 4.975014e-003
1.766475e+003, 5.315320e-003
1.768404e+003, 5.186846e-003
1.770332e+003, 4.919242e-003
1.772261e+003, 4.792111e-003
1.774189e+003, 4.875412e-003
1.776118e+003, 4.815331e-003
1.778046e+003, 4.822575e-003
1.779975e+003, 4.143420e-003
1.781903e+003, 3.722660e-003
1.783832e+003, 4.111100e-003
1.785760e+003, 5.012729e-003
1.787689e+003, 5.455917e-003
1.789617e+003, 4.576191e-003
1.791546e+003, 4.074096e-003
1.793474e+003, 3.817952e-003
1.795402e+003, 3.713682e-003
1.797331e+003, 4.123891e-003
1.799259e+003, 4.368563e-003
1.801188e+003, 4.519156e-003
1.803116e+003, 4.485416e-003
1.805045e+003, 4.272614e-003
1.806973e+003, 4.769524e-003
1.808902e+003, 4.741268e-003
1.810830e+003, 4.651016e-003
1.812759e+003, 4.858161e-003
1.814687e+003, 4.360612e-003
1.816616e+003, 3.779332e-003
1.818544e+003, 3.742478e-003
1.820473e+003, 4.314772e-003
1.822401e+003, 4.862130e-003
1.824329e+003, 4.428459e-003
1.826258e+003, 3.669288e-003
1.828186e+003, 4.453538e-003
1.830115e+003, 5.499850e-003
1.832043e+003, 5.073918e-003
1.833972e+003, 4.449116e-003
1.835900e+003, 3.823670e-003
1.837829e+003, 3.525662e-003
1.839757e+003, 3.732849e-003
1.841686e+003, 3.573638e-003
1.843614e+003, 4.535966e-003
1.845543e+003, 4.654305e-003
1.847471e+003, 4.447700e-003
1.849400e+003, 4.338110e-003
1.851328e+003, 3.379244e-003
1.853256e+003, 2.998193e-003
1.855185e+003, 4.096847e-003
1.857113e+003, 4.693078e-003
1.859042e+003, 4.590278e-003
1.860970e+003, 4.526209e-003
1.862899e+003, 3.475928e-003
1.864827e+003, 3.125144e-003
1.866756e+003, 3.813978e-003
1.868684e+003, 3.854685e-003
1.870613e+003, 3.804297e-003
1.872541e+003, 4.754470e-003
1.874470e+003, 5.065917e-003
1.876398e+003, 4.169314e-003
1.878327e+003, 3.877013e-003
1.880255e+003, 4.159411e-003
1.882183e+003, 3.688993e-003
1.884112e+003, 4.202581e-003
1.886040e+003, 4.394277e-003
1.887969e+003, 3.382177e-003
1.889897e+003, 4.198239e-003
1.891826e+003, 4.879605e-003
1.893754e+003, 3.514973e-003
1.895683e+003, 3.689771e-003
1.897611e+003, 4.605335e-003
1.899540e+003, 5.299111e-003
1.901468e+003, 4.576683e-003
1.903397e+003, 3.735448e-003
1.905325e+003, 3.357740e-003
1.907254e+003, 3.810627e-003
1.909182e+003, 4.233003e-003
1.911110e+003, 4.748012e-003
1.913039e+003, 4.487643e-003
1.914967e+003, 3.453926e-003
1.916896e+003, 2.953003e-003
1.918824e+003, 2.898424e-003
1.920753e+003, 3.749116e-003
1.922681e+003, 4.828081e-003
1.924610e+003, 4.579802e-003
1.926538e+003, 3.091760e-003
1.928467e+003, 4.274155e-003
1.930395e+003, 5.400573e-003
1.932324e+003, 4.418500e-003
1.934252e+003, 3.188862e-003
1.936181e+003, 1.832487e-003
1.938109e+003, 2.160152e-003
1.940037e+003, 1.593238e-003
1.941966e+003, -1.242876e-003
1.943894e+003, -3.526948e-004
1.945823e+003, 6.438789e-004
1.947751e+003, 7.474735e-004
1.949680e+003, 2.033876e-003
1.951608e+003, 2.344683e-003
1.953537e+003, 2.070408e-003
1.955465e+003, 1.942170e-003
1.957394e+003, 1.798552e-003
1.959322e+003, -9.622880e-004
1.961251e+003, -3.733075e-003
1.963179e+003, -2.922732e-003
1.965108e+003, -1.872582e-003
1.967036e+003, -1.760870e-004
1.968964e+003, -1.435700e-003
1.970893e+003, -2.239725e-003
1.972821e+003, -7.943703e-004
1.974750e+003, -5.474210e-004
1.976678e+003, -8.163386e-004
1.978607e+003, 1.277190e-003
1.980535e+003, 1.783647e-003
1.982464e+003, 2.803879e-003
1.984392e+003, 5.530595e-003
1.986321e+003, 4.866558e-003
1.988249e+003, 3.259636e-004
1.990178e+003, 3.516776e-004
1.992106e+003, 3.799349e-003
1.994035e+003, 6.412561e-003
1.995963e+003, 4.348706e-003
1.997891e+003, 3.338900e-003
1.999820e+003, 1.863499e-003
2.001748e+003, 5.153684e-005
2.003677e+003, -6.837892e-005
2.005605e+003, -2.071691e-003
2.007534e+003, -3.258592e-003
2.009462e+003, -3.119824e-003
2.011391e+003, -2.679633e-003
2.013319e+003, -3.036337e-003
2.015248e+003, -8.979740e-004
2.017176e+003, 1.222904e-003
2.019105e+003, -1.557319e-004
2.021033e+003, -4.653228e-003
2.022962e+003, -3.371978e-003
2.024890e+003, -1.994442e-004
2.026818e+003, 1.083703e-003
2.028747e+003, 9.948210e-004
2.030675e+003, 1.160815e-003
2.032604e+003, -1.928702e-003
2.034532e+003, -2.613413e-003
2.036461e+003, -1.474474e-003
2.038389e+003, -7.786646e-004
2.040318e+003, 1.868921e-003
2.042246e+003, 2.673523e-003
2.044175e+003, 4.468791e-003
2.046103e+003, 5.464761e-003
2.048031e+003, 1.638756e-003
2.049960e+003, 1.307399e-003
2.051888e+003, 2.249683e-003
2.053817e+003, 3.647612e-004
2.055745e+003, -1.045092e-003
2.057674e+003, 3.564429e-004
2.059602e+003, 1.927277e-003
2.061531e+003, 1.577433e-003
2.063459e+003, 9.903501e-004
2.065388e+003, 1.668139e-003
2.067316e+003, 2.911038e-003
2.069245e+003, 2.237851e-003
2.071173e+003, 3.684328e-003
2.073102e+003, 3.671205e-003
2.075030e+003, 4.838958e-003
2.076958e+003, 6.345681e-003
2.078887e+003, 7.108212e-003
2.080815e+003, 7.317465e-003
2.082744e+003, 6.715775e-003
2.084672e+003, 6.263245e-003
2.086601e+003, 4.140064e-003
2.088529e+003, 2.164710e-003
2.090458e+003, 1.862792e-003
2.092386e+003, 2.038275e-003
2.094315e+003, 2.678768e-003
2.096243e+003, 4.264631e-003
2.098172e+003, 5.788022e-003
2.100100e+003, 4.198585e-003
2.102029e+003, 3.392057e-003
2.103957e+003, 3.548841e-003
2.105885e+003, 2.949879e-003
2.107814e+003, 3.314402e-003
2.109742e+003, 2.580232e-003
2.111671e+003, 2.114706e-003
2.113599e+003, 4.354121e-003
2.115528e+003, 4.923674e-003
2.117456e+003, 4.865174e-003
2.119385e+003, 5.247162e-003
2.121313e+003, 3.733434e-003
2.123242e+003, 4.876558e-003
2.125170e+003, 6.094751e-003
2.127099e+003, 2.852612e-003
2.129027e+003, 1.484716e-003
2.130956e+003, 1.485354e-003
2.132884e+003, 7.600257e-004
2.134813e+003, 1.122677e-003
2.136741e+003, 1.966751e-003
2.138669e+003, 1.319835e-003
2.140598e+003, 1.571147e-003
2.142526e+003, 3.741830e-003
2.144455e+003, 3.777302e-003
2.146383e+003, 4.305833e-003
2.148312e+003, 3.223712e-003
2.150240e+003, 2.566390e-003
2.152169e+003, 9.456929e-004
2.154097e+003, 2.198186e-003
2.156026e+003, 9.484604e-004
2.157954e+003, 2.115333e-003
2.159883e+003, 8.851288e-003
2.161811e+003, 1.067901e-002
2.163740e+003, 7.306867e-003
2.165668e+003, 4.616914e-003
2.167596e+003, 5.952867e-003
2.169525e+003, 5.750278e-003
2.171453e+003, 2.058764e-003
2.173382e+003, 4.330333e-003
2.175310e+003, 7.551678e-003
2.177239e+003, 5.097109e-003
2.179167e+003, 2.164134e-003
2.181096e+003, 4.308906e-004
2.183024e+003, 4.997357e-003
2.184953e+003, 3.710461e-003
2.186881e+003, 2.691940e-003
2.188810e+003, 4.830683e-003
2.190738e+003, 4.022317e-003
2.192667e+003, 3.108977e-003
2.194595e+003, 4.173266e-003
2.196523e+003, 6.943135e-003
2.198452e+003, 5.001332e-003
2.200380e+003, 3.964537e-003
2.202309e+003, 6.477077e-003
2.204237e+003, 6.722713e-003
2.206166e+003, 6.388556e-003
2.208094e+003, 5.995837e-003
2.210023e+003, 4.306459e-003
2.211951e+003, 2.486898e-003
2.213880e+003, 4.994915e-003
2.215808e+003, 8.722861e-003
2.217737e+003, 9.045427e-003
2.219665e+003, 5.852909e-003
2.221594e+003, 3.844886e-003
2.223522e+003, 4.723371e-003
2.225450e+003, 8.725178e-003
2.227379e+003, 1.276841e-002
2.229307e+003, 1.148696e-002
2.231236e+003, 7.874833e-003
2.233164e+003, 6.620197e-003
2.235093e+003, 7.417892e-003
2.237021e+003, 7.133865e-003
2.238950e+003, 7.185080e-003
2.240878e+003, 7.826902e-003
2.242807e+003, 9.646654e-003
2.244735e+003, 1.076258e-002
2.246664e+003, 1.062845e-002
2.248592e+003, 1.072571e-002
2.250521e+003, 1.003808e-002
2.252449e+003, 9.384486e-003
2.254377e+003, 9.794801e-003
2.256306e+003, 1.026731e-002
2.258234e+003, 9.782611e-003
2.260163e+003, 8.435845e-003
2.262091e+003, 9.374413e-003
2.264020e+003, 1.019303e-002
2.265948e+003, 1.178008e-002
2.267877e+003, 1.032976e-002
2.269805e+003, 9.584981e-003
2.271734e+003, 1.127637e-002
2.273662e+003, 1.227675e-002
2.275591e+003, 1.212060e-002
2.277519e+003, 1.213676e-002
2.279448e+003, 1.251105e-002
2.281376e+003, 1.215448e-002
2.283304e+003, 1.184244e-002
2.285233e+003, 1.129298e-002
2.287161e+003, 1.170654e-002
2.289090e+003, 1.229978e-002
2.291018e+003, 1.191986e-002
2.292947e+003, 1.192936e-002
2.294875e+003, 1.142670e-002
2.296804e+003, 1.030757e-002
2.298732e+003, 1.059192e-002
2.300661e+003, 1.053987e-002
2.302589e+003, 1.008264e-002
2.304518e+003, 1.032668e-002
2.306446e+003, 1.151863e-002
2.308375e+003, 1.230862e-002
2.310303e+003, 1.022685e-002
2.312231e+003, 9.884831e-003
2.314160e+003, 1.069780e-002
2.316088e+003, 1.108863e-002
2.318017e+003, 1.070973e-002
2.319945e+003, 1.069534e-002
2.321874e+003, 1.269756e-002
2.323802e+003, 1.413328e-002
2.325731e+003, 1.330113e-002
2.327659e+003, 1.081197e-002
2.329588e+003, 9.524150e-003
2.331516e+003, 1.090539e-002
2.333445e+003, 1.184455e-002
2.335373e+003, 1.207358e-002
2.337302e+003, 1.130687e-002
2.339230e+003, 1.030298e-002
2.341158e+003, 1.015711e-002
2.343087e+003, 1.070034e-002
2.345015e+003, 1.070467e-002
2.346944e+003, 1.006103e-002
2.348872e+003, 1.036141e-002
2.350801e+003, 1.174030e-002
2.352729e+003, 1.223029e-002
2.354658e+003, 1.105662e-002
2.356586e+003, 1.134410e-002
2.358515e+003, 1.236255e-002
2.360443e+003, 1.214296e-002
2.362372e+003, 1.140876e-002
2.364300e+003, 1.088177e-002
2.366229e+003, 1.064678e-002
2.368157e+003, 1.067821e-002
2.370085e+003, 1.057106e-002
2.372014e+003, 1.133231e-002
2.373942e+003, 1.234924e-002
2.375871e+003, 1.114461e-002
2.377799e+003, 1.010005e-002
2.379728e+003, 1.030095e-002
2.381656e+003, 1.057842e-002
2.383585e+003, 1.025089e-002
2.385513e+003, 1.039873e-002
2.387442e+003, 1.067077e-002
2.389370e+003, 1.026465e-002
2.391299e+003, 1.015755e-002
2.393227e+003, 1.069254e-002
2.395156e+003, 1.026017e-002
2.397084e+003, 1.064726e-002
2.399012e+003, 1.134420e-002
2.400941e+003, 1.104751e-002
2.402869e+003, 1.047101e-002
2.404798e+003, 1.071180e-002
2.406726e+003, 1.085978e-002
2.408655e+003, 1.037112e-002
2.410583e+003, 1.057651e-002
2.412512e+003, 1.105479e-002
2.414440e+003, 1.122032e-002
2.416369e+003, 1.055005e-002
2.418297e+003, 9.373971e-003
2.420226e+003, 9.446825e-003
2.422154e+003, 1.048533e-002
2.424083e+003, 1.148573e-002
2.426011e+003, 1.157240e-002
2.427939e+003, 1.142422e-002
2.429868e+003, 1.176167e-002
2.431796e+003, 1.138650e-002
2.433725e+003, 1.171502e-002
2.435653e+003, 1.086481e-002
2.437582e+003, 1.061322e-002
2.439510e+003, 1.188460e-002
2.441439e+003, 1.186831e-002
2.443367e+003, 1.134706e-002
2.445296e+003, 1.228542e-002
2.447224e+003, 1.215649e-002
2.449153e+003, 1.086001e-002
2.451081e+003, 1.035572e-002
2.453010e+003, 9.595211e-003
2.454938e+003, 1.052974e-002
2.456866e+003, 1.080252e-002
2.458795e+003, 1.018514e-002
2.460723e+003, 1.091758e-002
2.462652e+003, 1.092630e-002
2.464580e+003, 1.008693e-002
2.466509e+003, 1.103762e-002
2.468437e+003, 1.216491e-002
2.470366e+003, 1.094299e-002
2.472294e+003, 9.801088e-003
2.474223e+003, 9.779032e-003
2.476151e+003, 9.881045e-003
2.478080e+003, 1.060428e-002
2.480008e+003, 1.124425e-002
2.481937e+003, 1.020080e-002
2.483865e+003, 1.104303e-002
2.485793e+003, 1.107016e-002
2.487722e+003, 1.046534e-002
2.489650e+003, 1.206397e-002
2.491579e+003, 1.286443e-002
2.493507e+003, 1.296386e-002
2.495436e+003, 1.225631e-002
2.497364e+003, 1.196413e-002
2.499293e+003, 1.254900e-002
2.501221e+003, 1.197691e-002
2.503150e+003, 1.151429e-002
2.505078e+003, 1.118338e-002
2.507007e+003, 1.173924e-002
2.508935e+003, 1.201965e-002
2.510864e+003, 1.251200e-002
2.512792e+003, 1.168714e-002
2.514720e+003, 1.149619e-002
2.516649e+003, 1.359637e-002
2.518577e+003, 1.401025e-002
2.520506e+003, 1.213917e-002
2.522434e+003, 1.056309e-002
2.524363e+003, 1.121311e-002
2.526291e+003, 1.270277e-002
2.528220e+003, 1.123448e-002
2.530148e+003, 1.055214e-002
2.532077e+003, 1.219617e-002
2.534005e+003, 1.237255e-002
2.535934e+003, 1.142445e-002
2.537862e+003, 1.193158e-002
2.539791e+003, 1.277209e-002
2.541719e+003, 1.146405e-002
2.543647e+003, 1.171054e-002
2.545576e+003, 1.281381e-002
2.547504e+003, 1.284743e-002
2.549433e+003, 1.202663e-002
2.551361e+003, 1.182295e-002
2.553290e+003, 1.182710e-002
2.555218e+003, 1.249402e-002
2.557147e+003, 1.249685e-002
2.559075e+003, 1.214001e-002
2.561004e+003, 1.265851e-002
2.562932e+003, 1.129650e-002
2.564861e+003, 1.081344e-002
2.566789e+003, 1.239957e-002
2.568718e+003, 1.282724e-002
2.570646e+003, 1.201416e-002
2.572574e+003, 1.123318e-002
2.574503e+003, 1.183725e-002
2.576431e+003, 1.179590e-002
2.578360e+003, 1.105989e-002
2.580288e+003, 1.273541e-002
2.582217e+003, 1.389343e-002
2.584145e+003, 1.367852e-002
2.586074e+003, 1.275123e-002
2.588002e+003, 1.265502e-002
2.589931e+003, 1.195302e-002
2.591859e+003, 1.084628e-002
2.593788e+003, 1.269852e-002
2.595716e+003, 1.448526e-002
2.597645e+003, 1.378649e-002
2.599573e+003, 1.406121e-002
2.601501e+003, 1.436162e-002
2.603430e+003, 1.347398e-002
2.605358e+003, 1.333755e-002
2.607287e+003, 1.369224e-002
2.609215e+003, 1.466052e-002
2.611144e+003, 1.488654e-002
2.613072e+003, 1.572254e-002
2.615001e+003, 1.536829e-002
2.616929e+003, 1.393141e-002
2.618858e+003, 1.208284e-002
2.620786e+003, 1.270845e-002
2.622715e+003, 1.468927e-002
2.624643e+003, 1.546904e-002
2.626572e+003, 1.462686e-002
2.628500e+003, 1.371822e-002
2.630428e+003, 1.404307e-002
2.632357e+003, 1.454724e-002
2.634285e+003, 1.461456e-002
2.636214e+003, 1.407908e-002
2.638142e+003, 1.350874e-002
2.640071e+003, 1.356394e-002
2.641999e+003, 1.327616e-002
2.643928e+003, 1.310046e-002
2.645856e+003, 1.428768e-002
2.647785e+003, 1.505748e-002
2.649713e+003, 1.371147e-002
2.651642e+003, 1.442407e-002
2.653570e+003, 1.433859e-002
2.655499e+003, 1.326620e-002
2.657427e+003, 1.313814e-002
2.659355e+003, 1.287133e-002
2.661284e+003, 1.301755e-002
2.663212e+003, 1.334223e-002
2.665141e+003, 1.228157e-002
2.667069e+003, 1.245820e-002
2.668998e+003, 1.356151e-002
2.670926e+003, 1.423302e-002
2.672855e+003, 1.329118e-002
2.674783e+003, 1.342449e-002
2.676712e+003, 1.358823e-002
2.678640e+003, 1.355016e-002
2.680569e+003, 1.462703e-002
2.682497e+003, 1.419319e-002
2.684426e+003, 1.351185e-002
2.686354e+003, 1.266894e-002
2.688282e+003, 1.204995e-002
2.690211e+003, 1.238683e-002
2.692139e+003, 1.358262e-002
2.694068e+003, 1.325537e-002
2.695996e+003, 1.346192e-002
2.697925e+003, 1.378827e-002
2.699853e+003, 1.326185e-002
2.701782e+003, 1.310447e-002
2.703710e+003, 1.354348e-002
2.705639e+003, 1.296635e-002
2.707567e+003, 1.222495e-002
2.709496e+003, 1.342262e-002
2.711424e+003, 1.423666e-002
2.713353e+003, 1.428401e-002
2.715281e+003, 1.387151e-002
2.717209e+003, 1.308234e-002
2.719138e+003, 1.324341e-002
2.721066e+003, 1.294831e-002
2.722995e+003, 1.281447e-002
2.724923e+003, 1.271311e-002
2.726852e+003, 1.293108e-002
2.728780e+003, 1.292359e-002
2.730709e+003, 1.305430e-002
2.732637e+003, 1.383788e-002
2.734566e+003, 1.424766e-002
2.736494e+003, 1.420357e-002
2.738423e+003, 1.436703e-002
2.740351e+003, 1.409927e-002
2.742280e+003, 1.429917e-002
2.744208e+003, 1.463890e-002
2.746136e+003, 1.451545e-002
2.748065e+003, 1.415029e-002
2.749993e+003, 1.318260e-002
2.751922e+003, 1.308804e-002
2.753850e+003, 1.373982e-002
2.755779e+003, 1.411776e-002
2.757707e+003, 1.365176e-002
2.759636e+003, 1.373890e-002
2.761564e+003, 1.379330e-002
2.763493e+003, 1.446677e-002
2.765421e+003, 1.425765e-002
2.767350e+003, 1.363494e-002
2.769278e+003, 1.423919e-002
2.771207e+003, 1.436079e-002
2.773135e+003, 1.416149e-002
2.775063e+003, 1.382120e-002
2.776992e+003, 1.389037e-002
2.778920e+003, 1.442770e-002
2.780849e+003, 1.453618e-002
2.782777e+003, 1.457267e-002
2.784706e+003, 1.473398e-002
2.786634e+003, 1.516812e-002
2.788563e+003, 1.521819e-002
2.790491e+003, 1.476047e-002
2.792420e+003, 1.403671e-002
2.794348e+003, 1.425679e-002
2.796277e+003, 1.445217e-002
2.798205e+003, 1.488771e-002
2.800134e+003, 1.537313e-002
2.802062e+003, 1.555335e-002
2.803990e+003, 1.535827e-002
2.805919e+003, 1.492311e-002
2.807847e+003, 1.554400e-002
2.809776e+003, 1.569386e-002
2.811704e+003, 1.560631e-002
2.813633e+003, 1.477200e-002
2.815561e+003, 1.422561e-002
2.817490e+003, 1.425613e-002
2.819418e+003, 1.432714e-002
2.821347e+003, 1.442225e-002
2.823275e+003, 1.415878e-002
2.825204e+003, 1.392274e-002
2.827132e+003, 1.393433e-002
2.829061e+003, 1.539278e-002
2.830989e+003, 1.590746e-002
2.832917e+003, 1.429659e-002
2.834846e+003, 1.343845e-002
2.836774e+003, 1.463865e-002
2.838703e+003, 1.633838e-002
2.840631e+003, 1.555925e-002
2.842560e+003, 1.358148e-002
2.844488e+003, 1.339679e-002
2.846417e+003, 1.441891e-002
2.848345e+003, 1.331841e-002
2.850274e+003, 1.448785e-002
2.852202e+003, 1.565143e-002
2.854131e+003, 1.574611e-002
2.856059e+003, 1.662826e-002
2.857988e+003, 1.632550e-002
2.859916e+003, 1.606588e-002
2.861844e+003, 1.528371e-002
2.863773e+003, 1.458527e-002
2.865701e+003, 1.601624e-002
2.867630e+003, 1.781975e-002
2.869558e+003, 1.797294e-002
2.871487e+003, 1.674200e-002
2.873415e+003, 1.518041e-002
2.875344e+003, 1.481281e-002
2.877272e+003, 1.580204e-002
2.879201e+003, 1.577234e-002
2.881129e+003, 1.583473e-002
2.883058e+003, 1.584117e-002
2.884986e+003, 1.538272e-002
2.886915e+003, 1.516623e-002
2.888843e+003, 1.577399e-002
2.890771e+003, 1.616450e-002
2.892700e+003, 1.622208e-002
2.894628e+003, 1.585424e-002
2.896557e+003, 1.608301e-002
2.898485e+003, 1.584151e-002
2.900414e+003, 1.480426e-002
2.902342e+003, 1.616452e-002
2.904271e+003, 1.839217e-002
2.906199e+003, 1.832338e-002
2.908128e+003, 1.755521e-002
2.910056e+003, 1.762933e-002
2.911985e+003, 1.738284e-002
2.913913e+003, 1.688192e-002
2.915842e+003, 1.656122e-002
2.917770e+003, 1.644533e-002
2.919698e+003, 1.618525e-002
2.921627e+003, 1.739221e-002
2.923555e+003, 1.864533e-002
2.925484e+003, 1.828536e-002
2.927412e+003, 1.770634e-002
2.929341e+003, 1.954998e-002
2.931269e+003, 1.954135e-002
2.933198e+003, 1.898320e-002
2.935126e+003, 1.894583e-002
2.937055e+003, 1.899107e-002
2.938983e+003, 1.883058e-002
2.940912e+003, 1.888032e-002
2.942840e+003, 1.847437e-002
2.944769e+003, 1.814114e-002
2.946697e+003, 1.779507e-002
2.948625e+003, 1.812952e-002
2.950554e+003, 1.866255e-002
2.952482e+003, 1.875784e-002
2.954411e+003, 1.882542e-002
2.956339e+003, 1.889705e-002
2.958268e+003, 1.862094e-002
2.960196e+003, 1.835417e-002
2.962125e+003, 1.937096e-002
2.964053e+003, 1.929624e-002
2.965982e+003, 1.955912e-002
2.967910e+003, 2.048982e-002
2.969839e+003, 1.942221e-002
2.971767e+003, 1.683098e-002
2.973696e+003, 1.656023e-002
2.975624e+003, 1.732618e-002
2.977552e+003, 1.837072e-002
2.979481e+003, 1.809216e-002
2.981409e+003, 1.767598e-002
2.983338e+003, 1.788835e-002
2.985266e+003, 1.783212e-002
2.987195e+003, 1.782257e-002
2.989123e+003, 1.797566e-002
2.991052e+003, 1.840364e-002
2.992980e+003, 1.799453e-002
2.994909e+003, 1.720767e-002
2.996837e+003, 1.698715e-002
2.998766e+003, 1.825823e-002
3.000694e+003, 1.942255e-002
3.002623e+003, 1.786216e-002
3.004551e+003, 1.661943e-002
3.006479e+003, 1.663897e-002
3.008408e+003, 1.711222e-002
3.010336e+003, 1.786305e-002
3.012265e+003, 1.676844e-002
3.014193e+003, 1.657637e-002
3.016122e+003, 1.633903e-002
3.018050e+003, 1.649317e-002
3.019979e+003, 1.879072e-002
3.021907e+003, 1.982341e-002
3.023836e+003, 1.861796e-002
3.025764e+003, 1.861733e-002
3.027693e+003, 1.929736e-002
3.029621e+003, 1.910338e-002
3.031550e+003, 1.851122e-002
3.033478e+003, 1.812958e-002
3.035406e+003, 1.797776e-002
3.037335e+003, 1.952509e-002
3.039263e+003, 1.868343e-002
3.041192e+003, 1.721968e-002
3.043120e+003, 1.817239e-002
3.045049e+003, 1.709351e-002
3.046977e+003, 1.661403e-002
3.048906e+003, 1.815327e-002
3.050834e+003, 1.938926e-002
3.052763e+003, 1.874621e-002
3.054691e+003, 1.851447e-002
3.056620e+003, 1.819334e-002
3.058548e+003, 1.818695e-002
3.060477e+003, 1.873947e-002
3.062405e+003, 1.792538e-002
3.064333e+003, 1.860431e-002
3.066262e+003, 1.893225e-002
3.068190e+003, 1.871176e-002
3.070119e+003, 1.816366e-002
3.072047e+003, 1.837248e-002
3.073976e+003, 1.793436e-002
3.075904e+003, 1.722976e-002
3.077833e+003, 1.923128e-002
3.079761e+003, 2.081948e-002
3.081690e+003, 1.997479e-002
3.083618e+003, 1.822022e-002
3.085547e+003, 1.851789e-002
3.087475e+003, 1.932931e-002
3.089404e+003, 1.865428e-002
3.091332e+003, 1.794334e-002
3.093260e+003, 1.855629e-002
3.095189e+003, 1.885415e-002
3.097117e+003, 1.850129e-002
3.099046e+003, 1.851468e-002
3.100974e+003, 1.704425e-002
3.102903e+003, 1.827528e-002
3.104831e+003, 1.874253e-002
3.106760e+003, 1.793514e-002
3.108688e+003, 1.775610e-002
3.110617e+003, 1.883483e-002
3.112545e+003, 1.962574e-002
3.114474e+003, 1.965445e-002
3.116402e+003, 1.824249e-002
3.118331e+003, 1.860140e-002
3.120259e+003, 2.024221e-002
3.122188e+003, 2.135607e-002
3.124116e+003, 2.115749e-002
3.126044e+003, 1.992936e-002
3.127973e+003, 1.966623e-002
3.129901e+003, 2.022876e-002
3.131830e+003, 2.016771e-002
3.133758e+003, 2.098372e-002
3.135687e+003, 2.105371e-002
3.137615e+003, 2.076209e-002
3.139544e+003, 1.837721e-002
3.141472e+003, 1.876994e-002
3.143401e+003, 1.985475e-002
3.145329e+003, 1.900813e-002
3.147258e+003, 1.702049e-002
3.149186e+003, 1.619568e-002
3.151115e+003, 1.845605e-002
3.153043e+003, 2.019998e-002
3.154971e+003, 2.011771e-002
3.156900e+003, 1.915941e-002
3.158828e+003, 1.810930e-002
3.160757e+003, 1.929391e-002
3.162685e+003, 2.039087e-002
3.164614e+003, 2.010535e-002
3.166542e+003, 2.054854e-002
3.168471e+003, 2.121200e-002
3.170399e+003, 2.030883e-002
3.172328e+003, 1.871124e-002
3.174256e+003, 1.831690e-002
3.176185e+003, 1.983888e-002
3.178113e+003, 2.034895e-002
3.180042e+003, 2.141231e-002
3.181970e+003, 2.236823e-002
3.183898e+003, 2.252621e-002
3.185827e+003, 2.224312e-002
3.187755e+003, 1.999463e-002
3.189684e+003, 2.075922e-002
3.191612e+003, 2.107742e-002
3.193541e+003, 1.955703e-002
3.195469e+003, 2.235638e-002
3.197398e+003, 2.244599e-002
3.199326e+003, 1.836747e-002
3.201255e+003, 1.649394e-002
3.203183e+003, 1.791487e-002
3.205112e+003, 2.037708e-002
3.207040e+003, 2.266704e-002
3.208969e+003, 2.266025e-002
3.210897e+003, 2.160202e-002
3.212825e+003, 2.179059e-002
3.214754e+003, 2.224138e-002
3.216682e+003, 1.999193e-002
3.218611e+003, 1.857955e-002
3.220539e+003, 1.806502e-002
3.222468e+003, 1.919727e-002
3.224396e+003, 2.011476e-002
3.226325e+003, 2.218274e-002
3.228253e+003, 2.362543e-002
3.230182e+003, 2.332142e-002
3.232110e+003, 2.153408e-002
3.234039e+003, 2.009512e-002
3.235967e+003, 2.038177e-002
3.237896e+003, 1.991929e-002
3.239824e+003, 1.857930e-002
3.241752e+003, 1.784413e-002
3.243681e+003, 1.792604e-002
3.245609e+003, 1.893986e-002
3.247538e+003, 1.943706e-002
3.249466e+003, 2.331769e-002
3.251395e+003, 2.338750e-002
3.253323e+003, 1.919739e-002
3.255252e+003, 2.058794e-002
3.257180e+003, 1.978455e-002
3.259109e+003, 1.864656e-002
3.261037e+003, 2.002286e-002
3.262966e+003, 2.013669e-002
3.264894e+003, 1.991653e-002
3.266823e+003, 2.122763e-002
3.268751e+003, 2.030082e-002
3.270679e+003, 1.941999e-002
3.272608e+003, 1.970475e-002
3.274536e+003, 2.109758e-002
3.276465e+003, 2.188041e-002
3.278393e+003, 2.208601e-002
3.280322e+003, 2.076381e-002
3.282250e+003, 1.773248e-002
3.284179e+003, 1.626372e-002
3.286107e+003, 1.970875e-002
3.288036e+003, 2.242607e-002
3.289964e+003, 2.072264e-002
3.291893e+003, 2.007603e-002
3.293821e+003, 2.084737e-002
3.295750e+003, 2.076474e-002
3.297678e+003, 2.107968e-002
3.299606e+003, 2.033153e-002
3.301535e+003, 1.977599e-002
3.303463e+003, 2.004492e-002
3.305392e+003, 2.100585e-002
3.307320e+003, 2.061261e-002
3.309249e+003, 1.831505e-002
3.311177e+003, 1.929869e-002
3.313106e+003, 2.085627e-002
3.315034e+003, 2.253111e-002
3.316963e+003, 2.220600e-002
3.318891e+003, 2.178075e-002
3.320820e+003, 2.248180e-002
3.322748e+003, 2.134698e-002
3.324677e+003, 2.073084e-002
3.326605e+003, 2.139558e-002
3.328533e+003, 1.898308e-002
3.330462e+003, 1.743137e-002
3.332390e+003, 1.960609e-002
3.334319e+003, 2.152593e-002
3.336247e+003, 2.287158e-002
3.338176e+003, 2.236474e-002
3.340104e+003, 2.373982e-002
3.342033e+003, 2.455226e-002
3.343961e+003, 2.481155e-002
3.345890e+003, 2.341935e-002
3.347818e+003, 2.103348e-002
3.349747e+003, 1.940031e-002
3.351675e+003, 2.000010e-002
3.353604e+003, 2.140075e-002
3.355532e+003, 2.106604e-002
3.357460e+003, 2.150157e-002
3.359389e+003, 2.109748e-002
3.361317e+003, 1.991864e-002
3.363246e+003, 2.011162e-002
3.365174e+003, 2.068172e-002
3.367103e+003, 1.880667e-002
3.369031e+003, 1.951867e-002
3.370960e+003, 2.057726e-002
3.372888e+003, 1.839597e-002
3.374817e+003, 1.797253e-002
3.376745e+003, 1.897704e-002
3.378674e+003, 2.065023e-002
3.380602e+003, 2.127332e-002
3.382531e+003, 2.127499e-002
3.384459e+003, 2.186602e-002
3.386387e+003, 2.092226e-002
3.388316e+003, 2.101172e-002
3.390244e+003, 2.156184e-002
3.392173e+003, 2.134738e-002
3.394101e+003, 2.061634e-002
3.396030e+003, 1.842511e-002
3.397958e+003, 1.542064e-002
3.399887e+003, 1.779941e-002
3.401815e+003, 2.099311e-002
3.403744e+003, 2.159815e-002
3.405672e+003, 2.260679e-002
3.407601e+003, 2.218503e-002
3.409529e+003, 2.162890e-002
3.411458e+003, 2.035500e-002
3.413386e+003, 1.901203e-002
3.415314e+003, 2.050571e-002
3.417243e+003, 2.112518e-002
3.419171e+003, 2.064144e-002
3.421100e+003, 2.101312e-002
3.423028e+003, 2.139439e-002
3.424957e+003, 1.989674e-002
3.426885e+003, 1.908664e-002
3.428814e+003, 2.110717e-002
3.430742e+003, 2.028487e-002
3.432671e+003, 1.879609e-002
3.434599e+003, 1.936109e-002
3.436528e+003, 1.981556e-002
3.438456e+003, 1.941480e-002
3.440385e+003, 1.996880e-002
3.442313e+003, 1.947540e-002
3.444241e+003, 2.003537e-002
3.446170e+003, 2.012470e-002
3.448098e+003, 1.940362e-002
3.450027e+003, 2.025915e-002
3.451955e+003, 2.032195e-002
3.453884e+003, 1.870968e-002
3.455812e+003, 1.851875e-002
3.457741e+003, 1.960227e-002
3.459669e+003, 2.020876e-002
3.461598e+003, 2.034802e-002
3.463526e+003, 1.928212e-002
3.465455e+003, 1.837211e-002
3.467383e+003, 1.984818e-002
3.469312e+003, 1.966996e-002
3.471240e+003, 1.897735e-002
3.473168e+003, 1.758869e-002
3.475097e+003, 1.880629e-002
3.477025e+003, 2.187518e-002
3.478954e+003, 2.253514e-002
3.480882e+003, 1.994088e-002
3.482811e+003, 2.099252e-002
3.484739e+003, 2.260625e-002
3.486668e+003, 2.143953e-002
3.488596e+003, 2.055500e-002
3.490525e+003, 1.941122e-002
3.492453e+003, 1.919902e-002
3.494382e+003, 1.969468e-002
3.496310e+003, 1.787713e-002
3.498239e+003, 1.827771e-002
3.500167e+003, 1.826572e-002
3.502095e+003, 1.769526e-002
3.504024e+003, 1.595314e-002
3.505952e+003, 1.558209e-002
3.507881e+003, 1.851208e-002
3.509809e+003, 1.934202e-002
3.511738e+003, 1.865199e-002
3.513666e+003, 2.094112e-002
3.515595e+003, 2.272247e-002
3.517523e+003, 1.831831e-002
3.519452e+003, 1.558024e-002
3.521380e+003, 1.730338e-002
3.523309e+003, 1.835151e-002
3.525237e+003, 1.904570e-002
3.527166e+003, 2.266180e-002
3.529094e+003, 2.368766e-002
3.531022e+003, 2.196718e-002
3.532951e+003, 2.161406e-002
3.534879e+003, 1.943510e-002
3.536808e+003, 1.801554e-002
3.538736e+003, 2.011312e-002
3.540665e+003, 2.231781e-002
3.542593e+003, 2.183163e-002
3.544522e+003, 1.976194e-002
3.546450e+003, 1.959762e-002
3.548379e+003, 2.038938e-002
3.550307e+003, 1.770538e-002
3.552236e+003, 1.789014e-002
3.554164e+003, 1.946993e-002
3.556093e+003, 1.984185e-002
3.558021e+003, 1.924323e-002
3.559949e+003, 1.795835e-002
3.561878e+003, 1.723061e-002
3.563806e+003, 1.800672e-002
3.565735e+003, 1.834460e-002
3.567663e+003, 1.836744e-002
3.569592e+003, 1.827445e-002
3.571520e+003, 1.758243e-002
3.573449e+003, 1.570230e-002
3.575377e+003, 1.751611e-002
3.577306e+003, 1.753083e-002
3.579234e+003, 1.539172e-002
3.581163e+003, 1.493498e-002
3.583091e+003, 1.810824e-002
3.585020e+003, 2.240264e-002
3.586948e+003, 2.149885e-002
3.588876e+003, 1.963444e-002
3.590805e+003, 1.797089e-002
3.592733e+003, 1.650836e-002
3.594662e+003, 1.791610e-002
3.596590e+003, 2.087099e-002
3.598519e+003, 2.021264e-002
3.600447e+003, 1.699346e-002
3.602376e+003, 1.725321e-002
3.604304e+003, 2.123107e-002
3.606233e+003, 2.007163e-002
3.608161e+003, 1.630754e-002
3.610090e+003, 1.618379e-002
3.612018e+003, 1.693290e-002
3.613947e+003, 1.649075e-002
3.615875e+003, 1.781981e-002
3.617803e+003, 1.660757e-002
3.619732e+003, 1.425398e-002
3.621660e+003, 1.469405e-002
3.623589e+003, 1.627815e-002
3.625517e+003, 1.604408e-002
3.627446e+003, 1.871913e-002
3.629374e+003, 2.260015e-002
3.631303e+003, 1.871955e-002
3.633231e+003, 1.776509e-002
3.635160e+003, 1.957409e-002
3.637088e+003, 2.107485e-002
3.639017e+003, 2.054370e-002
3.640945e+003, 1.913554e-002
3.642874e+003, 1.736259e-002
3.644802e+003, 1.282145e-002
3.646730e+003, 1.237101e-002
3.648659e+003, 1.574802e-002
3.650587e+003, 1.611225e-002
3.652516e+003, 1.605426e-002
3.654444e+003, 2.032782e-002
3.656373e+003, 2.262129e-002
3.658301e+003, 2.183041e-002
3.660230e+003, 2.065387e-002
3.662158e+003, 2.129661e-002
3.664087e+003, 2.300191e-002
3.666015e+003, 2.221120e-002
3.667944e+003, 2.022849e-002
3.669872e+003, 2.007904e-002
3.671801e+003, 1.796536e-002
3.673729e+003, 1.496417e-002
3.675657e+003, 1.151398e-002
3.677586e+003, 9.966215e-003
3.679514e+003, 1.182941e-002
3.681443e+003, 1.360309e-002
3.683371e+003, 1.680594e-002
3.685300e+003, 1.618799e-002
3.687228e+003, 1.680539e-002
3.689157e+003, 1.916834e-002
3.691085e+003, 1.978112e-002
3.693014e+003, 1.693278e-002
3.694942e+003, 1.522051e-002
3.696871e+003, 1.689786e-002
3.698799e+003, 2.026101e-002
3.700728e+003, 2.080773e-002
3.702656e+003, 2.061104e-002
3.704584e+003, 1.773218e-002
3.706513e+003, 1.527747e-002
3.708441e+003, 1.508125e-002
3.710370e+003, 2.077016e-002
3.712298e+003, 2.307522e-002
3.714227e+003, 1.990090e-002
3.716155e+003, 1.860246e-002
3.718084e+003, 1.654445e-002
3.720012e+003, 1.530449e-002
3.721941e+003, 1.671163e-002
3.723869e+003, 1.519854e-002
3.725798e+003, 1.497315e-002
3.727726e+003, 1.577058e-002
3.729655e+003, 1.657071e-002
3.731583e+003, 1.733531e-002
3.733511e+003, 1.787751e-002
3.735440e+003, 1.888206e-002
3.737368e+003, 1.823746e-002
3.739297e+003, 1.718043e-002
3.741225e+003, 1.814960e-002
3.743154e+003, 1.802727e-002
3.745082e+003, 1.643004e-002
3.747011e+003, 1.416595e-002
3.748939e+003, 1.570178e-002
3.750868e+003, 1.761183e-002
3.752796e+003, 1.571706e-002
3.754725e+003, 1.315583e-002
3.756653e+003, 1.121891e-002
3.758582e+003, 1.598035e-002
3.760510e+003, 1.937554e-002
3.762438e+003, 2.056568e-002
3.764367e+003, 2.028573e-002
3.766295e+003, 1.832624e-002
3.768224e+003, 1.575154e-002
3.770152e+003, 1.559703e-002
3.772081e+003, 1.516432e-002
3.774009e+003, 1.186930e-002
3.775938e+003, 1.212768e-002
3.777866e+003, 1.462837e-002
3.779795e+003, 1.446715e-002
3.781723e+003, 1.476177e-002
3.783652e+003, 1.439717e-002
3.785580e+003, 1.511769e-002
3.787509e+003, 1.507296e-002
3.789437e+003, 1.738187e-002
3.791365e+003, 1.947846e-002
3.793294e+003, 1.781879e-002
3.795222e+003, 1.769578e-002
3.797151e+003, 1.941460e-002
3.799079e+003, 1.781682e-002
3.801008e+003, 1.691153e-002
3.802936e+003, 1.498990e-002
3.804865e+003, 1.549845e-002
3.806793e+003, 1.830596e-002
3.808722e+003, 2.141890e-002
3.810650e+003, 1.571129e-002
3.812579e+003, 1.196350e-002
3.814507e+003, 1.632036e-002
3.816436e+003, 1.901555e-002
3.818364e+003, 1.768015e-002
3.820292e+003, 1.789929e-002
3.822221e+003, 1.657094e-002
3.824149e+003, 1.480515e-002
3.826078e+003, 1.635937e-002
3.828006e+003, 1.564700e-002
3.829935e+003, 1.265719e-002
3.831863e+003, 1.378555e-002
3.833792e+003, 1.437320e-002
3.835720e+003, 1.413086e-002
3.837649e+003, 1.490296e-002
3.839577e+003, 1.544607e-002
3.841506e+003, 1.675650e-002
3.843434e+003, 1.770278e-002
3.845363e+003, 1.909382e-002
3.847291e+003, 1.762985e-002
3.849219e+003, 1.611986e-002
3.851148e+003, 1.619481e-002
3.853076e+003, 1.548427e-002
3.855005e+003, 1.338680e-002
3.856933e+003, 1.230698e-002
3.858862e+003, 1.297737e-002
3.860790e+003, 1.505104e-002
3.862719e+003, 1.823263e-002
3.864647e+003, 1.650670e-002
3.866576e+003, 1.525575e-002
3.868504e+003, 1.634170e-002
3.870433e+003, 1.743498e-002
3.872361e+003, 1.396372e-002
3.874290e+003, 1.261882e-002
3.876218e+003, 1.537804e-002
3.878146e+003, 1.546804e-002
3.880075e+003, 1.509820e-002
3.882003e+003, 1.472133e-002
3.883932e+003, 1.554241e-002
3.885860e+003, 1.349836e-002
3.887789e+003, 1.264864e-002
3.889717e+003, 1.381683e-002
3.891646e+003, 1.557432e-002
3.893574e+003, 1.524250e-002
3.895503e+003, 1.498138e-002
3.897431e+003, 1.689466e-002
3.899360e+003, 1.785291e-002
3.901288e+003, 1.497416e-002
3.903217e+003, 1.256059e-002
3.905145e+003, 1.341940e-002
3.907073e+003, 1.643678e-002
3.909002e+003, 1.576287e-002
3.910930e+003, 1.734077e-002
3.912859e+003, 1.895392e-002
3.914787e+003, 1.862200e-002
3.916716e+003, 1.615331e-002
3.918644e+003, 1.427176e-002
3.920573e+003, 1.595403e-002
3.922501e+003, 1.486573e-002
3.924430e+003, 1.554240e-002
3.926358e+003, 1.708641e-002
3.928287e+003, 1.649395e-002
3.930215e+003, 1.623568e-002
3.932144e+003, 1.663026e-002
3.934072e+003, 1.450226e-002
3.936000e+003, 1.472587e-002
3.937929e+003, 1.580222e-002
3.939857e+003, 1.538114e-002
3.941786e+003, 1.178718e-002
3.943714e+003, 1.397399e-002
3.945643e+003, 1.935163e-002
3.947571e+003, 1.830049e-002
3.949500e+003, 1.341209e-002
3.951428e+003, 1.243388e-002
3.953357e+003, 1.552610e-002
3.955285e+003, 1.811307e-002
3.957214e+003, 1.735869e-002
3.959142e+003, 1.626644e-002
3.961071e+003, 1.411223e-002
3.962999e+003, 1.435306e-002
3.964927e+003, 1.769619e-002
3.966856e+003, 1.923568e-002
3.968784e+003, 1.729348e-002
3.970713e+003, 1.538571e-002
3.972641e+003, 1.489894e-002
3.974570e+003, 1.298644e-002
3.976498e+003, 1.380524e-002
3.978427e+003, 1.503632e-002
3.980355e+003, 1.251481e-002
3.982284e+003, 1.086112e-002
3.984212e+003, 1.219946e-002
3.986141e+003, 1.356567e-002
3.988069e+003, 1.332773e-002
3.989998e+003, 1.208351e-002
3.991926e+003, 1.302276e-002
3.993854e+003, 1.641641e-002
3.995783e+003, 1.890796e-002
3.997711e+003, 2.005611e-002
3.999640e+003, 1.893264e-002
4.001568e+003, 0.000000e+000
##END=



