##NAMES=Fluorite
##RRUFFID=R040099
##IDEAL CHEMISTRY=CaF_2_
##LOCALITY=Rock Candy mine, Grand Forks, British Columbia, Canada
##OWNER=RRUFF
##SOURCE=Bob Downs
##DESCRIPTION=Pale purple fragment
##STATUS=The identification of this mineral has been confirmed by X-ray diffraction and chemical analysis
##URL=rruff.info/R040099
##MEASURED CHEMISTRY=Ca_0.99_F_2.00_
3.991926e+002, 0.000000e+000
4.011211e+002, 6.515695e-002
4.030496e+002, 6.545275e-002
4.049780e+002, 6.309200e-002
4.069065e+002, 6.249436e-002
4.088350e+002, 6.212205e-002
4.107634e+002, 5.871840e-002
4.126919e+002, 5.682823e-002
4.146204e+002, 5.886048e-002
4.165488e+002, 5.769213e-002
4.184773e+002, 5.530373e-002
4.204058e+002, 5.363205e-002
4.223342e+002, 5.169420e-002
4.242627e+002, 5.052216e-002
4.261912e+002, 4.982943e-002
4.281196e+002, 4.786745e-002
4.300481e+002, 4.623027e-002
4.319766e+002, 4.472722e-002
4.339050e+002, 4.287245e-002
4.358335e+002, 4.182811e-002
4.377620e+002, 4.179788e-002
4.396904e+002, 4.060036e-002
4.416189e+002, 3.954282e-002
4.435474e+002, 3.860661e-002
4.454758e+002, 3.742399e-002
4.474043e+002, 3.573883e-002
4.493328e+002, 3.409126e-002
4.512612e+002, 3.277525e-002
4.531897e+002, 3.186542e-002
4.551182e+002, 2.972301e-002
4.570466e+002, 2.796942e-002
4.589751e+002, 2.785544e-002
4.609036e+002, 2.721346e-002
4.628320e+002, 2.607773e-002
4.647605e+002, 2.506045e-002
4.666890e+002, 2.405180e-002
4.686174e+002, 2.289133e-002
4.705459e+002, 2.158461e-002
4.724744e+002, 1.953190e-002
4.744028e+002, 1.826498e-002
4.763313e+002, 1.795754e-002
4.782598e+002, 1.745398e-002
4.801882e+002, 1.730559e-002
4.821167e+002, 1.661143e-002
4.840452e+002, 1.514905e-002
4.859736e+002, 1.442593e-002
4.879021e+002, 1.389557e-002
4.898306e+002, 1.328084e-002
4.917590e+002, 1.346104e-002
4.936875e+002, 1.365685e-002
4.956160e+002, 1.351783e-002
4.975444e+002, 1.304976e-002
4.994729e+002, 1.256428e-002
5.014014e+002, 1.166063e-002
5.033298e+002, 1.172942e-002
5.052583e+002, 1.251051e-002
5.071868e+002, 1.257630e-002
5.091152e+002, 1.201990e-002
5.110437e+002, 1.162221e-002
5.129722e+002, 1.086044e-002
5.149006e+002, 1.064770e-002
5.168291e+002, 1.082608e-002
5.187576e+002, 1.090778e-002
5.206860e+002, 1.066586e-002
5.226145e+002, 1.035827e-002
5.245430e+002, 1.023687e-002
5.264714e+002, 1.005633e-002
5.283999e+002, 9.945853e-003
5.303284e+002, 9.851930e-003
5.322568e+002, 9.595267e-003
5.341853e+002, 9.814654e-003
5.361138e+002, 9.677508e-003
5.380422e+002, 9.820275e-003
5.399707e+002, 1.002072e-002
5.418992e+002, 9.406055e-003
5.438276e+002, 9.324660e-003
5.457561e+002, 9.924265e-003
5.476846e+002, 1.027872e-002
5.496130e+002, 9.923852e-003
5.515415e+002, 9.631901e-003
5.534700e+002, 9.477404e-003
5.553984e+002, 9.665601e-003
5.573269e+002, 1.007025e-002
5.592554e+002, 9.922753e-003
5.611838e+002, 9.392501e-003
5.631123e+002, 9.510959e-003
5.650408e+002, 9.587420e-003
5.669692e+002, 9.309301e-003
5.688977e+002, 9.274289e-003
5.708262e+002, 9.043776e-003
5.727546e+002, 9.058790e-003
5.746831e+002, 9.096293e-003
5.766116e+002, 8.892136e-003
5.785400e+002, 8.681069e-003
5.804685e+002, 8.655231e-003
5.823970e+002, 8.253143e-003
5.843254e+002, 7.802970e-003
5.862539e+002, 7.786669e-003
5.881824e+002, 7.219341e-003
5.901108e+002, 6.748809e-003
5.920393e+002, 6.400359e-003
5.939678e+002, 5.912941e-003
5.958962e+002, 5.983469e-003
5.978247e+002, 6.182496e-003
5.997532e+002, 6.039649e-003
6.016816e+002, 5.945393e-003
6.036101e+002, 5.655054e-003
6.055386e+002, 5.410965e-003
6.074670e+002, 5.398994e-003
6.093955e+002, 5.373012e-003
6.113240e+002, 5.267535e-003
6.132524e+002, 5.164574e-003
6.151809e+002, 5.074605e-003
6.171094e+002, 4.733218e-003
6.190378e+002, 4.456612e-003
6.209663e+002, 4.472347e-003
6.228948e+002, 4.696045e-003
6.248232e+002, 4.916104e-003
6.267517e+002, 4.892084e-003
6.286802e+002, 4.848682e-003
6.306086e+002, 4.894322e-003
6.325371e+002, 4.697211e-003
6.344656e+002, 4.258036e-003
6.363940e+002, 4.192301e-003
6.383225e+002, 4.019846e-003
6.402510e+002, 3.712830e-003
6.421794e+002, 3.594776e-003
6.441079e+002, 3.518449e-003
6.460364e+002, 3.648870e-003
6.479648e+002, 3.699624e-003
6.498933e+002, 3.794506e-003
6.518218e+002, 3.561939e-003
6.537502e+002, 3.337739e-003
6.556787e+002, 3.347528e-003
6.576072e+002, 3.272890e-003
6.595356e+002, 3.116691e-003
6.614641e+002, 2.995695e-003
6.633926e+002, 2.948737e-003
6.653210e+002, 3.094411e-003
6.672495e+002, 3.053538e-003
6.691780e+002, 2.838832e-003
6.711064e+002, 2.701978e-003
6.730349e+002, 2.774560e-003
6.749634e+002, 2.806633e-003
6.768918e+002, 2.787264e-003
6.788203e+002, 2.825280e-003
6.807488e+002, 2.908318e-003
6.826772e+002, 2.880270e-003
6.846057e+002, 2.806929e-003
6.865342e+002, 2.622587e-003
6.884626e+002, 2.575888e-003
6.903911e+002, 2.684238e-003
6.923196e+002, 2.757371e-003
6.942480e+002, 2.694494e-003
6.961765e+002, 2.649462e-003
6.981050e+002, 2.692912e-003
7.000334e+002, 2.661820e-003
7.019619e+002, 2.514225e-003
7.038904e+002, 2.599624e-003
7.058188e+002, 2.573265e-003
7.077473e+002, 2.484591e-003
7.096758e+002, 2.566004e-003
7.116042e+002, 2.486740e-003
7.135327e+002, 2.405055e-003
7.154612e+002, 2.440975e-003
7.173896e+002, 2.553810e-003
7.193181e+002, 2.472506e-003
7.212466e+002, 2.438366e-003
7.231750e+002, 2.537447e-003
7.251035e+002, 2.643713e-003
7.270320e+002, 2.457077e-003
7.289604e+002, 2.466331e-003
7.308889e+002, 2.353537e-003
7.328174e+002, 2.093939e-003
7.347458e+002, 2.249201e-003
7.366743e+002, 2.396661e-003
7.386028e+002, 2.081651e-003
7.405313e+002, 2.092134e-003
7.424597e+002, 2.312616e-003
7.443882e+002, 2.451888e-003
7.463167e+002, 2.344598e-003
7.482451e+002, 2.151744e-003
7.501736e+002, 2.085846e-003
7.521021e+002, 2.250591e-003
7.540305e+002, 2.310915e-003
7.559590e+002, 2.300261e-003
7.578875e+002, 2.114607e-003
7.598159e+002, 1.918822e-003
7.617444e+002, 1.911718e-003
7.636729e+002, 1.942985e-003
7.656013e+002, 1.895492e-003
7.675298e+002, 1.836186e-003
7.694583e+002, 1.877086e-003
7.713867e+002, 1.848489e-003
7.733152e+002, 1.853582e-003
7.752437e+002, 1.985161e-003
7.771721e+002, 1.992776e-003
7.791006e+002, 1.968698e-003
7.810291e+002, 1.891674e-003
7.829575e+002, 1.648427e-003
7.848860e+002, 1.681164e-003
7.868145e+002, 1.850216e-003
7.887429e+002, 1.779985e-003
7.906714e+002, 1.614791e-003
7.925999e+002, 1.515215e-003
7.945283e+002, 1.407870e-003
7.964568e+002, 1.470603e-003
7.983853e+002, 1.485755e-003
8.003137e+002, 1.515053e-003
8.022422e+002, 1.668999e-003
8.041707e+002, 1.734737e-003
8.060991e+002, 1.612259e-003
8.080276e+002, 1.505783e-003
8.099561e+002, 1.391622e-003
8.118845e+002, 1.325999e-003
8.138130e+002, 1.298951e-003
8.157415e+002, 1.192482e-003
8.176699e+002, 1.104662e-003
8.195984e+002, 1.061104e-003
8.215269e+002, 1.164285e-003
8.234553e+002, 1.450429e-003
8.253838e+002, 1.301383e-003
8.273123e+002, 1.103044e-003
8.292407e+002, 1.167999e-003
8.311692e+002, 1.278716e-003
8.330977e+002, 1.332970e-003
8.350261e+002, 1.268617e-003
8.369546e+002, 1.018760e-003
8.388831e+002, 9.601880e-004
8.408115e+002, 1.006959e-003
8.427400e+002, 1.140259e-003
8.446685e+002, 1.307122e-003
8.465969e+002, 1.232452e-003
8.485254e+002, 1.131611e-003
8.504539e+002, 1.147674e-003
8.523823e+002, 1.114107e-003
8.543108e+002, 1.095030e-003
8.562393e+002, 1.425622e-003
8.581677e+002, 1.618249e-003
8.600962e+002, 1.353881e-003
8.620247e+002, 1.134741e-003
8.639531e+002, 1.146763e-003
8.658816e+002, 1.204473e-003
8.678101e+002, 1.167501e-003
8.697385e+002, 1.089836e-003
8.716670e+002, 1.254153e-003
8.735955e+002, 1.557435e-003
8.755239e+002, 1.559103e-003
8.774524e+002, 1.511927e-003
8.793809e+002, 1.549573e-003
8.813093e+002, 1.573563e-003
8.832378e+002, 1.589150e-003
8.851663e+002, 1.500662e-003
8.870947e+002, 1.316343e-003
8.890232e+002, 1.374518e-003
8.909517e+002, 1.622001e-003
8.928801e+002, 1.618448e-003
8.948085e+002, 1.592060e-003
8.967370e+002, 1.772846e-003
8.986655e+002, 1.679313e-003
9.005939e+002, 1.561478e-003
9.025224e+002, 1.606864e-003
9.044509e+002, 1.750647e-003
9.063793e+002, 1.668060e-003
9.083078e+002, 1.605794e-003
9.102363e+002, 1.400919e-003
9.121647e+002, 1.351060e-003
9.140932e+002, 1.414347e-003
9.160217e+002, 1.290492e-003
9.179501e+002, 1.331940e-003
9.198786e+002, 1.392242e-003
9.218071e+002, 1.465731e-003
9.237355e+002, 1.580915e-003
9.256640e+002, 1.600913e-003
9.275925e+002, 1.678382e-003
9.295209e+002, 1.707827e-003
9.314494e+002, 1.693897e-003
9.333779e+002, 1.711884e-003
9.353063e+002, 1.607325e-003
9.372348e+002, 1.628168e-003
9.391633e+002, 1.545116e-003
9.410917e+002, 1.657675e-003
9.430202e+002, 1.808245e-003
9.449487e+002, 1.929553e-003
9.468771e+002, 2.014422e-003
9.488056e+002, 2.080963e-003
9.507341e+002, 2.184944e-003
9.526625e+002, 2.155811e-003
9.545910e+002, 2.064967e-003
9.565195e+002, 2.316484e-003
9.584479e+002, 2.664955e-003
9.603764e+002, 2.750908e-003
9.623049e+002, 2.942638e-003
9.642333e+002, 3.256246e-003
9.661618e+002, 3.490635e-003
9.680903e+002, 3.564795e-003
9.700187e+002, 3.648051e-003
9.719472e+002, 3.777081e-003
9.738757e+002, 3.822416e-003
9.758041e+002, 3.931602e-003
9.777326e+002, 4.127271e-003
9.796611e+002, 4.437405e-003
9.815895e+002, 4.662552e-003
9.835180e+002, 4.798845e-003
9.854465e+002, 5.052751e-003
9.873749e+002, 5.260259e-003
9.893034e+002, 5.283813e-003
9.912319e+002, 5.232079e-003
9.931603e+002, 5.203228e-003
9.950888e+002, 5.162715e-003
9.970173e+002, 5.162231e-003
9.989457e+002, 5.225886e-003
1.000874e+003, 5.467137e-003
1.002803e+003, 5.603368e-003
1.004731e+003, 5.445000e-003
1.006660e+003, 5.287332e-003
1.008588e+003, 5.216531e-003
1.010517e+003, 5.027286e-003
1.012445e+003, 4.846496e-003
1.014373e+003, 4.872215e-003
1.016302e+003, 4.714066e-003
1.018230e+003, 4.553229e-003
1.020159e+003, 4.488029e-003
1.022087e+003, 4.301833e-003
1.024016e+003, 4.163279e-003
1.025944e+003, 4.127549e-003
1.027873e+003, 4.100631e-003
1.029801e+003, 4.108331e-003
1.031730e+003, 4.138043e-003
1.033658e+003, 4.407914e-003
1.035587e+003, 4.660264e-003
1.037515e+003, 4.900657e-003
1.039444e+003, 5.280245e-003
1.041372e+003, 5.649039e-003
1.043301e+003, 5.853432e-003
1.045229e+003, 5.923904e-003
1.047157e+003, 5.885171e-003
1.049086e+003, 5.882494e-003
1.051014e+003, 6.056675e-003
1.052943e+003, 6.254928e-003
1.054871e+003, 6.312245e-003
1.056800e+003, 6.562994e-003
1.058728e+003, 6.716378e-003
1.060657e+003, 6.790565e-003
1.062585e+003, 6.968558e-003
1.064514e+003, 7.001339e-003
1.066442e+003, 6.837485e-003
1.068371e+003, 6.676401e-003
1.070299e+003, 6.466135e-003
1.072228e+003, 6.418534e-003
1.074156e+003, 6.319967e-003
1.076084e+003, 6.158377e-003
1.078013e+003, 6.000502e-003
1.079941e+003, 5.812990e-003
1.081870e+003, 5.603015e-003
1.083798e+003, 5.554503e-003
1.085727e+003, 5.509830e-003
1.087655e+003, 5.515976e-003
1.089584e+003, 5.631994e-003
1.091512e+003, 5.474335e-003
1.093441e+003, 5.460447e-003
1.095369e+003, 5.632607e-003
1.097298e+003, 5.550450e-003
1.099226e+003, 5.586005e-003
1.101155e+003, 5.469652e-003
1.103083e+003, 5.176066e-003
1.105011e+003, 5.011386e-003
1.106940e+003, 4.960767e-003
1.108868e+003, 5.105302e-003
1.110797e+003, 4.879787e-003
1.112725e+003, 4.440911e-003
1.114654e+003, 4.204568e-003
1.116582e+003, 4.134378e-003
1.118511e+003, 3.901728e-003
1.120439e+003, 3.730953e-003
1.122368e+003, 3.713584e-003
1.124296e+003, 3.558174e-003
1.126225e+003, 3.379227e-003
1.128153e+003, 3.291682e-003
1.130082e+003, 3.108717e-003
1.132010e+003, 2.920690e-003
1.133938e+003, 2.964300e-003
1.135867e+003, 3.028721e-003
1.137795e+003, 3.051014e-003
1.139724e+003, 2.979670e-003
1.141652e+003, 2.826353e-003
1.143581e+003, 2.625963e-003
1.145509e+003, 2.796101e-003
1.147438e+003, 2.947232e-003
1.149366e+003, 2.686281e-003
1.151295e+003, 2.598218e-003
1.153223e+003, 2.666418e-003
1.155152e+003, 2.713750e-003
1.157080e+003, 2.613605e-003
1.159009e+003, 2.501090e-003
1.160937e+003, 2.643595e-003
1.162865e+003, 2.714229e-003
1.164794e+003, 2.565684e-003
1.166722e+003, 2.564770e-003
1.168651e+003, 2.637322e-003
1.170579e+003, 2.479241e-003
1.172508e+003, 2.392025e-003
1.174436e+003, 2.329152e-003
1.176365e+003, 2.391720e-003
1.178293e+003, 2.437697e-003
1.180222e+003, 2.428294e-003
1.182150e+003, 2.472490e-003
1.184079e+003, 2.452521e-003
1.186007e+003, 2.398600e-003
1.187936e+003, 2.280365e-003
1.189864e+003, 2.287597e-003
1.191792e+003, 2.344463e-003
1.193721e+003, 2.267611e-003
1.195649e+003, 2.244940e-003
1.197578e+003, 2.302649e-003
1.199506e+003, 2.329597e-003
1.201435e+003, 2.333427e-003
1.203363e+003, 2.287597e-003
1.205292e+003, 2.180052e-003
1.207220e+003, 2.242072e-003
1.209149e+003, 2.305412e-003
1.211077e+003, 2.244813e-003
1.213006e+003, 2.071104e-003
1.214934e+003, 2.058883e-003
1.216863e+003, 2.048719e-003
1.218791e+003, 2.014269e-003
1.220719e+003, 2.010844e-003
1.222648e+003, 2.035538e-003
1.224576e+003, 2.111912e-003
1.226505e+003, 2.137522e-003
1.228433e+003, 2.024471e-003
1.230362e+003, 1.858960e-003
1.232290e+003, 1.894945e-003
1.234219e+003, 1.950983e-003
1.236147e+003, 2.009864e-003
1.238076e+003, 2.036393e-003
1.240004e+003, 2.004887e-003
1.241933e+003, 2.009621e-003
1.243861e+003, 2.026068e-003
1.245790e+003, 2.250627e-003
1.247718e+003, 2.375186e-003
1.249646e+003, 2.225278e-003
1.251575e+003, 2.065653e-003
1.253503e+003, 1.912200e-003
1.255432e+003, 1.885461e-003
1.257360e+003, 2.031303e-003
1.259289e+003, 1.984941e-003
1.261217e+003, 1.817369e-003
1.263146e+003, 1.897738e-003
1.265074e+003, 2.024833e-003
1.267003e+003, 2.156808e-003
1.268931e+003, 2.238351e-003
1.270860e+003, 2.104695e-003
1.272788e+003, 1.906816e-003
1.274717e+003, 1.848486e-003
1.276645e+003, 1.965534e-003
1.278573e+003, 2.177549e-003
1.280502e+003, 2.155145e-003
1.282430e+003, 2.009877e-003
1.284359e+003, 2.014409e-003
1.286287e+003, 2.036457e-003
1.288216e+003, 2.004222e-003
1.290144e+003, 1.947648e-003
1.292073e+003, 1.923052e-003
1.294001e+003, 1.878727e-003
1.295930e+003, 2.084292e-003
1.297858e+003, 2.207142e-003
1.299787e+003, 2.241021e-003
1.301715e+003, 2.244937e-003
1.303644e+003, 2.162226e-003
1.305572e+003, 2.123268e-003
1.307500e+003, 2.379108e-003
1.309429e+003, 2.473684e-003
1.311357e+003, 2.419626e-003
1.313286e+003, 2.475073e-003
1.315214e+003, 2.507865e-003
1.317143e+003, 2.391626e-003
1.319071e+003, 2.324932e-003
1.321000e+003, 2.290047e-003
1.322928e+003, 2.294459e-003
1.324857e+003, 2.294964e-003
1.326785e+003, 2.241900e-003
1.328714e+003, 2.322246e-003
1.330642e+003, 2.476137e-003
1.332571e+003, 2.479846e-003
1.334499e+003, 2.433244e-003
1.336427e+003, 2.385947e-003
1.338356e+003, 2.286402e-003
1.340284e+003, 2.267770e-003
1.342213e+003, 2.368305e-003
1.344141e+003, 2.512665e-003
1.346070e+003, 2.572746e-003
1.347998e+003, 2.776620e-003
1.349927e+003, 2.896540e-003
1.351855e+003, 2.773083e-003
1.353784e+003, 2.615047e-003
1.355712e+003, 2.582018e-003
1.357641e+003, 2.542794e-003
1.359569e+003, 2.395754e-003
1.361498e+003, 2.641684e-003
1.363426e+003, 2.967256e-003
1.365354e+003, 2.820548e-003
1.367283e+003, 2.750135e-003
1.369211e+003, 2.817600e-003
1.371140e+003, 2.828709e-003
1.373068e+003, 2.859444e-003
1.374997e+003, 2.910688e-003
1.376925e+003, 3.075653e-003
1.378854e+003, 3.009855e-003
1.380782e+003, 2.776898e-003
1.382711e+003, 2.905047e-003
1.384639e+003, 2.983074e-003
1.386568e+003, 2.713069e-003
1.388496e+003, 2.626762e-003
1.390424e+003, 2.730287e-003
1.392353e+003, 2.926835e-003
1.394281e+003, 2.898387e-003
1.396210e+003, 2.794550e-003
1.398138e+003, 2.736977e-003
1.400067e+003, 2.747007e-003
1.401995e+003, 2.773854e-003
1.403924e+003, 2.785783e-003
1.405852e+003, 3.018631e-003
1.407781e+003, 3.265853e-003
1.409709e+003, 3.136872e-003
1.411638e+003, 2.939506e-003
1.413566e+003, 3.004280e-003
1.415495e+003, 3.169671e-003
1.417423e+003, 3.307417e-003
1.419351e+003, 3.329504e-003
1.421280e+003, 3.319334e-003
1.423208e+003, 3.216409e-003
1.425137e+003, 3.064126e-003
1.427065e+003, 3.139612e-003
1.428994e+003, 3.351270e-003
1.430922e+003, 3.518244e-003
1.432851e+003, 3.505914e-003
1.434779e+003, 3.376986e-003
1.436708e+003, 3.260308e-003
1.438636e+003, 3.324597e-003
1.440565e+003, 3.373676e-003
1.442493e+003, 3.497086e-003
1.444422e+003, 3.538387e-003
1.446350e+003, 3.644865e-003
1.448278e+003, 3.836925e-003
1.450207e+003, 3.854684e-003
1.452135e+003, 3.781399e-003
1.454064e+003, 3.609094e-003
1.455992e+003, 3.614744e-003
1.457921e+003, 3.849725e-003
1.459849e+003, 3.763049e-003
1.461778e+003, 3.682837e-003
1.463706e+003, 3.445024e-003
1.465635e+003, 3.447279e-003
1.467563e+003, 3.452253e-003
1.469492e+003, 3.463254e-003
1.471420e+003, 3.380828e-003
1.473349e+003, 3.450874e-003
1.475277e+003, 3.266410e-003
1.477205e+003, 2.975661e-003
1.479134e+003, 2.889752e-003
1.481062e+003, 3.215894e-003
1.482991e+003, 3.118149e-003
1.484919e+003, 2.779832e-003
1.486848e+003, 2.583165e-003
1.488776e+003, 2.696651e-003
1.490705e+003, 2.709841e-003
1.492633e+003, 2.595219e-003
1.494562e+003, 2.632576e-003
1.496490e+003, 2.735363e-003
1.498419e+003, 2.697486e-003
1.500347e+003, 2.763306e-003
1.502276e+003, 2.851365e-003
1.504204e+003, 2.980261e-003
1.506132e+003, 3.096230e-003
1.508061e+003, 3.158454e-003
1.509989e+003, 2.995286e-003
1.511918e+003, 2.917551e-003
1.513846e+003, 2.931295e-003
1.515775e+003, 2.785172e-003
1.517703e+003, 2.821712e-003
1.519632e+003, 2.886609e-003
1.521560e+003, 3.195224e-003
1.523489e+003, 3.172030e-003
1.525417e+003, 3.261780e-003
1.527346e+003, 3.290770e-003
1.529274e+003, 3.021812e-003
1.531203e+003, 2.968088e-003
1.533131e+003, 3.212627e-003
1.535059e+003, 3.459332e-003
1.536988e+003, 3.457146e-003
1.538916e+003, 3.598490e-003
1.540845e+003, 3.874609e-003
1.542773e+003, 4.146657e-003
1.544702e+003, 4.235590e-003
1.546630e+003, 4.427443e-003
1.548559e+003, 4.661987e-003
1.550487e+003, 4.901450e-003
1.552416e+003, 4.865194e-003
1.554344e+003, 5.232658e-003
1.556273e+003, 5.609592e-003
1.558201e+003, 5.810696e-003
1.560130e+003, 6.053252e-003
1.562058e+003, 6.138538e-003
1.563986e+003, 6.004118e-003
1.565915e+003, 6.081731e-003
1.567843e+003, 5.855379e-003
1.569772e+003, 5.728322e-003
1.571700e+003, 5.807554e-003
1.573629e+003, 5.997065e-003
1.575557e+003, 5.768110e-003
1.577486e+003, 5.737429e-003
1.579414e+003, 5.685008e-003
1.581343e+003, 5.651250e-003
1.583271e+003, 5.730052e-003
1.585200e+003, 5.984904e-003
1.587128e+003, 6.083843e-003
1.589057e+003, 5.865353e-003
1.590985e+003, 5.774476e-003
1.592913e+003, 5.811735e-003
1.594842e+003, 5.971487e-003
1.596770e+003, 6.250729e-003
1.598699e+003, 6.135603e-003
1.600627e+003, 5.895682e-003
1.602556e+003, 5.851612e-003
1.604484e+003, 5.496666e-003
1.606413e+003, 5.307888e-003
1.608341e+003, 5.309288e-003
1.610270e+003, 5.114906e-003
1.612198e+003, 4.904561e-003
1.614127e+003, 4.830123e-003
1.616055e+003, 4.774739e-003
1.617984e+003, 4.709168e-003
1.619912e+003, 4.583818e-003
1.621840e+003, 4.778107e-003
1.623769e+003, 4.947774e-003
1.625697e+003, 4.710509e-003
1.627626e+003, 4.542026e-003
1.629554e+003, 4.408449e-003
1.631483e+003, 4.225085e-003
1.633411e+003, 4.019802e-003
1.635340e+003, 3.704907e-003
1.637268e+003, 3.748997e-003
1.639197e+003, 4.043862e-003
1.641125e+003, 4.160109e-003
1.643054e+003, 4.065002e-003
1.644982e+003, 3.900191e-003
1.646911e+003, 3.853400e-003
1.648839e+003, 3.652650e-003
1.650767e+003, 3.417410e-003
1.652696e+003, 3.643689e-003
1.654624e+003, 3.911197e-003
1.656553e+003, 3.718568e-003
1.658481e+003, 3.733010e-003
1.660410e+003, 3.839411e-003
1.662338e+003, 3.660443e-003
1.664267e+003, 3.492676e-003
1.666195e+003, 3.394662e-003
1.668124e+003, 3.485090e-003
1.670052e+003, 3.734938e-003
1.671981e+003, 3.810363e-003
1.673909e+003, 3.586577e-003
1.675838e+003, 3.538903e-003
1.677766e+003, 3.509987e-003
1.679694e+003, 3.353171e-003
1.681623e+003, 3.126055e-003
1.683551e+003, 3.287111e-003
1.685480e+003, 3.478962e-003
1.687408e+003, 3.323828e-003
1.689337e+003, 3.724572e-003
1.691265e+003, 3.818768e-003
1.693194e+003, 3.556155e-003
1.695122e+003, 3.111860e-003
1.697051e+003, 3.006011e-003
1.698979e+003, 3.075900e-003
1.700908e+003, 3.700403e-003
1.702836e+003, 3.525164e-003
1.704765e+003, 3.662965e-003
1.706693e+003, 3.311152e-003
1.708621e+003, 2.999658e-003
1.710550e+003, 3.255363e-003
1.712478e+003, 3.354505e-003
1.714407e+003, 3.374019e-003
1.716335e+003, 3.335714e-003
1.718264e+003, 3.177738e-003
1.720192e+003, 3.241674e-003
1.722121e+003, 3.481045e-003
1.724049e+003, 3.516946e-003
1.725978e+003, 3.608040e-003
1.727906e+003, 3.848653e-003
1.729835e+003, 3.835933e-003
1.731763e+003, 3.560253e-003
1.733692e+003, 3.582206e-003
1.735620e+003, 3.737075e-003
1.737548e+003, 3.294913e-003
1.739477e+003, 3.040118e-003
1.741405e+003, 3.002023e-003
1.743334e+003, 3.195038e-003
1.745262e+003, 3.243798e-003
1.747191e+003, 3.366747e-003
1.749119e+003, 3.537228e-003
1.751048e+003, 3.529749e-003
1.752976e+003, 3.184032e-003
1.754905e+003, 3.360542e-003
1.756833e+003, 3.735739e-003
1.758762e+003, 3.465861e-003
1.760690e+003, 2.980042e-003
1.762619e+003, 2.869164e-003
1.764547e+003, 2.797303e-003
1.766475e+003, 2.741464e-003
1.768404e+003, 2.982234e-003
1.770332e+003, 2.898772e-003
1.772261e+003, 2.812058e-003
1.774189e+003, 2.693258e-003
1.776118e+003, 2.373712e-003
1.778046e+003, 2.317160e-003
1.779975e+003, 2.625335e-003
1.781903e+003, 2.797109e-003
1.783832e+003, 2.917981e-003
1.785760e+003, 2.804754e-003
1.787689e+003, 2.590169e-003
1.789617e+003, 2.757551e-003
1.791546e+003, 2.941116e-003
1.793474e+003, 2.905584e-003
1.795402e+003, 2.834429e-003
1.797331e+003, 3.367936e-003
1.799259e+003, 3.358649e-003
1.801188e+003, 3.144089e-003
1.803116e+003, 3.198006e-003
1.805045e+003, 3.053157e-003
1.806973e+003, 2.763822e-003
1.808902e+003, 2.698334e-003
1.810830e+003, 2.740311e-003
1.812759e+003, 2.846241e-003
1.814687e+003, 2.469380e-003
1.816616e+003, 2.416324e-003
1.818544e+003, 2.845370e-003
1.820473e+003, 2.935360e-003
1.822401e+003, 3.110353e-003
1.824329e+003, 3.159055e-003
1.826258e+003, 3.052308e-003
1.828186e+003, 3.205399e-003
1.830115e+003, 3.462833e-003
1.832043e+003, 3.383437e-003
1.833972e+003, 2.907874e-003
1.835900e+003, 2.938404e-003
1.837829e+003, 3.256623e-003
1.839757e+003, 3.686410e-003
1.841686e+003, 3.761177e-003
1.843614e+003, 2.894148e-003
1.845543e+003, 2.445378e-003
1.847471e+003, 2.858969e-003
1.849400e+003, 3.306371e-003
1.851328e+003, 3.133101e-003
1.853256e+003, 3.147761e-003
1.855185e+003, 3.198997e-003
1.857113e+003, 3.247293e-003
1.859042e+003, 3.552630e-003
1.860970e+003, 3.272151e-003
1.862899e+003, 2.912181e-003
1.864827e+003, 3.046113e-003
1.866756e+003, 3.097017e-003
1.868684e+003, 2.839073e-003
1.870613e+003, 3.415290e-003
1.872541e+003, 3.601718e-003
1.874470e+003, 3.527688e-003
1.876398e+003, 3.662543e-003
1.878327e+003, 3.700010e-003
1.880255e+003, 3.463274e-003
1.882183e+003, 2.827988e-003
1.884112e+003, 2.959761e-003
1.886040e+003, 3.311057e-003
1.887969e+003, 3.564648e-003
1.889897e+003, 3.841329e-003
1.891826e+003, 3.912112e-003
1.893754e+003, 3.590656e-003
1.895683e+003, 3.218597e-003
1.897611e+003, 3.352971e-003
1.899540e+003, 3.388029e-003
1.901468e+003, 3.245658e-003
1.903397e+003, 3.299893e-003
1.905325e+003, 3.471310e-003
1.907254e+003, 3.171093e-003
1.909182e+003, 3.130404e-003
1.911110e+003, 3.142954e-003
1.913039e+003, 3.346639e-003
1.914967e+003, 3.383421e-003
1.916896e+003, 3.107087e-003
1.918824e+003, 3.318803e-003
1.920753e+003, 3.884680e-003
1.922681e+003, 2.876915e-003
1.924610e+003, 2.711867e-003
1.926538e+003, 2.858797e-003
1.928467e+003, 2.908319e-003
1.930395e+003, 2.711603e-003
1.932324e+003, 2.983098e-003
1.934252e+003, 4.179853e-003
1.936181e+003, 4.283888e-003
1.938109e+003, 3.222000e-003
1.940037e+003, 3.077235e-003
1.941966e+003, 3.895813e-003
1.943894e+003, 3.546686e-003
1.945823e+003, 3.051084e-003
1.947751e+003, 2.741317e-003
1.949680e+003, 3.263805e-003
1.951608e+003, 4.418360e-003
1.953537e+003, 4.586001e-003
1.955465e+003, 4.263296e-003
1.957394e+003, 2.881436e-003
1.959322e+003, 2.562725e-003
1.961251e+003, 2.450956e-003
1.963179e+003, 2.755940e-003
1.965108e+003, 3.873083e-003
1.967036e+003, 3.676603e-003
1.968964e+003, 3.690974e-003
1.970893e+003, 3.610380e-003
1.972821e+003, 3.844472e-003
1.974750e+003, 5.221009e-003
1.976678e+003, 6.039873e-003
1.978607e+003, 7.250126e-003
1.980535e+003, 7.483042e-003
1.982464e+003, 6.992393e-003
1.984392e+003, 7.006106e-003
1.986321e+003, 6.377993e-003
1.988249e+003, 3.889176e-003
1.990178e+003, 1.387918e-003
1.992106e+003, 2.589291e-003
1.994035e+003, 5.386207e-003
1.995963e+003, 5.982131e-003
1.997891e+003, 5.276130e-003
1.999820e+003, 3.382951e-003
2.001748e+003, 2.805707e-003
2.003677e+003, 3.593498e-003
2.005605e+003, 4.842447e-003
2.007534e+003, 5.774150e-003
2.009462e+003, 5.493778e-003
2.011391e+003, 4.489748e-003
2.013319e+003, 4.847723e-003
2.015248e+003, 5.734995e-003
2.017176e+003, 6.261810e-003
2.019105e+003, 5.267331e-003
2.021033e+003, 3.586248e-003
2.022962e+003, 3.514275e-003
2.024890e+003, 5.294887e-003
2.026818e+003, 3.744591e-003
2.028747e+003, 2.097954e-003
2.030675e+003, 4.477414e-003
2.032604e+003, 6.466693e-003
2.034532e+003, 6.204699e-003
2.036461e+003, 6.078247e-003
2.038389e+003, 6.378974e-003
2.040318e+003, 4.901321e-003
2.042246e+003, 3.584380e-003
2.044175e+003, 3.392404e-003
2.046103e+003, 3.533366e-003
2.048032e+003, 4.346090e-003
2.049960e+003, 5.069992e-003
2.051889e+003, 4.222259e-003
2.053817e+003, 3.625754e-003
2.055746e+003, 4.723399e-003
2.057674e+003, 5.875272e-003
2.059603e+003, 5.231487e-003
2.061531e+003, 4.871216e-003
2.063459e+003, 4.789174e-003
2.065388e+003, 5.056458e-003
2.067316e+003, 5.427283e-003
2.069245e+003, 5.485466e-003
2.071173e+003, 4.322722e-003
2.073102e+003, 3.046484e-003
2.075030e+003, 3.501023e-003
2.076959e+003, 4.186414e-003
2.078887e+003, 3.994618e-003
2.080816e+003, 3.727660e-003
2.082744e+003, 3.698685e-003
2.084673e+003, 4.445018e-003
2.086601e+003, 5.516731e-003
2.088530e+003, 5.350293e-003
2.090458e+003, 4.391718e-003
2.092386e+003, 3.718803e-003
2.094315e+003, 3.854350e-003
2.096243e+003, 4.230940e-003
2.098172e+003, 5.041759e-003
2.100100e+003, 4.772148e-003
2.102029e+003, 4.226803e-003
2.103957e+003, 4.110997e-003
2.105886e+003, 3.818327e-003
2.107814e+003, 4.492680e-003
2.109743e+003, 5.388466e-003
2.111671e+003, 5.212458e-003
2.113600e+003, 4.552587e-003
2.115528e+003, 3.812583e-003
2.117457e+003, 4.334026e-003
2.119385e+003, 5.064278e-003
2.121313e+003, 4.543350e-003
2.123242e+003, 3.010764e-003
2.125170e+003, 1.517795e-003
2.127099e+003, 1.364793e-003
2.129027e+003, 1.339679e-003
2.130956e+003, 1.057532e-003
2.132884e+003, 1.495840e-003
2.134813e+003, 1.598088e-003
2.136741e+003, 1.381475e-003
2.138670e+003, 1.475340e-003
2.140598e+003, 2.718988e-003
2.142527e+003, 4.027496e-003
2.144455e+003, 3.810494e-003
2.146384e+003, 3.324461e-003
2.148312e+003, 3.149446e-003
2.150240e+003, 2.193264e-003
2.152169e+003, 2.161423e-003
2.154097e+003, 8.092420e-004
2.156026e+003, -8.073205e-004
2.157954e+003, 1.804237e-003
2.159883e+003, 6.798361e-003
2.161811e+003, 7.081026e-003
2.163740e+003, 4.412700e-003
2.165668e+003, 4.212193e-003
2.167597e+003, 3.667162e-003
2.169525e+003, 4.965393e-003
2.171454e+003, 6.552471e-003
2.173382e+003, 5.388693e-003
2.175311e+003, 4.174478e-003
2.177239e+003, 4.876520e-003
2.179167e+003, 5.565643e-003
2.181096e+003, 5.524046e-003
2.183024e+003, 5.307342e-003
2.184953e+003, 4.729277e-003
2.186881e+003, 5.803233e-003
2.188810e+003, 6.593234e-003
2.190738e+003, 6.120475e-003
2.192667e+003, 5.079274e-003
2.194595e+003, 5.598539e-003
2.196524e+003, 5.801435e-003
2.198452e+003, 5.800738e-003
2.200381e+003, 5.321681e-003
2.202309e+003, 5.531270e-003
2.204238e+003, 6.519440e-003
2.206166e+003, 6.174296e-003
2.208094e+003, 5.604526e-003
2.210023e+003, 5.348723e-003
2.211951e+003, 4.796865e-003
2.213880e+003, 4.545728e-003
2.215808e+003, 5.588528e-003
2.217737e+003, 4.842889e-003
2.219665e+003, 4.040923e-003
2.221594e+003, 4.804844e-003
2.223522e+003, 4.603562e-003
2.225451e+003, 4.908493e-003
2.227379e+003, 5.365872e-003
2.229308e+003, 5.795850e-003
2.231236e+003, 5.859561e-003
2.233165e+003, 5.157682e-003
2.235093e+003, 4.516541e-003
2.237021e+003, 6.058302e-003
2.238950e+003, 5.452122e-003
2.240878e+003, 4.147069e-003
2.242807e+003, 4.279407e-003
2.244735e+003, 4.617173e-003
2.246664e+003, 5.273817e-003
2.248592e+003, 5.041328e-003
2.250521e+003, 4.708076e-003
2.252449e+003, 4.896128e-003
2.254378e+003, 5.827861e-003
2.256306e+003, 5.571015e-003
2.258235e+003, 4.442515e-003
2.260163e+003, 4.685851e-003
2.262092e+003, 5.063292e-003
2.264020e+003, 5.438864e-003
2.265948e+003, 5.748910e-003
2.267877e+003, 5.798493e-003
2.269805e+003, 5.739684e-003
2.271734e+003, 5.702852e-003
2.273662e+003, 5.236722e-003
2.275591e+003, 5.317712e-003
2.277519e+003, 6.509427e-003
2.279448e+003, 6.628203e-003
2.281376e+003, 6.503288e-003
2.283305e+003, 7.081991e-003
2.285233e+003, 6.383499e-003
2.287162e+003, 5.299700e-003
2.289090e+003, 5.298962e-003
2.291019e+003, 5.454798e-003
2.292947e+003, 5.631963e-003
2.294875e+003, 6.366379e-003
2.296804e+003, 6.324731e-003
2.298732e+003, 6.442505e-003
2.300661e+003, 6.408144e-003
2.302589e+003, 5.967714e-003
2.304518e+003, 5.799231e-003
2.306446e+003, 5.728232e-003
2.308375e+003, 5.795206e-003
2.310303e+003, 5.288524e-003
2.312232e+003, 5.241752e-003
2.314160e+003, 5.571967e-003
2.316089e+003, 5.309792e-003
2.318017e+003, 5.175086e-003
2.319946e+003, 5.506697e-003
2.321874e+003, 6.097043e-003
2.323802e+003, 6.536450e-003
2.325731e+003, 5.979312e-003
2.327659e+003, 4.886792e-003
2.329588e+003, 4.613312e-003
2.331516e+003, 4.948142e-003
2.333445e+003, 4.982550e-003
2.335373e+003, 4.202121e-003
2.337302e+003, 3.983399e-003
2.339230e+003, 4.200315e-003
2.341159e+003, 3.636338e-003
2.343087e+003, 3.644038e-003
2.345016e+003, 3.678946e-003
2.346944e+003, 3.961784e-003
2.348873e+003, 4.452052e-003
2.350801e+003, 4.274329e-003
2.352729e+003, 4.205558e-003
2.354658e+003, 4.329216e-003
2.356586e+003, 4.389684e-003
2.358515e+003, 4.076584e-003
2.360443e+003, 3.796160e-003
2.362372e+003, 3.957247e-003
2.364300e+003, 3.528210e-003
2.366229e+003, 2.966660e-003
2.368157e+003, 3.195385e-003
2.370086e+003, 3.621821e-003
2.372014e+003, 4.124747e-003
2.373942e+003, 4.059990e-003
2.375871e+003, 3.828474e-003
2.377799e+003, 3.731629e-003
2.379728e+003, 3.296279e-003
2.381656e+003, 2.696943e-003
2.383585e+003, 2.784008e-003
2.385513e+003, 2.516884e-003
2.387442e+003, 2.904972e-003
2.389370e+003, 3.886690e-003
2.391299e+003, 3.977738e-003
2.393227e+003, 4.061321e-003
2.395156e+003, 4.017157e-003
2.397084e+003, 3.653946e-003
2.399012e+003, 3.439467e-003
2.400941e+003, 3.331042e-003
2.402869e+003, 3.097410e-003
2.404798e+003, 2.609465e-003
2.406726e+003, 2.894998e-003
2.408655e+003, 3.966345e-003
2.410583e+003, 4.046732e-003
2.412512e+003, 3.064530e-003
2.414440e+003, 3.365656e-003
2.416369e+003, 4.567107e-003
2.418297e+003, 4.347933e-003
2.420226e+003, 3.754962e-003
2.422154e+003, 3.998241e-003
2.424083e+003, 4.169219e-003
2.426011e+003, 4.081024e-003
2.427939e+003, 4.970252e-003
2.429868e+003, 4.660467e-003
2.431796e+003, 4.232320e-003
2.433725e+003, 4.646320e-003
2.435653e+003, 5.014099e-003
2.437582e+003, 4.280421e-003
2.439510e+003, 3.603026e-003
2.441439e+003, 4.127441e-003
2.443367e+003, 5.004519e-003
2.445296e+003, 5.108521e-003
2.447224e+003, 5.112469e-003
2.449153e+003, 5.180346e-003
2.451081e+003, 4.824338e-003
2.453010e+003, 4.996340e-003
2.454938e+003, 5.231083e-003
2.456866e+003, 5.152326e-003
2.458795e+003, 5.574288e-003
2.460723e+003, 5.173604e-003
2.462652e+003, 4.145282e-003
2.464580e+003, 3.958682e-003
2.466509e+003, 4.126423e-003
2.468437e+003, 4.140898e-003
2.470366e+003, 4.751872e-003
2.472294e+003, 5.127144e-003
2.474223e+003, 5.076778e-003
2.476151e+003, 4.622583e-003
2.478080e+003, 4.350876e-003
2.480008e+003, 4.232903e-003
2.481937e+003, 3.821407e-003
2.483865e+003, 4.432185e-003
2.485793e+003, 4.695925e-003
2.487722e+003, 4.576718e-003
2.489650e+003, 4.759635e-003
2.491579e+003, 3.790356e-003
2.493507e+003, 3.702507e-003
2.495436e+003, 3.824933e-003
2.497364e+003, 4.234864e-003
2.499293e+003, 4.794455e-003
2.501221e+003, 4.265033e-003
2.503150e+003, 3.817197e-003
2.505078e+003, 3.751754e-003
2.507007e+003, 4.268644e-003
2.508935e+003, 5.082020e-003
2.510864e+003, 4.555630e-003
2.512792e+003, 3.900750e-003
2.514720e+003, 3.706916e-003
2.516649e+003, 4.513542e-003
2.518577e+003, 4.857015e-003
2.520506e+003, 4.742879e-003
2.522434e+003, 4.061424e-003
2.524363e+003, 4.157302e-003
2.526291e+003, 5.754066e-003
2.528220e+003, 5.945253e-003
2.530148e+003, 5.713719e-003
2.532077e+003, 5.273293e-003
2.534005e+003, 4.776714e-003
2.535934e+003, 4.568632e-003
2.537862e+003, 4.605629e-003
2.539791e+003, 4.473674e-003
2.541719e+003, 4.161114e-003
2.543647e+003, 4.373930e-003
2.545576e+003, 5.109717e-003
2.547504e+003, 5.098918e-003
2.549433e+003, 4.736568e-003
2.551361e+003, 3.998208e-003
2.553290e+003, 3.676594e-003
2.555218e+003, 4.382607e-003
2.557147e+003, 5.558291e-003
2.559075e+003, 5.577907e-003
2.561004e+003, 4.778178e-003
2.562932e+003, 5.065815e-003
2.564861e+003, 4.837353e-003
2.566789e+003, 4.228879e-003
2.568718e+003, 4.639488e-003
2.570646e+003, 4.801899e-003
2.572574e+003, 5.158859e-003
2.574503e+003, 5.697356e-003
2.576431e+003, 5.177571e-003
2.578360e+003, 4.889670e-003
2.580288e+003, 5.556609e-003
2.582217e+003, 5.834743e-003
2.584145e+003, 6.101042e-003
2.586074e+003, 6.465951e-003
2.588002e+003, 7.235433e-003
2.589931e+003, 7.170350e-003
2.591859e+003, 6.021686e-003
2.593788e+003, 5.677668e-003
2.595716e+003, 5.738337e-003
2.597645e+003, 5.593899e-003
2.599573e+003, 5.381320e-003
2.601501e+003, 5.563483e-003
2.603430e+003, 5.901233e-003
2.605358e+003, 5.706986e-003
2.607287e+003, 6.383538e-003
2.609215e+003, 6.403822e-003
2.611144e+003, 5.935764e-003
2.613072e+003, 6.102568e-003
2.615001e+003, 6.066566e-003
2.616929e+003, 5.441731e-003
2.618858e+003, 5.179057e-003
2.620786e+003, 5.287556e-003
2.622715e+003, 5.514360e-003
2.624643e+003, 5.610351e-003
2.626572e+003, 5.236891e-003
2.628500e+003, 5.027621e-003
2.630428e+003, 5.222778e-003
2.632357e+003, 5.090452e-003
2.634285e+003, 5.919319e-003
2.636214e+003, 6.674164e-003
2.638142e+003, 5.774934e-003
2.640071e+003, 5.538460e-003
2.641999e+003, 5.694693e-003
2.643928e+003, 5.936495e-003
2.645856e+003, 6.674062e-003
2.647785e+003, 6.120660e-003
2.649713e+003, 5.855502e-003
2.651642e+003, 5.836274e-003
2.653570e+003, 5.503700e-003
2.655499e+003, 5.502571e-003
2.657427e+003, 5.396335e-003
2.659355e+003, 4.926634e-003
2.661284e+003, 4.541244e-003
2.663212e+003, 4.257891e-003
2.665141e+003, 4.173497e-003
2.667069e+003, 4.425142e-003
2.668998e+003, 4.659798e-003
2.670926e+003, 4.198633e-003
2.672855e+003, 3.930600e-003
2.674783e+003, 4.574778e-003
2.676712e+003, 4.647975e-003
2.678640e+003, 4.119014e-003
2.680569e+003, 3.803550e-003
2.682497e+003, 4.407646e-003
2.684426e+003, 4.861335e-003
2.686354e+003, 4.250400e-003
2.688282e+003, 4.170939e-003
2.690211e+003, 4.456022e-003
2.692139e+003, 4.396986e-003
2.694068e+003, 4.491086e-003
2.695996e+003, 4.520934e-003
2.697925e+003, 4.295623e-003
2.699853e+003, 4.732260e-003
2.701782e+003, 4.830021e-003
2.703710e+003, 4.538275e-003
2.705639e+003, 4.515234e-003
2.707567e+003, 4.546370e-003
2.709496e+003, 4.663531e-003
2.711424e+003, 4.775994e-003
2.713353e+003, 4.570345e-003
2.715281e+003, 4.492491e-003
2.717209e+003, 4.814390e-003
2.719138e+003, 4.711515e-003
2.721066e+003, 4.404955e-003
2.722995e+003, 4.055485e-003
2.724923e+003, 3.954809e-003
2.726852e+003, 4.412416e-003
2.728780e+003, 5.208985e-003
2.730709e+003, 4.929434e-003
2.732637e+003, 4.144713e-003
2.734566e+003, 3.787632e-003
2.736494e+003, 3.996347e-003
2.738423e+003, 4.460466e-003
2.740351e+003, 4.735600e-003
2.742280e+003, 5.344458e-003
2.744208e+003, 5.241358e-003
2.746136e+003, 4.782049e-003
2.748065e+003, 4.895300e-003
2.749993e+003, 4.631239e-003
2.751922e+003, 4.476138e-003
2.753850e+003, 4.308474e-003
2.755779e+003, 4.540063e-003
2.757707e+003, 4.245733e-003
2.759636e+003, 4.234571e-003
2.761564e+003, 4.829034e-003
2.763493e+003, 5.469779e-003
2.765421e+003, 5.241932e-003
2.767350e+003, 4.844767e-003
2.769278e+003, 4.692825e-003
2.771207e+003, 4.624286e-003
2.773135e+003, 4.929256e-003
2.775063e+003, 4.757276e-003
2.776992e+003, 4.903775e-003
2.778920e+003, 4.922713e-003
2.780849e+003, 4.328244e-003
2.782777e+003, 4.584913e-003
2.784706e+003, 4.982250e-003
2.786634e+003, 4.539274e-003
2.788563e+003, 4.901757e-003
2.790491e+003, 5.599105e-003
2.792420e+003, 5.496641e-003
2.794348e+003, 5.306715e-003
2.796277e+003, 4.910200e-003
2.798205e+003, 4.881657e-003
2.800134e+003, 5.185105e-003
2.802062e+003, 5.320432e-003
2.803990e+003, 4.791662e-003
2.805919e+003, 4.271070e-003
2.807847e+003, 4.818335e-003
2.809776e+003, 5.562697e-003
2.811704e+003, 5.254809e-003
2.813633e+003, 4.520277e-003
2.815561e+003, 4.986403e-003
2.817490e+003, 5.775957e-003
2.819418e+003, 5.813325e-003
2.821347e+003, 5.706378e-003
2.823275e+003, 5.251538e-003
2.825204e+003, 4.729802e-003
2.827132e+003, 4.697485e-003
2.829061e+003, 5.008804e-003
2.830989e+003, 5.253168e-003
2.832917e+003, 5.321699e-003
2.834846e+003, 5.087049e-003
2.836774e+003, 4.502549e-003
2.838703e+003, 5.063936e-003
2.840631e+003, 5.676261e-003
2.842560e+003, 5.590606e-003
2.844488e+003, 5.610590e-003
2.846417e+003, 5.806167e-003
2.848345e+003, 5.891651e-003
2.850274e+003, 5.501235e-003
2.852202e+003, 5.297942e-003
2.854131e+003, 5.642624e-003
2.856059e+003, 6.005167e-003
2.857988e+003, 5.473797e-003
2.859916e+003, 4.728748e-003
2.861844e+003, 5.561192e-003
2.863773e+003, 5.605734e-003
2.865701e+003, 5.135649e-003
2.867630e+003, 5.122790e-003
2.869558e+003, 5.093966e-003
2.871487e+003, 4.558599e-003
2.873415e+003, 4.518278e-003
2.875344e+003, 5.231090e-003
2.877272e+003, 5.635031e-003
2.879201e+003, 5.992283e-003
2.881129e+003, 6.161102e-003
2.883058e+003, 5.494851e-003
2.884986e+003, 5.085072e-003
2.886915e+003, 5.179140e-003
2.888843e+003, 5.284486e-003
2.890771e+003, 5.149416e-003
2.892700e+003, 5.076053e-003
2.894628e+003, 5.525092e-003
2.896557e+003, 5.546028e-003
2.898485e+003, 5.678602e-003
2.900414e+003, 5.985350e-003
2.902342e+003, 5.286582e-003
2.904271e+003, 5.006697e-003
2.906199e+003, 5.376191e-003
2.908128e+003, 5.616963e-003
2.910056e+003, 5.714541e-003
2.911985e+003, 5.903368e-003
2.913913e+003, 6.261384e-003
2.915842e+003, 6.425255e-003
2.917770e+003, 6.147259e-003
2.919698e+003, 5.951858e-003
2.921627e+003, 6.379334e-003
2.923555e+003, 6.662020e-003
2.925484e+003, 5.953913e-003
2.927412e+003, 5.673989e-003
2.929341e+003, 5.583160e-003
2.931269e+003, 5.910165e-003
2.933198e+003, 6.173610e-003
2.935126e+003, 6.383690e-003
2.937055e+003, 5.943534e-003
2.938983e+003, 5.764987e-003
2.940912e+003, 5.965340e-003
2.942840e+003, 6.034694e-003
2.944769e+003, 5.563957e-003
2.946697e+003, 5.185216e-003
2.948625e+003, 5.800094e-003
2.950554e+003, 5.463938e-003
2.952482e+003, 4.849887e-003
2.954411e+003, 4.962918e-003
2.956339e+003, 5.321590e-003
2.958268e+003, 5.524982e-003
2.960196e+003, 5.704035e-003
2.962125e+003, 5.858396e-003
2.964053e+003, 5.857474e-003
2.965982e+003, 5.957445e-003
2.967910e+003, 5.988389e-003
2.969839e+003, 5.784688e-003
2.971767e+003, 5.936718e-003
2.973696e+003, 5.685314e-003
2.975624e+003, 5.317792e-003
2.977552e+003, 5.284089e-003
2.979481e+003, 5.407560e-003
2.981409e+003, 5.209699e-003
2.983338e+003, 4.242184e-003
2.985266e+003, 4.329381e-003
2.987195e+003, 4.351841e-003
2.989123e+003, 4.402848e-003
2.991052e+003, 5.577949e-003
2.992980e+003, 6.680260e-003
2.994909e+003, 6.262613e-003
2.996837e+003, 5.563009e-003
2.998766e+003, 5.316048e-003
3.000694e+003, 4.744861e-003
3.002623e+003, 5.312696e-003
3.004551e+003, 5.603424e-003
3.006479e+003, 4.732313e-003
3.008408e+003, 4.521274e-003
3.010336e+003, 5.204765e-003
3.012265e+003, 5.468965e-003
3.014193e+003, 5.974017e-003
3.016122e+003, 6.516863e-003
3.018050e+003, 6.301659e-003
3.019979e+003, 6.007196e-003
3.021907e+003, 5.521462e-003
3.023836e+003, 4.926667e-003
3.025764e+003, 5.271199e-003
3.027693e+003, 5.844674e-003
3.029621e+003, 5.957299e-003
3.031550e+003, 6.525768e-003
3.033478e+003, 6.795605e-003
3.035406e+003, 6.080826e-003
3.037335e+003, 5.336524e-003
3.039263e+003, 5.544173e-003
3.041192e+003, 6.102742e-003
3.043120e+003, 5.914058e-003
3.045049e+003, 5.452297e-003
3.046977e+003, 4.890598e-003
3.048906e+003, 4.787433e-003
3.050834e+003, 4.676941e-003
3.052763e+003, 4.751462e-003
3.054691e+003, 4.725007e-003
3.056620e+003, 5.776208e-003
3.058548e+003, 6.791362e-003
3.060477e+003, 5.841144e-003
3.062405e+003, 5.882126e-003
3.064333e+003, 6.240068e-003
3.066262e+003, 5.282384e-003
3.068190e+003, 5.072713e-003
3.070119e+003, 5.449076e-003
3.072047e+003, 6.114143e-003
3.073976e+003, 5.870590e-003
3.075904e+003, 5.585734e-003
3.077833e+003, 5.266483e-003
3.079761e+003, 4.736032e-003
3.081690e+003, 5.150381e-003
3.083618e+003, 6.220006e-003
3.085547e+003, 6.339454e-003
3.087475e+003, 5.297566e-003
3.089404e+003, 4.873215e-003
3.091332e+003, 5.627533e-003
3.093260e+003, 6.327704e-003
3.095189e+003, 6.551040e-003
3.097117e+003, 6.316829e-003
3.099046e+003, 5.711284e-003
3.100974e+003, 5.292361e-003
3.102903e+003, 5.372035e-003
3.104831e+003, 5.809868e-003
3.106760e+003, 6.235454e-003
3.108688e+003, 6.022136e-003
3.110617e+003, 5.975144e-003
3.112545e+003, 6.229556e-003
3.114474e+003, 6.571739e-003
3.116402e+003, 6.367677e-003
3.118331e+003, 6.092086e-003
3.120259e+003, 6.278231e-003
3.122188e+003, 6.421803e-003
3.124116e+003, 5.823395e-003
3.126044e+003, 5.478344e-003
3.127973e+003, 5.640116e-003
3.129901e+003, 6.917797e-003
3.131830e+003, 7.285176e-003
3.133758e+003, 6.808292e-003
3.135687e+003, 6.630386e-003
3.137615e+003, 6.220305e-003
3.139544e+003, 6.085775e-003
3.141472e+003, 6.133322e-003
3.143401e+003, 6.247156e-003
3.145329e+003, 7.298976e-003
3.147258e+003, 6.873043e-003
3.149186e+003, 5.768584e-003
3.151115e+003, 6.323008e-003
3.153043e+003, 6.230110e-003
3.154971e+003, 6.169129e-003
3.156900e+003, 6.594097e-003
3.158828e+003, 7.039699e-003
3.160757e+003, 7.383105e-003
3.162685e+003, 7.499188e-003
3.164614e+003, 7.809334e-003
3.166542e+003, 6.857057e-003
3.168471e+003, 6.205754e-003
3.170399e+003, 6.838910e-003
3.172328e+003, 7.134550e-003
3.174256e+003, 7.147344e-003
3.176185e+003, 7.023162e-003
3.178113e+003, 6.665072e-003
3.180042e+003, 6.170627e-003
3.181970e+003, 6.442544e-003
3.183898e+003, 6.343749e-003
3.185827e+003, 6.597457e-003
3.187755e+003, 6.384010e-003
3.189684e+003, 5.785667e-003
3.191612e+003, 6.449529e-003
3.193541e+003, 6.778875e-003
3.195469e+003, 6.663702e-003
3.197398e+003, 7.220111e-003
3.199326e+003, 7.425026e-003
3.201255e+003, 7.085739e-003
3.203183e+003, 6.914002e-003
3.205112e+003, 6.629176e-003
3.207040e+003, 6.846827e-003
3.208969e+003, 6.741961e-003
3.210897e+003, 6.070636e-003
3.212825e+003, 6.275732e-003
3.214754e+003, 7.054916e-003
3.216682e+003, 7.726891e-003
3.218611e+003, 7.831578e-003
3.220539e+003, 7.196318e-003
3.222468e+003, 6.813669e-003
3.224396e+003, 6.494740e-003
3.226325e+003, 7.563133e-003
3.228253e+003, 8.738870e-003
3.230182e+003, 9.366186e-003
3.232110e+003, 8.463338e-003
3.234039e+003, 6.499091e-003
3.235967e+003, 6.576648e-003
3.237896e+003, 7.280394e-003
3.239824e+003, 6.324371e-003
3.241752e+003, 5.970289e-003
3.243681e+003, 7.074757e-003
3.245609e+003, 7.083287e-003
3.247538e+003, 7.151952e-003
3.249466e+003, 6.744499e-003
3.251395e+003, 6.418924e-003
3.253323e+003, 6.886818e-003
3.255252e+003, 7.582036e-003
3.257180e+003, 7.708383e-003
3.259109e+003, 7.650082e-003
3.261037e+003, 8.108893e-003
3.262966e+003, 8.120213e-003
3.264894e+003, 7.470181e-003
3.266823e+003, 7.436182e-003
3.268751e+003, 8.172845e-003
3.270679e+003, 9.284742e-003
3.272608e+003, 9.067467e-003
3.274536e+003, 8.360066e-003
3.276465e+003, 7.512262e-003
3.278393e+003, 7.288579e-003
3.280322e+003, 8.037372e-003
3.282250e+003, 8.821351e-003
3.284179e+003, 8.807700e-003
3.286107e+003, 7.305291e-003
3.288036e+003, 6.739280e-003
3.289964e+003, 6.669085e-003
3.291893e+003, 7.971500e-003
3.293821e+003, 8.181083e-003
3.295750e+003, 7.409160e-003
3.297678e+003, 7.891129e-003
3.299606e+003, 8.452336e-003
3.301535e+003, 7.340359e-003
3.303463e+003, 6.800485e-003
3.305392e+003, 7.503169e-003
3.307320e+003, 8.292536e-003
3.309249e+003, 8.286784e-003
3.311177e+003, 7.787966e-003
3.313106e+003, 8.064928e-003
3.315034e+003, 9.327847e-003
3.316963e+003, 8.477559e-003
3.318891e+003, 7.408128e-003
3.320820e+003, 7.916190e-003
3.322748e+003, 7.486567e-003
3.324677e+003, 6.817368e-003
3.326605e+003, 7.408062e-003
3.328533e+003, 7.015439e-003
3.330462e+003, 7.561519e-003
3.332390e+003, 8.921553e-003
3.334319e+003, 8.316117e-003
3.336247e+003, 6.494496e-003
3.338176e+003, 6.362043e-003
3.340104e+003, 7.268381e-003
3.342033e+003, 7.604154e-003
3.343961e+003, 7.829203e-003
3.345890e+003, 7.204539e-003
3.347818e+003, 6.768530e-003
3.349747e+003, 7.910485e-003
3.351675e+003, 8.357156e-003
3.353604e+003, 7.745887e-003
3.355532e+003, 7.601505e-003
3.357460e+003, 6.544167e-003
3.359389e+003, 6.170108e-003
3.361317e+003, 7.149714e-003
3.363246e+003, 7.708905e-003
3.365174e+003, 8.068638e-003
3.367103e+003, 7.960641e-003
3.369031e+003, 7.526000e-003
3.370960e+003, 7.730806e-003
3.372888e+003, 7.932532e-003
3.374817e+003, 8.176016e-003
3.376745e+003, 7.489244e-003
3.378674e+003, 8.206000e-003
3.380602e+003, 8.461705e-003
3.382531e+003, 6.548142e-003
3.384459e+003, 7.292103e-003
3.386387e+003, 7.686390e-003
3.388316e+003, 6.690599e-003
3.390244e+003, 7.609976e-003
3.392173e+003, 8.492795e-003
3.394101e+003, 8.113976e-003
3.396030e+003, 7.489398e-003
3.397958e+003, 7.922188e-003
3.399887e+003, 8.163805e-003
3.401815e+003, 7.869386e-003
3.403744e+003, 7.878138e-003
3.405672e+003, 8.519903e-003
3.407601e+003, 8.539480e-003
3.409529e+003, 7.286830e-003
3.411458e+003, 7.269708e-003
3.413386e+003, 7.294680e-003
3.415314e+003, 7.297104e-003
3.417243e+003, 7.579054e-003
3.419171e+003, 7.204424e-003
3.421100e+003, 7.547897e-003
3.423028e+003, 6.939452e-003
3.424957e+003, 6.201063e-003
3.426885e+003, 6.338501e-003
3.428814e+003, 5.868151e-003
3.430742e+003, 5.051267e-003
3.432671e+003, 5.111135e-003
3.434599e+003, 5.793915e-003
3.436528e+003, 7.225007e-003
3.438456e+003, 8.660518e-003
3.440385e+003, 8.879797e-003
3.442313e+003, 8.405908e-003
3.444241e+003, 8.398972e-003
3.446170e+003, 8.699055e-003
3.448098e+003, 8.135854e-003
3.450027e+003, 8.195719e-003
3.451955e+003, 8.014912e-003
3.453884e+003, 7.522034e-003
3.455812e+003, 7.712116e-003
3.457741e+003, 7.734132e-003
3.459669e+003, 5.667305e-003
3.461598e+003, 4.763565e-003
3.463526e+003, 5.662204e-003
3.465455e+003, 5.898956e-003
3.467383e+003, 5.955053e-003
3.469312e+003, 8.468264e-003
3.471240e+003, 9.475246e-003
3.473168e+003, 8.926693e-003
3.475097e+003, 6.348917e-003
3.477025e+003, 4.801866e-003
3.478954e+003, 6.196650e-003
3.480882e+003, 7.435722e-003
3.482811e+003, 8.177444e-003
3.484739e+003, 8.799442e-003
3.486668e+003, 9.297024e-003
3.488596e+003, 8.884021e-003
3.490525e+003, 8.730762e-003
3.492453e+003, 8.131468e-003
3.494382e+003, 5.629291e-003
3.496310e+003, 5.586789e-003
3.498239e+003, 7.902664e-003
3.500167e+003, 7.849721e-003
3.502095e+003, 7.065534e-003
3.504024e+003, 6.816920e-003
3.505952e+003, 6.391685e-003
3.507881e+003, 8.612134e-003
3.509809e+003, 1.018812e-002
3.511738e+003, 1.000363e-002
3.513666e+003, 8.674295e-003
3.515595e+003, 8.140908e-003
3.517523e+003, 7.224689e-003
3.519452e+003, 7.211471e-003
3.521380e+003, 8.513583e-003
3.523309e+003, 8.296518e-003
3.525237e+003, 7.792278e-003
3.527166e+003, 7.205018e-003
3.529094e+003, 7.567819e-003
3.531022e+003, 7.406062e-003
3.532951e+003, 7.757986e-003
3.534879e+003, 8.271332e-003
3.536808e+003, 7.841976e-003
3.538736e+003, 7.594193e-003
3.540665e+003, 7.481634e-003
3.542593e+003, 7.179552e-003
3.544522e+003, 7.137312e-003
3.546450e+003, 7.610149e-003
3.548379e+003, 7.326639e-003
3.550307e+003, 7.497465e-003
3.552236e+003, 7.743869e-003
3.554164e+003, 7.073342e-003
3.556093e+003, 6.612783e-003
3.558021e+003, 4.594936e-003
3.559949e+003, 4.982610e-003
3.561878e+003, 7.470648e-003
3.563806e+003, 8.347500e-003
3.565735e+003, 7.424329e-003
3.567663e+003, 6.610235e-003
3.569592e+003, 5.051906e-003
3.571520e+003, 6.108122e-003
3.573449e+003, 8.088745e-003
3.575377e+003, 7.901684e-003
3.577306e+003, 6.455246e-003
3.579234e+003, 5.768379e-003
3.581163e+003, 6.380969e-003
3.583091e+003, 6.211873e-003
3.585020e+003, 7.441743e-003
3.586948e+003, 8.912073e-003
3.588876e+003, 7.683065e-003
3.590805e+003, 5.841650e-003
3.592733e+003, 5.896840e-003
3.594662e+003, 7.368566e-003
3.596590e+003, 7.175756e-003
3.598519e+003, 5.250738e-003
3.600447e+003, 5.054725e-003
3.602376e+003, 7.078320e-003
3.604304e+003, 9.216666e-003
3.606233e+003, 9.684788e-003
3.608161e+003, 7.835248e-003
3.610090e+003, 6.950347e-003
3.612018e+003, 6.976495e-003
3.613947e+003, 6.150526e-003
3.615875e+003, 6.732593e-003
3.617803e+003, 7.739521e-003
3.619732e+003, 7.395276e-003
3.621660e+003, 7.088052e-003
3.623589e+003, 7.330283e-003
3.625517e+003, 6.059273e-003
3.627446e+003, 5.726670e-003
3.629374e+003, 7.274987e-003
3.631303e+003, 7.133609e-003
3.633231e+003, 4.781504e-003
3.635160e+003, 3.143434e-003
3.637088e+003, 3.330123e-003
3.639017e+003, 5.484300e-003
3.640945e+003, 7.459309e-003
3.642874e+003, 8.845654e-003
3.644802e+003, 8.209249e-003
3.646730e+003, 6.973517e-003
3.648659e+003, 6.800900e-003
3.650587e+003, 6.323109e-003
3.652516e+003, 7.246260e-003
3.654444e+003, 7.796612e-003
3.656373e+003, 6.728796e-003
3.658301e+003, 5.997586e-003
3.660230e+003, 6.626682e-003
3.662158e+003, 8.665804e-003
3.664087e+003, 8.277646e-003
3.666015e+003, 7.630863e-003
3.667944e+003, 7.061113e-003
3.669872e+003, 6.213802e-003
3.671801e+003, 6.684925e-003
3.673729e+003, 8.083876e-003
3.675657e+003, 8.691509e-003
3.677586e+003, 6.756199e-003
3.679514e+003, 6.681629e-003
3.681443e+003, 6.628194e-003
3.683371e+003, 5.571974e-003
3.685300e+003, 5.336441e-003
3.687228e+003, 6.376441e-003
3.689157e+003, 7.768322e-003
3.691085e+003, 7.534922e-003
3.693014e+003, 8.260215e-003
3.694942e+003, 8.445548e-003
3.696871e+003, 7.906202e-003
3.698799e+003, 8.067780e-003
3.700728e+003, 7.772748e-003
3.702656e+003, 6.635081e-003
3.704584e+003, 7.525870e-003
3.706513e+003, 8.302060e-003
3.708441e+003, 8.519320e-003
3.710370e+003, 7.861330e-003
3.712298e+003, 6.041827e-003
3.714227e+003, 5.716260e-003
3.716155e+003, 7.172112e-003
3.718084e+003, 6.796579e-003
3.720012e+003, 6.622480e-003
3.721941e+003, 6.506151e-003
3.723869e+003, 7.668779e-003
3.725798e+003, 7.653247e-003
3.727726e+003, 6.550715e-003
3.729655e+003, 5.847321e-003
3.731583e+003, 6.518736e-003
3.733511e+003, 7.243653e-003
3.735440e+003, 6.723475e-003
3.737368e+003, 6.645270e-003
3.739297e+003, 6.810623e-003
3.741225e+003, 5.805132e-003
3.743154e+003, 5.301043e-003
3.745082e+003, 5.699438e-003
3.747011e+003, 6.480294e-003
3.748939e+003, 6.655162e-003
3.750868e+003, 5.892169e-003
3.752796e+003, 7.306482e-003
3.754725e+003, 7.739958e-003
3.756653e+003, 7.538040e-003
3.758582e+003, 9.404998e-003
3.760510e+003, 9.759910e-003
3.762438e+003, 7.479328e-003
3.764367e+003, 5.816487e-003
3.766295e+003, 6.487050e-003
3.768224e+003, 8.082952e-003
3.770152e+003, 8.319180e-003
3.772081e+003, 7.373228e-003
3.774009e+003, 5.960854e-003
3.775938e+003, 5.994903e-003
3.777866e+003, 7.043566e-003
3.779795e+003, 7.251989e-003
3.781723e+003, 8.437963e-003
3.783652e+003, 8.365463e-003
3.785580e+003, 7.771884e-003
3.787509e+003, 8.187382e-003
3.789437e+003, 8.473584e-003
3.791365e+003, 8.507198e-003
3.793294e+003, 7.564689e-003
3.795222e+003, 7.278271e-003
3.797151e+003, 8.544486e-003
3.799079e+003, 8.453037e-003
3.801008e+003, 7.274504e-003
3.802936e+003, 6.256352e-003
3.804865e+003, 6.286732e-003
3.806793e+003, 5.497265e-003
3.808722e+003, 5.744702e-003
3.810650e+003, 7.921248e-003
3.812579e+003, 9.910408e-003
3.814507e+003, 8.977308e-003
3.816436e+003, 6.595573e-003
3.818364e+003, 4.172118e-003
3.820292e+003, 5.711180e-003
3.822221e+003, 8.331359e-003
3.824149e+003, 8.827177e-003
3.826078e+003, 8.269194e-003
3.828006e+003, 6.276028e-003
3.829935e+003, 6.098312e-003
3.831863e+003, 6.580632e-003
3.833792e+003, 5.988961e-003
3.835720e+003, 6.703120e-003
3.837649e+003, 8.352277e-003
3.839577e+003, 7.276835e-003
3.841506e+003, 5.166811e-003
3.843434e+003, 6.980291e-003
3.845363e+003, 8.630455e-003
3.847291e+003, 8.235400e-003
3.849219e+003, 7.625049e-003
3.851148e+003, 9.437163e-003
3.853076e+003, 1.101313e-002
3.855005e+003, 1.077788e-002
3.856933e+003, 8.559921e-003
3.858862e+003, 7.228481e-003
3.860790e+003, 7.614539e-003
3.862719e+003, 7.013883e-003
3.864647e+003, 6.457312e-003
3.866576e+003, 7.564900e-003
3.868504e+003, 6.842265e-003
3.870433e+003, 5.930911e-003
3.872361e+003, 6.189113e-003
3.874290e+003, 5.222267e-003
3.876218e+003, 4.595122e-003
3.878146e+003, 7.135945e-003
3.880075e+003, 8.160028e-003
3.882003e+003, 8.754383e-003
3.883932e+003, 9.371229e-003
3.885860e+003, 7.661055e-003
3.887789e+003, 5.997683e-003
3.889717e+003, 6.202476e-003
3.891646e+003, 8.865966e-003
3.893574e+003, 9.612341e-003
3.895503e+003, 8.580692e-003
3.897431e+003, 7.267568e-003
3.899360e+003, 7.504883e-003
3.901288e+003, 7.879308e-003
3.903217e+003, 7.678206e-003
3.905145e+003, 7.971007e-003
3.907073e+003, 7.556384e-003
3.909002e+003, 8.379353e-003
3.910930e+003, 7.742018e-003
3.912859e+003, 6.990882e-003
3.914787e+003, 6.265286e-003
3.916716e+003, 5.963574e-003
3.918644e+003, 6.427711e-003
3.920573e+003, 6.540915e-003
3.922501e+003, 4.996369e-003
3.924430e+003, 5.217720e-003
3.926358e+003, 6.479565e-003
3.928287e+003, 7.916674e-003
3.930215e+003, 6.912999e-003
3.932144e+003, 6.037137e-003
3.934072e+003, 7.517814e-003
3.936000e+003, 8.217353e-003
3.937929e+003, 6.880090e-003
3.939857e+003, 7.815796e-003
3.941786e+003, 9.517998e-003
3.943714e+003, 8.718045e-003
3.945643e+003, 8.505200e-003
3.947571e+003, 7.891290e-003
3.949500e+003, 6.383111e-003
3.951428e+003, 6.813791e-003
3.953357e+003, 5.824695e-003
3.955285e+003, 7.130926e-003
3.957214e+003, 8.472143e-003
3.959142e+003, 7.921796e-003
3.961071e+003, 1.000222e-002
3.962999e+003, 1.028524e-002
3.964927e+003, 8.922884e-003
3.966856e+003, 5.180546e-003
3.968784e+003, 3.921862e-003
3.970713e+003, 7.036654e-003
3.972641e+003, 6.469310e-003
3.974570e+003, 5.150215e-003
3.976498e+003, 5.957064e-003
3.978427e+003, 8.165721e-003
3.980355e+003, 7.789551e-003
3.982284e+003, 5.455713e-003
3.984212e+003, 5.733417e-003
3.986141e+003, 8.128504e-003
3.988069e+003, 7.459947e-003
3.989998e+003, 7.350217e-003
3.991926e+003, 8.922176e-003
3.993854e+003, 9.992070e-003
3.995783e+003, 8.712343e-003
3.997711e+003, 9.519470e-003
3.999640e+003, 9.523591e-003
##END=



