##NAMES=Fluorapatite
##RRUFFID=R050192
##IDEAL CHEMISTRY=Ca_5_(PO_4_)_3_F
##LOCALITY=Fulford, Eagle County, Colorado, USA
##OWNER=RRUFF
##SOURCE=Dave Bunk Minerals
##DESCRIPTION=Pale green hexagonal prism
##STATUS=The identification of this mineral has been confirmed by X-ray diffraction and chemical analysis
##URL=rruff.info/R050192
##MEASURED CHEMISTRY=Ca_5.00_(P_1.00_O_4_)_3_(F_0.86_Cl_0.13_)
3.741225e+002, 4.809745e-002
3.760510e+002, 5.373371e-002
3.779795e+002, 5.389945e-002
3.799079e+002, 3.447089e-002
3.818364e+002, 2.588592e-002
3.837649e+002, 1.976070e-002
3.856933e+002, 2.364855e-002
3.876218e+002, 2.740212e-002
3.895503e+002, 2.352580e-002
3.914787e+002, 1.784910e-002
3.934072e+002, 2.041337e-002
3.953357e+002, 2.101126e-002
3.972641e+002, 2.055949e-002
3.991926e+002, 1.941799e-002
4.011211e+002, 1.899757e-002
4.030495e+002, 1.816725e-002
4.049780e+002, 1.586070e-002
4.069065e+002, 1.748871e-002
4.088349e+002, 1.902174e-002
4.107634e+002, 1.830190e-002
4.126919e+002, 1.712762e-002
4.146203e+002, 1.456521e-002
4.165488e+002, 1.445960e-002
4.184773e+002, 1.795515e-002
4.204057e+002, 1.875515e-002
4.223342e+002, 1.669195e-002
4.242627e+002, 1.638867e-002
4.261911e+002, 1.545662e-002
4.281196e+002, 1.396882e-002
4.300481e+002, 1.420216e-002
4.319765e+002, 1.506909e-002
4.339050e+002, 1.503615e-002
4.358335e+002, 1.438717e-002
4.377619e+002, 1.405272e-002
4.396904e+002, 1.471098e-002
4.416189e+002, 1.493164e-002
4.435473e+002, 1.457258e-002
4.454758e+002, 1.387564e-002
4.474043e+002, 1.441592e-002
4.493327e+002, 1.441405e-002
4.512612e+002, 1.417161e-002
4.531897e+002, 1.601604e-002
4.551181e+002, 1.837415e-002
4.570466e+002, 1.946941e-002
4.589751e+002, 2.034083e-002
4.609035e+002, 2.094127e-002
4.628320e+002, 2.222696e-002
4.647605e+002, 2.399961e-002
4.666889e+002, 2.673818e-002
4.686174e+002, 2.973568e-002
4.705459e+002, 3.210038e-002
4.724743e+002, 3.341757e-002
4.744028e+002, 3.258293e-002
4.763313e+002, 3.024378e-002
4.782597e+002, 2.786396e-002
4.801882e+002, 2.537151e-002
4.821167e+002, 2.336515e-002
4.840451e+002, 2.228940e-002
4.859736e+002, 2.162913e-002
4.879021e+002, 2.124820e-002
4.898305e+002, 2.150403e-002
4.917590e+002, 2.192013e-002
4.936875e+002, 2.183980e-002
4.956159e+002, 2.191113e-002
4.975444e+002, 2.275010e-002
4.994729e+002, 2.316820e-002
5.014013e+002, 2.394107e-002
5.033298e+002, 2.452399e-002
5.052583e+002, 2.554774e-002
5.071867e+002, 2.811029e-002
5.091152e+002, 2.976061e-002
5.110437e+002, 3.204093e-002
5.129721e+002, 3.431221e-002
5.149006e+002, 3.684789e-002
5.168290e+002, 3.994028e-002
5.187575e+002, 4.242715e-002
5.206860e+002, 4.425038e-002
5.226144e+002, 4.593930e-002
5.245429e+002, 4.803403e-002
5.264714e+002, 5.023168e-002
5.283998e+002, 5.326338e-002
5.303283e+002, 5.802568e-002
5.322568e+002, 6.283221e-002
5.341852e+002, 6.930669e-002
5.361137e+002, 7.737635e-002
5.380422e+002, 8.665636e-002
5.399706e+002, 9.772798e-002
5.418991e+002, 1.118307e-001
5.438276e+002, 1.281845e-001
5.457560e+002, 1.466241e-001
5.476845e+002, 1.682476e-001
5.496130e+002, 1.921312e-001
5.515414e+002, 2.172112e-001
5.534699e+002, 2.432252e-001
5.553984e+002, 2.680495e-001
5.573268e+002, 2.907114e-001
5.592553e+002, 3.097576e-001
5.611838e+002, 3.231650e-001
5.631122e+002, 3.277512e-001
5.650407e+002, 3.245551e-001
5.669692e+002, 3.182563e-001
5.688976e+002, 3.083274e-001
5.708261e+002, 2.933437e-001
5.727546e+002, 2.737873e-001
5.746830e+002, 2.470332e-001
5.766115e+002, 2.121723e-001
5.785400e+002, 1.778972e-001
5.804684e+002, 1.524299e-001
5.823969e+002, 1.367285e-001
5.843254e+002, 1.274350e-001
5.862538e+002, 1.231165e-001
5.881823e+002, 1.229976e-001
5.901108e+002, 1.292237e-001
5.920392e+002, 1.450609e-001
5.939677e+002, 1.719568e-001
5.958962e+002, 2.071175e-001
5.978246e+002, 2.371283e-001
5.997531e+002, 2.443938e-001
6.016816e+002, 2.236797e-001
6.036100e+002, 1.885633e-001
6.055385e+002, 1.543204e-001
6.074670e+002, 1.261234e-001
6.093954e+002, 1.034311e-001
6.113239e+002, 8.498158e-002
6.132524e+002, 6.912609e-002
6.151808e+002, 5.607254e-002
6.171093e+002, 4.613991e-002
6.190378e+002, 3.904625e-002
6.209662e+002, 3.322383e-002
6.228947e+002, 2.816853e-002
6.248232e+002, 2.403921e-002
6.267516e+002, 2.081281e-002
6.286801e+002, 1.869536e-002
6.306086e+002, 1.754467e-002
6.325370e+002, 1.633920e-002
6.344655e+002, 1.543642e-002
6.363940e+002, 1.507319e-002
6.383224e+002, 1.477320e-002
6.402509e+002, 1.480540e-002
6.421794e+002, 1.455274e-002
6.441078e+002, 1.452231e-002
6.460363e+002, 1.489166e-002
6.479648e+002, 1.512071e-002
6.498932e+002, 1.551745e-002
6.518217e+002, 1.566515e-002
6.537502e+002, 1.563169e-002
6.556786e+002, 1.553764e-002
6.576071e+002, 1.527891e-002
6.595356e+002, 1.509757e-002
6.614641e+002, 1.529817e-002
6.633925e+002, 1.564928e-002
6.653210e+002, 1.582505e-002
6.672495e+002, 1.607158e-002
6.691779e+002, 1.641953e-002
6.711064e+002, 1.610232e-002
6.730349e+002, 1.604766e-002
6.749633e+002, 1.657960e-002
6.768918e+002, 1.694700e-002
6.788203e+002, 1.689105e-002
6.807487e+002, 1.695463e-002
6.826772e+002, 1.708744e-002
6.846057e+002, 1.740484e-002
6.865341e+002, 1.766762e-002
6.884626e+002, 1.765907e-002
6.903911e+002, 1.750109e-002
6.923195e+002, 1.751953e-002
6.942480e+002, 1.763593e-002
6.961765e+002, 1.796229e-002
6.981049e+002, 1.795816e-002
7.000334e+002, 1.793071e-002
7.019619e+002, 1.786407e-002
7.038903e+002, 1.832462e-002
7.058188e+002, 1.858268e-002
7.077473e+002, 1.863430e-002
7.096757e+002, 1.878272e-002
7.116042e+002, 1.926427e-002
7.135327e+002, 1.980952e-002
7.154611e+002, 2.015194e-002
7.173896e+002, 2.073886e-002
7.193181e+002, 2.153136e-002
7.212465e+002, 2.214565e-002
7.231750e+002, 2.294364e-002
7.251035e+002, 2.391680e-002
7.270319e+002, 2.455343e-002
7.289604e+002, 2.531448e-002
7.308889e+002, 2.611244e-002
7.328173e+002, 2.690797e-002
7.347458e+002, 2.791716e-002
7.366743e+002, 2.910430e-002
7.386027e+002, 2.987316e-002
7.405312e+002, 3.022601e-002
7.424597e+002, 3.034362e-002
7.443881e+002, 3.060489e-002
7.463166e+002, 3.062248e-002
7.482451e+002, 3.013365e-002
7.501735e+002, 2.958551e-002
7.521020e+002, 2.907232e-002
7.540305e+002, 2.844732e-002
7.559589e+002, 2.750292e-002
7.578874e+002, 2.614670e-002
7.598159e+002, 2.510727e-002
7.617443e+002, 2.416802e-002
7.636728e+002, 2.323340e-002
7.656013e+002, 2.256606e-002
7.675297e+002, 2.212180e-002
7.694582e+002, 2.145538e-002
7.713867e+002, 2.088239e-002
7.733151e+002, 2.032860e-002
7.752436e+002, 1.998091e-002
7.771721e+002, 1.989624e-002
7.791005e+002, 1.993280e-002
7.810290e+002, 1.993382e-002
7.829575e+002, 2.002190e-002
7.848859e+002, 2.011041e-002
7.868144e+002, 2.021014e-002
7.887429e+002, 2.041515e-002
7.906713e+002, 2.079421e-002
7.925998e+002, 2.091107e-002
7.945283e+002, 2.063682e-002
7.964567e+002, 2.075206e-002
7.983852e+002, 2.113019e-002
8.003137e+002, 2.147166e-002
8.022421e+002, 2.149420e-002
8.041706e+002, 2.190194e-002
8.060991e+002, 2.238415e-002
8.080275e+002, 2.260564e-002
8.099560e+002, 2.294325e-002
8.118845e+002, 2.331446e-002
8.138129e+002, 2.333520e-002
8.157414e+002, 2.353238e-002
8.176699e+002, 2.382645e-002
8.195983e+002, 2.412350e-002
8.215268e+002, 2.459384e-002
8.234553e+002, 2.493152e-002
8.253837e+002, 2.527286e-002
8.273122e+002, 2.598215e-002
8.292407e+002, 2.658297e-002
8.311691e+002, 2.729469e-002
8.330976e+002, 2.753671e-002
8.350261e+002, 2.789305e-002
8.369545e+002, 2.858362e-002
8.388830e+002, 2.949347e-002
8.408115e+002, 3.022832e-002
8.427399e+002, 3.089351e-002
8.446684e+002, 3.162223e-002
8.465969e+002, 3.237993e-002
8.485253e+002, 3.332174e-002
8.504538e+002, 3.437717e-002
8.523823e+002, 3.542512e-002
8.543107e+002, 3.640136e-002
8.562392e+002, 3.726129e-002
8.581677e+002, 3.842809e-002
8.600961e+002, 3.959059e-002
8.620246e+002, 4.078732e-002
8.639531e+002, 4.213281e-002
8.658815e+002, 4.382144e-002
8.678100e+002, 4.549369e-002
8.697385e+002, 4.705999e-002
8.716669e+002, 4.844044e-002
8.735954e+002, 4.974236e-002
8.755239e+002, 5.108586e-002
8.774523e+002, 5.235728e-002
8.793808e+002, 5.326109e-002
8.813093e+002, 5.431241e-002
8.832377e+002, 5.532177e-002
8.851662e+002, 5.638210e-002
8.870947e+002, 5.782699e-002
8.890231e+002, 5.925362e-002
8.909516e+002, 6.038488e-002
8.928801e+002, 6.144562e-002
8.948085e+002, 6.247251e-002
8.967370e+002, 6.356951e-002
8.986655e+002, 6.472820e-002
9.005939e+002, 6.610750e-002
9.025224e+002, 6.775467e-002
9.044509e+002, 6.949956e-002
9.063793e+002, 7.146162e-002
9.083078e+002, 7.393437e-002
9.102363e+002, 7.664470e-002
9.121647e+002, 7.966266e-002
9.140932e+002, 8.304801e-002
9.160217e+002, 8.663043e-002
9.179501e+002, 9.066889e-002
9.198786e+002, 9.523271e-002
9.218071e+002, 1.001336e-001
9.237355e+002, 1.052120e-001
9.256640e+002, 1.106033e-001
9.275925e+002, 1.164593e-001
9.295209e+002, 1.226392e-001
9.314494e+002, 1.290628e-001
9.333779e+002, 1.354249e-001
9.353063e+002, 1.411519e-001
9.372348e+002, 1.466129e-001
9.391633e+002, 1.524993e-001
9.410917e+002, 1.588295e-001
9.430202e+002, 1.658549e-001
9.449487e+002, 1.739409e-001
9.468771e+002, 1.831918e-001
9.488056e+002, 1.936460e-001
9.507341e+002, 2.063502e-001
9.526625e+002, 2.218583e-001
9.545910e+002, 2.399719e-001
9.565195e+002, 2.588139e-001
9.584479e+002, 2.749598e-001
9.603764e+002, 2.852167e-001
9.623049e+002, 2.845705e-001
9.642333e+002, 2.676654e-001
9.661618e+002, 2.472904e-001
9.680903e+002, 2.392089e-001
9.700187e+002, 2.419551e-001
9.719472e+002, 2.512427e-001
9.738757e+002, 2.655583e-001
9.758041e+002, 2.823220e-001
9.777326e+002, 2.985877e-001
9.796611e+002, 3.144143e-001
9.815895e+002, 3.309025e-001
9.835180e+002, 3.484533e-001
9.854465e+002, 3.663889e-001
9.873749e+002, 3.846774e-001
9.893034e+002, 4.033175e-001
9.912319e+002, 4.217807e-001
9.931603e+002, 4.402329e-001
9.950888e+002, 4.578073e-001
9.970173e+002, 4.744911e-001
9.989457e+002, 4.906766e-001
1.000874e+003, 5.059788e-001
1.002803e+003, 5.205839e-001
1.004731e+003, 5.347049e-001
1.006660e+003, 5.483137e-001
1.008588e+003, 5.612955e-001
1.010517e+003, 5.732386e-001
1.012445e+003, 5.848160e-001
1.014373e+003, 5.957346e-001
1.016302e+003, 6.047360e-001
1.018230e+003, 6.112429e-001
1.020159e+003, 6.145329e-001
1.022087e+003, 6.138690e-001
1.024016e+003, 6.096210e-001
1.025944e+003, 6.019416e-001
1.027873e+003, 5.904303e-001
1.029801e+003, 5.749162e-001
1.031730e+003, 5.558419e-001
1.033658e+003, 5.342472e-001
1.035587e+003, 5.107252e-001
1.037515e+003, 4.871213e-001
1.039443e+003, 4.646209e-001
1.041372e+003, 4.436612e-001
1.043300e+003, 4.239066e-001
1.045229e+003, 4.045927e-001
1.047157e+003, 3.852340e-001
1.049086e+003, 3.657456e-001
1.051014e+003, 3.468565e-001
1.052943e+003, 3.290577e-001
1.054871e+003, 3.117158e-001
1.056800e+003, 2.953395e-001
1.058728e+003, 2.801425e-001
1.060657e+003, 2.653630e-001
1.062585e+003, 2.514038e-001
1.064514e+003, 2.375873e-001
1.066442e+003, 2.235885e-001
1.068370e+003, 2.101970e-001
1.070299e+003, 1.976319e-001
1.072227e+003, 1.854326e-001
1.074156e+003, 1.736979e-001
1.076084e+003, 1.634829e-001
1.078013e+003, 1.557128e-001
1.079941e+003, 1.521881e-001
1.081870e+003, 1.552049e-001
1.083798e+003, 1.661913e-001
1.085727e+003, 1.835767e-001
1.087655e+003, 1.997957e-001
1.089584e+003, 2.039002e-001
1.091512e+003, 1.933878e-001
1.093441e+003, 1.754959e-001
1.095369e+003, 1.574163e-001
1.097297e+003, 1.416508e-001
1.099226e+003, 1.279279e-001
1.101154e+003, 1.159204e-001
1.103083e+003, 1.055373e-001
1.105011e+003, 9.597429e-002
1.106940e+003, 8.706464e-002
1.108868e+003, 7.884658e-002
1.110797e+003, 7.136350e-002
1.112725e+003, 6.453998e-002
1.114654e+003, 5.790548e-002
1.116582e+003, 5.169722e-002
1.118511e+003, 4.587227e-002
1.120439e+003, 4.041198e-002
1.122368e+003, 3.539989e-002
1.124296e+003, 3.122797e-002
1.126224e+003, 2.781455e-002
1.128153e+003, 2.480143e-002
1.130081e+003, 2.222752e-002
1.132010e+003, 2.029245e-002
1.133938e+003, 1.864166e-002
1.135867e+003, 1.702618e-002
1.137795e+003, 1.598404e-002
1.139724e+003, 1.526797e-002
1.141652e+003, 1.451658e-002
1.143581e+003, 1.388634e-002
1.145509e+003, 1.338297e-002
1.147438e+003, 1.292277e-002
1.149366e+003, 1.263896e-002
1.151295e+003, 1.234060e-002
1.153223e+003, 1.179915e-002
1.155151e+003, 1.139451e-002
1.157080e+003, 1.117588e-002
1.159008e+003, 1.093359e-002
1.160937e+003, 1.056401e-002
1.162865e+003, 1.030410e-002
1.164794e+003, 9.842762e-003
1.166722e+003, 9.498824e-003
1.168651e+003, 9.338678e-003
1.170579e+003, 9.091375e-003
1.172508e+003, 8.814618e-003
1.174436e+003, 8.703193e-003
1.176365e+003, 8.536090e-003
1.178293e+003, 8.307760e-003
1.180222e+003, 8.122209e-003
1.182150e+003, 8.018109e-003
1.184078e+003, 7.733532e-003
1.186007e+003, 7.509236e-003
1.187935e+003, 7.384886e-003
1.189864e+003, 7.173935e-003
1.191792e+003, 6.881264e-003
1.193721e+003, 6.818973e-003
1.195649e+003, 6.736720e-003
1.197578e+003, 6.509924e-003
1.199506e+003, 6.286143e-003
1.201435e+003, 6.265030e-003
1.203363e+003, 6.260111e-003
1.205292e+003, 6.051520e-003
1.207220e+003, 5.807418e-003
1.209149e+003, 5.750915e-003
1.211077e+003, 5.881356e-003
1.213005e+003, 5.886135e-003
1.214934e+003, 5.682583e-003
1.216862e+003, 5.465236e-003
1.218791e+003, 5.250376e-003
1.220719e+003, 5.335326e-003
1.222648e+003, 5.261888e-003
1.224576e+003, 4.988244e-003
1.226505e+003, 4.934138e-003
1.228433e+003, 4.925888e-003
1.230362e+003, 4.831277e-003
1.232290e+003, 4.699842e-003
1.234219e+003, 4.638483e-003
1.236147e+003, 4.599431e-003
1.238076e+003, 4.546316e-003
1.240004e+003, 4.584571e-003
1.241932e+003, 4.465654e-003
1.243861e+003, 4.450460e-003
1.245789e+003, 4.482631e-003
1.247718e+003, 4.400899e-003
1.249646e+003, 4.296531e-003
1.251575e+003, 4.224822e-003
1.253503e+003, 4.174101e-003
1.255432e+003, 4.101084e-003
1.257360e+003, 4.016293e-003
1.259289e+003, 3.961404e-003
1.261217e+003, 4.091334e-003
1.263146e+003, 4.199944e-003
1.265074e+003, 4.084759e-003
1.267003e+003, 4.001535e-003
1.268931e+003, 4.011846e-003
1.270859e+003, 4.106696e-003
1.272788e+003, 4.236937e-003
1.274716e+003, 4.116325e-003
1.276645e+003, 4.125736e-003
1.278573e+003, 4.298028e-003
1.280502e+003, 4.143803e-003
1.282430e+003, 3.977296e-003
1.284359e+003, 3.939642e-003
1.286287e+003, 3.943574e-003
1.288216e+003, 3.968123e-003
1.290144e+003, 3.893477e-003
1.292073e+003, 3.810963e-003
1.294001e+003, 3.915715e-003
1.295930e+003, 3.978480e-003
1.297858e+003, 3.835405e-003
1.299786e+003, 3.709656e-003
1.301715e+003, 3.784489e-003
1.303643e+003, 3.849012e-003
1.305572e+003, 3.856175e-003
1.307500e+003, 3.898245e-003
1.309429e+003, 3.886993e-003
1.311357e+003, 3.775801e-003
1.313286e+003, 3.842414e-003
1.315214e+003, 3.895526e-003
1.317143e+003, 3.842059e-003
1.319071e+003, 3.806718e-003
1.321000e+003, 3.706821e-003
1.322928e+003, 3.814943e-003
1.324857e+003, 3.938710e-003
1.326785e+003, 3.875487e-003
1.328714e+003, 3.928823e-003
1.330642e+003, 3.905414e-003
1.332570e+003, 3.864669e-003
1.334499e+003, 4.003627e-003
1.336427e+003, 4.097348e-003
1.338356e+003, 4.023422e-003
1.340284e+003, 3.864840e-003
1.342213e+003, 3.784825e-003
1.344141e+003, 3.972051e-003
1.346070e+003, 3.859637e-003
1.347998e+003, 3.800130e-003
1.349927e+003, 4.014805e-003
1.351855e+003, 4.037006e-003
1.353784e+003, 3.998702e-003
1.355712e+003, 4.087575e-003
1.357641e+003, 4.139515e-003
1.359569e+003, 4.281829e-003
1.361497e+003, 4.296779e-003
1.363426e+003, 4.096250e-003
1.365354e+003, 4.054318e-003
1.367283e+003, 4.112973e-003
1.369211e+003, 4.219067e-003
1.371140e+003, 4.354556e-003
1.373068e+003, 4.371240e-003
1.374997e+003, 4.236808e-003
1.376925e+003, 4.208130e-003
1.378854e+003, 4.362425e-003
1.380782e+003, 4.475597e-003
1.382711e+003, 4.636555e-003
1.384639e+003, 4.645533e-003
1.386568e+003, 4.816816e-003
1.388496e+003, 4.883688e-003
1.390424e+003, 5.019794e-003
1.392353e+003, 5.181002e-003
1.394281e+003, 5.280092e-003
1.396210e+003, 5.213512e-003
1.398138e+003, 5.308765e-003
1.400067e+003, 5.519656e-003
1.401995e+003, 5.738258e-003
1.403924e+003, 5.863712e-003
1.405852e+003, 5.834504e-003
1.407781e+003, 5.859727e-003
1.409709e+003, 6.079788e-003
1.411638e+003, 6.315758e-003
1.413566e+003, 6.473492e-003
1.415495e+003, 6.308016e-003
1.417423e+003, 6.497290e-003
1.419351e+003, 6.854475e-003
1.421280e+003, 6.798213e-003
1.423208e+003, 6.793601e-003
1.425137e+003, 6.929453e-003
1.427065e+003, 6.958271e-003
1.428994e+003, 7.027038e-003
1.430922e+003, 6.984290e-003
1.432851e+003, 6.911459e-003
1.434779e+003, 6.987764e-003
1.436708e+003, 6.997389e-003
1.438636e+003, 6.576374e-003
1.440565e+003, 6.526100e-003
1.442493e+003, 6.544875e-003
1.444422e+003, 6.618126e-003
1.446350e+003, 6.737480e-003
1.448278e+003, 6.970577e-003
1.450207e+003, 6.923151e-003
1.452135e+003, 6.849715e-003
1.454064e+003, 7.040932e-003
1.455992e+003, 7.510192e-003
1.457921e+003, 7.480929e-003
1.459849e+003, 7.022080e-003
1.461778e+003, 6.881621e-003
1.463706e+003, 6.983107e-003
1.465635e+003, 7.025694e-003
1.467563e+003, 6.750449e-003
1.469492e+003, 6.635285e-003
1.471420e+003, 6.822482e-003
1.473349e+003, 6.917767e-003
1.475277e+003, 6.781535e-003
1.477205e+003, 6.690181e-003
1.479134e+003, 6.791033e-003
1.481062e+003, 6.736070e-003
1.482991e+003, 6.467700e-003
1.484919e+003, 6.631423e-003
1.486848e+003, 6.892084e-003
1.488776e+003, 6.973225e-003
1.490705e+003, 6.857304e-003
1.492633e+003, 6.597543e-003
1.494562e+003, 6.555101e-003
1.496490e+003, 6.720355e-003
1.498419e+003, 6.682517e-003
1.500347e+003, 6.603796e-003
1.502276e+003, 6.563172e-003
1.504204e+003, 6.827997e-003
1.506132e+003, 7.216678e-003
1.508061e+003, 7.052199e-003
1.509989e+003, 6.672758e-003
1.511918e+003, 6.593346e-003
1.513846e+003, 6.606887e-003
1.515775e+003, 6.687507e-003
1.517703e+003, 6.765272e-003
1.519632e+003, 6.868912e-003
1.521560e+003, 7.009625e-003
1.523489e+003, 6.819088e-003
1.525417e+003, 6.706826e-003
1.527346e+003, 6.672536e-003
1.529274e+003, 6.707747e-003
1.531203e+003, 7.001834e-003
1.533131e+003, 7.328297e-003
1.535059e+003, 7.148205e-003
1.536988e+003, 7.385423e-003
1.538916e+003, 7.980375e-003
1.540845e+003, 8.039841e-003
1.542773e+003, 7.890277e-003
1.544702e+003, 7.712326e-003
1.546630e+003, 7.424123e-003
1.548559e+003, 7.471465e-003
1.550487e+003, 7.508375e-003
1.552416e+003, 7.499013e-003
1.554344e+003, 7.864953e-003
1.556273e+003, 8.281555e-003
1.558201e+003, 8.767973e-003
1.560130e+003, 8.644738e-003
1.562058e+003, 7.950515e-003
1.563986e+003, 7.719539e-003
1.565915e+003, 7.684323e-003
1.567843e+003, 7.796689e-003
1.569772e+003, 7.912008e-003
1.571700e+003, 7.782164e-003
1.573629e+003, 7.968042e-003
1.575557e+003, 8.469980e-003
1.577486e+003, 8.380529e-003
1.579414e+003, 8.057626e-003
1.581343e+003, 7.950983e-003
1.583271e+003, 7.816167e-003
1.585200e+003, 7.775414e-003
1.587128e+003, 7.706943e-003
1.589057e+003, 7.694335e-003
1.590985e+003, 7.856866e-003
1.592913e+003, 7.843416e-003
1.594842e+003, 7.784543e-003
1.596770e+003, 7.922999e-003
1.598699e+003, 7.960303e-003
1.600627e+003, 7.815890e-003
1.602556e+003, 8.039449e-003
1.604484e+003, 8.144946e-003
1.606413e+003, 7.895693e-003
1.608341e+003, 7.868885e-003
1.610270e+003, 8.050556e-003
1.612198e+003, 8.112976e-003
1.614127e+003, 8.288567e-003
1.616055e+003, 8.544897e-003
1.617984e+003, 8.228643e-003
1.619912e+003, 7.861504e-003
1.621840e+003, 7.987852e-003
1.623769e+003, 7.881336e-003
1.625697e+003, 7.780394e-003
1.627626e+003, 7.959568e-003
1.629554e+003, 7.942942e-003
1.631483e+003, 7.890288e-003
1.633411e+003, 8.136824e-003
1.635340e+003, 8.256702e-003
1.637268e+003, 7.981432e-003
1.639197e+003, 7.655314e-003
1.641125e+003, 7.779120e-003
1.643054e+003, 8.031867e-003
1.644982e+003, 8.058813e-003
1.646911e+003, 8.041601e-003
1.648839e+003, 7.935383e-003
1.650767e+003, 8.292493e-003
1.652696e+003, 9.043527e-003
1.654624e+003, 8.424706e-003
1.656553e+003, 7.809317e-003
1.658481e+003, 7.794460e-003
1.660410e+003, 7.749297e-003
1.662338e+003, 7.739865e-003
1.664267e+003, 7.658719e-003
1.666195e+003, 7.548479e-003
1.668124e+003, 7.904995e-003
1.670052e+003, 8.042862e-003
1.671981e+003, 7.899969e-003
1.673909e+003, 7.793530e-003
1.675838e+003, 7.727304e-003
1.677766e+003, 7.579350e-003
1.679694e+003, 7.685354e-003
1.681623e+003, 7.775357e-003
1.683551e+003, 8.024033e-003
1.685480e+003, 8.046323e-003
1.687408e+003, 7.680910e-003
1.689337e+003, 7.414167e-003
1.691265e+003, 7.386065e-003
1.693194e+003, 7.688425e-003
1.695122e+003, 8.343375e-003
1.697051e+003, 8.337628e-003
1.698979e+003, 8.341980e-003
1.700908e+003, 8.216212e-003
1.702836e+003, 7.805524e-003
1.704765e+003, 7.791249e-003
1.706693e+003, 7.537526e-003
1.708621e+003, 7.526357e-003
1.710550e+003, 7.790823e-003
1.712478e+003, 7.950540e-003
1.714407e+003, 8.020073e-003
1.716335e+003, 8.158277e-003
1.718264e+003, 7.861247e-003
1.720192e+003, 7.299604e-003
1.722121e+003, 7.216572e-003
1.724049e+003, 7.224487e-003
1.725978e+003, 7.284949e-003
1.727906e+003, 7.342756e-003
1.729835e+003, 7.409362e-003
1.731763e+003, 7.549473e-003
1.733692e+003, 7.829075e-003
1.735620e+003, 7.301922e-003
1.737548e+003, 6.754211e-003
1.739477e+003, 6.696647e-003
1.741405e+003, 6.812772e-003
1.743334e+003, 6.894819e-003
1.745262e+003, 6.842354e-003
1.747191e+003, 6.753314e-003
1.749119e+003, 7.004162e-003
1.751048e+003, 7.144184e-003
1.752976e+003, 6.745927e-003
1.754905e+003, 6.611175e-003
1.756833e+003, 7.015540e-003
1.758762e+003, 7.053544e-003
1.760690e+003, 7.089497e-003
1.762619e+003, 7.120837e-003
1.764547e+003, 7.199637e-003
1.766475e+003, 7.215497e-003
1.768404e+003, 7.136390e-003
1.770332e+003, 7.167220e-003
1.772261e+003, 7.570125e-003
1.774189e+003, 7.485774e-003
1.776118e+003, 7.133297e-003
1.778046e+003, 7.164308e-003
1.779975e+003, 7.326344e-003
1.781903e+003, 7.369049e-003
1.783832e+003, 7.336647e-003
1.785760e+003, 7.193313e-003
1.787689e+003, 7.189367e-003
1.789617e+003, 7.065488e-003
1.791546e+003, 7.287781e-003
1.793474e+003, 7.348913e-003
1.795402e+003, 7.224435e-003
1.797331e+003, 7.262389e-003
1.799259e+003, 7.308715e-003
1.801188e+003, 7.443910e-003
1.803116e+003, 7.344249e-003
1.805045e+003, 7.228316e-003
1.806973e+003, 7.268450e-003
1.808902e+003, 7.226870e-003
1.810830e+003, 7.191001e-003
1.812759e+003, 7.139586e-003
1.814687e+003, 6.958695e-003
1.816616e+003, 6.826036e-003
1.818544e+003, 7.239168e-003
1.820473e+003, 7.651968e-003
1.822401e+003, 7.645163e-003
1.824329e+003, 7.533968e-003
1.826258e+003, 7.375999e-003
1.828186e+003, 7.312634e-003
1.830115e+003, 7.547150e-003
1.832043e+003, 7.814822e-003
1.833972e+003, 7.773539e-003
1.835900e+003, 7.401112e-003
1.837829e+003, 7.418503e-003
1.839757e+003, 7.394385e-003
1.841686e+003, 7.438917e-003
1.843614e+003, 7.593800e-003
1.845543e+003, 7.530476e-003
1.847471e+003, 7.172348e-003
1.849400e+003, 7.101348e-003
1.851328e+003, 7.181194e-003
1.853256e+003, 7.184493e-003
1.855185e+003, 7.244330e-003
1.857113e+003, 7.375086e-003
1.859042e+003, 7.403602e-003
1.860970e+003, 7.480641e-003
1.862899e+003, 7.501759e-003
1.864827e+003, 7.748137e-003
1.866756e+003, 7.709662e-003
1.868684e+003, 7.339934e-003
1.870613e+003, 7.763813e-003
1.872541e+003, 7.784507e-003
1.874470e+003, 7.673240e-003
1.876398e+003, 7.788078e-003
1.878327e+003, 7.770572e-003
1.880255e+003, 7.213670e-003
1.882183e+003, 6.759867e-003
1.884112e+003, 7.051519e-003
1.886040e+003, 7.492179e-003
1.887969e+003, 7.624443e-003
1.889897e+003, 7.749974e-003
1.891826e+003, 7.870757e-003
1.893754e+003, 7.608809e-003
1.895683e+003, 7.277656e-003
1.897611e+003, 6.876517e-003
1.899540e+003, 7.305440e-003
1.901468e+003, 7.542046e-003
1.903397e+003, 7.127115e-003
1.905325e+003, 7.162532e-003
1.907254e+003, 6.988169e-003
1.909182e+003, 6.814677e-003
1.911110e+003, 7.204730e-003
1.913039e+003, 6.845370e-003
1.914967e+003, 6.806235e-003
1.916896e+003, 6.731865e-003
1.918824e+003, 7.081127e-003
1.920753e+003, 7.168995e-003
1.922681e+003, 6.982615e-003
1.924610e+003, 6.283874e-003
1.926538e+003, 6.498809e-003
1.928467e+003, 6.886915e-003
1.930395e+003, 6.870012e-003
1.932324e+003, 6.791105e-003
1.934252e+003, 7.544382e-003
1.936181e+003, 8.504206e-003
1.938109e+003, 8.615178e-003
1.940037e+003, 7.654247e-003
1.941966e+003, 7.808709e-003
1.943894e+003, 8.254385e-003
1.945823e+003, 7.952062e-003
1.947751e+003, 7.632378e-003
1.949680e+003, 7.342269e-003
1.951608e+003, 7.632026e-003
1.953537e+003, 7.579417e-003
1.955465e+003, 7.471525e-003
1.957394e+003, 7.424044e-003
1.959322e+003, 7.301362e-003
1.961251e+003, 7.812031e-003
1.963179e+003, 8.257475e-003
1.965108e+003, 7.756591e-003
1.967036e+003, 6.214956e-003
1.968964e+003, 6.359515e-003
1.970893e+003, 7.065544e-003
1.972821e+003, 7.376062e-003
1.974750e+003, 7.527354e-003
1.976678e+003, 9.053989e-003
1.978607e+003, 1.053226e-002
1.980535e+003, 9.908697e-003
1.982464e+003, 9.573257e-003
1.984392e+003, 1.090507e-002
1.986321e+003, 1.116399e-002
1.988249e+003, 1.010622e-002
1.990178e+003, 9.872830e-003
1.992106e+003, 1.141908e-002
1.994035e+003, 1.081087e-002
1.995963e+003, 9.705021e-003
1.997891e+003, 9.572191e-003
1.999820e+003, 9.092432e-003
2.001748e+003, 7.290836e-003
2.003677e+003, 6.436665e-003
2.005605e+003, 6.990561e-003
2.007534e+003, 8.744264e-003
2.009462e+003, 9.056731e-003
2.011391e+003, 9.119491e-003
2.013319e+003, 9.869130e-003
2.015248e+003, 1.031736e-002
2.017176e+003, 9.836687e-003
2.019105e+003, 8.903820e-003
2.021033e+003, 7.128335e-003
2.022962e+003, 6.371860e-003
2.024890e+003, 8.265520e-003
2.026818e+003, 9.661267e-003
2.028747e+003, 1.040632e-002
2.030675e+003, 1.076636e-002
2.032604e+003, 9.576946e-003
2.034532e+003, 8.855818e-003
2.036461e+003, 8.610701e-003
2.038389e+003, 8.290335e-003
2.040318e+003, 7.031149e-003
2.042246e+003, 6.288444e-003
2.044175e+003, 6.922875e-003
2.046103e+003, 8.824915e-003
2.048031e+003, 9.996091e-003
2.049960e+003, 1.033399e-002
2.051888e+003, 9.445500e-003
2.053817e+003, 8.027846e-003
2.055745e+003, 7.755770e-003
2.057674e+003, 8.861231e-003
2.059602e+003, 9.398750e-003
2.061531e+003, 8.941765e-003
2.063459e+003, 8.602963e-003
2.065388e+003, 8.007276e-003
2.067316e+003, 7.825810e-003
2.069245e+003, 8.749589e-003
2.071173e+003, 8.991727e-003
2.073102e+003, 9.155726e-003
2.075030e+003, 9.491189e-003
2.076958e+003, 8.855419e-003
2.078887e+003, 9.123883e-003
2.080815e+003, 9.708892e-003
2.082744e+003, 9.422312e-003
2.084672e+003, 9.040586e-003
2.086601e+003, 8.970139e-003
2.088529e+003, 9.082606e-003
2.090458e+003, 8.554970e-003
2.092386e+003, 8.003503e-003
2.094315e+003, 8.522918e-003
2.096243e+003, 9.032883e-003
2.098172e+003, 9.555279e-003
2.100100e+003, 9.732108e-003
2.102029e+003, 9.718423e-003
2.103957e+003, 9.893299e-003
2.105885e+003, 9.916481e-003
2.107814e+003, 9.048777e-003
2.109742e+003, 8.472129e-003
2.111671e+003, 8.516973e-003
2.113599e+003, 8.557057e-003
2.115528e+003, 8.586458e-003
2.117456e+003, 7.606565e-003
2.119385e+003, 8.039606e-003
2.121313e+003, 8.904041e-003
2.123242e+003, 9.356832e-003
2.125170e+003, 9.300541e-003
2.127099e+003, 8.340612e-003
2.129027e+003, 7.876745e-003
2.130956e+003, 7.716625e-003
2.132884e+003, 7.780050e-003
2.134813e+003, 8.753299e-003
2.136741e+003, 8.719756e-003
2.138669e+003, 8.849121e-003
2.140598e+003, 8.832796e-003
2.142526e+003, 9.247745e-003
2.144455e+003, 9.869846e-003
2.146383e+003, 1.052759e-002
2.148312e+003, 1.132724e-002
2.150240e+003, 1.160282e-002
2.152169e+003, 1.159177e-002
2.154097e+003, 1.231137e-002
2.156026e+003, 1.151797e-002
2.157954e+003, 1.215275e-002
2.159883e+003, 1.567892e-002
2.161811e+003, 1.673738e-002
2.163740e+003, 1.473698e-002
2.165668e+003, 1.462829e-002
2.167596e+003, 1.492928e-002
2.169525e+003, 1.424625e-002
2.171453e+003, 1.245740e-002
2.173382e+003, 1.078929e-002
2.175310e+003, 8.575955e-003
2.177239e+003, 8.738359e-003
2.179167e+003, 1.061907e-002
2.181096e+003, 1.102424e-002
2.183024e+003, 1.178006e-002
2.184953e+003, 1.314216e-002
2.186881e+003, 1.301555e-002
2.188810e+003, 1.320267e-002
2.190738e+003, 1.316504e-002
2.192667e+003, 1.236891e-002
2.194595e+003, 1.305703e-002
2.196523e+003, 1.365723e-002
2.198452e+003, 1.258395e-002
2.200380e+003, 1.261067e-002
2.202309e+003, 1.265712e-002
2.204237e+003, 1.196749e-002
2.206166e+003, 1.154681e-002
2.208094e+003, 1.167227e-002
2.210023e+003, 1.273529e-002
2.211951e+003, 1.306068e-002
2.213880e+003, 1.295560e-002
2.215808e+003, 1.179885e-002
2.217737e+003, 1.233501e-002
2.219665e+003, 1.310696e-002
2.221594e+003, 1.232852e-002
2.223522e+003, 1.146268e-002
2.225450e+003, 1.268617e-002
2.227379e+003, 1.400038e-002
2.229307e+003, 1.339125e-002
2.231236e+003, 1.285575e-002
2.233164e+003, 1.288179e-002
2.235093e+003, 1.348002e-002
2.237021e+003, 1.375774e-002
2.238950e+003, 1.369364e-002
2.240878e+003, 1.253948e-002
2.242807e+003, 1.248058e-002
2.244735e+003, 1.299741e-002
2.246664e+003, 1.418890e-002
2.248592e+003, 1.448401e-002
2.250521e+003, 1.420962e-002
2.252449e+003, 1.320743e-002
2.254377e+003, 1.251518e-002
2.256306e+003, 1.195344e-002
2.258234e+003, 1.212475e-002
2.260163e+003, 1.222180e-002
2.262091e+003, 1.218020e-002
2.264020e+003, 1.281519e-002
2.265948e+003, 1.281274e-002
2.267877e+003, 1.270822e-002
2.269805e+003, 1.336919e-002
2.271734e+003, 1.343396e-002
2.273662e+003, 1.369695e-002
2.275591e+003, 1.365980e-002
2.277519e+003, 1.334032e-002
2.279448e+003, 1.316662e-002
2.281376e+003, 1.343217e-002
2.283304e+003, 1.348010e-002
2.285233e+003, 1.342848e-002
2.287161e+003, 1.316293e-002
2.289090e+003, 1.265791e-002
2.291018e+003, 1.221759e-002
2.292947e+003, 1.239486e-002
2.294875e+003, 1.219358e-002
2.296804e+003, 1.177557e-002
2.298732e+003, 1.188738e-002
2.300661e+003, 1.249103e-002
2.302589e+003, 1.233058e-002
2.304518e+003, 1.212630e-002
2.306446e+003, 1.212791e-002
2.308375e+003, 1.166788e-002
2.310303e+003, 1.171622e-002
2.312231e+003, 1.177301e-002
2.314160e+003, 1.169136e-002
2.316088e+003, 1.190688e-002
2.318017e+003, 1.203046e-002
2.319945e+003, 1.225288e-002
2.321874e+003, 1.234346e-002
2.323802e+003, 1.229394e-002
2.325731e+003, 1.169112e-002
2.327659e+003, 1.107823e-002
2.329588e+003, 1.098438e-002
2.331516e+003, 1.111722e-002
2.333445e+003, 1.106030e-002
2.335373e+003, 1.101359e-002
2.337302e+003, 1.088857e-002
2.339230e+003, 1.099367e-002
2.341158e+003, 1.138457e-002
2.343087e+003, 1.155036e-002
2.345015e+003, 1.117974e-002
2.346944e+003, 1.089172e-002
2.348872e+003, 1.049814e-002
2.350801e+003, 1.075805e-002
2.352729e+003, 1.113239e-002
2.354658e+003, 1.126956e-002
2.356586e+003, 1.094769e-002
2.358515e+003, 1.048114e-002
2.360443e+003, 1.045480e-002
2.362372e+003, 1.078530e-002
2.364300e+003, 1.110964e-002
2.366229e+003, 1.137348e-002
2.368157e+003, 1.125418e-002
2.370085e+003, 1.086043e-002
2.372014e+003, 1.098207e-002
2.373942e+003, 1.126095e-002
2.375871e+003, 1.107280e-002
2.377799e+003, 1.080134e-002
2.379728e+003, 1.090970e-002
2.381656e+003, 1.112160e-002
2.383585e+003, 1.088154e-002
2.385513e+003, 1.125901e-002
2.387442e+003, 1.143875e-002
2.389370e+003, 1.163789e-002
2.391299e+003, 1.167368e-002
2.393227e+003, 1.134048e-002
2.395156e+003, 1.131450e-002
2.397084e+003, 1.118915e-002
2.399012e+003, 1.136855e-002
2.400941e+003, 1.186660e-002
2.402869e+003, 1.147710e-002
2.404798e+003, 1.154920e-002
2.406726e+003, 1.171296e-002
2.408655e+003, 1.149769e-002
2.410583e+003, 1.151322e-002
2.412512e+003, 1.213926e-002
2.414440e+003, 1.248858e-002
2.416369e+003, 1.240489e-002
2.418297e+003, 1.213651e-002
2.420226e+003, 1.271318e-002
2.422154e+003, 1.240153e-002
2.424083e+003, 1.209044e-002
2.426011e+003, 1.213346e-002
2.427939e+003, 1.215878e-002
2.429868e+003, 1.177571e-002
2.431796e+003, 1.227879e-002
2.433725e+003, 1.221200e-002
2.435653e+003, 1.183362e-002
2.437582e+003, 1.145767e-002
2.439510e+003, 1.205557e-002
2.441439e+003, 1.229434e-002
2.443367e+003, 1.257573e-002
2.445296e+003, 1.286178e-002
2.447224e+003, 1.254189e-002
2.449153e+003, 1.266409e-002
2.451081e+003, 1.286430e-002
2.453010e+003, 1.254575e-002
2.454938e+003, 1.242827e-002
2.456866e+003, 1.271387e-002
2.458795e+003, 1.255607e-002
2.460723e+003, 1.220498e-002
2.462652e+003, 1.246044e-002
2.464580e+003, 1.233800e-002
2.466509e+003, 1.233789e-002
2.468437e+003, 1.272458e-002
2.470366e+003, 1.270412e-002
2.472294e+003, 1.202676e-002
2.474223e+003, 1.157473e-002
2.476151e+003, 1.225261e-002
2.478080e+003, 1.289943e-002
2.480008e+003, 1.270458e-002
2.481937e+003, 1.211251e-002
2.483865e+003, 1.226590e-002
2.485793e+003, 1.256716e-002
2.487722e+003, 1.235103e-002
2.489650e+003, 1.211042e-002
2.491579e+003, 1.174076e-002
2.493507e+003, 1.220869e-002
2.495436e+003, 1.227773e-002
2.497364e+003, 1.174189e-002
2.499293e+003, 1.173218e-002
2.501221e+003, 1.198947e-002
2.503150e+003, 1.202169e-002
2.505078e+003, 1.215589e-002
2.507007e+003, 1.247313e-002
2.508935e+003, 1.276265e-002
2.510864e+003, 1.248623e-002
2.512792e+003, 1.241858e-002
2.514720e+003, 1.262634e-002
2.516649e+003, 1.286757e-002
2.518577e+003, 1.258820e-002
2.520506e+003, 1.226606e-002
2.522434e+003, 1.236087e-002
2.524363e+003, 1.236532e-002
2.526291e+003, 1.210788e-002
2.528220e+003, 1.181302e-002
2.530148e+003, 1.138766e-002
2.532077e+003, 1.163633e-002
2.534005e+003, 1.200162e-002
2.535934e+003, 1.242779e-002
2.537862e+003, 1.245050e-002
2.539791e+003, 1.284240e-002
2.541719e+003, 1.276567e-002
2.543647e+003, 1.228940e-002
2.545576e+003, 1.210301e-002
2.547504e+003, 1.282305e-002
2.549433e+003, 1.312657e-002
2.551361e+003, 1.283954e-002
2.553290e+003, 1.211637e-002
2.555218e+003, 1.224159e-002
2.557147e+003, 1.238754e-002
2.559075e+003, 1.251623e-002
2.561004e+003, 1.289926e-002
2.562932e+003, 1.294916e-002
2.564861e+003, 1.279875e-002
2.566789e+003, 1.277835e-002
2.568718e+003, 1.244227e-002
2.570646e+003, 1.255701e-002
2.572574e+003, 1.290206e-002
2.574503e+003, 1.300853e-002
2.576431e+003, 1.268609e-002
2.578360e+003, 1.266310e-002
2.580288e+003, 1.287827e-002
2.582217e+003, 1.231927e-002
2.584145e+003, 1.170944e-002
2.586074e+003, 1.226342e-002
2.588002e+003, 1.269342e-002
2.589931e+003, 1.266956e-002
2.591859e+003, 1.272276e-002
2.593788e+003, 1.253815e-002
2.595716e+003, 1.254234e-002
2.597645e+003, 1.261648e-002
2.599573e+003, 1.265537e-002
2.601501e+003, 1.280291e-002
2.603430e+003, 1.327207e-002
2.605358e+003, 1.341432e-002
2.607287e+003, 1.303828e-002
2.609215e+003, 1.294823e-002
2.611144e+003, 1.312644e-002
2.613072e+003, 1.296720e-002
2.615001e+003, 1.296072e-002
2.616929e+003, 1.349511e-002
2.618858e+003, 1.364528e-002
2.620786e+003, 1.358414e-002
2.622715e+003, 1.364004e-002
2.624643e+003, 1.340551e-002
2.626572e+003, 1.345419e-002
2.628500e+003, 1.384623e-002
2.630428e+003, 1.376799e-002
2.632357e+003, 1.387077e-002
2.634285e+003, 1.379373e-002
2.636214e+003, 1.352195e-002
2.638142e+003, 1.353370e-002
2.640071e+003, 1.382696e-002
2.641999e+003, 1.417963e-002
2.643928e+003, 1.377418e-002
2.645856e+003, 1.339337e-002
2.647785e+003, 1.330738e-002
2.649713e+003, 1.324141e-002
2.651642e+003, 1.341670e-002
2.653570e+003, 1.344416e-002
2.655499e+003, 1.363944e-002
2.657427e+003, 1.348214e-002
2.659355e+003, 1.311695e-002
2.661284e+003, 1.305341e-002
2.663212e+003, 1.334546e-002
2.665141e+003, 1.331233e-002
2.667069e+003, 1.294991e-002
2.668998e+003, 1.284900e-002
2.670926e+003, 1.277535e-002
2.672855e+003, 1.288800e-002
2.674783e+003, 1.290544e-002
2.676712e+003, 1.294766e-002
2.678640e+003, 1.324904e-002
2.680569e+003, 1.326092e-002
2.682497e+003, 1.290742e-002
2.684426e+003, 1.311475e-002
2.686354e+003, 1.323121e-002
2.688282e+003, 1.293015e-002
2.690211e+003, 1.312357e-002
2.692139e+003, 1.354464e-002
2.694068e+003, 1.346757e-002
2.695996e+003, 1.337474e-002
2.697925e+003, 1.304468e-002
2.699853e+003, 1.275356e-002
2.701782e+003, 1.297181e-002
2.703710e+003, 1.328129e-002
2.705639e+003, 1.364167e-002
2.707567e+003, 1.363280e-002
2.709496e+003, 1.315917e-002
2.711424e+003, 1.314919e-002
2.713353e+003, 1.343341e-002
2.715281e+003, 1.334906e-002
2.717209e+003, 1.326013e-002
2.719138e+003, 1.341658e-002
2.721066e+003, 1.346450e-002
2.722995e+003, 1.319392e-002
2.724923e+003, 1.327604e-002
2.726852e+003, 1.305457e-002
2.728780e+003, 1.325863e-002
2.730709e+003, 1.369306e-002
2.732637e+003, 1.352212e-002
2.734566e+003, 1.326256e-002
2.736494e+003, 1.302558e-002
2.738423e+003, 1.318815e-002
2.740351e+003, 1.330082e-002
2.742280e+003, 1.339785e-002
2.744208e+003, 1.380881e-002
2.746136e+003, 1.371845e-002
2.748065e+003, 1.358691e-002
2.749993e+003, 1.375874e-002
2.751922e+003, 1.349855e-002
2.753850e+003, 1.344332e-002
2.755779e+003, 1.384977e-002
2.757707e+003, 1.380420e-002
2.759636e+003, 1.359938e-002
2.761564e+003, 1.356762e-002
2.763493e+003, 1.390726e-002
2.765421e+003, 1.405632e-002
2.767350e+003, 1.404181e-002
2.769278e+003, 1.398654e-002
2.771207e+003, 1.411835e-002
2.773135e+003, 1.426763e-002
2.775063e+003, 1.408424e-002
2.776992e+003, 1.388515e-002
2.778920e+003, 1.406461e-002
2.780849e+003, 1.414679e-002
2.782777e+003, 1.399953e-002
2.784706e+003, 1.406096e-002
2.786634e+003, 1.444373e-002
2.788563e+003, 1.439296e-002
2.790491e+003, 1.394831e-002
2.792420e+003, 1.367217e-002
2.794348e+003, 1.374734e-002
2.796277e+003, 1.387567e-002
2.798205e+003, 1.444530e-002
2.800134e+003, 1.450888e-002
2.802062e+003, 1.441366e-002
2.803990e+003, 1.442038e-002
2.805919e+003, 1.443426e-002
2.807847e+003, 1.475271e-002
2.809776e+003, 1.515642e-002
2.811704e+003, 1.457198e-002
2.813633e+003, 1.435304e-002
2.815561e+003, 1.438498e-002
2.817490e+003, 1.443036e-002
2.819418e+003, 1.435935e-002
2.821347e+003, 1.405549e-002
2.823275e+003, 1.452723e-002
2.825204e+003, 1.477579e-002
2.827132e+003, 1.462614e-002
2.829061e+003, 1.478981e-002
2.830989e+003, 1.484138e-002
2.832917e+003, 1.493027e-002
2.834846e+003, 1.495060e-002
2.836774e+003, 1.526136e-002
2.838703e+003, 1.570244e-002
2.840631e+003, 1.560921e-002
2.842560e+003, 1.519147e-002
2.844488e+003, 1.514920e-002
2.846417e+003, 1.499873e-002
2.848345e+003, 1.515963e-002
2.850274e+003, 1.570453e-002
2.852202e+003, 1.609672e-002
2.854131e+003, 1.610971e-002
2.856059e+003, 1.553319e-002
2.857988e+003, 1.550466e-002
2.859916e+003, 1.608404e-002
2.861844e+003, 1.635206e-002
2.863773e+003, 1.619582e-002
2.865701e+003, 1.575519e-002
2.867630e+003, 1.542939e-002
2.869558e+003, 1.496925e-002
2.871487e+003, 1.520031e-002
2.873415e+003, 1.551608e-002
2.875344e+003, 1.546013e-002
2.877272e+003, 1.574707e-002
2.879201e+003, 1.595143e-002
2.881129e+003, 1.579179e-002
2.883058e+003, 1.563968e-002
2.884986e+003, 1.573319e-002
2.886915e+003, 1.577589e-002
2.888843e+003, 1.564182e-002
2.890771e+003, 1.586895e-002
2.892700e+003, 1.561518e-002
2.894628e+003, 1.595048e-002
2.896557e+003, 1.664100e-002
2.898485e+003, 1.667340e-002
2.900414e+003, 1.643300e-002
2.902342e+003, 1.639834e-002
2.904271e+003, 1.654604e-002
2.906199e+003, 1.634378e-002
2.908128e+003, 1.596798e-002
2.910056e+003, 1.632996e-002
2.911985e+003, 1.676992e-002
2.913913e+003, 1.699816e-002
2.915842e+003, 1.681643e-002
2.917770e+003, 1.669114e-002
2.919698e+003, 1.674726e-002
2.921627e+003, 1.700300e-002
2.923555e+003, 1.721424e-002
2.925484e+003, 1.743725e-002
2.927412e+003, 1.700448e-002
2.929341e+003, 1.679655e-002
2.931269e+003, 1.694147e-002
2.933198e+003, 1.698847e-002
2.935126e+003, 1.642838e-002
2.937055e+003, 1.642922e-002
2.938983e+003, 1.643305e-002
2.940912e+003, 1.638878e-002
2.942840e+003, 1.640437e-002
2.944769e+003, 1.624774e-002
2.946697e+003, 1.612758e-002
2.948625e+003, 1.624541e-002
2.950554e+003, 1.658142e-002
2.952482e+003, 1.653807e-002
2.954411e+003, 1.594745e-002
2.956339e+003, 1.601817e-002
2.958268e+003, 1.624978e-002
2.960196e+003, 1.653654e-002
2.962125e+003, 1.684461e-002
2.964053e+003, 1.631909e-002
2.965982e+003, 1.603201e-002
2.967910e+003, 1.572847e-002
2.969839e+003, 1.534103e-002
2.971767e+003, 1.523424e-002
2.973696e+003, 1.536238e-002
2.975624e+003, 1.525554e-002
2.977552e+003, 1.495851e-002
2.979481e+003, 1.495864e-002
2.981409e+003, 1.515743e-002
2.983338e+003, 1.557224e-002
2.985266e+003, 1.555620e-002
2.987195e+003, 1.513021e-002
2.989123e+003, 1.496055e-002
2.991052e+003, 1.495249e-002
2.992980e+003, 1.451072e-002
2.994909e+003, 1.473164e-002
2.996837e+003, 1.512340e-002
2.998766e+003, 1.512231e-002
3.000694e+003, 1.434020e-002
3.002623e+003, 1.400297e-002
3.004551e+003, 1.426468e-002
3.006479e+003, 1.481466e-002
3.008408e+003, 1.464796e-002
3.010336e+003, 1.497594e-002
3.012265e+003, 1.517113e-002
3.014193e+003, 1.487617e-002
3.016122e+003, 1.418437e-002
3.018050e+003, 1.388326e-002
3.019979e+003, 1.421802e-002
3.021907e+003, 1.464429e-002
3.023836e+003, 1.494304e-002
3.025764e+003, 1.514902e-002
3.027693e+003, 1.488127e-002
3.029621e+003, 1.446882e-002
3.031550e+003, 1.406763e-002
3.033478e+003, 1.406787e-002
3.035406e+003, 1.445270e-002
3.037335e+003, 1.459152e-002
3.039263e+003, 1.491954e-002
3.041192e+003, 1.469211e-002
3.043120e+003, 1.453315e-002
3.045049e+003, 1.525896e-002
3.046977e+003, 1.495894e-002
3.048906e+003, 1.500511e-002
3.050834e+003, 1.535316e-002
3.052763e+003, 1.541436e-002
3.054691e+003, 1.528640e-002
3.056620e+003, 1.492865e-002
3.058548e+003, 1.471213e-002
3.060477e+003, 1.504301e-002
3.062405e+003, 1.545372e-002
3.064333e+003, 1.578449e-002
3.066262e+003, 1.541269e-002
3.068190e+003, 1.478835e-002
3.070119e+003, 1.425676e-002
3.072047e+003, 1.388924e-002
3.073976e+003, 1.435203e-002
3.075904e+003, 1.491251e-002
3.077833e+003, 1.499096e-002
3.079761e+003, 1.536667e-002
3.081690e+003, 1.556409e-002
3.083618e+003, 1.563546e-002
3.085547e+003, 1.554638e-002
3.087475e+003, 1.541239e-002
3.089404e+003, 1.559827e-002
3.091332e+003, 1.565303e-002
3.093260e+003, 1.552980e-002
3.095189e+003, 1.591136e-002
3.097117e+003, 1.561731e-002
3.099046e+003, 1.467824e-002
3.100974e+003, 1.426732e-002
3.102903e+003, 1.435279e-002
3.104831e+003, 1.472133e-002
3.106760e+003, 1.521491e-002
3.108688e+003, 1.580721e-002
3.110617e+003, 1.566450e-002
3.112545e+003, 1.535022e-002
3.114474e+003, 1.522242e-002
3.116402e+003, 1.482143e-002
3.118331e+003, 1.492279e-002
3.120259e+003, 1.503418e-002
3.122188e+003, 1.540148e-002
3.124116e+003, 1.552504e-002
3.126044e+003, 1.547105e-002
3.127973e+003, 1.566587e-002
3.129901e+003, 1.525913e-002
3.131830e+003, 1.509522e-002
3.133758e+003, 1.598832e-002
3.135687e+003, 1.654576e-002
3.137615e+003, 1.609283e-002
3.139544e+003, 1.613000e-002
3.141472e+003, 1.631764e-002
3.143401e+003, 1.657804e-002
3.145329e+003, 1.664563e-002
3.147258e+003, 1.676068e-002
3.149186e+003, 1.662586e-002
3.151115e+003, 1.619324e-002
3.153043e+003, 1.646112e-002
3.154971e+003, 1.655989e-002
3.156900e+003, 1.700967e-002
3.158828e+003, 1.713274e-002
3.160757e+003, 1.717387e-002
3.162685e+003, 1.714873e-002
3.164614e+003, 1.691102e-002
3.166542e+003, 1.678996e-002
3.168471e+003, 1.631712e-002
3.170399e+003, 1.565629e-002
3.172328e+003, 1.541360e-002
3.174256e+003, 1.580283e-002
3.176185e+003, 1.650893e-002
3.178113e+003, 1.679801e-002
3.180042e+003, 1.710699e-002
3.181970e+003, 1.629947e-002
3.183898e+003, 1.571270e-002
3.185827e+003, 1.580745e-002
3.187755e+003, 1.606705e-002
3.189684e+003, 1.663898e-002
3.191612e+003, 1.707703e-002
3.193541e+003, 1.669997e-002
3.195469e+003, 1.625209e-002
3.197398e+003, 1.633587e-002
3.199326e+003, 1.642771e-002
3.201255e+003, 1.642991e-002
3.203183e+003, 1.612297e-002
3.205112e+003, 1.530938e-002
3.207040e+003, 1.517348e-002
3.208969e+003, 1.575771e-002
3.210897e+003, 1.624941e-002
3.212825e+003, 1.632481e-002
3.214754e+003, 1.649533e-002
3.216682e+003, 1.652056e-002
3.218611e+003, 1.674980e-002
3.220539e+003, 1.597726e-002
3.222468e+003, 1.594399e-002
3.224396e+003, 1.570343e-002
3.226325e+003, 1.578032e-002
3.228253e+003, 1.687906e-002
3.230182e+003, 1.715199e-002
3.232110e+003, 1.635499e-002
3.234039e+003, 1.674100e-002
3.235967e+003, 1.704563e-002
3.237896e+003, 1.645957e-002
3.239824e+003, 1.607837e-002
3.241752e+003, 1.619509e-002
3.243681e+003, 1.631785e-002
3.245609e+003, 1.700899e-002
3.247538e+003, 1.665553e-002
3.249466e+003, 1.648703e-002
3.251395e+003, 1.693168e-002
3.253323e+003, 1.747969e-002
3.255252e+003, 1.714996e-002
3.257180e+003, 1.665918e-002
3.259109e+003, 1.716665e-002
3.261037e+003, 1.737709e-002
3.262966e+003, 1.710967e-002
3.264894e+003, 1.737997e-002
3.266823e+003, 1.699685e-002
3.268751e+003, 1.639665e-002
3.270679e+003, 1.623767e-002
3.272608e+003, 1.602650e-002
3.274536e+003, 1.670898e-002
3.276465e+003, 1.669019e-002
3.278393e+003, 1.648762e-002
3.280322e+003, 1.623119e-002
3.282250e+003, 1.688966e-002
3.284179e+003, 1.766654e-002
3.286107e+003, 1.701105e-002
3.288036e+003, 1.668629e-002
3.289964e+003, 1.704434e-002
3.291893e+003, 1.742163e-002
3.293821e+003, 1.725229e-002
3.295750e+003, 1.718936e-002
3.297678e+003, 1.682166e-002
3.299606e+003, 1.664061e-002
3.301535e+003, 1.668291e-002
3.303463e+003, 1.676590e-002
3.305392e+003, 1.628826e-002
3.307320e+003, 1.685695e-002
3.309249e+003, 1.772573e-002
3.311177e+003, 1.731798e-002
3.313106e+003, 1.663166e-002
3.315034e+003, 1.720183e-002
3.316963e+003, 1.777155e-002
3.318891e+003, 1.802919e-002
3.320820e+003, 1.856191e-002
3.322748e+003, 1.790911e-002
3.324677e+003, 1.641488e-002
3.326605e+003, 1.577989e-002
3.328533e+003, 1.634298e-002
3.330462e+003, 1.625529e-002
3.332390e+003, 1.609770e-002
3.334319e+003, 1.631475e-002
3.336247e+003, 1.680645e-002
3.338176e+003, 1.704002e-002
3.340104e+003, 1.708527e-002
3.342033e+003, 1.800021e-002
3.343961e+003, 1.836629e-002
3.345890e+003, 1.706206e-002
3.347818e+003, 1.636112e-002
3.349747e+003, 1.671891e-002
3.351675e+003, 1.689630e-002
3.353604e+003, 1.626050e-002
3.355532e+003, 1.570934e-002
3.357460e+003, 1.549893e-002
3.359389e+003, 1.570126e-002
3.361317e+003, 1.662088e-002
3.363246e+003, 1.736122e-002
3.365174e+003, 1.750662e-002
3.367103e+003, 1.698229e-002
3.369031e+003, 1.671451e-002
3.370960e+003, 1.715452e-002
3.372888e+003, 1.710229e-002
3.374817e+003, 1.691844e-002
3.376745e+003, 1.739678e-002
3.378674e+003, 1.668353e-002
3.380602e+003, 1.658365e-002
3.382531e+003, 1.719209e-002
3.384459e+003, 1.611031e-002
3.386387e+003, 1.534995e-002
3.388316e+003, 1.553856e-002
3.390244e+003, 1.609663e-002
3.392173e+003, 1.703061e-002
3.394101e+003, 1.811362e-002
3.396030e+003, 1.776689e-002
3.397958e+003, 1.667954e-002
3.399887e+003, 1.620563e-002
3.401815e+003, 1.702452e-002
3.403744e+003, 1.791861e-002
3.405672e+003, 1.755275e-002
3.407601e+003, 1.679309e-002
3.409529e+003, 1.705792e-002
3.411458e+003, 1.760477e-002
3.413386e+003, 1.737753e-002
3.415314e+003, 1.754781e-002
3.417243e+003, 1.709576e-002
3.419171e+003, 1.694090e-002
3.421100e+003, 1.710667e-002
3.423028e+003, 1.705441e-002
3.424957e+003, 1.723177e-002
3.426885e+003, 1.687549e-002
3.428814e+003, 1.709797e-002
3.430742e+003, 1.681766e-002
3.432671e+003, 1.590736e-002
3.434599e+003, 1.652743e-002
3.436528e+003, 1.649658e-002
3.438456e+003, 1.666900e-002
3.440385e+003, 1.655518e-002
3.442313e+003, 1.641748e-002
3.444241e+003, 1.711949e-002
3.446170e+003, 1.706296e-002
3.448098e+003, 1.717563e-002
3.450027e+003, 1.742928e-002
3.451955e+003, 1.663623e-002
3.453884e+003, 1.625695e-002
3.455812e+003, 1.571544e-002
3.457741e+003, 1.638475e-002
3.459669e+003, 1.710298e-002
3.461598e+003, 1.696431e-002
3.463526e+003, 1.661442e-002
3.465455e+003, 1.590280e-002
3.467383e+003, 1.604117e-002
3.469312e+003, 1.606548e-002
3.471240e+003, 1.598972e-002
3.473168e+003, 1.604798e-002
3.475097e+003, 1.682598e-002
3.477025e+003, 1.776763e-002
3.478954e+003, 1.739898e-002
3.480882e+003, 1.695642e-002
3.482811e+003, 1.742315e-002
3.484739e+003, 1.766050e-002
3.486668e+003, 1.746732e-002
3.488596e+003, 1.802622e-002
3.490525e+003, 1.848958e-002
3.492453e+003, 1.792411e-002
3.494382e+003, 1.622455e-002
3.496310e+003, 1.544763e-002
3.498239e+003, 1.624901e-002
3.500167e+003, 1.666576e-002
3.502095e+003, 1.624755e-002
3.504024e+003, 1.621924e-002
3.505952e+003, 1.609929e-002
3.507881e+003, 1.660585e-002
3.509809e+003, 1.626955e-002
3.511738e+003, 1.572836e-002
3.513666e+003, 1.655595e-002
3.515595e+003, 1.721297e-002
3.517523e+003, 1.672797e-002
3.519452e+003, 1.635372e-002
3.521380e+003, 1.609567e-002
3.523309e+003, 1.648799e-002
3.525237e+003, 1.781396e-002
3.527166e+003, 1.900916e-002
3.529094e+003, 1.906647e-002
3.531022e+003, 1.852266e-002
3.532951e+003, 1.885749e-002
3.534879e+003, 1.945226e-002
3.536808e+003, 1.968011e-002
3.538736e+003, 1.952215e-002
3.540665e+003, 1.968101e-002
3.542593e+003, 2.003040e-002
3.544522e+003, 1.885428e-002
3.546450e+003, 1.804902e-002
3.548379e+003, 1.757913e-002
3.550307e+003, 1.760347e-002
3.552236e+003, 1.806864e-002
3.554164e+003, 1.724327e-002
3.556093e+003, 1.620321e-002
3.558021e+003, 1.620848e-002
3.559949e+003, 1.618703e-002
3.561878e+003, 1.613003e-002
3.563806e+003, 1.515868e-002
3.565735e+003, 1.471961e-002
3.567663e+003, 1.463729e-002
3.569592e+003, 1.464465e-002
3.571520e+003, 1.515454e-002
3.573449e+003, 1.510946e-002
3.575377e+003, 1.420582e-002
3.577306e+003, 1.324422e-002
3.579234e+003, 1.256180e-002
3.581163e+003, 1.255332e-002
3.583091e+003, 1.307100e-002
3.585020e+003, 1.401545e-002
3.586948e+003, 1.357423e-002
3.588876e+003, 1.244055e-002
3.590805e+003, 1.227051e-002
3.592733e+003, 1.245378e-002
3.594662e+003, 1.173338e-002
3.596590e+003, 1.212435e-002
3.598519e+003, 1.371025e-002
3.600447e+003, 1.493420e-002
3.602376e+003, 1.459236e-002
3.604304e+003, 1.336985e-002
3.606233e+003, 1.241183e-002
3.608161e+003, 1.298328e-002
3.610090e+003, 1.406515e-002
3.612018e+003, 1.433793e-002
3.613947e+003, 1.407799e-002
3.615875e+003, 1.422422e-002
3.617803e+003, 1.400845e-002
3.619732e+003, 1.308112e-002
3.621660e+003, 1.252546e-002
3.623589e+003, 1.262588e-002
3.625517e+003, 1.347727e-002
3.627446e+003, 1.329017e-002
3.629374e+003, 1.179704e-002
3.631303e+003, 1.105899e-002
3.633231e+003, 1.113269e-002
3.635160e+003, 1.060588e-002
3.637088e+003, 1.006803e-002
3.639017e+003, 1.142722e-002
3.640945e+003, 1.210506e-002
3.642874e+003, 1.186708e-002
3.644802e+003, 1.323551e-002
3.646730e+003, 1.384313e-002
3.648659e+003, 1.287238e-002
3.650587e+003, 1.236974e-002
3.652516e+003, 1.275618e-002
3.654444e+003, 1.336472e-002
3.656373e+003, 1.387721e-002
3.658301e+003, 1.301336e-002
3.660230e+003, 1.288445e-002
3.662158e+003, 1.342606e-002
3.664087e+003, 1.250922e-002
3.666015e+003, 1.217679e-002
3.667944e+003, 1.261425e-002
3.669872e+003, 1.289011e-002
3.671801e+003, 1.218108e-002
3.673729e+003, 1.274280e-002
3.675657e+003, 1.434698e-002
3.677586e+003, 1.315011e-002
3.679514e+003, 1.232769e-002
3.681443e+003, 1.268481e-002
3.683371e+003, 1.274233e-002
3.685300e+003, 1.288370e-002
3.687228e+003, 1.432161e-002
3.689157e+003, 1.405340e-002
3.691085e+003, 1.203604e-002
3.693014e+003, 1.168047e-002
3.694942e+003, 1.232431e-002
3.696871e+003, 1.250202e-002
3.698799e+003, 1.182808e-002
3.700728e+003, 1.164051e-002
3.702656e+003, 1.160634e-002
3.704584e+003, 1.263758e-002
3.706513e+003, 1.329813e-002
3.708441e+003, 1.291688e-002
3.710370e+003, 1.311737e-002
3.712298e+003, 1.384214e-002
3.714227e+003, 1.380794e-002
3.716155e+003, 1.421596e-002
3.718084e+003, 1.283229e-002
3.720012e+003, 1.234549e-002
3.721941e+003, 1.315452e-002
3.723869e+003, 1.276267e-002
3.725798e+003, 1.259638e-002
3.727726e+003, 1.262911e-002
3.729655e+003, 1.179861e-002
3.731583e+003, 1.164860e-002
3.733511e+003, 1.173354e-002
3.735440e+003, 1.250754e-002
3.737368e+003, 1.239470e-002
3.739297e+003, 1.216439e-002
3.741225e+003, 1.297066e-002
3.743154e+003, 1.373261e-002
3.745082e+003, 1.381151e-002
3.747011e+003, 1.402422e-002
3.748939e+003, 1.513962e-002
3.750868e+003, 1.453839e-002
3.752796e+003, 1.277914e-002
3.754725e+003, 1.194547e-002
3.756653e+003, 1.213128e-002
3.758582e+003, 1.309997e-002
3.760510e+003, 1.461385e-002
3.762438e+003, 1.458940e-002
3.764367e+003, 1.455737e-002
3.766295e+003, 1.383133e-002
3.768224e+003, 1.245244e-002
3.770152e+003, 1.267771e-002
3.772081e+003, 1.269957e-002
3.774009e+003, 1.189092e-002
3.775938e+003, 1.204987e-002
3.777866e+003, 1.347322e-002
3.779795e+003, 1.396984e-002
3.781723e+003, 1.337101e-002
3.783652e+003, 1.290216e-002
3.785580e+003, 1.251262e-002
3.787509e+003, 1.170295e-002
3.789437e+003, 1.220571e-002
3.791365e+003, 1.144392e-002
3.793294e+003, 9.887310e-003
3.795222e+003, 1.054095e-002
3.797151e+003, 1.174812e-002
3.799079e+003, 1.158322e-002
3.801008e+003, 1.277803e-002
3.802936e+003, 1.276701e-002
3.804865e+003, 1.171173e-002
3.806793e+003, 1.210567e-002
3.808722e+003, 1.218568e-002
3.810650e+003, 1.143230e-002
3.812579e+003, 1.194622e-002
3.814507e+003, 1.330479e-002
3.816436e+003, 1.409070e-002
3.818364e+003, 1.291814e-002
3.820292e+003, 1.200897e-002
3.822221e+003, 1.258780e-002
3.824149e+003, 1.323009e-002
3.826078e+003, 1.306595e-002
3.828006e+003, 1.255667e-002
3.829935e+003, 1.277503e-002
3.831863e+003, 1.285097e-002
3.833792e+003, 1.269245e-002
3.835720e+003, 1.322068e-002
3.837649e+003, 1.373548e-002
3.839577e+003, 1.214721e-002
3.841506e+003, 1.171502e-002
3.843434e+003, 1.125072e-002
3.845363e+003, 1.146830e-002
3.847291e+003, 1.250316e-002
3.849219e+003, 1.274823e-002
3.851148e+003, 1.274899e-002
3.853076e+003, 1.353917e-002
3.855005e+003, 1.339544e-002
3.856933e+003, 1.343117e-002
3.858862e+003, 1.487343e-002
3.860790e+003, 1.527008e-002
3.862719e+003, 1.367669e-002
3.864647e+003, 1.166100e-002
3.866576e+003, 1.189896e-002
3.868504e+003, 1.220637e-002
3.870433e+003, 1.217090e-002
3.872361e+003, 1.194140e-002
3.874290e+003, 1.146122e-002
3.876218e+003, 1.071169e-002
3.878146e+003, 1.175567e-002
3.880075e+003, 1.300849e-002
3.882003e+003, 1.160255e-002
3.883932e+003, 1.163778e-002
3.885860e+003, 1.172839e-002
3.887789e+003, 1.202602e-002
3.889717e+003, 1.285155e-002
3.891646e+003, 1.195998e-002
3.893574e+003, 1.101061e-002
3.895503e+003, 1.047261e-002
3.897431e+003, 1.147218e-002
3.899360e+003, 1.304934e-002
3.901288e+003, 1.196223e-002
3.903217e+003, 1.116671e-002
3.905145e+003, 1.155342e-002
3.907073e+003, 1.151512e-002
3.909002e+003, 1.179915e-002
3.910930e+003, 1.153310e-002
3.912859e+003, 1.190331e-002
3.914787e+003, 1.225935e-002
3.916716e+003, 1.206075e-002
3.918644e+003, 1.169332e-002
3.920573e+003, 1.098380e-002
3.922501e+003, 1.123466e-002
3.924430e+003, 1.235923e-002
3.926358e+003, 1.236626e-002
3.928287e+003, 1.234709e-002
3.930215e+003, 1.212184e-002
3.932144e+003, 1.277867e-002
3.934072e+003, 1.338700e-002
3.936000e+003, 1.232899e-002
3.937929e+003, 1.217292e-002
3.939857e+003, 1.172092e-002
3.941786e+003, 1.086163e-002
3.943714e+003, 1.098129e-002
3.945643e+003, 9.915206e-003
3.947571e+003, 9.960769e-003
3.949500e+003, 1.107000e-002
3.951428e+003, 1.076742e-002
3.953357e+003, 1.000164e-002
3.955285e+003, 1.021514e-002
3.957214e+003, 1.151225e-002
3.959142e+003, 1.179159e-002
3.961071e+003, 1.196366e-002
3.962999e+003, 1.221206e-002
3.964927e+003, 1.233928e-002
3.966856e+003, 1.232812e-002
3.968784e+003, 1.264944e-002
3.970713e+003, 1.257520e-002
3.972641e+003, 1.185862e-002
3.974570e+003, 1.127552e-002
3.976498e+003, 1.164236e-002
3.978427e+003, 1.235812e-002
3.980355e+003, 1.233694e-002
3.982284e+003, 1.185294e-002
3.984212e+003, 1.252018e-002
3.986141e+003, 1.220665e-002
3.988069e+003, 1.111535e-002
3.989998e+003, 1.152666e-002
3.991926e+003, 1.142287e-002
3.993854e+003, 1.122265e-002
3.995783e+003, 1.048326e-002
3.997711e+003, 1.069376e-002
3.999640e+003, 1.092530e-002
##END=



