##NAMES=Forsterite
##RRUFFID=R050117
##IDEAL CHEMISTRY=Mg_2_SiO_4_
##LOCALITY=Sapat, Gilgit, Pakistan
##OWNER=RRUFF
##SOURCE=Farooq and Nazia Sawal
##DESCRIPTION=Fragment of a green crystal
##STATUS=The identification of this mineral has been confirmed by X-ray diffraction and chemical analysis
##URL=rruff.info/R050117
##MEASURED CHEMISTRY=(Mg_1.81_Fe_0.18_Ni_0.01_)_Î£=2_Si_1.00_O_4_
3.741225e+002, 1.955928e-001
3.760510e+002, 1.687539e-001
3.779795e+002, 1.455320e-001
3.799079e+002, 1.810024e-001
3.818364e+002, 2.386634e-001
3.837649e+002, 2.462744e-001
3.856933e+002, 2.346387e-001
3.876218e+002, 2.222087e-001
3.895503e+002, 2.414360e-001
3.914787e+002, 2.696763e-001
3.934072e+002, 2.779703e-001
3.953357e+002, 2.715274e-001
3.972641e+002, 2.726111e-001
3.991926e+002, 2.723425e-001
4.011211e+002, 2.609838e-001
4.030495e+002, 2.431211e-001
4.049780e+002, 2.429917e-001
4.069065e+002, 2.506005e-001
4.088349e+002, 2.610529e-001
4.107634e+002, 2.554156e-001
4.126919e+002, 2.495788e-001
4.146203e+002, 2.443503e-001
4.165488e+002, 2.343261e-001
4.184773e+002, 2.267406e-001
4.204057e+002, 2.170720e-001
4.223342e+002, 2.023265e-001
4.242627e+002, 1.900711e-001
4.261911e+002, 1.810881e-001
4.281196e+002, 1.732934e-001
4.300481e+002, 1.630100e-001
4.319765e+002, 1.534002e-001
4.339050e+002, 1.457406e-001
4.358335e+002, 1.383026e-001
4.377619e+002, 1.322429e-001
4.396904e+002, 1.283812e-001
4.416189e+002, 1.249871e-001
4.435473e+002, 1.228732e-001
4.454758e+002, 1.192021e-001
4.474043e+002, 1.145765e-001
4.493327e+002, 1.097893e-001
4.512612e+002, 1.048443e-001
4.531897e+002, 1.010126e-001
4.551181e+002, 1.002595e-001
4.570466e+002, 1.000537e-001
4.589751e+002, 1.029864e-001
4.609035e+002, 1.064234e-001
4.628320e+002, 1.092911e-001
4.647605e+002, 1.133205e-001
4.666889e+002, 1.172599e-001
4.686174e+002, 1.186548e-001
4.705459e+002, 1.184668e-001
4.724743e+002, 1.161136e-001
4.744028e+002, 1.114501e-001
4.763313e+002, 1.067372e-001
4.782597e+002, 1.023667e-001
4.801882e+002, 9.891721e-002
4.821167e+002, 9.902423e-002
4.840451e+002, 1.027323e-001
4.859736e+002, 1.113259e-001
4.879021e+002, 1.235105e-001
4.898305e+002, 1.378071e-001
4.917590e+002, 1.524598e-001
4.936875e+002, 1.661115e-001
4.956159e+002, 1.784786e-001
4.975444e+002, 1.883365e-001
4.994729e+002, 1.934492e-001
5.014013e+002, 1.946090e-001
5.033298e+002, 1.916797e-001
5.052583e+002, 1.846720e-001
5.071867e+002, 1.761125e-001
5.091152e+002, 1.694084e-001
5.110437e+002, 1.651209e-001
5.129721e+002, 1.612287e-001
5.149006e+002, 1.588758e-001
5.168290e+002, 1.580808e-001
5.187575e+002, 1.562455e-001
5.206860e+002, 1.539758e-001
5.226144e+002, 1.511070e-001
5.245429e+002, 1.464784e-001
5.264714e+002, 1.405296e-001
5.283998e+002, 1.327005e-001
5.303283e+002, 1.242407e-001
5.322568e+002, 1.170381e-001
5.341852e+002, 1.098980e-001
5.361137e+002, 1.034364e-001
5.380422e+002, 9.826522e-002
5.399706e+002, 9.405320e-002
5.418991e+002, 9.052982e-002
5.438276e+002, 8.690035e-002
5.457560e+002, 8.287054e-002
5.476845e+002, 7.786870e-002
5.496130e+002, 7.206369e-002
5.515414e+002, 6.676584e-002
5.534699e+002, 6.234603e-002
5.553984e+002, 5.791475e-002
5.573268e+002, 5.403634e-002
5.592553e+002, 5.075723e-002
5.611838e+002, 4.774764e-002
5.631122e+002, 4.527047e-002
5.650407e+002, 4.270729e-002
5.669692e+002, 3.984733e-002
5.688976e+002, 3.729538e-002
5.708261e+002, 3.576243e-002
5.727546e+002, 3.474245e-002
5.746830e+002, 3.352932e-002
5.766115e+002, 3.260150e-002
5.785400e+002, 3.224569e-002
5.804684e+002, 3.273106e-002
5.823969e+002, 3.414941e-002
5.843254e+002, 3.631924e-002
5.862538e+002, 3.945715e-002
5.881823e+002, 4.375833e-002
5.901108e+002, 4.884923e-002
5.920392e+002, 5.475486e-002
5.939677e+002, 6.173486e-002
5.958962e+002, 6.855880e-002
5.978246e+002, 7.458014e-002
5.997531e+002, 7.959403e-002
6.016816e+002, 8.266923e-002
6.036100e+002, 8.382212e-002
6.055385e+002, 8.414912e-002
6.074670e+002, 8.339325e-002
6.093954e+002, 8.145493e-002
6.113239e+002, 7.941232e-002
6.132524e+002, 7.697193e-002
6.151808e+002, 7.385790e-002
6.171093e+002, 7.025919e-002
6.190378e+002, 6.626078e-002
6.209662e+002, 6.228100e-002
6.228947e+002, 5.822804e-002
6.248232e+002, 5.409545e-002
6.267516e+002, 5.016854e-002
6.286801e+002, 4.623905e-002
6.306086e+002, 4.272489e-002
6.325370e+002, 3.903501e-002
6.344655e+002, 3.567808e-002
6.363940e+002, 3.276597e-002
6.383224e+002, 3.024778e-002
6.402509e+002, 2.791024e-002
6.421794e+002, 2.587787e-002
6.441078e+002, 2.428027e-002
6.460363e+002, 2.332096e-002
6.479648e+002, 2.213003e-002
6.498932e+002, 2.106595e-002
6.518217e+002, 2.022032e-002
6.537502e+002, 1.953081e-002
6.556786e+002, 1.878447e-002
6.576071e+002, 1.842354e-002
6.595356e+002, 1.798018e-002
6.614641e+002, 1.771522e-002
6.633925e+002, 1.756199e-002
6.653210e+002, 1.726929e-002
6.672495e+002, 1.712582e-002
6.691779e+002, 1.721376e-002
6.711064e+002, 1.731889e-002
6.730349e+002, 1.711010e-002
6.749633e+002, 1.697475e-002
6.768918e+002, 1.727465e-002
6.788203e+002, 1.730958e-002
6.807487e+002, 1.718835e-002
6.826772e+002, 1.711178e-002
6.846057e+002, 1.727633e-002
6.865341e+002, 1.736480e-002
6.884626e+002, 1.748494e-002
6.903911e+002, 1.733884e-002
6.923195e+002, 1.714578e-002
6.942480e+002, 1.733209e-002
6.961765e+002, 1.755373e-002
6.981049e+002, 1.758537e-002
7.000334e+002, 1.777138e-002
7.019619e+002, 1.789963e-002
7.038903e+002, 1.803459e-002
7.058188e+002, 1.812456e-002
7.077473e+002, 1.814548e-002
7.096757e+002, 1.831590e-002
7.116042e+002, 1.875809e-002
7.135327e+002, 1.902630e-002
7.154611e+002, 1.924214e-002
7.173896e+002, 1.958691e-002
7.193181e+002, 2.009024e-002
7.212465e+002, 2.038944e-002
7.231750e+002, 2.055657e-002
7.251035e+002, 2.077765e-002
7.270319e+002, 2.125390e-002
7.289604e+002, 2.163956e-002
7.308889e+002, 2.240836e-002
7.328173e+002, 2.299568e-002
7.347458e+002, 2.333950e-002
7.366743e+002, 2.382824e-002
7.386027e+002, 2.454849e-002
7.405312e+002, 2.513452e-002
7.424597e+002, 2.597106e-002
7.443881e+002, 2.691865e-002
7.463166e+002, 2.777565e-002
7.482451e+002, 2.846241e-002
7.501735e+002, 2.950477e-002
7.521020e+002, 3.055116e-002
7.540305e+002, 3.154293e-002
7.559589e+002, 3.261746e-002
7.578874e+002, 3.392544e-002
7.598159e+002, 3.501917e-002
7.617443e+002, 3.622473e-002
7.636728e+002, 3.750200e-002
7.656013e+002, 3.886669e-002
7.675297e+002, 4.048385e-002
7.694582e+002, 4.228029e-002
7.713867e+002, 4.399999e-002
7.733151e+002, 4.566223e-002
7.752436e+002, 4.753701e-002
7.771721e+002, 4.989623e-002
7.791005e+002, 5.205611e-002
7.810290e+002, 5.423325e-002
7.829575e+002, 5.669149e-002
7.848859e+002, 5.943785e-002
7.868144e+002, 6.205988e-002
7.887429e+002, 6.488744e-002
7.906713e+002, 6.793476e-002
7.925998e+002, 7.123588e-002
7.945283e+002, 7.454304e-002
7.964567e+002, 7.815535e-002
7.983852e+002, 8.204970e-002
8.003137e+002, 8.580323e-002
8.022421e+002, 8.965673e-002
8.041706e+002, 9.414877e-002
8.060991e+002, 9.887230e-002
8.080275e+002, 1.037502e-001
8.099560e+002, 1.085713e-001
8.118845e+002, 1.133982e-001
8.138129e+002, 1.186467e-001
8.157414e+002, 1.242971e-001
8.176699e+002, 1.301410e-001
8.195983e+002, 1.364658e-001
8.215268e+002, 1.430434e-001
8.234553e+002, 1.497944e-001
8.253837e+002, 1.565731e-001
8.273122e+002, 1.632649e-001
8.292407e+002, 1.700193e-001
8.311691e+002, 1.767655e-001
8.330976e+002, 1.827593e-001
8.350261e+002, 1.872928e-001
8.369545e+002, 1.894471e-001
8.388830e+002, 1.874247e-001
8.408115e+002, 1.810470e-001
8.427399e+002, 1.731090e-001
8.446684e+002, 1.671671e-001
8.465969e+002, 1.659066e-001
8.485253e+002, 1.699556e-001
8.504538e+002, 1.774339e-001
8.523823e+002, 1.857478e-001
8.543107e+002, 1.942883e-001
8.562392e+002, 2.025795e-001
8.581677e+002, 2.103872e-001
8.600961e+002, 2.179099e-001
8.620246e+002, 2.253042e-001
8.639531e+002, 2.322995e-001
8.658815e+002, 2.385838e-001
8.678100e+002, 2.435631e-001
8.697385e+002, 2.472882e-001
8.716669e+002, 2.499704e-001
8.735954e+002, 2.518545e-001
8.755239e+002, 2.528466e-001
8.774523e+002, 2.526816e-001
8.793808e+002, 2.509760e-001
8.813093e+002, 2.484268e-001
8.832377e+002, 2.448569e-001
8.851662e+002, 2.405289e-001
8.870947e+002, 2.354587e-001
8.890231e+002, 2.299428e-001
8.909516e+002, 2.238748e-001
8.928801e+002, 2.176768e-001
8.948085e+002, 2.115791e-001
8.967370e+002, 2.055625e-001
8.986655e+002, 1.994658e-001
9.005939e+002, 1.939413e-001
9.025224e+002, 1.885751e-001
9.044509e+002, 1.834999e-001
9.063793e+002, 1.786652e-001
9.083078e+002, 1.739458e-001
9.102363e+002, 1.693217e-001
9.121647e+002, 1.650860e-001
9.140932e+002, 1.613078e-001
9.160217e+002, 1.577090e-001
9.179501e+002, 1.540502e-001
9.198786e+002, 1.505487e-001
9.218071e+002, 1.471505e-001
9.237355e+002, 1.439032e-001
9.256640e+002, 1.407636e-001
9.275925e+002, 1.382000e-001
9.295209e+002, 1.356378e-001
9.314494e+002, 1.328046e-001
9.333779e+002, 1.299565e-001
9.353063e+002, 1.277193e-001
9.372348e+002, 1.255170e-001
9.391633e+002, 1.234942e-001
9.410917e+002, 1.214948e-001
9.430202e+002, 1.198811e-001
9.449487e+002, 1.184586e-001
9.468771e+002, 1.172493e-001
9.488056e+002, 1.160820e-001
9.507341e+002, 1.144381e-001
9.526625e+002, 1.117874e-001
9.545910e+002, 1.071351e-001
9.565195e+002, 9.903001e-002
9.584479e+002, 8.867931e-002
9.603764e+002, 8.070637e-002
9.623049e+002, 7.827464e-002
9.642333e+002, 7.988778e-002
9.661618e+002, 8.370533e-002
9.680903e+002, 8.859462e-002
9.700187e+002, 9.407400e-002
9.719472e+002, 9.957021e-002
9.738757e+002, 1.050391e-001
9.758041e+002, 1.101426e-001
9.777326e+002, 1.143770e-001
9.796611e+002, 1.162661e-001
9.815895e+002, 1.145480e-001
9.835180e+002, 1.093112e-001
9.854465e+002, 1.025879e-001
9.873749e+002, 9.623715e-002
9.893034e+002, 9.172511e-002
9.912319e+002, 8.897589e-002
9.931603e+002, 8.757349e-002
9.950888e+002, 8.666211e-002
9.970173e+002, 8.566254e-002
9.989457e+002, 8.459703e-002
1.000874e+003, 8.335118e-002
1.002803e+003, 8.179829e-002
1.004731e+003, 8.018547e-002
1.006660e+003, 7.824016e-002
1.008588e+003, 7.609759e-002
1.010517e+003, 7.375064e-002
1.012445e+003, 7.140567e-002
1.014373e+003, 6.892321e-002
1.016302e+003, 6.616949e-002
1.018230e+003, 6.365072e-002
1.020159e+003, 6.128200e-002
1.022087e+003, 5.842753e-002
1.024016e+003, 5.581185e-002
1.025944e+003, 5.317308e-002
1.027873e+003, 5.080299e-002
1.029801e+003, 4.840490e-002
1.031730e+003, 4.555920e-002
1.033658e+003, 4.285342e-002
1.035587e+003, 4.037290e-002
1.037515e+003, 3.776543e-002
1.039443e+003, 3.519237e-002
1.041372e+003, 3.262070e-002
1.043300e+003, 3.021721e-002
1.045229e+003, 2.779650e-002
1.047157e+003, 2.573304e-002
1.049086e+003, 2.360358e-002
1.051014e+003, 2.161042e-002
1.052943e+003, 1.977049e-002
1.054871e+003, 1.783245e-002
1.056800e+003, 1.619154e-002
1.058728e+003, 1.474505e-002
1.060657e+003, 1.315875e-002
1.062585e+003, 1.160944e-002
1.064514e+003, 1.032119e-002
1.066442e+003, 9.232215e-003
1.068370e+003, 8.109851e-003
1.070299e+003, 7.278944e-003
1.072227e+003, 6.556843e-003
1.074156e+003, 5.883355e-003
1.076084e+003, 5.312443e-003
1.078013e+003, 4.957870e-003
1.079941e+003, 4.626380e-003
1.081870e+003, 4.320441e-003
1.083798e+003, 3.925662e-003
1.085727e+003, 3.741186e-003
1.087655e+003, 3.503424e-003
1.089584e+003, 3.173614e-003
1.091512e+003, 2.811164e-003
1.093441e+003, 2.770977e-003
1.095369e+003, 2.592491e-003
1.097297e+003, 2.287120e-003
1.099226e+003, 1.855577e-003
1.101154e+003, 1.770165e-003
1.103083e+003, 1.738599e-003
1.105011e+003, 1.754426e-003
1.106940e+003, 1.497668e-003
1.108868e+003, 1.251821e-003
1.110797e+003, 9.903391e-004
1.112725e+003, 9.149976e-004
1.114654e+003, 1.023941e-003
1.116582e+003, 8.861814e-004
1.118511e+003, 5.028042e-004
1.120439e+003, 4.266752e-004
1.122368e+003, 3.892594e-004
1.124296e+003, 5.646641e-004
1.126224e+003, 5.510999e-004
1.128153e+003, 3.984113e-004
1.130081e+003, 3.667528e-004
1.132010e+003, 3.061236e-004
1.133938e+003, 1.659457e-004
1.135867e+003, 3.041162e-004
1.137795e+003, 2.551424e-004
1.139724e+003, 2.138262e-004
1.141652e+003, 1.093337e-004
1.143581e+003, 1.627704e-004
1.145509e+003, 1.561348e-004
1.147438e+003, 3.064533e-004
1.149366e+003, 2.489735e-004
1.151295e+003, 2.619099e-004
1.153223e+003, 1.647927e-004
1.155151e+003, 1.464609e-004
1.157080e+003, 1.628126e-004
1.159008e+003, 8.775765e-005
1.160937e+003, -7.519646e-005
1.162865e+003, -1.564478e-004
1.164794e+003, -9.960215e-005
1.166722e+003, -4.928684e-005
1.168651e+003, -2.462667e-005
1.170579e+003, 1.703767e-004
1.172508e+003, 1.303582e-004
1.174436e+003, -1.071185e-004
1.176365e+003, -2.187740e-004
1.178293e+003, -8.166854e-005
1.180222e+003, -3.128345e-005
1.182150e+003, 1.242604e-004
1.184078e+003, 1.547202e-004
1.186007e+003, 1.610258e-004
1.187935e+003, 6.416257e-005
1.189864e+003, -1.099446e-004
1.191792e+003, -1.955121e-004
1.193721e+003, -6.094727e-005
1.195649e+003, -1.186384e-004
1.197578e+003, -9.018615e-005
1.199506e+003, 7.126674e-005
1.201435e+003, 1.150191e-004
1.203363e+003, 1.734473e-005
1.205292e+003, 2.204942e-004
1.207220e+003, 2.032398e-004
1.209149e+003, 1.417254e-004
1.211077e+003, 1.671993e-004
1.213005e+003, 1.681490e-004
1.214934e+003, 1.024204e-004
1.216862e+003, 1.160121e-004
1.218791e+003, -3.602083e-005
1.220719e+003, 8.089474e-008
1.222648e+003, 1.285578e-004
1.224576e+003, 1.723506e-004
1.226505e+003, 7.587852e-005
1.228433e+003, 1.534523e-005
1.230362e+003, 6.237692e-005
1.232290e+003, 2.545586e-004
1.234219e+003, 1.162352e-004
1.236147e+003, 1.390723e-004
1.238076e+003, 2.504183e-004
1.240004e+003, 1.700832e-004
1.241932e+003, 1.220654e-004
1.243861e+003, 2.156342e-004
1.245789e+003, 1.397029e-004
1.247718e+003, 1.869391e-004
1.249646e+003, 3.434458e-004
1.251575e+003, 5.246379e-004
1.253503e+003, 4.339085e-004
1.255432e+003, 2.839770e-004
1.257360e+003, 1.651292e-004
1.259289e+003, 3.047632e-004
1.261217e+003, 2.555589e-004
1.263146e+003, 1.768160e-004
1.265074e+003, 2.514338e-004
1.267003e+003, 3.348156e-004
1.268931e+003, 3.885048e-004
1.270859e+003, 3.855978e-004
1.272788e+003, 3.877866e-004
1.274716e+003, 4.304306e-004
1.276645e+003, 3.614902e-004
1.278573e+003, 4.663726e-004
1.280502e+003, 5.679368e-004
1.282430e+003, 5.798089e-004
1.284359e+003, 5.929499e-004
1.286287e+003, 7.128888e-004
1.288216e+003, 5.604200e-004
1.290144e+003, 5.741818e-004
1.292073e+003, 7.620497e-004
1.294001e+003, 9.483909e-004
1.295930e+003, 8.610777e-004
1.297858e+003, 8.078793e-004
1.299786e+003, 8.442739e-004
1.301715e+003, 7.852287e-004
1.303643e+003, 7.161934e-004
1.305572e+003, 6.818235e-004
1.307500e+003, 8.648608e-004
1.309429e+003, 1.091223e-003
1.311357e+003, 1.058135e-003
1.313286e+003, 1.075342e-003
1.315214e+003, 1.055309e-003
1.317143e+003, 1.082042e-003
1.319071e+003, 1.089844e-003
1.321000e+003, 1.126828e-003
1.322928e+003, 1.186407e-003
1.324857e+003, 1.283335e-003
1.326785e+003, 1.209117e-003
1.328714e+003, 1.232184e-003
1.330642e+003, 1.244885e-003
1.332570e+003, 1.310633e-003
1.334499e+003, 1.399664e-003
1.336427e+003, 1.549252e-003
1.338356e+003, 1.646292e-003
1.340284e+003, 1.661580e-003
1.342213e+003, 1.543072e-003
1.344141e+003, 1.604862e-003
1.346070e+003, 1.517411e-003
1.347998e+003, 1.471403e-003
1.349927e+003, 1.471176e-003
1.351855e+003, 1.504802e-003
1.353784e+003, 1.545131e-003
1.355712e+003, 1.550980e-003
1.357641e+003, 1.563109e-003
1.359569e+003, 1.701525e-003
1.361497e+003, 1.925893e-003
1.363426e+003, 2.087772e-003
1.365354e+003, 1.993941e-003
1.367283e+003, 1.995576e-003
1.369211e+003, 2.088846e-003
1.371140e+003, 2.106468e-003
1.373068e+003, 2.043963e-003
1.374997e+003, 2.189438e-003
1.376925e+003, 2.197637e-003
1.378854e+003, 2.240152e-003
1.380782e+003, 2.238509e-003
1.382711e+003, 2.229863e-003
1.384639e+003, 2.088488e-003
1.386568e+003, 2.246874e-003
1.388496e+003, 2.363516e-003
1.390424e+003, 2.536657e-003
1.392353e+003, 2.645768e-003
1.394281e+003, 2.671612e-003
1.396210e+003, 2.624893e-003
1.398138e+003, 2.787196e-003
1.400067e+003, 2.810008e-003
1.401995e+003, 2.785412e-003
1.403924e+003, 2.906923e-003
1.405852e+003, 3.032197e-003
1.407781e+003, 3.130729e-003
1.409709e+003, 3.250664e-003
1.411638e+003, 3.292025e-003
1.413566e+003, 3.432625e-003
1.415495e+003, 3.485087e-003
1.417423e+003, 3.735491e-003
1.419351e+003, 3.834595e-003
1.421280e+003, 3.686339e-003
1.423208e+003, 3.619238e-003
1.425137e+003, 3.736675e-003
1.427065e+003, 3.824843e-003
1.428994e+003, 3.958990e-003
1.430922e+003, 3.860846e-003
1.432851e+003, 4.039438e-003
1.434779e+003, 4.231947e-003
1.436708e+003, 4.373000e-003
1.438636e+003, 4.165004e-003
1.440565e+003, 3.920052e-003
1.442493e+003, 3.781894e-003
1.444422e+003, 3.921059e-003
1.446350e+003, 4.126311e-003
1.448278e+003, 4.147705e-003
1.450207e+003, 4.138040e-003
1.452135e+003, 4.334637e-003
1.454064e+003, 4.316478e-003
1.455992e+003, 4.620710e-003
1.457921e+003, 4.674666e-003
1.459849e+003, 4.346900e-003
1.461778e+003, 4.049184e-003
1.463706e+003, 4.072585e-003
1.465635e+003, 4.017984e-003
1.467563e+003, 3.811617e-003
1.469492e+003, 3.769262e-003
1.471420e+003, 4.120790e-003
1.473349e+003, 4.170314e-003
1.475277e+003, 3.968324e-003
1.477205e+003, 3.909096e-003
1.479134e+003, 3.973176e-003
1.481062e+003, 4.053316e-003
1.482991e+003, 4.001780e-003
1.484919e+003, 3.828037e-003
1.486848e+003, 3.818340e-003
1.488776e+003, 3.880210e-003
1.490705e+003, 4.002666e-003
1.492633e+003, 3.929869e-003
1.494562e+003, 4.061755e-003
1.496490e+003, 4.104370e-003
1.498419e+003, 4.037217e-003
1.500347e+003, 3.863158e-003
1.502276e+003, 3.827867e-003
1.504204e+003, 4.146191e-003
1.506132e+003, 4.583257e-003
1.508061e+003, 4.187447e-003
1.509989e+003, 3.766149e-003
1.511918e+003, 3.695387e-003
1.513846e+003, 3.623785e-003
1.515775e+003, 3.744867e-003
1.517703e+003, 3.867430e-003
1.519632e+003, 3.932922e-003
1.521560e+003, 3.888263e-003
1.523489e+003, 3.573474e-003
1.525417e+003, 3.580182e-003
1.527346e+003, 3.605163e-003
1.529274e+003, 3.595297e-003
1.531203e+003, 3.571571e-003
1.533131e+003, 3.732625e-003
1.535059e+003, 3.657585e-003
1.536988e+003, 3.760043e-003
1.538916e+003, 4.138840e-003
1.540845e+003, 4.284645e-003
1.542773e+003, 3.893111e-003
1.544702e+003, 3.556079e-003
1.546630e+003, 3.350666e-003
1.548559e+003, 3.396769e-003
1.550487e+003, 3.647545e-003
1.552416e+003, 3.945382e-003
1.554344e+003, 4.073328e-003
1.556273e+003, 4.318152e-003
1.558201e+003, 4.738377e-003
1.560130e+003, 4.586060e-003
1.562058e+003, 3.979883e-003
1.563986e+003, 3.779607e-003
1.565915e+003, 3.810460e-003
1.567843e+003, 4.013644e-003
1.569772e+003, 4.243805e-003
1.571700e+003, 4.296340e-003
1.573629e+003, 4.244264e-003
1.575557e+003, 4.553102e-003
1.577486e+003, 4.418359e-003
1.579414e+003, 4.102121e-003
1.581343e+003, 4.036343e-003
1.583271e+003, 3.941855e-003
1.585200e+003, 3.857017e-003
1.587128e+003, 3.836590e-003
1.589057e+003, 3.952764e-003
1.590985e+003, 4.205680e-003
1.592913e+003, 4.211786e-003
1.594842e+003, 4.232995e-003
1.596770e+003, 4.103291e-003
1.598699e+003, 4.142723e-003
1.600627e+003, 4.272203e-003
1.602556e+003, 4.245508e-003
1.604484e+003, 4.151511e-003
1.606413e+003, 4.103707e-003
1.608341e+003, 4.056800e-003
1.610270e+003, 4.008966e-003
1.612198e+003, 4.110319e-003
1.614127e+003, 4.260665e-003
1.616055e+003, 4.332346e-003
1.617984e+003, 4.257362e-003
1.619912e+003, 4.112439e-003
1.621840e+003, 4.247885e-003
1.623769e+003, 4.180192e-003
1.625697e+003, 4.120570e-003
1.627626e+003, 3.966049e-003
1.629554e+003, 3.927962e-003
1.631483e+003, 4.072489e-003
1.633411e+003, 4.371850e-003
1.635340e+003, 4.473028e-003
1.637268e+003, 4.302047e-003
1.639197e+003, 4.010192e-003
1.641125e+003, 3.806320e-003
1.643054e+003, 3.703580e-003
1.644982e+003, 4.005162e-003
1.646911e+003, 4.084218e-003
1.648839e+003, 3.874195e-003
1.650767e+003, 4.049831e-003
1.652696e+003, 4.658666e-003
1.654624e+003, 4.271704e-003
1.656553e+003, 3.949550e-003
1.658481e+003, 3.941384e-003
1.660410e+003, 3.935789e-003
1.662338e+003, 3.868811e-003
1.664267e+003, 3.877346e-003
1.666195e+003, 3.952999e-003
1.668124e+003, 4.369442e-003
1.670052e+003, 4.291160e-003
1.671981e+003, 3.948343e-003
1.673909e+003, 3.888881e-003
1.675838e+003, 4.026628e-003
1.677766e+003, 3.649232e-003
1.679694e+003, 3.667019e-003
1.681623e+003, 3.894254e-003
1.683551e+003, 4.401436e-003
1.685480e+003, 4.300523e-003
1.687408e+003, 3.880391e-003
1.689337e+003, 3.784725e-003
1.691265e+003, 3.673638e-003
1.693194e+003, 3.839778e-003
1.695122e+003, 4.503225e-003
1.697051e+003, 4.543200e-003
1.698979e+003, 4.507128e-003
1.700908e+003, 4.264209e-003
1.702836e+003, 3.976733e-003
1.704765e+003, 3.944097e-003
1.706693e+003, 3.739033e-003
1.708621e+003, 3.525591e-003
1.710550e+003, 3.510265e-003
1.712478e+003, 3.468388e-003
1.714407e+003, 3.789503e-003
1.716335e+003, 3.978356e-003
1.718264e+003, 3.828072e-003
1.720192e+003, 3.445646e-003
1.722121e+003, 3.324896e-003
1.724049e+003, 3.437992e-003
1.725978e+003, 3.498372e-003
1.727906e+003, 3.314213e-003
1.729835e+003, 3.527208e-003
1.731763e+003, 3.668245e-003
1.733692e+003, 4.016508e-003
1.735620e+003, 3.668383e-003
1.737548e+003, 3.153697e-003
1.739477e+003, 3.014832e-003
1.741405e+003, 2.812318e-003
1.743334e+003, 2.853699e-003
1.745262e+003, 2.819881e-003
1.747191e+003, 2.819220e-003
1.749119e+003, 2.809942e-003
1.751048e+003, 2.829113e-003
1.752976e+003, 2.934260e-003
1.754905e+003, 2.905967e-003
1.756833e+003, 2.884093e-003
1.758762e+003, 2.916917e-003
1.760690e+003, 3.237177e-003
1.762619e+003, 3.371642e-003
1.764547e+003, 3.478341e-003
1.766475e+003, 3.380725e-003
1.768404e+003, 3.233590e-003
1.770332e+003, 3.412793e-003
1.772261e+003, 4.080655e-003
1.774189e+003, 3.725269e-003
1.776118e+003, 2.925558e-003
1.778046e+003, 2.717523e-003
1.779975e+003, 3.104859e-003
1.781903e+003, 3.471512e-003
1.783832e+003, 3.684997e-003
1.785760e+003, 3.536800e-003
1.787689e+003, 3.336963e-003
1.789617e+003, 3.117213e-003
1.791546e+003, 3.319720e-003
1.793474e+003, 3.386079e-003
1.795402e+003, 3.217844e-003
1.797331e+003, 3.111995e-003
1.799259e+003, 3.219548e-003
1.801188e+003, 3.123946e-003
1.803116e+003, 2.987961e-003
1.805045e+003, 3.062544e-003
1.806973e+003, 3.240505e-003
1.808902e+003, 3.135700e-003
1.810830e+003, 3.045315e-003
1.812759e+003, 2.834472e-003
1.814687e+003, 2.633247e-003
1.816616e+003, 2.489605e-003
1.818544e+003, 2.818664e-003
1.820473e+003, 2.865542e-003
1.822401e+003, 2.791737e-003
1.824329e+003, 2.747438e-003
1.826258e+003, 2.892079e-003
1.828186e+003, 2.954716e-003
1.830115e+003, 3.110741e-003
1.832043e+003, 2.883390e-003
1.833972e+003, 2.837332e-003
1.835900e+003, 2.673978e-003
1.837829e+003, 2.574207e-003
1.839757e+003, 2.570365e-003
1.841686e+003, 3.057081e-003
1.843614e+003, 3.501420e-003
1.845543e+003, 3.379000e-003
1.847471e+003, 2.752375e-003
1.849400e+003, 2.512466e-003
1.851328e+003, 2.464260e-003
1.853256e+003, 2.635737e-003
1.855185e+003, 2.825921e-003
1.857113e+003, 3.068854e-003
1.859042e+003, 2.832661e-003
1.860970e+003, 2.419885e-003
1.862899e+003, 2.513592e-003
1.864827e+003, 3.003577e-003
1.866756e+003, 2.685902e-003
1.868684e+003, 2.713030e-003
1.870613e+003, 2.428880e-003
1.872541e+003, 2.020393e-003
1.874470e+003, 1.956166e-003
1.876398e+003, 2.101843e-003
1.878327e+003, 2.098513e-003
1.880255e+003, 1.969885e-003
1.882183e+003, 1.939710e-003
1.884112e+003, 2.599266e-003
1.886040e+003, 2.410491e-003
1.887969e+003, 2.270547e-003
1.889897e+003, 2.923603e-003
1.891826e+003, 2.927592e-003
1.893754e+003, 2.359559e-003
1.895683e+003, 2.647743e-003
1.897611e+003, 2.319659e-003
1.899540e+003, 2.154079e-003
1.901468e+003, 1.994761e-003
1.903397e+003, 1.867447e-003
1.905325e+003, 1.397324e-003
1.907254e+003, 1.557451e-003
1.909182e+003, 1.953521e-003
1.911110e+003, 2.017889e-003
1.913039e+003, 1.802453e-003
1.914967e+003, 2.391399e-003
1.916896e+003, 2.632579e-003
1.918824e+003, 2.270487e-003
1.920753e+003, 1.770115e-003
1.922681e+003, 2.143915e-003
1.924610e+003, 2.027093e-003
1.926538e+003, 1.688132e-003
1.928467e+003, 1.599869e-003
1.930395e+003, 2.155979e-003
1.932324e+003, 1.999212e-003
1.934252e+003, 1.849930e-003
1.936181e+003, 1.431455e-003
1.938109e+003, 1.523587e-003
1.940037e+003, 1.238002e-003
1.941966e+003, 1.287564e-003
1.943894e+003, 1.490904e-003
1.945823e+003, 1.007668e-003
1.947751e+003, -2.291028e-005
1.949680e+003, -1.288687e-004
1.951608e+003, -3.151816e-004
1.953537e+003, -3.016298e-005
1.955465e+003, -8.266086e-004
1.957394e+003, -1.418586e-003
1.959322e+003, -1.023501e-003
1.961251e+003, 2.703120e-004
1.963179e+003, -2.240611e-004
1.965108e+003, -7.245837e-004
1.967036e+003, -1.101153e-003
1.968964e+003, -1.470413e-003
1.970893e+003, -2.239334e-003
1.972821e+003, -1.962177e-003
1.974750e+003, -1.358981e-003
1.976678e+003, -7.355904e-004
1.978607e+003, 7.984234e-004
1.980535e+003, 2.057250e-003
1.982464e+003, 2.001971e-003
1.984392e+003, 2.464842e-003
1.986321e+003, 2.395494e-003
1.988249e+003, 2.610302e-003
1.990178e+003, 2.045122e-003
1.992106e+003, 4.317904e-004
1.994035e+003, -8.503712e-004
1.995963e+003, 4.301120e-004
1.997891e+003, 9.484767e-004
1.999820e+003, -2.830256e-004
2.001748e+003, -1.579643e-003
2.003677e+003, -1.511977e-003
2.005605e+003, -5.605568e-004
2.007534e+003, 1.212929e-003
2.009462e+003, 4.640640e-004
2.011391e+003, -1.389985e-003
2.013319e+003, -2.116793e-003
2.015248e+003, -4.211046e-004
2.017176e+003, 7.519068e-004
2.019105e+003, 1.038451e-003
2.021033e+003, 1.626731e-004
2.022962e+003, 5.436384e-004
2.024890e+003, 8.384556e-004
2.026818e+003, 6.066339e-004
2.028747e+003, -1.887352e-004
2.030675e+003, 6.044217e-004
2.032604e+003, -2.021567e-004
2.034532e+003, -6.959598e-004
2.036461e+003, -1.963535e-005
2.038389e+003, 1.542608e-003
2.040318e+003, 1.611588e-003
2.042246e+003, 2.237890e-003
2.044175e+003, 2.137476e-003
2.046103e+003, 3.181985e-003
2.048031e+003, 4.405409e-003
2.049960e+003, 4.128368e-003
2.051888e+003, 2.205858e-003
2.053817e+003, 1.222289e-003
2.055745e+003, 2.296115e-003
2.057674e+003, 3.655112e-003
2.059602e+003, 3.364144e-003
2.061531e+003, 2.477088e-003
2.063459e+003, 2.088217e-003
2.065388e+003, 2.932422e-003
2.067316e+003, 3.073922e-003
2.069245e+003, 3.785891e-003
2.071173e+003, 4.891027e-003
2.073102e+003, 4.519188e-003
2.075030e+003, 3.364499e-003
2.076958e+003, 3.848796e-003
2.078887e+003, 3.957386e-003
2.080815e+003, 4.586727e-003
2.082744e+003, 4.598955e-003
2.084672e+003, 4.215415e-003
2.086601e+003, 3.531225e-003
2.088529e+003, 4.062418e-003
2.090458e+003, 4.444186e-003
2.092386e+003, 4.257481e-003
2.094315e+003, 3.841724e-003
2.096243e+003, 3.941802e-003
2.098172e+003, 4.011902e-003
2.100100e+003, 3.719296e-003
2.102029e+003, 3.528178e-003
2.103957e+003, 3.749996e-003
2.105885e+003, 3.721485e-003
2.107814e+003, 3.962367e-003
2.109742e+003, 4.744855e-003
2.111671e+003, 5.397455e-003
2.113599e+003, 4.604443e-003
2.115528e+003, 4.256047e-003
2.117456e+003, 4.305039e-003
2.119385e+003, 4.110373e-003
2.121313e+003, 4.032077e-003
2.123242e+003, 3.987271e-003
2.125170e+003, 3.393568e-003
2.127099e+003, 2.649026e-003
2.129027e+003, 1.041523e-003
2.130956e+003, 6.231062e-004
2.132884e+003, 1.674226e-003
2.134813e+003, 3.297509e-003
2.136741e+003, 3.354488e-003
2.138669e+003, 2.921514e-003
2.140598e+003, 2.481130e-003
2.142526e+003, 2.925714e-003
2.144455e+003, 2.615845e-003
2.146383e+003, 2.765410e-003
2.148312e+003, 2.930829e-003
2.150240e+003, 2.255311e-003
2.152169e+003, 1.780024e-003
2.154097e+003, 1.055216e-003
2.156026e+003, -3.686181e-004
2.157954e+003, 9.663435e-004
2.159883e+003, 5.240261e-003
2.161811e+003, 6.721436e-003
2.163740e+003, 6.001655e-003
2.165668e+003, 6.458903e-003
2.167596e+003, 5.385666e-003
2.169525e+003, 4.840360e-003
2.171453e+003, 5.346768e-003
2.173382e+003, 5.893028e-003
2.175310e+003, 4.798499e-003
2.177239e+003, 3.539491e-003
2.179167e+003, 3.276607e-003
2.181096e+003, 4.569630e-003
2.183024e+003, 4.788616e-003
2.184953e+003, 4.787389e-003
2.186881e+003, 5.146856e-003
2.188810e+003, 5.105604e-003
2.190738e+003, 4.907096e-003
2.192667e+003, 5.257192e-003
2.194595e+003, 5.109960e-003
2.196523e+003, 6.044248e-003
2.198452e+003, 5.713503e-003
2.200380e+003, 5.620605e-003
2.202309e+003, 5.260939e-003
2.204237e+003, 4.750663e-003
2.206166e+003, 4.655576e-003
2.208094e+003, 5.644945e-003
2.210023e+003, 6.154426e-003
2.211951e+003, 6.331162e-003
2.213880e+003, 5.790053e-003
2.215808e+003, 5.485147e-003
2.217737e+003, 4.925544e-003
2.219665e+003, 5.734748e-003
2.221594e+003, 6.713603e-003
2.223522e+003, 7.233843e-003
2.225450e+003, 6.195089e-003
2.227379e+003, 6.183967e-003
2.229307e+003, 5.853885e-003
2.231236e+003, 5.283655e-003
2.233164e+003, 5.990127e-003
2.235093e+003, 7.496327e-003
2.237021e+003, 6.980584e-003
2.238950e+003, 5.629357e-003
2.240878e+003, 5.214593e-003
2.242807e+003, 5.993932e-003
2.244735e+003, 5.496392e-003
2.246664e+003, 4.723832e-003
2.248592e+003, 4.641795e-003
2.250521e+003, 5.081106e-003
2.252449e+003, 4.663779e-003
2.254377e+003, 4.913603e-003
2.256306e+003, 5.722099e-003
2.258234e+003, 6.306684e-003
2.260163e+003, 5.976271e-003
2.262091e+003, 5.921874e-003
2.264020e+003, 6.186346e-003
2.265948e+003, 6.115687e-003
2.267877e+003, 5.645253e-003
2.269805e+003, 6.464807e-003
2.271734e+003, 6.405521e-003
2.273662e+003, 6.141206e-003
2.275591e+003, 6.297408e-003
2.277519e+003, 6.094523e-003
2.279448e+003, 6.115946e-003
2.281376e+003, 6.906444e-003
2.283304e+003, 7.303488e-003
2.285233e+003, 7.488547e-003
2.287161e+003, 7.687151e-003
2.289090e+003, 7.952097e-003
2.291018e+003, 7.346898e-003
2.292947e+003, 7.234686e-003
2.294875e+003, 7.150089e-003
2.296804e+003, 6.882799e-003
2.298732e+003, 6.528491e-003
2.300661e+003, 6.258313e-003
2.302589e+003, 6.380031e-003
2.304518e+003, 7.000721e-003
2.306446e+003, 7.197993e-003
2.308375e+003, 7.055417e-003
2.310303e+003, 7.264466e-003
2.312231e+003, 7.324396e-003
2.314160e+003, 7.347729e-003
2.316088e+003, 7.618887e-003
2.318017e+003, 7.640013e-003
2.319945e+003, 8.299988e-003
2.321874e+003, 8.880134e-003
2.323802e+003, 9.194229e-003
2.325731e+003, 8.353320e-003
2.327659e+003, 7.612188e-003
2.329588e+003, 7.530461e-003
2.331516e+003, 7.623012e-003
2.333445e+003, 7.573152e-003
2.335373e+003, 8.002203e-003
2.337302e+003, 7.954951e-003
2.339230e+003, 7.360966e-003
2.341158e+003, 7.447986e-003
2.343087e+003, 7.826141e-003
2.345015e+003, 7.521232e-003
2.346944e+003, 7.314432e-003
2.348872e+003, 7.102625e-003
2.350801e+003, 7.000613e-003
2.352729e+003, 7.139095e-003
2.354658e+003, 7.666052e-003
2.356586e+003, 7.950312e-003
2.358515e+003, 8.065036e-003
2.360443e+003, 7.564883e-003
2.362372e+003, 7.144076e-003
2.364300e+003, 6.997195e-003
2.366229e+003, 7.323602e-003
2.368157e+003, 7.267931e-003
2.370085e+003, 6.936122e-003
2.372014e+003, 6.519479e-003
2.373942e+003, 6.162222e-003
2.375871e+003, 5.654810e-003
2.377799e+003, 5.399594e-003
2.379728e+003, 5.418479e-003
2.381656e+003, 5.515451e-003
2.383585e+003, 5.895230e-003
2.385513e+003, 6.379692e-003
2.387442e+003, 5.868809e-003
2.389370e+003, 5.894729e-003
2.391299e+003, 6.305559e-003
2.393227e+003, 6.257911e-003
2.395156e+003, 6.355973e-003
2.397084e+003, 6.707406e-003
2.399012e+003, 6.349972e-003
2.400941e+003, 5.938316e-003
2.402869e+003, 5.724834e-003
2.404798e+003, 6.179634e-003
2.406726e+003, 6.314631e-003
2.408655e+003, 6.190589e-003
2.410583e+003, 6.360750e-003
2.412512e+003, 6.291450e-003
2.414440e+003, 6.281831e-003
2.416369e+003, 6.532621e-003
2.418297e+003, 6.654268e-003
2.420226e+003, 6.556847e-003
2.422154e+003, 6.219713e-003
2.424083e+003, 6.619185e-003
2.426011e+003, 6.813104e-003
2.427939e+003, 6.594987e-003
2.429868e+003, 6.461292e-003
2.431796e+003, 6.855141e-003
2.433725e+003, 6.817318e-003
2.435653e+003, 7.042945e-003
2.437582e+003, 7.025755e-003
2.439510e+003, 7.007555e-003
2.441439e+003, 7.166604e-003
2.443367e+003, 7.189707e-003
2.445296e+003, 7.174417e-003
2.447224e+003, 7.141707e-003
2.449153e+003, 7.398176e-003
2.451081e+003, 7.504678e-003
2.453010e+003, 7.031686e-003
2.454938e+003, 6.852834e-003
2.456866e+003, 6.673070e-003
2.458795e+003, 7.287518e-003
2.460723e+003, 7.623295e-003
2.462652e+003, 7.344794e-003
2.464580e+003, 7.384093e-003
2.466509e+003, 7.552985e-003
2.468437e+003, 7.002226e-003
2.470366e+003, 6.991961e-003
2.472294e+003, 7.147989e-003
2.474223e+003, 7.067325e-003
2.476151e+003, 7.428509e-003
2.478080e+003, 7.724036e-003
2.480008e+003, 7.272457e-003
2.481937e+003, 7.216350e-003
2.483865e+003, 7.145652e-003
2.485793e+003, 7.319192e-003
2.487722e+003, 7.293666e-003
2.489650e+003, 7.435616e-003
2.491579e+003, 7.126956e-003
2.493507e+003, 6.848664e-003
2.495436e+003, 6.959641e-003
2.497364e+003, 7.125680e-003
2.499293e+003, 6.946561e-003
2.501221e+003, 7.176895e-003
2.503150e+003, 7.277694e-003
2.505078e+003, 7.398955e-003
2.507007e+003, 7.133125e-003
2.508935e+003, 7.450020e-003
2.510864e+003, 7.158168e-003
2.512792e+003, 6.902218e-003
2.514720e+003, 7.312761e-003
2.516649e+003, 7.419949e-003
2.518577e+003, 7.283905e-003
2.520506e+003, 7.641466e-003
2.522434e+003, 7.025013e-003
2.524363e+003, 6.761965e-003
2.526291e+003, 7.467004e-003
2.528220e+003, 8.375367e-003
2.530148e+003, 8.422643e-003
2.532077e+003, 8.619302e-003
2.534005e+003, 8.454604e-003
2.535934e+003, 8.384920e-003
2.537862e+003, 8.253699e-003
2.539791e+003, 7.619005e-003
2.541719e+003, 7.256305e-003
2.543647e+003, 7.769169e-003
2.545576e+003, 7.899334e-003
2.547504e+003, 7.791236e-003
2.549433e+003, 7.811255e-003
2.551361e+003, 8.042284e-003
2.553290e+003, 7.406524e-003
2.555218e+003, 7.307713e-003
2.557147e+003, 7.590280e-003
2.559075e+003, 7.677027e-003
2.561004e+003, 7.579770e-003
2.562932e+003, 7.961233e-003
2.564861e+003, 8.010278e-003
2.566789e+003, 8.039173e-003
2.568718e+003, 8.051557e-003
2.570646e+003, 8.451117e-003
2.572574e+003, 8.259075e-003
2.574503e+003, 7.768834e-003
2.576431e+003, 7.298607e-003
2.578360e+003, 7.829681e-003
2.580288e+003, 8.191770e-003
2.582217e+003, 8.368297e-003
2.584145e+003, 8.282679e-003
2.586074e+003, 8.512801e-003
2.588002e+003, 8.679439e-003
2.589931e+003, 8.234398e-003
2.591859e+003, 8.051781e-003
2.593788e+003, 8.638131e-003
2.595716e+003, 8.222816e-003
2.597645e+003, 8.189304e-003
2.599573e+003, 8.085982e-003
2.601501e+003, 8.230029e-003
2.603430e+003, 8.435828e-003
2.605358e+003, 7.979738e-003
2.607287e+003, 7.679441e-003
2.609215e+003, 7.842329e-003
2.611144e+003, 8.077184e-003
2.613072e+003, 8.538864e-003
2.615001e+003, 8.229706e-003
2.616929e+003, 8.443926e-003
2.618858e+003, 8.998407e-003
2.620786e+003, 9.135543e-003
2.622715e+003, 8.717390e-003
2.624643e+003, 8.950091e-003
2.626572e+003, 8.959649e-003
2.628500e+003, 8.547246e-003
2.630428e+003, 8.280016e-003
2.632357e+003, 8.486677e-003
2.634285e+003, 8.284420e-003
2.636214e+003, 7.875104e-003
2.638142e+003, 8.046345e-003
2.640071e+003, 8.504231e-003
2.641999e+003, 8.531345e-003
2.643928e+003, 8.627688e-003
2.645856e+003, 8.384477e-003
2.647785e+003, 8.706040e-003
2.649713e+003, 8.783684e-003
2.651642e+003, 8.776442e-003
2.653570e+003, 8.481195e-003
2.655499e+003, 8.116028e-003
2.657427e+003, 7.913205e-003
2.659355e+003, 8.112199e-003
2.661284e+003, 7.960382e-003
2.663212e+003, 7.739331e-003
2.665141e+003, 7.573194e-003
2.667069e+003, 7.925546e-003
2.668998e+003, 7.899934e-003
2.670926e+003, 7.813868e-003
2.672855e+003, 7.964763e-003
2.674783e+003, 8.357861e-003
2.676712e+003, 8.092711e-003
2.678640e+003, 7.810791e-003
2.680569e+003, 7.827145e-003
2.682497e+003, 7.894429e-003
2.684426e+003, 7.225537e-003
2.686354e+003, 7.184245e-003
2.688282e+003, 7.295970e-003
2.690211e+003, 7.401399e-003
2.692139e+003, 7.595951e-003
2.694068e+003, 7.569228e-003
2.695996e+003, 7.497777e-003
2.697925e+003, 7.713592e-003
2.699853e+003, 7.819513e-003
2.701782e+003, 7.768325e-003
2.703710e+003, 7.709664e-003
2.705639e+003, 7.886990e-003
2.707567e+003, 7.778910e-003
2.709496e+003, 7.586641e-003
2.711424e+003, 7.529109e-003
2.713353e+003, 7.810464e-003
2.715281e+003, 7.383005e-003
2.717209e+003, 7.303181e-003
2.719138e+003, 7.634677e-003
2.721066e+003, 7.640455e-003
2.722995e+003, 7.690549e-003
2.724923e+003, 7.707446e-003
2.726852e+003, 7.514754e-003
2.728780e+003, 7.685775e-003
2.730709e+003, 7.648952e-003
2.732637e+003, 7.635854e-003
2.734566e+003, 7.783512e-003
2.736494e+003, 7.911579e-003
2.738423e+003, 8.004115e-003
2.740351e+003, 7.706759e-003
2.742280e+003, 7.638291e-003
2.744208e+003, 7.848483e-003
2.746136e+003, 7.624399e-003
2.748065e+003, 7.654039e-003
2.749993e+003, 7.407982e-003
2.751922e+003, 7.580173e-003
2.753850e+003, 7.731315e-003
2.755779e+003, 7.672766e-003
2.757707e+003, 7.914685e-003
2.759636e+003, 8.567557e-003
2.761564e+003, 8.531151e-003
2.763493e+003, 8.516913e-003
2.765421e+003, 8.211722e-003
2.767350e+003, 7.979741e-003
2.769278e+003, 7.934961e-003
2.771207e+003, 8.197838e-003
2.773135e+003, 8.413565e-003
2.775063e+003, 8.469048e-003
2.776992e+003, 7.913533e-003
2.778920e+003, 7.677428e-003
2.780849e+003, 7.692029e-003
2.782777e+003, 8.111387e-003
2.784706e+003, 8.327794e-003
2.786634e+003, 8.501664e-003
2.788563e+003, 8.342491e-003
2.790491e+003, 8.051311e-003
2.792420e+003, 7.799553e-003
2.794348e+003, 8.074276e-003
2.796277e+003, 8.056158e-003
2.798205e+003, 8.399906e-003
2.800134e+003, 8.550136e-003
2.802062e+003, 8.584823e-003
2.803990e+003, 8.358898e-003
2.805919e+003, 8.448058e-003
2.807847e+003, 8.435409e-003
2.809776e+003, 8.507951e-003
2.811704e+003, 8.285091e-003
2.813633e+003, 8.316304e-003
2.815561e+003, 8.261234e-003
2.817490e+003, 7.912423e-003
2.819418e+003, 7.816671e-003
2.821347e+003, 7.971993e-003
2.823275e+003, 8.079606e-003
2.825204e+003, 8.515640e-003
2.827132e+003, 8.486553e-003
2.829061e+003, 8.329155e-003
2.830989e+003, 8.065897e-003
2.832917e+003, 8.170131e-003
2.834846e+003, 7.913045e-003
2.836774e+003, 7.884846e-003
2.838703e+003, 7.811165e-003
2.840631e+003, 8.012842e-003
2.842560e+003, 8.325565e-003
2.844488e+003, 8.297054e-003
2.846417e+003, 8.018624e-003
2.848345e+003, 8.192394e-003
2.850274e+003, 8.150786e-003
2.852202e+003, 8.278930e-003
2.854131e+003, 8.036167e-003
2.856059e+003, 7.982354e-003
2.857988e+003, 8.002898e-003
2.859916e+003, 8.046448e-003
2.861844e+003, 8.044238e-003
2.863773e+003, 8.116801e-003
2.865701e+003, 8.530912e-003
2.867630e+003, 8.232556e-003
2.869558e+003, 8.022858e-003
2.871487e+003, 8.104092e-003
2.873415e+003, 7.803305e-003
2.875344e+003, 8.012473e-003
2.877272e+003, 8.447101e-003
2.879201e+003, 8.394752e-003
2.881129e+003, 8.146103e-003
2.883058e+003, 8.223959e-003
2.884986e+003, 8.495252e-003
2.886915e+003, 8.187301e-003
2.888843e+003, 7.926113e-003
2.890771e+003, 8.579022e-003
2.892700e+003, 8.418190e-003
2.894628e+003, 8.044300e-003
2.896557e+003, 8.206146e-003
2.898485e+003, 8.460842e-003
2.900414e+003, 8.168901e-003
2.902342e+003, 8.013378e-003
2.904271e+003, 8.118263e-003
2.906199e+003, 7.871019e-003
2.908128e+003, 7.715587e-003
2.910056e+003, 7.862448e-003
2.911985e+003, 7.908726e-003
2.913913e+003, 8.143078e-003
2.915842e+003, 7.449815e-003
2.917770e+003, 7.116073e-003
2.919698e+003, 7.709883e-003
2.921627e+003, 8.224848e-003
2.923555e+003, 8.064246e-003
2.925484e+003, 7.689662e-003
2.927412e+003, 7.608371e-003
2.929341e+003, 7.856147e-003
2.931269e+003, 7.886436e-003
2.933198e+003, 7.832265e-003
2.935126e+003, 7.141972e-003
2.937055e+003, 7.066125e-003
2.938983e+003, 7.351242e-003
2.940912e+003, 8.000430e-003
2.942840e+003, 8.269157e-003
2.944769e+003, 8.276443e-003
2.946697e+003, 7.903383e-003
2.948625e+003, 7.545861e-003
2.950554e+003, 7.048861e-003
2.952482e+003, 7.394847e-003
2.954411e+003, 7.695775e-003
2.956339e+003, 7.375936e-003
2.958268e+003, 7.273395e-003
2.960196e+003, 7.573400e-003
2.962125e+003, 7.416135e-003
2.964053e+003, 7.504731e-003
2.965982e+003, 8.126879e-003
2.967910e+003, 8.592713e-003
2.969839e+003, 8.387610e-003
2.971767e+003, 8.050581e-003
2.973696e+003, 7.709233e-003
2.975624e+003, 7.888115e-003
2.977552e+003, 7.844987e-003
2.979481e+003, 8.083696e-003
2.981409e+003, 8.024218e-003
2.983338e+003, 7.673673e-003
2.985266e+003, 7.630873e-003
2.987195e+003, 8.093073e-003
2.989123e+003, 8.247698e-003
2.991052e+003, 8.347374e-003
2.992980e+003, 8.143674e-003
2.994909e+003, 7.937540e-003
2.996837e+003, 7.848644e-003
2.998766e+003, 8.076230e-003
3.000694e+003, 8.131546e-003
3.002623e+003, 8.205650e-003
3.004551e+003, 8.264319e-003
3.006479e+003, 7.989655e-003
3.008408e+003, 7.318282e-003
3.010336e+003, 6.989201e-003
3.012265e+003, 6.956050e-003
3.014193e+003, 6.583035e-003
3.016122e+003, 6.363385e-003
3.018050e+003, 6.738706e-003
3.019979e+003, 7.284244e-003
3.021907e+003, 7.798565e-003
3.023836e+003, 7.724727e-003
3.025764e+003, 7.358486e-003
3.027693e+003, 7.303758e-003
3.029621e+003, 7.645804e-003
3.031550e+003, 7.693004e-003
3.033478e+003, 7.759570e-003
3.035406e+003, 7.683772e-003
3.037335e+003, 7.423565e-003
3.039263e+003, 7.061424e-003
3.041192e+003, 7.182717e-003
3.043120e+003, 7.786365e-003
3.045049e+003, 8.032971e-003
3.046977e+003, 7.776125e-003
3.048906e+003, 8.012350e-003
3.050834e+003, 8.254705e-003
3.052763e+003, 7.787330e-003
3.054691e+003, 7.513826e-003
3.056620e+003, 7.765893e-003
3.058548e+003, 7.765186e-003
3.060477e+003, 7.990319e-003
3.062405e+003, 8.044763e-003
3.064333e+003, 8.099883e-003
3.066262e+003, 7.608907e-003
3.068190e+003, 7.571263e-003
3.070119e+003, 7.771234e-003
3.072047e+003, 7.836727e-003
3.073976e+003, 7.626308e-003
3.075904e+003, 7.365948e-003
3.077833e+003, 7.561929e-003
3.079761e+003, 7.780861e-003
3.081690e+003, 8.019612e-003
3.083618e+003, 8.042618e-003
3.085547e+003, 7.941714e-003
3.087475e+003, 8.283539e-003
3.089404e+003, 8.546853e-003
3.091332e+003, 8.434162e-003
3.093260e+003, 8.030029e-003
3.095189e+003, 7.650675e-003
3.097117e+003, 7.748433e-003
3.099046e+003, 7.727129e-003
3.100974e+003, 7.842929e-003
3.102903e+003, 8.199247e-003
3.104831e+003, 8.449875e-003
3.106760e+003, 8.964348e-003
3.108688e+003, 8.438295e-003
3.110617e+003, 8.156377e-003
3.112545e+003, 7.520790e-003
3.114474e+003, 7.044350e-003
3.116402e+003, 7.916639e-003
3.118331e+003, 8.560852e-003
3.120259e+003, 8.093668e-003
3.122188e+003, 7.582372e-003
3.124116e+003, 7.663358e-003
3.126044e+003, 8.072519e-003
3.127973e+003, 7.688454e-003
3.129901e+003, 7.900756e-003
3.131830e+003, 8.563660e-003
3.133758e+003, 8.602474e-003
3.135687e+003, 8.165670e-003
3.137615e+003, 7.965611e-003
3.139544e+003, 7.618663e-003
3.141472e+003, 7.911853e-003
3.143401e+003, 7.838456e-003
3.145329e+003, 7.898191e-003
3.147258e+003, 8.319180e-003
3.149186e+003, 7.929496e-003
3.151115e+003, 7.745965e-003
3.153043e+003, 8.063733e-003
3.154971e+003, 7.602805e-003
3.156900e+003, 7.719056e-003
3.158828e+003, 7.899033e-003
3.160757e+003, 8.021833e-003
3.162685e+003, 8.395280e-003
3.164614e+003, 8.830587e-003
3.166542e+003, 8.895737e-003
3.168471e+003, 8.902317e-003
3.170399e+003, 8.058458e-003
3.172328e+003, 7.763967e-003
3.174256e+003, 7.543414e-003
3.176185e+003, 8.287859e-003
3.178113e+003, 8.648572e-003
3.180042e+003, 8.413470e-003
3.181970e+003, 8.298924e-003
3.183898e+003, 8.616650e-003
3.185827e+003, 8.471577e-003
3.187755e+003, 8.171101e-003
3.189684e+003, 8.324572e-003
3.191612e+003, 8.392375e-003
3.193541e+003, 7.717775e-003
3.195469e+003, 7.559760e-003
3.197398e+003, 7.641125e-003
3.199326e+003, 8.359868e-003
3.201255e+003, 8.622744e-003
3.203183e+003, 7.888475e-003
3.205112e+003, 7.253626e-003
3.207040e+003, 7.501983e-003
3.208969e+003, 7.685777e-003
3.210897e+003, 7.519561e-003
3.212825e+003, 7.059968e-003
3.214754e+003, 7.728660e-003
3.216682e+003, 8.767044e-003
3.218611e+003, 8.534935e-003
3.220539e+003, 7.852343e-003
3.222468e+003, 8.387146e-003
3.224396e+003, 8.795379e-003
3.226325e+003, 8.012768e-003
3.228253e+003, 8.093187e-003
3.230182e+003, 8.081337e-003
3.232110e+003, 7.938819e-003
3.234039e+003, 8.118253e-003
3.235967e+003, 7.786775e-003
3.237896e+003, 8.324770e-003
3.239824e+003, 8.503812e-003
3.241752e+003, 8.215836e-003
3.243681e+003, 8.271318e-003
3.245609e+003, 8.330108e-003
3.247538e+003, 8.066209e-003
3.249466e+003, 7.980909e-003
3.251395e+003, 8.135491e-003
3.253323e+003, 8.842502e-003
3.255252e+003, 8.762002e-003
3.257180e+003, 8.006367e-003
3.259109e+003, 7.557773e-003
3.261037e+003, 7.722917e-003
3.262966e+003, 7.829238e-003
3.264894e+003, 7.890974e-003
3.266823e+003, 7.843608e-003
3.268751e+003, 7.618353e-003
3.270679e+003, 7.779641e-003
3.272608e+003, 8.136549e-003
3.274536e+003, 8.346506e-003
3.276465e+003, 8.457133e-003
3.278393e+003, 8.446266e-003
3.280322e+003, 8.142828e-003
3.282250e+003, 7.570328e-003
3.284179e+003, 7.869633e-003
3.286107e+003, 8.458911e-003
3.288036e+003, 8.441189e-003
3.289964e+003, 8.474541e-003
3.291893e+003, 8.643114e-003
3.293821e+003, 8.541018e-003
3.295750e+003, 8.371029e-003
3.297678e+003, 8.719205e-003
3.299606e+003, 8.513787e-003
3.301535e+003, 8.286916e-003
3.303463e+003, 9.159650e-003
3.305392e+003, 9.027116e-003
3.307320e+003, 8.115838e-003
3.309249e+003, 8.012621e-003
3.311177e+003, 8.055243e-003
3.313106e+003, 7.379190e-003
3.315034e+003, 7.768410e-003
3.316963e+003, 8.310607e-003
3.318891e+003, 7.916985e-003
3.320820e+003, 7.723446e-003
3.322748e+003, 8.724903e-003
3.324677e+003, 8.961505e-003
3.326605e+003, 8.354721e-003
3.328533e+003, 8.072511e-003
3.330462e+003, 7.367601e-003
3.332390e+003, 7.402831e-003
3.334319e+003, 8.021885e-003
3.336247e+003, 8.263976e-003
3.338176e+003, 8.645237e-003
3.340104e+003, 7.885910e-003
3.342033e+003, 7.646429e-003
3.343961e+003, 7.962528e-003
3.345890e+003, 7.584374e-003
3.347818e+003, 7.399530e-003
3.349747e+003, 7.863256e-003
3.351675e+003, 7.900387e-003
3.353604e+003, 7.610796e-003
3.355532e+003, 7.449881e-003
3.357460e+003, 8.212140e-003
3.359389e+003, 9.019007e-003
3.361317e+003, 8.640973e-003
3.363246e+003, 7.646905e-003
3.365174e+003, 7.584375e-003
3.367103e+003, 7.905232e-003
3.369031e+003, 8.173423e-003
3.370960e+003, 8.432639e-003
3.372888e+003, 8.489957e-003
3.374817e+003, 8.800765e-003
3.376745e+003, 9.163663e-003
3.378674e+003, 8.810709e-003
3.380602e+003, 8.570213e-003
3.382531e+003, 8.425626e-003
3.384459e+003, 7.815762e-003
3.386387e+003, 7.326222e-003
3.388316e+003, 7.116936e-003
3.390244e+003, 7.295844e-003
3.392173e+003, 8.097331e-003
3.394101e+003, 8.859766e-003
3.396030e+003, 8.523534e-003
3.397958e+003, 7.918246e-003
3.399887e+003, 7.829306e-003
3.401815e+003, 7.711371e-003
3.403744e+003, 7.747259e-003
3.405672e+003, 8.202742e-003
3.407601e+003, 9.121744e-003
3.409529e+003, 8.948000e-003
3.411458e+003, 8.545201e-003
3.413386e+003, 8.764359e-003
3.415314e+003, 9.482084e-003
3.417243e+003, 9.468295e-003
3.419171e+003, 9.139266e-003
3.421100e+003, 8.315132e-003
3.423028e+003, 8.153423e-003
3.424957e+003, 8.420713e-003
3.426885e+003, 8.770237e-003
3.428814e+003, 8.333310e-003
3.430742e+003, 8.135221e-003
3.432671e+003, 7.845229e-003
3.434599e+003, 8.066331e-003
3.436528e+003, 8.968795e-003
3.438456e+003, 8.614777e-003
3.440385e+003, 7.867099e-003
3.442313e+003, 7.835965e-003
3.444241e+003, 7.506667e-003
3.446170e+003, 8.656040e-003
3.448098e+003, 9.340973e-003
3.450027e+003, 8.986201e-003
3.451955e+003, 8.275689e-003
3.453884e+003, 7.744736e-003
3.455812e+003, 7.011579e-003
3.457741e+003, 7.816494e-003
3.459669e+003, 8.978219e-003
3.461598e+003, 8.514490e-003
3.463526e+003, 7.370858e-003
3.465455e+003, 7.563864e-003
3.467383e+003, 8.083376e-003
3.469312e+003, 7.500539e-003
3.471240e+003, 6.600025e-003
3.473168e+003, 7.014998e-003
3.475097e+003, 7.811399e-003
3.477025e+003, 8.114889e-003
3.478954e+003, 7.957149e-003
3.480882e+003, 7.946256e-003
3.482811e+003, 8.052168e-003
3.484739e+003, 8.031902e-003
3.486668e+003, 7.469795e-003
3.488596e+003, 8.190822e-003
3.490525e+003, 8.666947e-003
3.492453e+003, 8.074926e-003
3.494382e+003, 7.052261e-003
3.496310e+003, 7.341094e-003
3.498239e+003, 7.779531e-003
3.500167e+003, 8.040645e-003
3.502095e+003, 7.875353e-003
3.504024e+003, 7.828107e-003
3.505952e+003, 7.272861e-003
3.507881e+003, 7.028827e-003
3.509809e+003, 6.443270e-003
3.511738e+003, 6.244321e-003
3.513666e+003, 7.416024e-003
3.515595e+003, 8.177618e-003
3.517523e+003, 7.599500e-003
3.519452e+003, 7.401401e-003
3.521380e+003, 7.442272e-003
3.523309e+003, 7.704688e-003
3.525237e+003, 8.354714e-003
3.527166e+003, 8.583390e-003
3.529094e+003, 8.482490e-003
3.531022e+003, 8.450421e-003
3.532951e+003, 8.448326e-003
3.534879e+003, 8.302551e-003
3.536808e+003, 7.470521e-003
3.538736e+003, 7.553891e-003
3.540665e+003, 6.888866e-003
3.542593e+003, 6.241317e-003
3.544522e+003, 7.444800e-003
3.546450e+003, 8.564027e-003
3.548379e+003, 7.714372e-003
3.550307e+003, 6.974864e-003
3.552236e+003, 6.825902e-003
3.554164e+003, 5.919311e-003
3.556093e+003, 5.912350e-003
3.558021e+003, 6.837019e-003
3.559949e+003, 7.447573e-003
3.561878e+003, 7.817380e-003
3.563806e+003, 7.464896e-003
3.565735e+003, 6.525175e-003
3.567663e+003, 6.380679e-003
3.569592e+003, 7.590993e-003
3.571520e+003, 8.405863e-003
3.573449e+003, 7.870979e-003
3.575377e+003, 6.786602e-003
3.577306e+003, 7.192465e-003
3.579234e+003, 7.863816e-003
3.581163e+003, 7.519017e-003
3.583091e+003, 5.925299e-003
3.585020e+003, 5.119659e-003
3.586948e+003, 6.190587e-003
3.588876e+003, 7.042632e-003
3.590805e+003, 7.175262e-003
3.592733e+003, 8.849376e-003
3.594662e+003, 9.095508e-003
3.596590e+003, 8.348410e-003
3.598519e+003, 7.437808e-003
3.600447e+003, 7.271234e-003
3.602376e+003, 7.101616e-003
3.604304e+003, 6.357714e-003
3.606233e+003, 7.483407e-003
3.608161e+003, 9.030340e-003
3.610090e+003, 8.092836e-003
3.612018e+003, 6.681985e-003
3.613947e+003, 6.515160e-003
3.615875e+003, 7.348853e-003
3.617803e+003, 8.480445e-003
3.619732e+003, 7.687978e-003
3.621660e+003, 6.914108e-003
3.623589e+003, 8.396595e-003
3.625517e+003, 8.745417e-003
3.627446e+003, 8.514890e-003
3.629374e+003, 7.879704e-003
3.631303e+003, 7.607728e-003
3.633231e+003, 7.745320e-003
3.635160e+003, 8.775701e-003
3.637088e+003, 8.135067e-003
3.639017e+003, 6.845153e-003
3.640945e+003, 7.427440e-003
3.642874e+003, 7.606257e-003
3.644802e+003, 7.982748e-003
3.646730e+003, 8.770465e-003
3.648659e+003, 8.914788e-003
3.650587e+003, 7.992136e-003
3.652516e+003, 6.436072e-003
3.654444e+003, 6.935589e-003
3.656373e+003, 7.629695e-003
3.658301e+003, 6.518440e-003
3.660230e+003, 5.841412e-003
3.662158e+003, 7.341369e-003
3.664087e+003, 7.770715e-003
3.666015e+003, 7.355934e-003
3.667944e+003, 7.742256e-003
3.669872e+003, 8.005391e-003
3.671801e+003, 7.860187e-003
3.673729e+003, 8.362018e-003
3.675657e+003, 9.842363e-003
3.677586e+003, 1.027585e-002
3.679514e+003, 9.616690e-003
3.681443e+003, 9.428215e-003
3.683371e+003, 8.569478e-003
3.685300e+003, 8.613741e-003
3.687228e+003, 1.032911e-002
3.689157e+003, 1.150074e-002
3.691085e+003, 1.080761e-002
3.693014e+003, 9.345350e-003
3.694942e+003, 8.580397e-003
3.696871e+003, 8.826882e-003
3.698799e+003, 9.166340e-003
3.700728e+003, 9.838553e-003
3.702656e+003, 9.298796e-003
3.704584e+003, 9.207591e-003
3.706513e+003, 9.141240e-003
3.708441e+003, 9.046645e-003
3.710370e+003, 8.639954e-003
3.712298e+003, 8.153694e-003
3.714227e+003, 7.693042e-003
3.716155e+003, 7.435760e-003
3.718084e+003, 7.438629e-003
3.720012e+003, 7.928461e-003
3.721941e+003, 8.324361e-003
3.723869e+003, 7.768431e-003
3.725798e+003, 7.286518e-003
3.727726e+003, 6.998623e-003
3.729655e+003, 7.830419e-003
3.731583e+003, 8.517692e-003
3.733511e+003, 7.864248e-003
3.735440e+003, 7.400241e-003
3.737368e+003, 7.396723e-003
3.739297e+003, 8.314734e-003
3.741225e+003, 8.395902e-003
3.743154e+003, 9.475475e-003
3.745082e+003, 9.820390e-003
3.747011e+003, 8.854222e-003
3.748939e+003, 8.951828e-003
3.750868e+003, 9.452126e-003
3.752796e+003, 8.583113e-003
3.754725e+003, 7.872927e-003
3.756653e+003, 8.197946e-003
3.758582e+003, 7.930445e-003
3.760510e+003, 8.291146e-003
3.762438e+003, 8.662941e-003
3.764367e+003, 7.954184e-003
3.766295e+003, 7.530571e-003
3.768224e+003, 9.159963e-003
3.770152e+003, 9.834601e-003
3.772081e+003, 8.795088e-003
3.774009e+003, 8.588135e-003
3.775938e+003, 8.101092e-003
3.777866e+003, 8.177060e-003
3.779795e+003, 8.183247e-003
3.781723e+003, 7.288529e-003
3.783652e+003, 6.874226e-003
3.785580e+003, 7.946448e-003
3.787509e+003, 8.395954e-003
3.789437e+003, 8.356186e-003
3.791365e+003, 8.343392e-003
3.793294e+003, 8.429623e-003
3.795222e+003, 8.128059e-003
3.797151e+003, 7.996274e-003
3.799079e+003, 7.718412e-003
3.801008e+003, 8.751241e-003
3.802936e+003, 8.136601e-003
3.804865e+003, 7.697235e-003
3.806793e+003, 8.442000e-003
3.808722e+003, 8.267182e-003
3.810650e+003, 7.990574e-003
3.812579e+003, 7.172012e-003
3.814507e+003, 6.774816e-003
3.816436e+003, 7.369275e-003
3.818364e+003, 6.666829e-003
3.820292e+003, 7.272847e-003
3.822221e+003, 7.992439e-003
3.824149e+003, 7.212995e-003
3.826078e+003, 6.324704e-003
3.828006e+003, 6.799301e-003
3.829935e+003, 6.785015e-003
3.831863e+003, 6.529786e-003
3.833792e+003, 7.620097e-003
3.835720e+003, 8.115554e-003
3.837649e+003, 8.939659e-003
3.839577e+003, 8.886083e-003
3.841506e+003, 8.704497e-003
3.843434e+003, 9.068114e-003
3.845363e+003, 7.749336e-003
3.847291e+003, 7.707118e-003
3.849219e+003, 8.013011e-003
3.851148e+003, 8.798178e-003
3.853076e+003, 1.068950e-002
3.855005e+003, 9.751679e-003
3.856933e+003, 7.153542e-003
3.858862e+003, 7.019344e-003
3.860790e+003, 7.942753e-003
3.862719e+003, 8.187468e-003
3.864647e+003, 8.707633e-003
3.866576e+003, 9.022887e-003
3.868504e+003, 8.303423e-003
3.870433e+003, 7.171239e-003
3.872361e+003, 6.371332e-003
3.874290e+003, 7.899330e-003
3.876218e+003, 8.443248e-003
3.878146e+003, 7.579174e-003
3.880075e+003, 7.083623e-003
3.882003e+003, 7.495753e-003
3.883932e+003, 8.346625e-003
3.885860e+003, 9.123163e-003
3.887789e+003, 9.207346e-003
3.889717e+003, 1.004030e-002
3.891646e+003, 9.087482e-003
3.893574e+003, 8.887841e-003
3.895503e+003, 9.265457e-003
3.897431e+003, 9.010499e-003
3.899360e+003, 8.967549e-003
3.901288e+003, 9.162634e-003
3.903217e+003, 8.373641e-003
3.905145e+003, 8.854030e-003
3.907073e+003, 9.028627e-003
3.909002e+003, 8.243792e-003
3.910930e+003, 6.831442e-003
3.912859e+003, 6.179004e-003
3.914787e+003, 7.533388e-003
3.916716e+003, 7.740331e-003
3.918644e+003, 7.154167e-003
3.920573e+003, 7.224611e-003
3.922501e+003, 7.964200e-003
3.924430e+003, 8.599886e-003
3.926358e+003, 7.808396e-003
3.928287e+003, 7.277256e-003
3.930215e+003, 7.544241e-003
3.932144e+003, 7.988360e-003
3.934072e+003, 8.539397e-003
3.936000e+003, 9.071480e-003
3.937929e+003, 8.040359e-003
3.939857e+003, 7.661880e-003
3.941786e+003, 8.087863e-003
3.943714e+003, 8.349824e-003
3.945643e+003, 7.668930e-003
3.947571e+003, 7.180183e-003
3.949500e+003, 7.166345e-003
3.951428e+003, 8.003072e-003
3.953357e+003, 8.104760e-003
3.955285e+003, 7.339380e-003
3.957214e+003, 7.778216e-003
3.959142e+003, 8.065351e-003
3.961071e+003, 8.040666e-003
3.962999e+003, 8.031651e-003
3.964927e+003, 7.118616e-003
3.966856e+003, 8.124644e-003
3.968784e+003, 9.689547e-003
3.970713e+003, 9.943672e-003
3.972641e+003, 8.497844e-003
3.974570e+003, 7.158143e-003
3.976498e+003, 7.327667e-003
3.978427e+003, 7.598521e-003
3.980355e+003, 6.925962e-003
3.982284e+003, 6.340682e-003
3.984212e+003, 6.063807e-003
3.986141e+003, 7.471845e-003
3.988069e+003, 7.511160e-003
3.989998e+003, 6.070622e-003
3.991926e+003, 6.551593e-003
3.993854e+003, 7.732462e-003
3.995783e+003, 7.464522e-003
3.997711e+003, 7.118686e-003
3.999640e+003, 7.979694e-003
##END=



