##NAMES=Gearksutite
##RRUFFID=R050657
##IDEAL CHEMISTRY=CaAlF_4_(OH)&#183;H_2_O
##LOCALITY=Jamestown, Colorado, USA
##OWNER=RRUFF
##SOURCE=University of Arizona Mineral Museum
##DESCRIPTION=White fragment
##STATUS=The identification of this mineral has been confirmed by X-ray diffraction and chemical analysis
##URL=rruff.info/R050657
##MEASURED CHEMISTRY=(Ca_0.98_Sr_0.02_)Al_1.00_F_4.00_(OH)Â·H_2_O
3.991926e+002, 6.356917e-002
4.011211e+002, 7.102048e-002
4.030495e+002, 6.340752e-002
4.049780e+002, 4.288321e-002
4.069065e+002, 5.565150e-002
4.088349e+002, 7.101293e-002
4.107634e+002, 6.631869e-002
4.126919e+002, 6.578458e-002
4.146203e+002, 7.214387e-002
4.165488e+002, 6.963776e-002
4.184773e+002, 6.954536e-002
4.204057e+002, 7.882626e-002
4.223342e+002, 7.818620e-002
4.242627e+002, 6.945697e-002
4.261911e+002, 6.824181e-002
4.281196e+002, 6.426384e-002
4.300481e+002, 5.830176e-002
4.319765e+002, 5.488453e-002
4.339050e+002, 4.983304e-002
4.358335e+002, 5.001244e-002
4.377619e+002, 4.879862e-002
4.396904e+002, 4.629219e-002
4.416189e+002, 4.418698e-002
4.435473e+002, 4.359462e-002
4.454758e+002, 4.604985e-002
4.474043e+002, 5.078192e-002
4.493327e+002, 5.381778e-002
4.512612e+002, 5.886619e-002
4.531897e+002, 6.919329e-002
4.551181e+002, 7.528684e-002
4.570466e+002, 7.789841e-002
4.589751e+002, 8.167432e-002
4.609035e+002, 8.258224e-002
4.628320e+002, 8.281029e-002
4.647605e+002, 8.642378e-002
4.666889e+002, 8.773602e-002
4.686174e+002, 7.984121e-002
4.705459e+002, 7.473469e-002
4.724743e+002, 7.323491e-002
4.744028e+002, 6.843475e-002
4.763313e+002, 6.645370e-002
4.782597e+002, 6.791294e-002
4.801882e+002, 6.652162e-002
4.821167e+002, 6.706817e-002
4.840451e+002, 7.231580e-002
4.859736e+002, 7.629846e-002
4.879021e+002, 7.983362e-002
4.898305e+002, 8.611259e-002
4.917590e+002, 9.284102e-002
4.936875e+002, 9.997350e-002
4.956159e+002, 1.094096e-001
4.975444e+002, 1.199367e-001
4.994729e+002, 1.304380e-001
5.014013e+002, 1.420262e-001
5.033298e+002, 1.541228e-001
5.052583e+002, 1.652175e-001
5.071867e+002, 1.770332e-001
5.091152e+002, 1.909039e-001
5.110437e+002, 2.033545e-001
5.129721e+002, 2.153001e-001
5.149006e+002, 2.287999e-001
5.168290e+002, 2.411333e-001
5.187575e+002, 2.513926e-001
5.206860e+002, 2.604392e-001
5.226144e+002, 2.687256e-001
5.245429e+002, 2.736997e-001
5.264714e+002, 2.769772e-001
5.283998e+002, 2.826615e-001
5.303283e+002, 2.861497e-001
5.322568e+002, 2.855303e-001
5.341852e+002, 2.848075e-001
5.361137e+002, 2.835796e-001
5.380422e+002, 2.792764e-001
5.399706e+002, 2.731933e-001
5.418991e+002, 2.681525e-001
5.438276e+002, 2.619097e-001
5.457560e+002, 2.541676e-001
5.476845e+002, 2.458631e-001
5.496130e+002, 2.371447e-001
5.515414e+002, 2.300504e-001
5.534699e+002, 2.240403e-001
5.553984e+002, 2.172485e-001
5.573268e+002, 2.095790e-001
5.592553e+002, 2.034884e-001
5.611838e+002, 1.982547e-001
5.631122e+002, 1.937548e-001
5.650407e+002, 1.899237e-001
5.669692e+002, 1.871605e-001
5.688976e+002, 1.846124e-001
5.708261e+002, 1.800209e-001
5.727546e+002, 1.753208e-001
5.746830e+002, 1.722679e-001
5.766115e+002, 1.676065e-001
5.785400e+002, 1.624220e-001
5.804684e+002, 1.588986e-001
5.823969e+002, 1.549918e-001
5.843254e+002, 1.499464e-001
5.862538e+002, 1.458239e-001
5.881823e+002, 1.425805e-001
5.901108e+002, 1.374395e-001
5.920392e+002, 1.326328e-001
5.939677e+002, 1.295833e-001
5.958962e+002, 1.255552e-001
5.978246e+002, 1.215672e-001
5.997531e+002, 1.193430e-001
6.016816e+002, 1.165380e-001
6.036100e+002, 1.138211e-001
6.055385e+002, 1.130615e-001
6.074670e+002, 1.122077e-001
6.093954e+002, 1.101948e-001
6.113239e+002, 1.097061e-001
6.132524e+002, 1.102221e-001
6.151808e+002, 1.100618e-001
6.171093e+002, 1.097599e-001
6.190378e+002, 1.109489e-001
6.209662e+002, 1.115331e-001
6.228947e+002, 1.104972e-001
6.248232e+002, 1.104917e-001
6.267516e+002, 1.102775e-001
6.286801e+002, 1.082497e-001
6.306086e+002, 1.065723e-001
6.325370e+002, 1.059882e-001
6.344655e+002, 1.045826e-001
6.363940e+002, 1.017704e-001
6.383224e+002, 9.982629e-002
6.402509e+002, 9.802915e-002
6.421794e+002, 9.546366e-002
6.441078e+002, 9.283452e-002
6.460363e+002, 9.019046e-002
6.479648e+002, 8.699754e-002
6.498932e+002, 8.374076e-002
6.518217e+002, 8.062172e-002
6.537502e+002, 7.748663e-002
6.556786e+002, 7.477337e-002
6.576071e+002, 7.211933e-002
6.595356e+002, 6.995679e-002
6.614641e+002, 6.811094e-002
6.633925e+002, 6.624964e-002
6.653210e+002, 6.513368e-002
6.672495e+002, 6.418467e-002
6.691779e+002, 6.248838e-002
6.711064e+002, 6.136268e-002
6.730349e+002, 6.128517e-002
6.749633e+002, 6.117477e-002
6.768918e+002, 6.193868e-002
6.788203e+002, 6.380249e-002
6.807487e+002, 6.630311e-002
6.826772e+002, 6.909670e-002
6.846057e+002, 7.228591e-002
6.865341e+002, 7.609148e-002
6.884626e+002, 7.947300e-002
6.903911e+002, 8.289275e-002
6.923195e+002, 8.642374e-002
6.942480e+002, 8.937562e-002
6.961765e+002, 9.154192e-002
6.981049e+002, 9.312949e-002
7.000334e+002, 9.442683e-002
7.019619e+002, 9.492819e-002
7.038903e+002, 9.513415e-002
7.058188e+002, 9.513225e-002
7.077473e+002, 9.430981e-002
7.096757e+002, 9.269825e-002
7.116042e+002, 9.081825e-002
7.135327e+002, 8.877597e-002
7.154611e+002, 8.693913e-002
7.173896e+002, 8.504871e-002
7.193181e+002, 8.310314e-002
7.212465e+002, 8.140017e-002
7.231750e+002, 7.958066e-002
7.251035e+002, 7.759256e-002
7.270319e+002, 7.608721e-002
7.289604e+002, 7.499669e-002
7.308889e+002, 7.421651e-002
7.328173e+002, 7.341288e-002
7.347458e+002, 7.341173e-002
7.366743e+002, 7.437901e-002
7.386027e+002, 7.561866e-002
7.405312e+002, 7.709432e-002
7.424597e+002, 7.892033e-002
7.443881e+002, 8.098199e-002
7.463166e+002, 8.348708e-002
7.482451e+002, 8.639132e-002
7.501735e+002, 8.916737e-002
7.521020e+002, 9.117476e-002
7.540305e+002, 9.230997e-002
7.559589e+002, 9.271578e-002
7.578874e+002, 9.266777e-002
7.598159e+002, 9.146746e-002
7.617443e+002, 8.944450e-002
7.636728e+002, 8.699812e-002
7.656013e+002, 8.394688e-002
7.675297e+002, 8.085713e-002
7.694582e+002, 7.769977e-002
7.713867e+002, 7.357667e-002
7.733151e+002, 6.926525e-002
7.752436e+002, 6.507210e-002
7.771721e+002, 6.164441e-002
7.791005e+002, 5.798460e-002
7.810290e+002, 5.431573e-002
7.829575e+002, 5.090063e-002
7.848859e+002, 4.748837e-002
7.868144e+002, 4.427337e-002
7.887429e+002, 4.122895e-002
7.906713e+002, 3.870056e-002
7.925998e+002, 3.607715e-002
7.945283e+002, 3.358140e-002
7.964567e+002, 3.163130e-002
7.983852e+002, 2.940653e-002
8.003137e+002, 2.760278e-002
8.022421e+002, 2.615862e-002
8.041706e+002, 2.466240e-002
8.060991e+002, 2.307497e-002
8.080275e+002, 2.191851e-002
8.099560e+002, 2.114427e-002
8.118845e+002, 2.017388e-002
8.138129e+002, 1.931089e-002
8.157414e+002, 1.882149e-002
8.176699e+002, 1.839433e-002
8.195983e+002, 1.775833e-002
8.215268e+002, 1.712712e-002
8.234553e+002, 1.715158e-002
8.253837e+002, 1.720360e-002
8.273122e+002, 1.733837e-002
8.292407e+002, 1.740217e-002
8.311691e+002, 1.753052e-002
8.330976e+002, 1.739256e-002
8.350261e+002, 1.733036e-002
8.369545e+002, 1.754403e-002
8.388830e+002, 1.776354e-002
8.408115e+002, 1.790583e-002
8.427399e+002, 1.808438e-002
8.446684e+002, 1.848901e-002
8.465969e+002, 1.913319e-002
8.485253e+002, 1.952680e-002
8.504538e+002, 1.994512e-002
8.523823e+002, 2.110261e-002
8.543107e+002, 2.213429e-002
8.562392e+002, 2.272889e-002
8.581677e+002, 2.397170e-002
8.600961e+002, 2.556104e-002
8.620246e+002, 2.706741e-002
8.639531e+002, 2.887549e-002
8.658815e+002, 3.150342e-002
8.678100e+002, 3.407678e-002
8.697385e+002, 3.713128e-002
8.716669e+002, 4.077036e-002
8.735954e+002, 4.462392e-002
8.755239e+002, 4.953692e-002
8.774523e+002, 5.523619e-002
8.793808e+002, 6.106809e-002
8.813093e+002, 6.738177e-002
8.832377e+002, 7.434952e-002
8.851662e+002, 8.140118e-002
8.870947e+002, 8.867124e-002
8.890231e+002, 9.536768e-002
8.909516e+002, 1.009257e-001
8.928801e+002, 1.052808e-001
8.948085e+002, 1.080973e-001
8.967370e+002, 1.099220e-001
8.986655e+002, 1.105510e-001
9.005939e+002, 1.098740e-001
9.025224e+002, 1.082398e-001
9.044509e+002, 1.060502e-001
9.063793e+002, 1.030265e-001
9.083078e+002, 9.977648e-002
9.102363e+002, 9.597728e-002
9.121647e+002, 9.145419e-002
9.140932e+002, 8.673927e-002
9.160217e+002, 8.236280e-002
9.179501e+002, 7.857790e-002
9.198786e+002, 7.484516e-002
9.218071e+002, 7.116476e-002
9.237355e+002, 6.791557e-002
9.256640e+002, 6.561877e-002
9.275925e+002, 6.419732e-002
9.295209e+002, 6.292774e-002
9.314494e+002, 6.217722e-002
9.333779e+002, 6.190377e-002
9.353063e+002, 6.228767e-002
9.372348e+002, 6.288575e-002
9.391633e+002, 6.367159e-002
9.410917e+002, 6.455376e-002
9.430202e+002, 6.488372e-002
9.449487e+002, 6.500665e-002
9.468771e+002, 6.519832e-002
9.488056e+002, 6.495917e-002
9.507341e+002, 6.403517e-002
9.526625e+002, 6.241324e-002
9.545910e+002, 6.036811e-002
9.565195e+002, 5.817482e-002
9.584479e+002, 5.590250e-002
9.603764e+002, 5.352127e-002
9.623049e+002, 5.067923e-002
9.642333e+002, 4.743576e-002
9.661618e+002, 4.429313e-002
9.680903e+002, 4.099550e-002
9.700187e+002, 3.797006e-002
9.719472e+002, 3.495101e-002
9.738757e+002, 3.193913e-002
9.758041e+002, 2.935312e-002
9.777326e+002, 2.724225e-002
9.796611e+002, 2.541696e-002
9.815895e+002, 2.312325e-002
9.835180e+002, 2.095992e-002
9.854465e+002, 1.974698e-002
9.873749e+002, 1.855234e-002
9.893034e+002, 1.683716e-002
9.912319e+002, 1.554856e-002
9.931603e+002, 1.492571e-002
9.950888e+002, 1.418475e-002
9.970173e+002, 1.328142e-002
9.989457e+002, 1.230396e-002
1.000874e+003, 1.166621e-002
1.002803e+003, 1.139328e-002
1.004731e+003, 1.117625e-002
1.006660e+003, 1.076346e-002
1.008588e+003, 1.021067e-002
1.010517e+003, 9.934561e-003
1.012445e+003, 9.517257e-003
1.014373e+003, 8.999883e-003
1.016302e+003, 8.851469e-003
1.018230e+003, 8.672931e-003
1.020159e+003, 8.391210e-003
1.022087e+003, 7.983863e-003
1.024016e+003, 7.520625e-003
1.025944e+003, 7.107285e-003
1.027873e+003, 7.381435e-003
1.029801e+003, 7.425364e-003
1.031730e+003, 6.880540e-003
1.033658e+003, 6.338353e-003
1.035587e+003, 6.295961e-003
1.037515e+003, 6.167738e-003
1.039443e+003, 5.897941e-003
1.041372e+003, 5.788361e-003
1.043300e+003, 5.997689e-003
1.045229e+003, 5.703067e-003
1.047157e+003, 5.173671e-003
1.049086e+003, 4.978906e-003
1.051014e+003, 5.399144e-003
1.052943e+003, 5.376644e-003
1.054871e+003, 5.172862e-003
1.056800e+003, 5.141453e-003
1.058728e+003, 5.060525e-003
1.060657e+003, 5.049063e-003
1.062585e+003, 5.128158e-003
1.064514e+003, 5.109076e-003
1.066442e+003, 4.908940e-003
1.068370e+003, 4.656328e-003
1.070299e+003, 4.429592e-003
1.072227e+003, 4.193595e-003
1.074156e+003, 3.965572e-003
1.076084e+003, 4.109140e-003
1.078013e+003, 4.138666e-003
1.079941e+003, 3.925260e-003
1.081870e+003, 3.479806e-003
1.083798e+003, 3.631464e-003
1.085727e+003, 3.771574e-003
1.087655e+003, 3.825574e-003
1.089584e+003, 3.715359e-003
1.091512e+003, 3.174789e-003
1.093441e+003, 3.264112e-003
1.095369e+003, 3.246225e-003
1.097297e+003, 2.966090e-003
1.099226e+003, 3.148644e-003
1.101154e+003, 3.512650e-003
1.103083e+003, 3.392971e-003
1.105011e+003, 3.121692e-003
1.106940e+003, 3.034635e-003
1.108868e+003, 3.003024e-003
1.110797e+003, 3.049617e-003
1.112725e+003, 3.033540e-003
1.114654e+003, 2.842752e-003
1.116582e+003, 2.734030e-003
1.118511e+003, 2.612645e-003
1.120439e+003, 2.786821e-003
1.122368e+003, 2.642967e-003
1.124296e+003, 2.321084e-003
1.126224e+003, 2.284798e-003
1.128153e+003, 2.456837e-003
1.130081e+003, 2.385628e-003
1.132010e+003, 2.234889e-003
1.133938e+003, 2.114650e-003
1.135867e+003, 1.831444e-003
1.137795e+003, 1.713254e-003
1.139724e+003, 1.880080e-003
1.141652e+003, 1.869667e-003
1.143581e+003, 1.536409e-003
1.145509e+003, 1.442190e-003
1.147438e+003, 1.541133e-003
1.149366e+003, 1.811623e-003
1.151295e+003, 2.190847e-003
1.153223e+003, 2.127167e-003
1.155151e+003, 1.919322e-003
1.157080e+003, 1.581890e-003
1.159008e+003, 1.081465e-003
1.160937e+003, 9.568391e-004
1.162865e+003, 1.340131e-003
1.164794e+003, 1.467979e-003
1.166722e+003, 1.258844e-003
1.168651e+003, 9.082262e-004
1.170579e+003, 7.432177e-004
1.172508e+003, 4.584022e-004
1.174436e+003, 4.159248e-004
1.176365e+003, 6.756575e-004
1.178293e+003, 7.583983e-004
1.180222e+003, 5.351644e-004
1.182150e+003, 3.623666e-004
1.184078e+003, 1.456154e-004
1.186007e+003, 1.445161e-004
1.187935e+003, 5.432117e-005
1.189864e+003, 1.244008e-004
1.191792e+003, 1.204157e-004
1.193721e+003, 2.007297e-004
1.195649e+003, 2.463158e-004
1.197578e+003, 2.173363e-004
1.199506e+003, 4.976248e-005
1.201435e+003, -2.766610e-005
1.203363e+003, -6.379175e-005
1.205292e+003, -3.670006e-005
1.207220e+003, -6.519607e-005
1.209149e+003, -2.241101e-004
1.211077e+003, -3.699692e-004
1.213005e+003, -2.375200e-004
1.214934e+003, -2.482788e-004
1.216862e+003, -1.911608e-004
1.218791e+003, -1.787474e-004
1.220719e+003, -3.687516e-004
1.222648e+003, -4.882603e-004
1.224576e+003, -5.022050e-004
1.226505e+003, -2.471500e-004
1.228433e+003, -1.836201e-004
1.230362e+003, -3.204129e-004
1.232290e+003, -3.086323e-004
1.234219e+003, -2.923988e-004
1.236147e+003, -2.327579e-004
1.238076e+003, -1.417549e-004
1.240004e+003, 6.376977e-005
1.241932e+003, -1.542914e-004
1.243861e+003, -3.130131e-004
1.245789e+003, -4.353906e-004
1.247718e+003, -4.667147e-004
1.249646e+003, -4.017363e-004
1.251575e+003, -2.519532e-004
1.253503e+003, -3.114962e-004
1.255432e+003, -3.143451e-004
1.257360e+003, -3.102894e-004
1.259289e+003, -2.892052e-004
1.261217e+003, -2.023060e-004
1.263146e+003, -3.670396e-005
1.265074e+003, 2.208213e-004
1.267003e+003, 3.232625e-005
1.268931e+003, -2.628015e-004
1.270859e+003, -3.211118e-004
1.272788e+003, -2.346829e-004
1.274716e+003, 1.057703e-004
1.276645e+003, 1.014457e-004
1.278573e+003, 1.842729e-004
1.280502e+003, -5.778420e-005
1.282430e+003, -1.552870e-004
1.284359e+003, -1.607534e-004
1.286287e+003, -2.187677e-004
1.288216e+003, -1.714345e-004
1.290144e+003, -1.798534e-004
1.292073e+003, -2.188102e-004
1.294001e+003, -7.309795e-005
1.295930e+003, -5.744996e-005
1.297858e+003, -2.990085e-004
1.299786e+003, -2.722050e-004
1.301715e+003, -3.454175e-004
1.303643e+003, -5.489147e-004
1.305572e+003, -8.300490e-004
1.307500e+003, -4.584297e-004
1.309429e+003, -5.566237e-005
1.311357e+003, 1.240649e-004
1.313286e+003, 1.376093e-004
1.315214e+003, -5.281453e-005
1.317143e+003, -2.095317e-004
1.319071e+003, -3.228538e-004
1.321000e+003, -2.774788e-004
1.322928e+003, -1.206184e-004
1.324857e+003, -1.505938e-004
1.326785e+003, -1.682610e-004
1.328714e+003, -2.161619e-005
1.330642e+003, 5.158707e-005
1.332570e+003, 2.392286e-004
1.334499e+003, 1.471740e-004
1.336427e+003, -1.301854e-005
1.338356e+003, -2.305942e-006
1.340284e+003, 1.101892e-004
1.342213e+003, 3.688862e-004
1.344141e+003, 3.138463e-004
1.346070e+003, 1.238247e-004
1.347998e+003, 1.908830e-004
1.349927e+003, 1.090583e-004
1.351855e+003, -2.512801e-005
1.353784e+003, 1.171315e-004
1.355712e+003, 2.143084e-004
1.357641e+003, 2.564652e-004
1.359569e+003, 2.569647e-004
1.361497e+003, 1.237098e-004
1.363426e+003, 2.891054e-004
1.365354e+003, 2.340712e-004
1.367283e+003, 3.799923e-004
1.369211e+003, 5.234992e-004
1.371140e+003, 5.131415e-004
1.373068e+003, 7.425359e-004
1.374997e+003, 8.956818e-004
1.376925e+003, 9.267753e-004
1.378854e+003, 1.138368e-003
1.380782e+003, 1.056220e-003
1.382711e+003, 1.123191e-003
1.384639e+003, 1.245151e-003
1.386568e+003, 1.481494e-003
1.388496e+003, 1.445968e-003
1.390424e+003, 1.513880e-003
1.392353e+003, 1.733348e-003
1.394281e+003, 1.643140e-003
1.396210e+003, 1.420474e-003
1.398138e+003, 1.361610e-003
1.400067e+003, 1.333639e-003
1.401995e+003, 1.536770e-003
1.403924e+003, 1.823332e-003
1.405852e+003, 1.819763e-003
1.407781e+003, 1.873257e-003
1.409709e+003, 2.309129e-003
1.411638e+003, 2.545486e-003
1.413566e+003, 2.620268e-003
1.415495e+003, 2.738970e-003
1.417423e+003, 2.790255e-003
1.419351e+003, 3.003797e-003
1.421280e+003, 3.326396e-003
1.423208e+003, 3.287908e-003
1.425137e+003, 3.280495e-003
1.427065e+003, 3.438209e-003
1.428994e+003, 3.743596e-003
1.430922e+003, 3.911514e-003
1.432851e+003, 4.083689e-003
1.434779e+003, 4.236255e-003
1.436708e+003, 4.668660e-003
1.438636e+003, 5.140855e-003
1.440565e+003, 5.144906e-003
1.442493e+003, 4.981512e-003
1.444422e+003, 4.970999e-003
1.446350e+003, 4.863550e-003
1.448278e+003, 5.267150e-003
1.450207e+003, 5.754151e-003
1.452135e+003, 5.969853e-003
1.454064e+003, 6.159127e-003
1.455992e+003, 6.484954e-003
1.457921e+003, 6.453427e-003
1.459849e+003, 6.192474e-003
1.461778e+003, 6.113258e-003
1.463706e+003, 6.393005e-003
1.465635e+003, 6.528784e-003
1.467563e+003, 6.606058e-003
1.469492e+003, 6.739270e-003
1.471420e+003, 6.596425e-003
1.473349e+003, 6.410564e-003
1.475277e+003, 6.267295e-003
1.477205e+003, 6.297335e-003
1.479134e+003, 6.269823e-003
1.481062e+003, 6.194949e-003
1.482991e+003, 6.389140e-003
1.484919e+003, 6.154303e-003
1.486848e+003, 6.101668e-003
1.488776e+003, 6.249429e-003
1.490705e+003, 6.000828e-003
1.492633e+003, 5.761697e-003
1.494562e+003, 5.830199e-003
1.496490e+003, 6.129525e-003
1.498419e+003, 6.022761e-003
1.500347e+003, 5.942010e-003
1.502276e+003, 6.265485e-003
1.504204e+003, 6.127965e-003
1.506132e+003, 5.923779e-003
1.508061e+003, 5.866574e-003
1.509989e+003, 5.703115e-003
1.511918e+003, 5.867627e-003
1.513846e+003, 6.227958e-003
1.515775e+003, 6.565587e-003
1.517703e+003, 6.610155e-003
1.519632e+003, 6.663871e-003
1.521560e+003, 6.718623e-003
1.523489e+003, 6.566369e-003
1.525417e+003, 6.643803e-003
1.527346e+003, 6.846169e-003
1.529274e+003, 7.004069e-003
1.531203e+003, 7.086738e-003
1.533131e+003, 7.499290e-003
1.535059e+003, 7.795351e-003
1.536988e+003, 8.205619e-003
1.538916e+003, 8.890996e-003
1.540845e+003, 9.339674e-003
1.542773e+003, 9.404965e-003
1.544702e+003, 9.478491e-003
1.546630e+003, 9.486635e-003
1.548559e+003, 9.688800e-003
1.550487e+003, 1.008113e-002
1.552416e+003, 1.020228e-002
1.554344e+003, 1.027352e-002
1.556273e+003, 1.028229e-002
1.558201e+003, 1.005404e-002
1.560130e+003, 9.902859e-003
1.562058e+003, 9.905279e-003
1.563986e+003, 9.962468e-003
1.565915e+003, 1.030443e-002
1.567843e+003, 1.005441e-002
1.569772e+003, 9.508525e-003
1.571700e+003, 9.130171e-003
1.573629e+003, 8.638864e-003
1.575557e+003, 8.175541e-003
1.577486e+003, 7.792851e-003
1.579414e+003, 7.637941e-003
1.581343e+003, 7.264518e-003
1.583271e+003, 6.521938e-003
1.585200e+003, 6.096225e-003
1.587128e+003, 5.932983e-003
1.589057e+003, 5.646307e-003
1.590985e+003, 5.332852e-003
1.592913e+003, 5.266717e-003
1.594842e+003, 4.972364e-003
1.596770e+003, 4.480680e-003
1.598699e+003, 4.326113e-003
1.600627e+003, 4.655343e-003
1.602556e+003, 4.913576e-003
1.604484e+003, 4.634342e-003
1.606413e+003, 4.506023e-003
1.608341e+003, 4.319441e-003
1.610270e+003, 3.945595e-003
1.612198e+003, 3.953651e-003
1.614127e+003, 4.008402e-003
1.616055e+003, 3.760879e-003
1.617984e+003, 3.723274e-003
1.619912e+003, 4.028167e-003
1.621840e+003, 4.025288e-003
1.623769e+003, 3.981268e-003
1.625697e+003, 3.999973e-003
1.627626e+003, 3.798434e-003
1.629554e+003, 3.813194e-003
1.631483e+003, 4.029811e-003
1.633411e+003, 4.007033e-003
1.635340e+003, 4.288257e-003
1.637268e+003, 4.627464e-003
1.639197e+003, 4.710657e-003
1.641125e+003, 4.383195e-003
1.643054e+003, 4.078047e-003
1.644982e+003, 3.898232e-003
1.646911e+003, 3.835649e-003
1.648839e+003, 4.352128e-003
1.650767e+003, 4.560803e-003
1.652696e+003, 4.414153e-003
1.654624e+003, 4.672545e-003
1.656553e+003, 5.106941e-003
1.658481e+003, 5.314255e-003
1.660410e+003, 5.054561e-003
1.662338e+003, 4.976403e-003
1.664267e+003, 4.873355e-003
1.666195e+003, 4.483760e-003
1.668124e+003, 4.477883e-003
1.670052e+003, 4.710487e-003
1.671981e+003, 4.694514e-003
1.673909e+003, 4.826993e-003
1.675838e+003, 4.693160e-003
1.677766e+003, 4.419252e-003
1.679694e+003, 4.351992e-003
1.681623e+003, 4.185825e-003
1.683551e+003, 4.073827e-003
1.685480e+003, 3.727753e-003
1.687408e+003, 3.662394e-003
1.689337e+003, 3.920953e-003
1.691265e+003, 3.479925e-003
1.693194e+003, 3.437108e-003
1.695122e+003, 3.410664e-003
1.697051e+003, 2.743395e-003
1.698979e+003, 2.872866e-003
1.700908e+003, 3.003721e-003
1.702836e+003, 2.568319e-003
1.704765e+003, 2.561082e-003
1.706693e+003, 2.894709e-003
1.708621e+003, 2.828929e-003
1.710550e+003, 2.641495e-003
1.712478e+003, 2.351443e-003
1.714407e+003, 2.452909e-003
1.716335e+003, 2.318859e-003
1.718264e+003, 2.262186e-003
1.720192e+003, 2.417327e-003
1.722121e+003, 2.461026e-003
1.724049e+003, 2.032626e-003
1.725978e+003, 2.099415e-003
1.727906e+003, 2.552990e-003
1.729835e+003, 2.937700e-003
1.731763e+003, 2.787646e-003
1.733692e+003, 2.520558e-003
1.735620e+003, 2.458450e-003
1.737548e+003, 2.216030e-003
1.739477e+003, 1.735334e-003
1.741405e+003, 1.980714e-003
1.743334e+003, 2.200989e-003
1.745262e+003, 1.937095e-003
1.747191e+003, 1.820206e-003
1.749119e+003, 1.903261e-003
1.751048e+003, 2.400271e-003
1.752976e+003, 2.647557e-003
1.754905e+003, 2.038161e-003
1.756833e+003, 1.589184e-003
1.758762e+003, 1.687172e-003
1.760690e+003, 1.251282e-003
1.762619e+003, 1.126248e-003
1.764547e+003, 1.285647e-003
1.766475e+003, 1.695627e-003
1.768404e+003, 1.845183e-003
1.770332e+003, 1.601454e-003
1.772261e+003, 1.363444e-003
1.774189e+003, 1.093255e-003
1.776118e+003, 8.802501e-004
1.778046e+003, 7.484508e-004
1.779975e+003, 7.359798e-004
1.781903e+003, 4.928595e-004
1.783832e+003, 4.232522e-004
1.785760e+003, 3.317157e-004
1.787689e+003, 3.413183e-004
1.789617e+003, 5.876800e-004
1.791546e+003, 6.361959e-004
1.793474e+003, 2.388923e-005
1.795402e+003, 2.855474e-006
1.797331e+003, -2.546659e-004
1.799259e+003, -5.874809e-004
1.801188e+003, -9.478701e-004
1.803116e+003, -9.599242e-004
1.805045e+003, -8.093283e-004
1.806973e+003, -1.512828e-004
1.808902e+003, -2.649933e-004
1.810830e+003, -6.617628e-004
1.812759e+003, -6.070732e-004
1.814687e+003, -8.614026e-004
1.816616e+003, -1.078562e-003
1.818544e+003, -1.005630e-003
1.820473e+003, -9.782009e-004
1.822401e+003, -5.955196e-004
1.824329e+003, -1.092619e-003
1.826258e+003, -1.533205e-003
1.828186e+003, -1.270033e-003
1.830115e+003, -7.066164e-004
1.832043e+003, -2.987848e-004
1.833972e+003, -4.142617e-004
1.835900e+003, 1.855361e-005
1.837829e+003, 1.467088e-004
1.839757e+003, -9.984262e-004
1.841686e+003, -1.394673e-003
1.843614e+003, -8.096570e-004
1.845543e+003, -6.058314e-004
1.847471e+003, -6.965597e-004
1.849400e+003, -5.470881e-004
1.851328e+003, -8.359019e-004
1.853256e+003, -1.067079e-003
1.855185e+003, -1.214096e-003
1.857113e+003, -1.528155e-003
1.859042e+003, -1.286671e-003
1.860970e+003, -1.075154e-003
1.862899e+003, -1.823656e-003
1.864827e+003, -1.832017e-003
1.866756e+003, -6.571090e-004
1.868684e+003, 1.343092e-004
1.870613e+003, 5.167756e-004
1.872541e+003, -3.359655e-004
1.874470e+003, -1.277754e-003
1.876398e+003, -1.474892e-003
1.878327e+003, -1.367746e-003
1.880255e+003, -4.219765e-004
1.882183e+003, 3.170594e-004
1.884112e+003, -4.147305e-004
1.886040e+003, -1.080776e-003
1.887969e+003, -9.339924e-004
1.889897e+003, -1.015693e-003
1.891826e+003, -1.352481e-003
1.893754e+003, -1.659445e-003
1.895683e+003, -2.155321e-003
1.897611e+003, -3.314912e-003
1.899540e+003, -3.002028e-003
1.901468e+003, -2.452790e-003
1.903397e+003, -2.081937e-003
1.905325e+003, -1.935670e-003
1.907254e+003, -2.221987e-003
1.909182e+003, -2.932426e-003
1.911110e+003, -3.827321e-003
1.913039e+003, -4.236660e-003
1.914967e+003, -3.117190e-003
1.916896e+003, -1.845653e-003
1.918824e+003, -1.179117e-003
1.920753e+003, -1.289732e-003
1.922681e+003, -1.428408e-003
1.924610e+003, -2.272925e-003
1.926538e+003, -3.475681e-003
1.928467e+003, -3.132225e-003
1.930395e+003, -1.684084e-003
1.932324e+003, -2.049135e-003
1.934252e+003, -2.967484e-003
1.936181e+003, -2.169372e-003
1.938109e+003, -1.522885e-003
1.940037e+003, -2.774371e-003
1.941966e+003, -3.561183e-003
1.943894e+003, -2.303472e-003
1.945823e+003, -1.831947e-003
1.947751e+003, -2.172294e-003
1.949680e+003, -3.040589e-003
1.951608e+003, -3.146684e-003
1.953537e+003, -2.862834e-003
1.955465e+003, -3.431335e-003
1.957394e+003, -3.834467e-003
1.959322e+003, -2.254289e-003
1.961251e+003, -1.110505e-003
1.963179e+003, -4.385560e-003
1.965108e+003, -6.653183e-003
1.967036e+003, -4.804264e-003
1.968964e+003, -2.540963e-003
1.970893e+003, -4.707180e-003
1.972821e+003, -4.759632e-003
1.974750e+003, -2.986516e-003
1.976678e+003, -2.960779e-003
1.978607e+003, -2.508499e-003
1.980535e+003, -1.027635e-003
1.982464e+003, 5.924381e-004
1.984392e+003, 1.540276e-003
1.986321e+003, -2.321651e-003
1.988249e+003, -3.992165e-003
1.990178e+003, -6.963373e-004
1.992106e+003, 2.622450e-003
1.994035e+003, 2.071934e-003
1.995963e+003, -5.671147e-004
1.997891e+003, -3.462662e-003
1.999820e+003, -4.213970e-003
2.001748e+003, -1.272130e-003
2.003677e+003, -1.799694e-003
2.005605e+003, -2.992121e-003
2.007534e+003, -1.401067e-003
2.009462e+003, -1.408395e-003
2.011391e+003, -1.470361e-003
2.013319e+003, 4.371893e-004
2.015248e+003, 7.227855e-004
2.017176e+003, 5.006199e-004
2.019105e+003, 1.107645e-003
2.021033e+003, -3.072486e-004
2.022962e+003, -1.948512e-003
2.024890e+003, -2.413903e-003
2.026818e+003, -1.760765e-003
2.028747e+003, -2.460934e-003
2.030675e+003, -1.330287e-003
2.032604e+003, 1.630055e-003
2.034532e+003, 1.587839e-003
2.036461e+003, -1.462088e-004
2.038389e+003, -1.177993e-003
2.040318e+003, -1.840633e-003
2.042246e+003, -3.191153e-003
2.044175e+003, -1.125530e-003
2.046103e+003, 2.923830e-004
2.048031e+003, -1.688642e-003
2.049960e+003, -1.387613e-003
2.051888e+003, -1.234067e-003
2.053817e+003, -1.265744e-005
2.055745e+003, -1.282516e-004
2.057674e+003, -5.116054e-004
2.059602e+003, 4.650601e-004
2.061531e+003, 6.663079e-004
2.063459e+003, -3.590112e-004
2.065388e+003, -9.706990e-004
2.067316e+003, -1.030859e-003
2.069245e+003, -1.710581e-003
2.071173e+003, -1.887507e-003
2.073102e+003, -9.455052e-004
2.075030e+003, -7.179883e-004
2.076958e+003, -1.195677e-003
2.078887e+003, -7.965435e-004
2.080815e+003, 1.436110e-003
2.082744e+003, 3.180238e-003
2.084672e+003, 2.065030e-003
2.086601e+003, -1.023280e-003
2.088529e+003, -1.089268e-003
2.090458e+003, -1.415673e-004
2.092386e+003, -1.385666e-003
2.094315e+003, -3.627360e-003
2.096243e+003, -3.339334e-003
2.098172e+003, -1.353053e-003
2.100100e+003, 6.705569e-004
2.102029e+003, 6.921525e-004
2.103957e+003, -4.520441e-004
2.105885e+003, -1.697342e-003
2.107814e+003, -1.699872e-003
2.109742e+003, -5.902914e-004
2.111671e+003, -1.217408e-003
2.113599e+003, -2.882751e-003
2.115528e+003, -2.858130e-003
2.117456e+003, -2.561335e-003
2.119385e+003, -2.431655e-003
2.121313e+003, -2.327305e-003
2.123242e+003, -1.985644e-003
2.125170e+003, -3.033437e-003
2.127099e+003, -2.719387e-003
2.129027e+003, -2.037442e-003
2.130956e+003, -1.725583e-003
2.132884e+003, -2.317512e-003
2.134813e+003, -3.452926e-003
2.136741e+003, -2.990111e-003
2.138669e+003, -3.672632e-003
2.140598e+003, -4.159607e-003
2.142526e+003, -2.706762e-003
2.144455e+003, -8.195367e-004
2.146383e+003, -3.079311e-003
2.148312e+003, -6.451879e-003
2.150240e+003, -8.078680e-003
2.152169e+003, -8.330995e-003
2.154097e+003, -8.435087e-003
2.156026e+003, -1.096992e-002
2.157954e+003, -9.848346e-003
2.159883e+003, -4.755984e-003
2.161811e+003, -4.124952e-003
2.163740e+003, -3.026534e-003
2.165668e+003, -1.541948e-003
2.167596e+003, -1.386779e-003
2.169525e+003, -2.319464e-003
2.171453e+003, -3.893030e-003
2.173382e+003, -4.187897e-003
2.175310e+003, -4.189388e-003
2.177239e+003, -2.574512e-003
2.179167e+003, -2.610852e-003
2.181096e+003, -2.211002e-003
2.183024e+003, 2.196311e-003
2.184953e+003, 3.286468e-003
2.186881e+003, 1.060395e-003
2.188810e+003, -1.387244e-003
2.190738e+003, -2.262634e-003
2.192667e+003, 1.019561e-003
2.194595e+003, 1.311968e-003
2.196523e+003, 1.834953e-004
2.198452e+003, -8.955560e-004
2.200380e+003, -1.591484e-003
2.202309e+003, -6.541107e-004
2.204237e+003, -4.988180e-005
2.206166e+003, 4.694117e-004
2.208094e+003, 7.916586e-004
2.210023e+003, -1.208948e-003
2.211951e+003, -1.693578e-003
2.213880e+003, -1.692857e-003
2.215808e+003, -1.970301e-003
2.217737e+003, -3.018191e-004
2.219665e+003, -7.431947e-004
2.221594e+003, -1.711982e-003
2.223522e+003, -1.059444e-003
2.225450e+003, -6.996694e-004
2.227379e+003, 5.424603e-005
2.229307e+003, 7.790822e-004
2.231236e+003, 1.323582e-003
2.233164e+003, 1.160292e-004
2.235093e+003, -1.565057e-003
2.237021e+003, -2.041311e-003
2.238950e+003, -1.823474e-003
2.240878e+003, -3.840161e-004
2.242807e+003, -6.383299e-005
2.244735e+003, -5.031059e-004
2.246664e+003, -1.439584e-004
2.248592e+003, 7.994707e-005
2.250521e+003, -1.445783e-004
2.252449e+003, -9.751875e-004
2.254377e+003, 4.704030e-004
2.256306e+003, 1.569133e-003
2.258234e+003, 2.130394e-003
2.260163e+003, 2.359119e-003
2.262091e+003, 7.846883e-004
2.264020e+003, -1.804722e-004
2.265948e+003, -7.380090e-005
2.267877e+003, 5.703588e-005
2.269805e+003, -4.512366e-005
2.271734e+003, -3.522088e-004
2.273662e+003, 5.995521e-004
2.275591e+003, 1.933021e-003
2.277519e+003, 1.858900e-003
2.279448e+003, 1.123653e-003
2.281376e+003, 1.315252e-003
2.283304e+003, 1.851116e-003
2.285233e+003, 1.746556e-003
2.287161e+003, 8.200062e-004
2.289090e+003, 4.615590e-004
2.291018e+003, 1.299300e-003
2.292947e+003, 2.168623e-003
2.294875e+003, 1.472127e-003
2.296804e+003, 5.467171e-004
2.298732e+003, 3.844091e-004
2.300661e+003, 6.350467e-004
2.302589e+003, 1.150795e-003
2.304518e+003, 8.188161e-004
2.306446e+003, 4.578717e-004
2.308375e+003, -6.814650e-005
2.310303e+003, -6.584938e-004
2.312231e+003, 2.663441e-004
2.314160e+003, 4.277979e-004
2.316088e+003, 9.924483e-004
2.318017e+003, 1.518509e-003
2.319945e+003, 1.294000e-003
2.321874e+003, 1.495841e-003
2.323802e+003, 1.538570e-003
2.325731e+003, 5.317057e-004
2.327659e+003, -4.434576e-005
2.329588e+003, 4.899578e-004
2.331516e+003, 7.079581e-004
2.333445e+003, -2.057955e-004
2.335373e+003, -5.769385e-004
2.337302e+003, -3.105813e-004
2.339230e+003, -2.637260e-004
2.341158e+003, 4.747519e-005
2.343087e+003, -3.885713e-004
2.345015e+003, -7.907550e-004
2.346944e+003, -8.062465e-004
2.348872e+003, -5.472149e-004
2.350801e+003, -3.400956e-004
2.352729e+003, -1.972082e-004
2.354658e+003, -3.702907e-004
2.356586e+003, -6.580300e-004
2.358515e+003, -6.703610e-004
2.360443e+003, -8.844978e-004
2.362372e+003, -1.382577e-003
2.364300e+003, -1.231765e-003
2.366229e+003, -1.392507e-003
2.368157e+003, -2.563915e-003
2.370085e+003, -2.577205e-003
2.372014e+003, -1.639824e-003
2.373942e+003, -1.370182e-003
2.375871e+003, -1.959266e-003
2.377799e+003, -1.983503e-003
2.379728e+003, -1.856196e-003
2.381656e+003, -2.189278e-003
2.383585e+003, -2.309024e-003
2.385513e+003, -2.609750e-003
2.387442e+003, -2.254193e-003
2.389370e+003, -1.352916e-003
2.391299e+003, -1.390565e-003
2.393227e+003, -1.217610e-003
2.395156e+003, -1.421181e-003
2.397084e+003, -1.369023e-003
2.399012e+003, -1.779748e-003
2.400941e+003, -1.495873e-003
2.402869e+003, -7.013472e-004
2.404798e+003, -1.841231e-003
2.406726e+003, -2.675114e-003
2.408655e+003, -1.519965e-003
2.410583e+003, -3.381250e-004
2.412512e+003, -1.002241e-003
2.414440e+003, -1.811398e-003
2.416369e+003, -1.086787e-003
2.418297e+003, -4.570305e-004
2.420226e+003, 4.346488e-005
2.422154e+003, 2.864718e-004
2.424083e+003, -1.365345e-004
2.426011e+003, -3.124849e-004
2.427939e+003, 2.189202e-004
2.429868e+003, 3.846728e-004
2.431796e+003, -1.459117e-004
2.433725e+003, -4.508379e-004
2.435653e+003, -4.816874e-004
2.437582e+003, -1.639268e-003
2.439510e+003, -2.376830e-003
2.441439e+003, -1.766724e-003
2.443367e+003, -1.520770e-003
2.445296e+003, -1.506598e-003
2.447224e+003, -6.455762e-004
2.449153e+003, -1.372975e-004
2.451081e+003, 1.914391e-004
2.453010e+003, -8.007761e-004
2.454938e+003, -1.185307e-003
2.456866e+003, -8.718267e-004
2.458795e+003, -1.142492e-003
2.460723e+003, -1.425400e-003
2.462652e+003, -1.376563e-003
2.464580e+003, -3.452092e-004
2.466509e+003, 6.821339e-004
2.468437e+003, 3.254890e-004
2.470366e+003, -3.832500e-004
2.472294e+003, 1.419717e-004
2.474223e+003, 4.327008e-004
2.476151e+003, -1.475066e-004
2.478080e+003, -8.912502e-004
2.480008e+003, -7.326490e-004
2.481937e+003, -3.387615e-004
2.483865e+003, -6.604238e-004
2.485793e+003, -2.676809e-005
2.487722e+003, 1.123752e-003
2.489650e+003, 4.156755e-004
2.491579e+003, -5.142021e-004
2.493507e+003, -8.339753e-004
2.495436e+003, -7.711660e-004
2.497364e+003, -1.314782e-004
2.499293e+003, -6.995331e-004
2.501221e+003, -1.017567e-003
2.503150e+003, -1.319264e-003
2.505078e+003, -1.948418e-003
2.507007e+003, -1.416040e-003
2.508935e+003, 1.700165e-004
2.510864e+003, 1.321217e-004
2.512792e+003, -1.429203e-003
2.514720e+003, -2.335124e-003
2.516649e+003, -1.396752e-003
2.518577e+003, -3.887275e-004
2.520506e+003, 8.866153e-004
2.522434e+003, 3.167669e-005
2.524363e+003, -7.362235e-004
2.526291e+003, 3.879633e-004
2.528220e+003, 1.346844e-003
2.530148e+003, 4.858418e-004
2.532077e+003, 5.525227e-004
2.534005e+003, 1.090364e-003
2.535934e+003, -7.326799e-005
2.537862e+003, -6.898235e-004
2.539791e+003, -2.642389e-005
2.541719e+003, -7.695631e-004
2.543647e+003, -1.241777e-003
2.545576e+003, -6.281933e-004
2.547504e+003, 2.574508e-005
2.549433e+003, 1.909107e-005
2.551361e+003, -1.056706e-005
2.553290e+003, 2.488389e-004
2.555218e+003, 1.048199e-004
2.557147e+003, 6.007421e-005
2.559075e+003, -2.121306e-004
2.561004e+003, 3.977082e-004
2.562932e+003, 3.088130e-004
2.564861e+003, -3.365715e-004
2.566789e+003, -5.911826e-004
2.568718e+003, -8.066552e-004
2.570646e+003, -8.376461e-004
2.572574e+003, 3.724747e-004
2.574503e+003, 1.485697e-003
2.576431e+003, 4.924232e-004
2.578360e+003, -1.487399e-003
2.580288e+003, -1.937701e-003
2.582217e+003, -4.048789e-004
2.584145e+003, 1.212565e-003
2.586074e+003, 7.173442e-004
2.588002e+003, 1.708289e-004
2.589931e+003, 6.318607e-004
2.591859e+003, 8.675380e-004
2.593788e+003, 9.551419e-004
2.595716e+003, -7.602723e-005
2.597645e+003, -3.978336e-004
2.599573e+003, 9.423586e-004
2.601501e+003, 1.206730e-003
2.603430e+003, 9.347780e-004
2.605358e+003, 1.418967e-003
2.607287e+003, -1.276771e-004
2.609215e+003, -9.599227e-004
2.611144e+003, 4.640896e-004
2.613072e+003, 1.038069e-003
2.615001e+003, 1.072572e-003
2.616929e+003, 8.834790e-004
2.618858e+003, 1.147549e-003
2.620786e+003, 1.808432e-003
2.622715e+003, 1.700011e-003
2.624643e+003, 7.826060e-004
2.626572e+003, 9.064182e-004
2.628500e+003, 1.467063e-003
2.630428e+003, 1.741498e-003
2.632357e+003, 1.934445e-003
2.634285e+003, 1.696847e-003
2.636214e+003, 1.923455e-003
2.638142e+003, 2.023633e-003
2.640071e+003, 1.869929e-003
2.641999e+003, 1.382478e-003
2.643928e+003, 1.492428e-003
2.645856e+003, 1.735820e-003
2.647785e+003, 1.485645e-003
2.649713e+003, 1.750221e-003
2.651642e+003, 2.119453e-003
2.653570e+003, 1.680123e-003
2.655499e+003, 1.177873e-003
2.657427e+003, 1.571993e-003
2.659355e+003, 2.365494e-003
2.661284e+003, 1.945015e-003
2.663212e+003, 1.531323e-003
2.665141e+003, 1.116030e-003
2.667069e+003, 5.621746e-004
2.668998e+003, 4.977288e-004
2.670926e+003, 3.779505e-004
2.672855e+003, 4.217225e-004
2.674783e+003, 1.091042e-004
2.676712e+003, 8.816148e-005
2.678640e+003, 5.921410e-004
2.680569e+003, 7.991928e-004
2.682497e+003, 1.079438e-003
2.684426e+003, 9.095593e-004
2.686354e+003, 1.101838e-003
2.688282e+003, 9.413536e-004
2.690211e+003, 9.430101e-004
2.692139e+003, 7.614039e-004
2.694068e+003, 7.615027e-004
2.695996e+003, 1.618961e-003
2.697925e+003, 1.550298e-003
2.699853e+003, 1.713280e-003
2.701782e+003, 2.293170e-003
2.703710e+003, 2.129570e-003
2.705639e+003, 1.472955e-003
2.707567e+003, 1.366220e-003
2.709496e+003, 1.737381e-003
2.711424e+003, 2.371118e-003
2.713353e+003, 2.185262e-003
2.715281e+003, 1.786953e-003
2.717209e+003, 1.564625e-003
2.719138e+003, 1.515937e-003
2.721066e+003, 1.906165e-003
2.722995e+003, 2.553382e-003
2.724923e+003, 3.204855e-003
2.726852e+003, 2.761381e-003
2.728780e+003, 1.784970e-003
2.730709e+003, 1.436416e-003
2.732637e+003, 2.744732e-003
2.734566e+003, 2.989993e-003
2.736494e+003, 2.766692e-003
2.738423e+003, 2.487468e-003
2.740351e+003, 1.765168e-003
2.742280e+003, 1.867695e-003
2.744208e+003, 2.300847e-003
2.746136e+003, 1.696999e-003
2.748065e+003, 1.498878e-003
2.749993e+003, 2.352441e-003
2.751922e+003, 3.808271e-003
2.753850e+003, 3.254522e-003
2.755779e+003, 2.618989e-003
2.757707e+003, 2.923970e-003
2.759636e+003, 3.277863e-003
2.761564e+003, 3.466425e-003
2.763493e+003, 3.277854e-003
2.765421e+003, 2.933160e-003
2.767350e+003, 3.588090e-003
2.769278e+003, 4.089505e-003
2.771207e+003, 4.217201e-003
2.773135e+003, 3.898559e-003
2.775063e+003, 3.647063e-003
2.776992e+003, 3.139793e-003
2.778920e+003, 3.322651e-003
2.780849e+003, 3.504309e-003
2.782777e+003, 3.541509e-003
2.784706e+003, 4.305246e-003
2.786634e+003, 4.184902e-003
2.788563e+003, 3.543590e-003
2.790491e+003, 3.703786e-003
2.792420e+003, 3.907755e-003
2.794348e+003, 3.000504e-003
2.796277e+003, 2.789059e-003
2.798205e+003, 3.943291e-003
2.800134e+003, 4.686137e-003
2.802062e+003, 4.337670e-003
2.803990e+003, 4.570792e-003
2.805919e+003, 4.372659e-003
2.807847e+003, 3.825560e-003
2.809776e+003, 3.722752e-003
2.811704e+003, 4.689228e-003
2.813633e+003, 5.214202e-003
2.815561e+003, 5.175804e-003
2.817490e+003, 5.245258e-003
2.819418e+003, 4.417603e-003
2.821347e+003, 3.881838e-003
2.823275e+003, 3.930288e-003
2.825204e+003, 4.133207e-003
2.827132e+003, 5.322196e-003
2.829061e+003, 5.833092e-003
2.830989e+003, 6.209690e-003
2.832917e+003, 7.248051e-003
2.834846e+003, 7.414376e-003
2.836774e+003, 7.770672e-003
2.838703e+003, 8.031449e-003
2.840631e+003, 7.575054e-003
2.842560e+003, 7.397598e-003
2.844488e+003, 7.505875e-003
2.846417e+003, 8.377596e-003
2.848345e+003, 9.650714e-003
2.850274e+003, 8.967188e-003
2.852202e+003, 7.339505e-003
2.854131e+003, 7.200639e-003
2.856059e+003, 7.845687e-003
2.857988e+003, 8.040260e-003
2.859916e+003, 8.124659e-003
2.861844e+003, 8.520863e-003
2.863773e+003, 8.222725e-003
2.865701e+003, 8.065497e-003
2.867630e+003, 8.421664e-003
2.869558e+003, 8.700461e-003
2.871487e+003, 9.821274e-003
2.873415e+003, 1.001088e-002
2.875344e+003, 9.557848e-003
2.877272e+003, 1.046705e-002
2.879201e+003, 1.110069e-002
2.881129e+003, 1.112161e-002
2.883058e+003, 1.083802e-002
2.884986e+003, 1.050571e-002
2.886915e+003, 1.060679e-002
2.888843e+003, 1.120228e-002
2.890771e+003, 1.153577e-002
2.892700e+003, 1.171789e-002
2.894628e+003, 1.233807e-002
2.896557e+003, 1.196148e-002
2.898485e+003, 1.163363e-002
2.900414e+003, 1.181073e-002
2.902342e+003, 1.187101e-002
2.904271e+003, 1.195273e-002
2.906199e+003, 1.235822e-002
2.908128e+003, 1.429329e-002
2.910056e+003, 1.618688e-002
2.911985e+003, 1.551612e-002
2.913913e+003, 1.460845e-002
2.915842e+003, 1.575118e-002
2.917770e+003, 1.725203e-002
2.919698e+003, 1.720361e-002
2.921627e+003, 1.586085e-002
2.923555e+003, 1.651916e-002
2.925484e+003, 1.691546e-002
2.927412e+003, 1.618842e-002
2.929341e+003, 1.628186e-002
2.931269e+003, 1.748762e-002
2.933198e+003, 1.753942e-002
2.935126e+003, 1.700167e-002
2.937055e+003, 1.725971e-002
2.938983e+003, 1.825801e-002
2.940912e+003, 1.859029e-002
2.942840e+003, 1.759975e-002
2.944769e+003, 1.718914e-002
2.946697e+003, 1.668394e-002
2.948625e+003, 1.544276e-002
2.950554e+003, 1.684376e-002
2.952482e+003, 1.801473e-002
2.954411e+003, 1.685903e-002
2.956339e+003, 1.714857e-002
2.958268e+003, 1.825949e-002
2.960196e+003, 1.925490e-002
2.962125e+003, 1.907568e-002
2.964053e+003, 1.870190e-002
2.965982e+003, 1.924375e-002
2.967910e+003, 2.032587e-002
2.969839e+003, 1.998215e-002
2.971767e+003, 1.865776e-002
2.973696e+003, 1.784362e-002
2.975624e+003, 1.802405e-002
2.977552e+003, 1.826044e-002
2.979481e+003, 1.871420e-002
2.981409e+003, 1.937153e-002
2.983338e+003, 1.922653e-002
2.985266e+003, 1.895157e-002
2.987195e+003, 1.861043e-002
2.989123e+003, 1.834065e-002
2.991052e+003, 2.032680e-002
2.992980e+003, 2.065030e-002
2.994909e+003, 2.065191e-002
2.996837e+003, 2.130065e-002
2.998766e+003, 2.170024e-002
3.000694e+003, 2.260151e-002
3.002623e+003, 2.267293e-002
3.004551e+003, 2.320715e-002
3.006479e+003, 2.390032e-002
3.008408e+003, 2.351216e-002
3.010336e+003, 2.279887e-002
3.012265e+003, 2.341691e-002
3.014193e+003, 2.462887e-002
3.016122e+003, 2.475390e-002
3.018050e+003, 2.414661e-002
3.019979e+003, 2.610994e-002
3.021907e+003, 2.722529e-002
3.023836e+003, 2.742762e-002
3.025764e+003, 2.841339e-002
3.027693e+003, 2.829927e-002
3.029621e+003, 2.915872e-002
3.031550e+003, 3.062171e-002
3.033478e+003, 3.170793e-002
3.035406e+003, 3.274813e-002
3.037335e+003, 3.336601e-002
3.039263e+003, 3.459109e-002
3.041192e+003, 3.523043e-002
3.043120e+003, 3.531128e-002
3.045049e+003, 3.592415e-002
3.046977e+003, 3.624290e-002
3.048906e+003, 3.703740e-002
3.050834e+003, 3.924326e-002
3.052763e+003, 3.979163e-002
3.054691e+003, 4.036945e-002
3.056620e+003, 4.121374e-002
3.058548e+003, 4.302540e-002
3.060477e+003, 4.430272e-002
3.062405e+003, 4.403798e-002
3.064333e+003, 4.532520e-002
3.066262e+003, 4.675262e-002
3.068190e+003, 4.700211e-002
3.070119e+003, 4.877774e-002
3.072047e+003, 5.132774e-002
3.073976e+003, 5.151778e-002
3.075904e+003, 5.155350e-002
3.077833e+003, 5.318844e-002
3.079761e+003, 5.402829e-002
3.081690e+003, 5.467913e-002
3.083618e+003, 5.484394e-002
3.085547e+003, 5.475811e-002
3.087475e+003, 5.663679e-002
3.089404e+003, 5.778710e-002
3.091332e+003, 5.709107e-002
3.093260e+003, 5.809798e-002
3.095189e+003, 6.059511e-002
3.097117e+003, 6.142277e-002
3.099046e+003, 6.080221e-002
3.100974e+003, 6.057133e-002
3.102903e+003, 5.977366e-002
3.104831e+003, 5.947898e-002
3.106760e+003, 5.910298e-002
3.108688e+003, 5.863569e-002
3.110617e+003, 5.876151e-002
3.112545e+003, 5.793875e-002
3.114474e+003, 5.778692e-002
3.116402e+003, 5.734603e-002
3.118331e+003, 5.708813e-002
3.120259e+003, 5.698444e-002
3.122188e+003, 5.549641e-002
3.124116e+003, 5.353368e-002
3.126044e+003, 5.312449e-002
3.127973e+003, 5.220765e-002
3.129901e+003, 5.085430e-002
3.131830e+003, 5.047978e-002
3.133758e+003, 5.045860e-002
3.135687e+003, 4.942802e-002
3.137615e+003, 4.658662e-002
3.139544e+003, 4.433919e-002
3.141472e+003, 4.359050e-002
3.143401e+003, 4.271050e-002
3.145329e+003, 4.021349e-002
3.147258e+003, 3.992512e-002
3.149186e+003, 4.181254e-002
3.151115e+003, 4.242173e-002
3.153043e+003, 4.021453e-002
3.154971e+003, 3.760998e-002
3.156900e+003, 3.574249e-002
3.158828e+003, 3.453009e-002
3.160757e+003, 3.450670e-002
3.162685e+003, 3.435455e-002
3.164614e+003, 3.379408e-002
3.166542e+003, 3.335011e-002
3.168471e+003, 3.402627e-002
3.170399e+003, 3.381947e-002
3.172328e+003, 3.064806e-002
3.174256e+003, 3.015338e-002
3.176185e+003, 3.113143e-002
3.178113e+003, 2.994270e-002
3.180042e+003, 2.800520e-002
3.181970e+003, 2.815819e-002
3.183898e+003, 2.938779e-002
3.185827e+003, 2.833313e-002
3.187755e+003, 2.820960e-002
3.189684e+003, 2.877094e-002
3.191612e+003, 2.851725e-002
3.193541e+003, 2.758428e-002
3.195469e+003, 2.741993e-002
3.197398e+003, 2.743161e-002
3.199326e+003, 2.671270e-002
3.201255e+003, 2.611951e-002
3.203183e+003, 2.612519e-002
3.205112e+003, 2.516173e-002
3.207040e+003, 2.398220e-002
3.208969e+003, 2.386303e-002
3.210897e+003, 2.522719e-002
3.212825e+003, 2.462602e-002
3.214754e+003, 2.398343e-002
3.216682e+003, 2.447107e-002
3.218611e+003, 2.361680e-002
3.220539e+003, 2.271386e-002
3.222468e+003, 2.233326e-002
3.224396e+003, 2.160365e-002
3.226325e+003, 2.124555e-002
3.228253e+003, 2.159875e-002
3.230182e+003, 2.249755e-002
3.232110e+003, 2.225679e-002
3.234039e+003, 2.158229e-002
3.235967e+003, 2.122131e-002
3.237896e+003, 2.123810e-002
3.239824e+003, 2.093571e-002
3.241752e+003, 2.044851e-002
3.243681e+003, 2.074477e-002
3.245609e+003, 2.091601e-002
3.247538e+003, 2.025814e-002
3.249466e+003, 1.999320e-002
3.251395e+003, 1.993962e-002
3.253323e+003, 1.924864e-002
3.255252e+003, 1.936414e-002
3.257180e+003, 1.886136e-002
3.259109e+003, 1.730560e-002
3.261037e+003, 1.812790e-002
3.262966e+003, 1.739843e-002
3.264894e+003, 1.705009e-002
3.266823e+003, 1.750009e-002
3.268751e+003, 1.889664e-002
3.270679e+003, 2.035886e-002
3.272608e+003, 2.071828e-002
3.274536e+003, 1.960624e-002
3.276465e+003, 1.800563e-002
3.278393e+003, 1.736347e-002
3.280322e+003, 1.787251e-002
3.282250e+003, 1.876893e-002
3.284179e+003, 1.981899e-002
3.286107e+003, 1.944570e-002
3.288036e+003, 1.837498e-002
3.289964e+003, 1.771058e-002
3.291893e+003, 1.785371e-002
3.293821e+003, 1.773620e-002
3.295750e+003, 1.784842e-002
3.297678e+003, 1.926154e-002
3.299606e+003, 1.856335e-002
3.301535e+003, 1.685033e-002
3.303463e+003, 1.710928e-002
3.305392e+003, 1.910536e-002
3.307320e+003, 1.916870e-002
3.309249e+003, 1.728805e-002
3.311177e+003, 1.763795e-002
3.313106e+003, 1.687651e-002
3.315034e+003, 1.511680e-002
3.316963e+003, 1.578547e-002
3.318891e+003, 1.798176e-002
3.320820e+003, 1.678667e-002
3.322748e+003, 1.510269e-002
3.324677e+003, 1.606131e-002
3.326605e+003, 1.641786e-002
3.328533e+003, 1.581500e-002
3.330462e+003, 1.652652e-002
3.332390e+003, 1.524738e-002
3.334319e+003, 1.403762e-002
3.336247e+003, 1.512182e-002
3.338176e+003, 1.559603e-002
3.340104e+003, 1.607776e-002
3.342033e+003, 1.658719e-002
3.343961e+003, 1.653635e-002
3.345890e+003, 1.630180e-002
3.347818e+003, 1.598569e-002
3.349747e+003, 1.756264e-002
3.351675e+003, 1.765986e-002
3.353604e+003, 1.534646e-002
3.355532e+003, 1.406630e-002
3.357460e+003, 1.248248e-002
3.359389e+003, 1.364040e-002
3.361317e+003, 1.559653e-002
3.363246e+003, 1.410291e-002
3.365174e+003, 1.293554e-002
3.367103e+003, 1.428221e-002
3.369031e+003, 1.507461e-002
3.370960e+003, 1.498788e-002
3.372888e+003, 1.282730e-002
3.374817e+003, 1.132022e-002
3.376745e+003, 1.212114e-002
3.378674e+003, 1.224884e-002
3.380602e+003, 1.343429e-002
3.382531e+003, 1.516060e-002
3.384459e+003, 1.392886e-002
3.386387e+003, 1.306191e-002
3.388316e+003, 1.373360e-002
3.390244e+003, 1.486765e-002
3.392173e+003, 1.561258e-002
3.394101e+003, 1.398705e-002
3.396030e+003, 1.469390e-002
3.397958e+003, 1.559518e-002
3.399887e+003, 1.552183e-002
3.401815e+003, 1.616455e-002
3.403744e+003, 1.727693e-002
3.405672e+003, 1.806442e-002
3.407601e+003, 1.700010e-002
3.409529e+003, 1.378914e-002
3.411458e+003, 1.215172e-002
3.413386e+003, 1.557969e-002
3.415314e+003, 1.841470e-002
3.417243e+003, 1.924558e-002
3.419171e+003, 1.923441e-002
3.421100e+003, 1.945082e-002
3.423028e+003, 1.984829e-002
3.424957e+003, 1.966075e-002
3.426885e+003, 1.860712e-002
3.428814e+003, 1.805791e-002
3.430742e+003, 1.867905e-002
3.432671e+003, 2.042115e-002
3.434599e+003, 2.147560e-002
3.436528e+003, 2.163876e-002
3.438456e+003, 2.290146e-002
3.440385e+003, 2.483998e-002
3.442313e+003, 2.607800e-002
3.444241e+003, 2.713373e-002
3.446170e+003, 2.754362e-002
3.448098e+003, 2.898165e-002
3.450027e+003, 3.205322e-002
3.451955e+003, 3.578984e-002
3.453884e+003, 3.790119e-002
3.455812e+003, 3.966222e-002
3.457741e+003, 4.069732e-002
3.459669e+003, 4.112725e-002
3.461598e+003, 4.490803e-002
3.463526e+003, 4.773287e-002
3.465455e+003, 4.851880e-002
3.467383e+003, 5.127764e-002
3.469312e+003, 5.532542e-002
3.471240e+003, 5.914008e-002
3.473168e+003, 6.216370e-002
3.475097e+003, 6.740364e-002
3.477025e+003, 7.172283e-002
3.478954e+003, 7.558420e-002
3.480882e+003, 7.980233e-002
3.482811e+003, 8.415817e-002
3.484739e+003, 8.922209e-002
3.486668e+003, 9.676129e-002
3.488596e+003, 1.055818e-001
3.490525e+003, 1.125876e-001
3.492453e+003, 1.161608e-001
3.494382e+003, 1.186762e-001
3.496310e+003, 1.188426e-001
3.498239e+003, 1.199661e-001
3.500167e+003, 1.187949e-001
3.502095e+003, 1.127521e-001
3.504024e+003, 1.064279e-001
3.505952e+003, 1.028149e-001
3.507881e+003, 1.004622e-001
3.509809e+003, 9.735107e-002
3.511738e+003, 9.362008e-002
3.513666e+003, 8.991444e-002
3.515595e+003, 9.112084e-002
3.517523e+003, 9.073750e-002
3.519452e+003, 8.661713e-002
3.521380e+003, 8.530159e-002
3.523309e+003, 8.770780e-002
3.525237e+003, 9.100491e-002
3.527166e+003, 9.545453e-002
3.529094e+003, 1.006161e-001
3.531022e+003, 1.054319e-001
3.532951e+003, 1.130150e-001
3.534879e+003, 1.219480e-001
3.536808e+003, 1.287345e-001
3.538736e+003, 1.304585e-001
3.540665e+003, 1.276506e-001
3.542593e+003, 1.227585e-001
3.544522e+003, 1.159250e-001
3.546450e+003, 1.063048e-001
3.548379e+003, 9.282220e-002
3.550307e+003, 8.006015e-002
3.552236e+003, 6.866613e-002
3.554164e+003, 5.967730e-002
3.556093e+003, 5.011285e-002
3.558021e+003, 4.123478e-002
3.559949e+003, 3.312775e-002
3.561878e+003, 2.506441e-002
3.563806e+003, 2.049251e-002
3.565735e+003, 1.587095e-002
3.567663e+003, 1.169825e-002
3.569592e+003, 1.057881e-002
3.571520e+003, 1.013563e-002
3.573449e+003, 1.009511e-002
3.575377e+003, 8.713817e-003
3.577306e+003, 7.426476e-003
3.579234e+003, 5.600264e-003
3.581163e+003, 3.627580e-003
3.583091e+003, 5.523849e-003
3.585020e+003, 7.688978e-003
3.586948e+003, 4.034356e-003
3.588876e+003, 2.531116e-003
3.590805e+003, 2.720421e-003
3.592733e+003, 4.665429e-003
3.594662e+003, 7.336852e-003
3.596590e+003, 8.590681e-003
3.598519e+003, 9.941763e-003
3.600447e+003, 1.016273e-002
3.602376e+003, 1.023906e-002
3.604304e+003, 8.680196e-003
3.606233e+003, 5.594060e-003
3.608161e+003, 4.019260e-003
3.610090e+003, 5.800532e-003
3.612018e+003, 5.773119e-003
3.613947e+003, 5.061136e-003
3.615875e+003, 4.220531e-003
3.617803e+003, 3.677311e-003
3.619732e+003, 4.642628e-003
3.621660e+003, 2.396670e-003
3.623589e+003, -9.752189e-004
3.625517e+003, 5.739562e-004
3.627446e+003, 7.047227e-004
3.629374e+003, -3.982408e-003
3.631303e+003, -5.771871e-003
3.633231e+003, -4.362445e-003
3.635160e+003, -6.107627e-003
3.637088e+003, -6.670184e-003
3.639017e+003, -4.538924e-003
3.640945e+003, -1.706486e-003
3.642874e+003, -2.621791e-003
3.644802e+003, -5.177862e-003
3.646730e+003, -5.885839e-003
3.648659e+003, -7.916934e-003
3.650587e+003, -7.402781e-003
3.652516e+003, -5.884567e-003
3.654444e+003, -5.360398e-003
3.656373e+003, -6.328265e-003
3.658301e+003, -6.453054e-003
3.660230e+003, -3.997514e-003
3.662158e+003, -3.564915e-003
3.664087e+003, -4.698631e-003
3.666015e+003, -7.417986e-003
3.667944e+003, -7.131174e-003
3.669872e+003, -5.282438e-003
3.671801e+003, -4.207706e-003
3.673729e+003, -4.665362e-003
3.675657e+003, -4.762647e-003
3.677586e+003, -5.593738e-003
3.679514e+003, -4.636604e-003
3.681443e+003, -4.216687e-003
3.683371e+003, -4.016092e-003
3.685300e+003, -6.532663e-003
3.687228e+003, -7.812795e-003
3.689157e+003, -5.469911e-003
3.691085e+003, -5.475451e-003
3.693014e+003, -6.328425e-003
3.694942e+003, -4.013443e-003
3.696871e+003, -1.456262e-003
3.698799e+003, -2.960678e-003
3.700728e+003, -3.643813e-003
3.702656e+003, -3.126014e-003
3.704584e+003, -4.282247e-003
3.706513e+003, -5.317186e-003
3.708441e+003, -4.136330e-003
3.710370e+003, -5.300540e-003
3.712298e+003, -8.464608e-003
3.714227e+003, -9.242166e-003
3.716155e+003, -9.370735e-003
3.718084e+003, -8.657204e-003
3.720012e+003, -5.463821e-003
3.721941e+003, -4.984788e-003
3.723869e+003, -5.670284e-003
3.725798e+003, -6.441290e-003
3.727726e+003, -5.845756e-003
3.729655e+003, -6.200040e-003
3.731583e+003, -7.820647e-003
3.733511e+003, -6.341633e-003
3.735440e+003, -5.976116e-003
3.737368e+003, -6.252832e-003
3.739297e+003, -4.918111e-003
3.741225e+003, -5.641124e-003
3.743154e+003, -9.341768e-003
3.745082e+003, -8.643295e-003
3.747011e+003, -6.233593e-003
3.748939e+003, -6.941115e-003
3.750868e+003, -8.220447e-003
3.752796e+003, -9.923940e-003
3.754725e+003, -9.910491e-003
3.756653e+003, -1.067739e-002
3.758582e+003, -8.569026e-003
3.760510e+003, -5.999837e-003
3.762438e+003, -5.459539e-003
3.764367e+003, -6.285329e-003
3.766295e+003, -8.656130e-003
3.768224e+003, -9.758968e-003
3.770152e+003, -6.346507e-003
3.772081e+003, -5.249668e-003
3.774009e+003, -7.131964e-003
3.775938e+003, -6.465291e-003
3.777866e+003, -6.452883e-003
3.779795e+003, -4.579764e-003
3.781723e+003, -4.895832e-003
3.783652e+003, -5.948072e-003
3.785580e+003, -6.976981e-003
3.787509e+003, -3.665275e-003
3.789437e+003, -7.549408e-004
3.791365e+003, -8.511288e-004
3.793294e+003, -4.082911e-003
3.795222e+003, -4.573753e-003
3.797151e+003, -6.134886e-003
3.799079e+003, -6.123078e-003
3.801008e+003, -4.232920e-003
3.802936e+003, -4.725036e-003
3.804865e+003, -6.559148e-003
3.806793e+003, -8.075553e-003
3.808722e+003, -8.386667e-003
3.810650e+003, -8.983250e-003
3.812579e+003, -8.769038e-003
3.814507e+003, -6.573630e-003
3.816436e+003, -4.295002e-003
3.818364e+003, -5.775969e-003
3.820292e+003, -7.955796e-003
3.822221e+003, -9.025264e-003
3.824149e+003, -8.322302e-003
3.826078e+003, -8.169448e-003
3.828006e+003, -7.694257e-003
3.829935e+003, -7.912097e-003
3.831863e+003, -9.800217e-003
3.833792e+003, -1.158176e-002
3.835720e+003, -9.658206e-003
3.837649e+003, -7.873488e-003
3.839577e+003, -8.210931e-003
3.841506e+003, -8.012135e-003
3.843434e+003, -7.311468e-003
3.845363e+003, -9.311791e-003
3.847291e+003, -6.960855e-003
3.849219e+003, -3.388368e-003
3.851148e+003, -5.304503e-003
3.853076e+003, -5.900612e-003
3.855005e+003, -6.098678e-003
3.856933e+003, -8.191838e-003
3.858862e+003, -9.280269e-003
3.860790e+003, -1.090474e-002
3.862719e+003, -9.469891e-003
3.864647e+003, -6.401103e-003
3.866576e+003, -8.764004e-003
3.868504e+003, -1.037642e-002
3.870433e+003, -9.341892e-003
3.872361e+003, -8.695171e-003
3.874290e+003, -7.490942e-003
3.876218e+003, -7.380484e-003
3.878146e+003, -5.901615e-003
3.880075e+003, -5.017775e-003
3.882003e+003, -7.135737e-003
3.883932e+003, -8.185916e-003
3.885860e+003, -8.019815e-003
3.887789e+003, -7.827242e-003
3.889717e+003, -6.134716e-003
3.891646e+003, -7.256179e-003
3.893574e+003, -8.436547e-003
3.895503e+003, -9.533195e-003
3.897431e+003, -1.162679e-002
3.899360e+003, -1.270083e-002
3.901288e+003, -1.152133e-002
3.903217e+003, -9.265135e-003
3.905145e+003, -7.490442e-003
3.907073e+003, -6.836691e-003
3.909002e+003, -7.014594e-003
3.910930e+003, -7.632740e-003
3.912859e+003, -8.377578e-003
3.914787e+003, -1.048059e-002
3.916716e+003, -7.975771e-003
3.918644e+003, -6.925605e-003
3.920573e+003, -9.117180e-003
3.922501e+003, -1.138350e-002
3.924430e+003, -1.094664e-002
3.926358e+003, -8.286081e-003
3.928287e+003, -9.833052e-003
3.930215e+003, -9.673566e-003
3.932144e+003, -7.445588e-003
3.934072e+003, -9.962097e-003
3.936000e+003, -1.063018e-002
3.937929e+003, -8.012865e-003
3.939857e+003, -5.784900e-003
3.941786e+003, -6.809235e-003
3.943714e+003, -8.430767e-003
3.945643e+003, -7.585692e-003
3.947571e+003, -9.263747e-003
3.949500e+003, -1.228437e-002
3.951428e+003, -1.223928e-002
3.953357e+003, -9.052958e-003
3.955285e+003, -9.581625e-003
3.957214e+003, -1.047350e-002
3.959142e+003, -8.337252e-003
3.961071e+003, -9.020749e-003
3.962999e+003, -8.893991e-003
3.964927e+003, -6.241293e-003
3.966856e+003, -7.175481e-003
3.968784e+003, -8.790014e-003
3.970713e+003, -9.305491e-003
3.972641e+003, -1.222800e-002
3.974570e+003, -1.306160e-002
3.976498e+003, -1.047477e-002
3.978427e+003, -6.812000e-003
3.980355e+003, -5.044497e-003
3.982284e+003, -7.707630e-003
3.984212e+003, -9.017244e-003
3.986141e+003, -7.728244e-003
3.988069e+003, -6.372910e-003
3.989998e+003, -1.008387e-002
3.991926e+003, -1.071247e-002
3.993854e+003, -6.275620e-003
3.995783e+003, -6.718938e-003
3.997711e+003, -1.222928e-002
3.999640e+003, -1.185062e-002
4.001568e+003, 0.000000e+000
##END=



