##NAMES=Germanite
##RRUFFID=R050439
##IDEAL CHEMISTRY=Cu^1+^_8_Cu^2+^_5_Fe^3+^_2_Ge^4+^_2_S^2-^_16_
##LOCALITY=Tsumeb mine, Tsumeb, Otavi District, Oshikoto, Namibia
##OWNER=RRUFF
##SOURCE=University of Arizona Mineral Museum
##DESCRIPTION=Black with purple hints, massive
##STATUS=The identification of this mineral has been confirmed by X-ray diffraction and chemical analysis
##URL=rruff.info/R050439
##MEASURED CHEMISTRY=(Cu_11.61_Fe^2+^_0.87_Zn_0.52_)_Σ=13_Fe_2.00_(Ge_1.71_As_0.29_)_Σ=2_S_16.00_ ; = dark-gray phase. (Cu_10.59_Zn_0.41_)_Σ=11_Fe_4.00_(Ge_1.46_As_0.54_)_Σ=2_S_16.00_ = lighter-gray phase. Lightest phase is PbS.
399.1926, 0.3265817
401.1211, 0.3118146
403.0496, 0.3133137
404.9780, 0.2826094
406.9065, 0.2654588
408.8350, 0.2653465
410.7634, 0.2690673
412.6919, 0.2742778
414.6204, 0.2830321
416.5488, 0.2948252
418.4773, 0.3052257
420.4058, 0.3158182
422.3342, 0.3232892
424.2627, 0.3278386
426.1912, 0.3312958
428.1196, 0.3381708
430.0481, 0.3466423
431.9766, 0.3478194
433.9050, 0.3401789
435.8335, 0.3397138
437.7620, 0.3413415
439.6904, 0.3419738
441.6189, 0.3457171
443.5474, 0.3466627
445.4758, 0.3487072
447.4043, 0.3533655
449.3328, 0.3561653
451.2612, 0.3570165
453.1897, 0.3571608
455.1182, 0.3537556
457.0466, 0.3583153
458.9751, 0.3674514
460.9036, 0.3672195
462.8320, 0.3666421
464.7605, 0.3675697
466.6890, 0.3665850
468.6174, 0.3643174
470.5459, 0.3613227
472.4744, 0.3662561
474.4028, 0.3685234
476.3313, 0.3710604
478.2598, 0.3737696
480.1882, 0.3738558
482.1167, 0.3741644
484.0452, 0.3753941
485.9736, 0.3758538
487.9021, 0.3776106
489.8306, 0.3812247
491.7590, 0.3838729
493.6875, 0.3866419
495.6160, 0.3865807
497.5444, 0.3840982
499.4729, 0.3865316
501.4014, 0.3891578
503.3298, 0.3896477
505.2583, 0.3917017
507.1868, 0.3926119
509.1152, 0.3938373
511.0437, 0.3953308
512.9722, 0.3952733
514.9006, 0.3979652
516.8291, 0.4020155
518.7576, 0.4032055
520.6860, 0.4042163
522.6145, 0.4049122
524.5430, 0.4059589
526.4714, 0.4085896
528.3999, 0.4108763
530.3284, 0.4138036
532.2568, 0.4153582
534.1853, 0.4142824
536.1138, 0.4135726
538.0422, 0.4129118
539.9707, 0.4142367
541.8992, 0.4164532
543.8276, 0.4169860
545.7561, 0.4183382
547.6846, 0.4202600
549.6130, 0.4224901
551.5415, 0.4243718
553.4700, 0.4251426
555.3984, 0.4255551
557.3269, 0.4254423
559.2554, 0.4273149
561.1838, 0.4290918
563.1123, 0.4287499
565.0408, 0.4292736
566.9692, 0.4307357
568.8977, 0.4304486
570.8262, 0.4325003
572.7546, 0.4340054
574.6831, 0.4331167
576.6116, 0.4338211
578.5400, 0.4377596
580.4685, 0.4396915
582.3970, 0.4389998
584.3254, 0.4393704
586.2539, 0.4411547
588.1824, 0.4422457
590.1108, 0.4434074
592.0393, 0.4443967
593.9678, 0.4448866
595.8962, 0.4443195
597.8247, 0.4444571
599.7532, 0.4435380
601.6816, 0.4450952
603.6101, 0.4482463
605.5386, 0.4491840
607.4670, 0.4505242
609.3955, 0.4509928
611.3240, 0.4497379
613.2524, 0.4501298
615.1809, 0.4508513
617.1094, 0.4500918
619.0378, 0.4517549
620.9663, 0.4540271
622.8948, 0.4542294
624.8232, 0.4532987
626.7517, 0.4541558
628.6802, 0.4554208
630.6086, 0.4549403
632.5371, 0.4551336
634.4656, 0.4561105
636.3940, 0.4574250
638.3225, 0.4594044
640.2510, 0.4610130
642.1794, 0.4610819
644.1079, 0.4609491
646.0364, 0.4604068
647.9648, 0.4594496
649.8933, 0.4600212
651.8218, 0.4617045
653.7502, 0.4628085
655.6787, 0.4626836
657.6072, 0.4622184
659.5356, 0.4622852
661.4641, 0.4628448
663.3926, 0.4624990
665.3210, 0.4639836
667.2495, 0.4659345
669.1780, 0.4661915
671.1064, 0.4653779
673.0349, 0.4652807
674.9634, 0.4652480
676.8918, 0.4655166
678.8203, 0.4679305
680.7488, 0.4686551
682.6772, 0.4680626
684.6057, 0.4688410
686.5342, 0.4704255
688.4626, 0.4715005
690.3911, 0.4709458
692.3196, 0.4702024
694.2480, 0.4709033
696.1765, 0.4728199
698.1050, 0.4741261
700.0334, 0.4747490
701.9619, 0.4757024
703.8904, 0.4764917
705.8188, 0.4765216
707.7473, 0.4778726
709.6758, 0.4782159
711.6042, 0.4772094
713.5327, 0.4775059
715.4612, 0.4787105
717.3896, 0.4806755
719.3181, 0.4807031
721.2466, 0.4805478
723.1750, 0.4813120
725.1035, 0.4831312
727.0320, 0.4843777
728.9604, 0.4840851
730.8889, 0.4849812
732.8174, 0.4863454
734.7458, 0.4865539
736.6743, 0.4868386
738.6028, 0.4876038
740.5313, 0.4879092
742.4597, 0.4877228
744.3882, 0.4872321
746.3167, 0.4885609
748.2451, 0.4907634
750.1736, 0.4912057
752.1021, 0.4918092
754.0305, 0.4925991
755.9590, 0.4933918
757.8875, 0.4933529
759.8159, 0.4935366
761.7444, 0.4946986
763.6729, 0.4956786
765.6013, 0.4958473
767.5298, 0.4971162
769.4583, 0.4979041
771.3867, 0.4978985
773.3152, 0.4984789
775.2437, 0.4996448
777.1721, 0.5001617
779.1006, 0.4998328
781.0291, 0.5002822
782.9575, 0.5021006
784.8860, 0.5023209
786.8145, 0.5024164
788.7429, 0.5041476
790.6714, 0.5052410
792.5999, 0.5052264
794.5283, 0.5044273
796.4568, 0.5049977
798.3853, 0.5059209
800.3137, 0.5068374
802.2422, 0.5074682
804.1707, 0.5081620
806.0991, 0.5087942
808.0276, 0.5087623
809.9561, 0.5092143
811.8845, 0.5101649
813.8130, 0.5110458
815.7415, 0.5112599
817.6699, 0.5118921
819.5984, 0.5120832
821.5269, 0.5122570
823.4553, 0.5137615
825.3838, 0.5149184
827.3123, 0.5149845
829.2407, 0.5152919
831.1692, 0.5164451
833.0977, 0.5172825
835.0261, 0.5169415
836.9546, 0.5171927
838.8831, 0.5191118
840.8115, 0.5188230
842.7400, 0.5184010
844.6685, 0.5189513
846.5969, 0.5198674
848.5254, 0.5205359
850.4539, 0.5208585
852.3823, 0.5212340
854.3108, 0.5222251
856.2393, 0.5231240
858.1677, 0.5238233
860.0962, 0.5244902
862.0247, 0.5249125
863.9531, 0.5251656
865.8816, 0.5261006
867.8101, 0.5272594
869.7385, 0.5278411
871.6670, 0.5277315
873.5955, 0.5290503
875.5239, 0.5298343
877.4524, 0.5295338
879.3809, 0.5298933
881.3093, 0.5307181
883.2378, 0.5321813
885.1663, 0.5328426
887.0947, 0.5330290
889.0232, 0.5338843
890.9517, 0.5344363
892.8801, 0.5342292
894.8085, 0.5341673
896.7370, 0.5350325
898.6655, 0.5355334
900.5939, 0.5361321
902.5224, 0.5377870
904.4509, 0.5389767
906.3793, 0.5390454
908.3078, 0.5394472
910.2363, 0.5413221
912.1647, 0.5427832
914.0932, 0.5433643
916.0217, 0.5436462
917.9501, 0.5443175
919.8786, 0.5445946
921.8071, 0.5445396
923.7355, 0.5453501
925.6640, 0.5461448
927.5925, 0.5473798
929.5209, 0.5478872
931.4494, 0.5483508
933.3779, 0.5496159
935.3063, 0.5501802
937.2348, 0.5504323
939.1633, 0.5519110
941.0917, 0.5531177
943.0202, 0.5535250
944.9487, 0.5539222
946.8771, 0.5543781
948.8056, 0.5553463
950.7341, 0.5564330
952.6625, 0.5563601
954.5910, 0.5567839
956.5195, 0.5582783
958.4479, 0.5595132
960.3764, 0.5600607
962.3049, 0.5602981
964.2333, 0.5609339
966.1618, 0.5619044
968.0903, 0.5626259
970.0187, 0.5635633
971.9472, 0.5645842
973.8757, 0.5659354
975.8041, 0.5660343
977.7326, 0.5658780
979.6611, 0.5668250
981.5895, 0.5681154
983.5180, 0.5684866
985.4465, 0.5693224
987.3749, 0.5696458
989.3034, 0.5701467
991.2319, 0.5710045
993.1603, 0.5713313
995.0888, 0.5719129
997.0173, 0.5729432
998.9457, 0.5741397
1000.874, 0.5747015
1002.803, 0.5748152
1004.731, 0.5754324
1006.660, 0.5762825
1008.588, 0.5771323
1010.517, 0.5776810
1012.445, 0.5784329
1014.373, 0.5793269
1016.302, 0.5799709
1018.230, 0.5803329
1020.159, 0.5806951
1022.087, 0.5815619
1024.016, 0.5823397
1025.944, 0.5830622
1027.873, 0.5837619
1029.801, 0.5841950
1031.730, 0.5853813
1033.658, 0.5868045
1035.587, 0.5877097
1037.515, 0.5881522
1039.444, 0.5882882
1041.372, 0.5883502
1043.301, 0.5891598
1045.229, 0.5900885
1047.157, 0.5908264
1049.086, 0.5912216
1051.014, 0.5911641
1052.943, 0.5918822
1054.871, 0.5931261
1056.800, 0.5940329
1058.728, 0.5938205
1060.657, 0.5936602
1062.585, 0.5942142
1064.514, 0.5945082
1066.442, 0.5949987
1068.371, 0.5955622
1070.299, 0.5959069
1072.228, 0.5967953
1074.156, 0.5974840
1076.084, 0.5976483
1078.013, 0.5981233
1079.941, 0.5985206
1081.870, 0.5992534
1083.798, 0.5993643
1085.727, 0.6001754
1087.655, 0.6008323
1089.584, 0.6004808
1091.512, 0.5999674
1093.441, 0.6006358
1095.369, 0.6018230
1097.298, 0.6022197
1099.226, 0.6024732
1101.155, 0.6028099
1103.083, 0.6033781
1105.011, 0.6042270
1106.940, 0.6043272
1108.868, 0.6048614
1110.797, 0.6057068
1112.725, 0.6057938
1114.654, 0.6062301
1116.582, 0.6067741
1118.511, 0.6068670
1120.439, 0.6069477
1122.368, 0.6068919
1124.296, 0.6070581
1126.225, 0.6070588
1128.153, 0.6074230
1130.082, 0.6087384
1132.010, 0.6098161
1133.938, 0.6106561
1135.867, 0.6115346
1137.795, 0.6122804
1139.724, 0.6132780
1141.652, 0.6138400
1143.581, 0.6143802
1145.509, 0.6153149
1147.438, 0.6162789
1149.366, 0.6160626
1151.295, 0.6156701
1153.223, 0.6159739
1155.152, 0.6160746
1157.080, 0.6155953
1159.009, 0.6154734
1160.937, 0.6153482
1162.865, 0.6153092
1164.794, 0.6154931
1166.722, 0.6160042
1168.651, 0.6160874
1170.579, 0.6158496
1172.508, 0.6154324
1174.436, 0.6153592
1176.365, 0.6153013
1178.293, 0.6159073
1180.222, 0.6166166
1182.150, 0.6165528
1184.079, 0.6169947
1186.007, 0.6178816
1187.936, 0.6184003
1189.864, 0.6190585
1191.792, 0.6197774
1193.721, 0.6201677
1195.649, 0.6208792
1197.578, 0.6221170
1199.506, 0.6223589
1201.435, 0.6229293
1203.363, 0.6236250
1205.292, 0.6240662
1207.220, 0.6235946
1209.149, 0.6233305
1211.077, 0.6238145
1213.006, 0.6244415
1214.934, 0.6244691
1216.863, 0.6246630
1218.791, 0.6250684
1220.719, 0.6253664
1222.648, 0.6260716
1224.576, 0.6268138
1226.505, 0.6276429
1228.433, 0.6279987
1230.362, 0.6278208
1232.290, 0.6286675
1234.219, 0.6296312
1236.147, 0.6299472
1238.076, 0.6303595
1240.004, 0.6308135
1241.933, 0.6310689
1243.861, 0.6317576
1245.790, 0.6321214
1247.718, 0.6327922
1249.646, 0.6337062
1251.575, 0.6341377
1253.503, 0.6343325
1255.432, 0.6350198
1257.360, 0.6358283
1259.289, 0.6361122
1261.217, 0.6362780
1263.146, 0.6365515
1265.074, 0.6374234
1267.003, 0.6383925
1268.931, 0.6386546
1270.860, 0.6391491
1272.788, 0.6399204
1274.717, 0.6400469
1276.645, 0.6401027
1278.573, 0.6408912
1280.502, 0.6422945
1282.430, 0.6428317
1284.359, 0.6427668
1286.287, 0.6432816
1288.216, 0.6437370
1290.144, 0.6440226
1292.073, 0.6450650
1294.001, 0.6465227
1295.930, 0.6470294
1297.858, 0.6467971
1299.787, 0.6470177
1301.715, 0.6479480
1303.644, 0.6484863
1305.572, 0.6492034
1307.500, 0.6498246
1309.429, 0.6502050
1311.357, 0.6508210
1313.286, 0.6516083
1315.214, 0.6519595
1317.143, 0.6519173
1319.071, 0.6525439
1321.000, 0.6537117
1322.928, 0.6549147
1324.857, 0.6550729
1326.785, 0.6553441
1328.714, 0.6563532
1330.642, 0.6569980
1332.571, 0.6574530
1334.499, 0.6577086
1336.427, 0.6577959
1338.356, 0.6582500
1340.284, 0.6587912
1342.213, 0.6598530
1344.141, 0.6600945
1346.070, 0.6602929
1347.998, 0.6611584
1349.927, 0.6615931
1351.855, 0.6618872
1353.784, 0.6624119
1355.712, 0.6634676
1357.641, 0.6642185
1359.569, 0.6646085
1361.498, 0.6644487
1363.426, 0.6652680
1365.354, 0.6664679
1367.283, 0.6669288
1369.211, 0.6670575
1371.140, 0.6679407
1373.068, 0.6688953
1374.997, 0.6690979
1376.925, 0.6687871
1378.854, 0.6690112
1380.782, 0.6697433
1382.711, 0.6706859
1384.639, 0.6716287
1386.568, 0.6715263
1388.496, 0.6714135
1390.424, 0.6728091
1392.353, 0.6740465
1394.281, 0.6748781
1396.210, 0.6751930
1398.138, 0.6755806
1400.067, 0.6760243
1401.995, 0.6766998
1403.924, 0.6774060
1405.852, 0.6777097
1407.781, 0.6775017
1409.709, 0.6781098
1411.638, 0.6790479
1413.566, 0.6796206
1415.495, 0.6797096
1417.423, 0.6800360
1419.351, 0.6806220
1421.280, 0.6809663
1423.208, 0.6814840
1425.137, 0.6824037
1427.065, 0.6828835
1428.994, 0.6829398
1430.922, 0.6838003
1432.851, 0.6841866
1434.779, 0.6836551
1436.708, 0.6841194
1438.636, 0.6852807
1440.565, 0.6856130
1442.493, 0.6857469
1444.422, 0.6861546
1446.350, 0.6867454
1448.278, 0.6870224
1450.207, 0.6868382
1452.135, 0.6872818
1454.064, 0.6874306
1455.992, 0.6872146
1457.921, 0.6875094
1459.849, 0.6878764
1461.778, 0.6880371
1463.706, 0.6886247
1465.635, 0.6893818
1467.563, 0.6894110
1469.492, 0.6893361
1471.420, 0.6891802
1473.349, 0.6887165
1475.277, 0.6890029
1477.205, 0.6904890
1479.134, 0.6913834
1481.062, 0.6913127
1482.991, 0.6914319
1484.919, 0.6922813
1486.848, 0.6929765
1488.776, 0.6931481
1490.705, 0.6936952
1492.633, 0.6941280
1494.562, 0.6946714
1496.490, 0.6952384
1498.419, 0.6954889
1500.347, 0.6957010
1502.276, 0.6962042
1504.204, 0.6968417
1506.132, 0.6970749
1508.061, 0.6974416
1509.989, 0.6981249
1511.918, 0.6991172
1513.846, 0.6993817
1515.775, 0.6993658
1517.703, 0.6995947
1519.632, 0.7003424
1521.560, 0.7007691
1523.489, 0.7011333
1525.417, 0.7020466
1527.346, 0.7025132
1529.274, 0.7029752
1531.203, 0.7035075
1533.131, 0.7040703
1535.059, 0.7042949
1536.988, 0.7043750
1538.916, 0.7049073
1540.845, 0.7060868
1542.773, 0.7069532
1544.702, 0.7064714
1546.630, 0.7062330
1548.559, 0.7068346
1550.487, 0.7070287
1552.416, 0.7073267
1554.344, 0.7082116
1556.273, 0.7090217
1558.201, 0.7091793
1560.130, 0.7093974
1562.058, 0.7100973
1563.986, 0.7100573
1565.915, 0.7099029
1567.843, 0.7103894
1569.772, 0.7111436
1571.700, 0.7116250
1573.629, 0.7121422
1575.557, 0.7127222
1577.486, 0.7129607
1579.414, 0.7135913
1581.343, 0.7139024
1583.271, 0.7139754
1585.200, 0.7140279
1587.128, 0.7142299
1589.057, 0.7150545
1590.985, 0.7163017
1592.913, 0.7171080
1594.842, 0.7171706
1596.770, 0.7169397
1598.699, 0.7165262
1600.627, 0.7166777
1602.556, 0.7171733
1604.484, 0.7178074
1606.413, 0.7179888
1608.341, 0.7183182
1610.270, 0.7191325
1612.198, 0.7196202
1614.127, 0.7198712
1616.055, 0.7207864
1617.984, 0.7214867
1619.912, 0.7214040
1621.840, 0.7219498
1623.769, 0.7223184
1625.697, 0.7228798
1627.626, 0.7236619
1629.554, 0.7238594
1631.483, 0.7244616
1633.411, 0.7248962
1635.340, 0.7242045
1637.268, 0.7237018
1639.197, 0.7237201
1641.125, 0.7244184
1643.054, 0.7251294
1644.982, 0.7265989
1646.911, 0.7274444
1648.839, 0.7270715
1650.767, 0.7268931
1652.696, 0.7276497
1654.624, 0.7281116
1656.553, 0.7276923
1658.481, 0.7280704
1660.410, 0.7287108
1662.338, 0.7283841
1664.267, 0.7286695
1666.195, 0.7293199
1668.124, 0.7296444
1670.052, 0.7295395
1671.981, 0.7306572
1673.909, 0.7311157
1675.838, 0.7318069
1677.766, 0.7319648
1679.694, 0.7311891
1681.623, 0.7312644
1683.551, 0.7318556
1685.480, 0.7324448
1687.408, 0.7328186
1689.337, 0.7333806
1691.265, 0.7340043
1693.194, 0.7341739
1695.122, 0.7343440
1697.051, 0.7344303
1698.979, 0.7350036
1700.908, 0.7357242
1702.836, 0.7362288
1704.765, 0.7370096
1706.693, 0.7376866
1708.621, 0.7376840
1710.550, 0.7383140
1712.478, 0.7388853
1714.407, 0.7388085
1716.335, 0.7386941
1718.264, 0.7393098
1720.192, 0.7401300
1722.121, 0.7401423
1724.049, 0.7410151
1725.978, 0.7422184
1727.906, 0.7422678
1729.835, 0.7426313
1731.763, 0.7424448
1733.692, 0.7414867
1735.620, 0.7412283
1737.548, 0.7421602
1739.477, 0.7433711
1741.405, 0.7421793
1743.334, 0.7409136
1745.262, 0.7411290
1747.191, 0.7417728
1749.119, 0.7426392
1751.048, 0.7427085
1752.976, 0.7429111
1754.905, 0.7430106
1756.833, 0.7432520
1758.762, 0.7439263
1760.690, 0.7448052
1762.619, 0.7447066
1764.547, 0.7450225
1766.475, 0.7458013
1768.404, 0.7458060
1770.332, 0.7459627
1772.261, 0.7465762
1774.189, 0.7461063
1776.118, 0.7460680
1778.046, 0.7466261
1779.975, 0.7467542
1781.903, 0.7468878
1783.832, 0.7477092
1785.760, 0.7478474
1787.689, 0.7479033
1789.617, 0.7490384
1791.546, 0.7491894
1793.474, 0.7495747
1795.402, 0.7509766
1797.331, 0.7503271
1799.259, 0.7492454
1801.188, 0.7493360
1803.116, 0.7497919
1805.045, 0.7502040
1806.973, 0.7509613
1808.902, 0.7512326
1810.830, 0.7513834
1812.759, 0.7511349
1814.687, 0.7512584
1816.616, 0.7532496
1818.544, 0.7534152
1820.473, 0.7520014
1822.401, 0.7519236
1824.329, 0.7522306
1826.258, 0.7521656
1828.186, 0.7522366
1830.115, 0.7530238
1832.043, 0.7539660
1833.972, 0.7541941
1835.900, 0.7540578
1837.829, 0.7536575
1839.757, 0.7528761
1841.686, 0.7536126
1843.614, 0.7547752
1845.543, 0.7542537
1847.471, 0.7555950
1849.400, 0.7559285
1851.328, 0.7554793
1853.256, 0.7564436
1855.185, 0.7555854
1857.113, 0.7554018
1859.042, 0.7559618
1860.970, 0.7565911
1862.899, 0.7574560
1864.827, 0.7576084
1866.756, 0.7568607
1868.684, 0.7571079
1870.613, 0.7579374
1872.541, 0.7567044
1874.470, 0.7556285
1876.398, 0.7573863
1878.327, 0.7589070
1880.255, 0.7593123
1882.183, 0.7608959
1884.112, 0.7599122
1886.040, 0.7591386
1887.969, 0.7593191
1889.897, 0.7584531
1891.826, 0.7585580
1893.754, 0.7593939
1895.683, 0.7606332
1897.611, 0.7617071
1899.540, 0.7616588
1901.468, 0.7605849
1903.397, 0.7588648
1905.325, 0.7587416
1907.254, 0.7612841
1909.182, 0.7626812
1911.110, 0.7628465
1913.039, 0.7613249
1914.967, 0.7615147
1916.896, 0.7612135
1918.824, 0.7598430
1920.753, 0.7603225
1922.681, 0.7608148
1924.610, 0.7601613
1926.538, 0.7603805
1928.467, 0.7600293
1930.395, 0.7586115
1932.324, 0.7578337
1934.252, 0.7594277
1936.181, 0.7600316
1938.109, 0.7594516
1940.037, 0.7584928
1941.966, 0.7569329
1943.894, 0.7584713
1945.823, 0.7605417
1947.751, 0.7597477
1949.680, 0.7581568
1951.608, 0.7579851
1953.537, 0.7580153
1955.465, 0.7550419
1957.394, 0.7494645
1959.322, 0.7476990
1961.251, 0.7517198
1963.179, 0.7526637
1965.108, 0.7497234
1967.036, 0.7499537
1968.964, 0.7517757
1970.893, 0.7507644
1972.821, 0.7452086
1974.750, 0.7438885
1976.678, 0.7487931
1978.607, 0.7528815
1980.535, 0.7549855
1982.464, 0.7556342
1984.392, 0.7536505
1986.321, 0.7537910
1988.249, 0.7540956
1990.178, 0.7552463
1992.106, 0.7572555
1994.035, 0.7578809
1995.963, 0.7593083
1997.891, 0.7596168
1999.820, 0.7575198
2001.748, 0.7535973
2003.677, 0.7534086
2005.605, 0.7549185
2007.534, 0.7510673
2009.462, 0.7500162
2011.391, 0.7528337
2013.319, 0.7504382
2015.248, 0.7515209
2017.176, 0.7545133
2019.105, 0.7576972
2021.033, 0.7592357
2022.962, 0.7535036
2024.890, 0.7506487
2026.818, 0.7530404
2028.747, 0.7549173
2030.675, 0.7552691
2032.604, 0.7547529
2034.532, 0.7546225
2036.461, 0.7532694
2038.389, 0.7539762
2040.318, 0.7588136
2042.246, 0.7611364
2044.175, 0.7649853
2046.103, 0.7684551
2048.032, 0.7681354
2049.960, 0.7728142
2051.889, 0.7762159
2053.817, 0.7725444
2055.746, 0.7715477
2057.674, 0.7750511
2059.603, 0.7783615
2061.531, 0.7818320
2063.459, 0.7824455
2065.388, 0.7786823
2067.316, 0.7780483
2069.245, 0.7811846
2071.173, 0.7835346
2073.102, 0.7851141
2075.030, 0.7862898
2076.959, 0.7858372
2078.887, 0.7864168
2080.816, 0.7826819
2082.744, 0.7807273
2084.673, 0.7853602
2086.601, 0.7883857
2088.530, 0.7879052
2090.458, 0.7878977
2092.386, 0.7881079
2094.315, 0.7862995
2096.243, 0.7844005
2098.172, 0.7857790
2100.100, 0.7887975
2102.029, 0.7894756
2103.957, 0.7886833
2105.886, 0.7898654
2107.814, 0.7914822
2109.743, 0.7926074
2111.671, 0.7927071
2113.600, 0.7943506
2115.528, 0.7946365
2117.457, 0.7950863
2119.385, 0.7938090
2121.313, 0.7927460
2123.242, 0.7940298
2125.170, 0.7920732
2127.099, 0.7914633
2129.027, 0.7896725
2130.956, 0.7888815
2132.884, 0.7880547
2134.813, 0.7856643
2136.741, 0.7852321
2138.670, 0.7867596
2140.598, 0.7837746
2142.527, 0.7785187
2144.455, 0.7742794
2146.384, 0.7756405
2148.312, 0.7788829
2150.240, 0.7776011
2152.169, 0.7734282
2154.097, 0.7684047
2156.026, 0.7650138
2157.954, 0.7627280
2159.883, 0.7653109
2161.811, 0.7720311
2163.740, 0.7780496
2165.668, 0.7798067
2167.597, 0.7786309
2169.525, 0.7820256
2171.454, 0.7848468
2173.382, 0.7810432
2175.311, 0.7814178
2177.239, 0.7830852
2179.167, 0.7847340
2181.096, 0.7832291
2183.024, 0.7852411
2184.953, 0.7881098
2186.881, 0.7867084
2188.810, 0.7886728
2190.738, 0.7930572
2192.667, 0.7944279
2194.595, 0.7906576
2196.524, 0.7899187
2198.452, 0.7918488
2200.381, 0.7912275
2202.309, 0.7943285
2204.238, 0.7993879
2206.166, 0.8004457
2208.094, 0.8011500
2210.023, 0.8003869
2211.951, 0.8005839
2213.880, 0.7984837
2215.808, 0.7976763
2217.737, 0.7995325
2219.665, 0.8002341
2221.594, 0.8034937
2223.522, 0.8023908
2225.451, 0.8039314
2227.379, 0.8108416
2229.308, 0.8102068
2231.236, 0.8062484
2233.165, 0.8053478
2235.093, 0.8058085
2237.021, 0.8083019
2238.950, 0.8075014
2240.878, 0.8095126
2242.807, 0.8135082
2244.735, 0.8148195
2246.664, 0.8121042
2248.592, 0.8087341
2250.521, 0.8100291
2252.449, 0.8133408
2254.378, 0.8148426
2256.306, 0.8170508
2258.235, 0.8158280
2260.163, 0.8159885
2262.092, 0.8191215
2264.020, 0.8191360
2265.948, 0.8188663
2267.877, 0.8174205
2269.805, 0.8193937
2271.734, 0.8216278
2273.662, 0.8223077
2275.591, 0.8229845
2277.519, 0.8233894
2279.448, 0.8249312
2281.376, 0.8261818
2283.305, 0.8256181
2285.233, 0.8246161
2287.162, 0.8245091
2289.090, 0.8271435
2291.019, 0.8306317
2292.947, 0.8326977
2294.875, 0.8316186
2296.804, 0.8303612
2298.732, 0.8322811
2300.661, 0.8358085
2302.589, 0.8364804
2304.518, 0.8360335
2306.446, 0.8355146
2308.375, 0.8348212
2310.303, 0.8350837
2312.232, 0.8363661
2314.160, 0.8370044
2316.089, 0.8357255
2318.017, 0.8370916
2319.946, 0.8406353
2321.874, 0.8427939
2323.802, 0.8418636
2325.731, 0.8418156
2327.659, 0.8424773
2329.588, 0.8417771
2331.516, 0.8413724
2333.445, 0.8421507
2335.373, 0.8420497
2337.302, 0.8422896
2339.230, 0.8436645
2341.159, 0.8439179
2343.087, 0.8443941
2345.016, 0.8445624
2346.944, 0.8450435
2348.873, 0.8446203
2350.801, 0.8442258
2352.729, 0.8451409
2354.658, 0.8455227
2356.586, 0.8453467
2358.515, 0.8459802
2360.443, 0.8467920
2362.372, 0.8470966
2364.300, 0.8464689
2366.229, 0.8467733
2368.157, 0.8472121
2370.086, 0.8476337
2372.014, 0.8472267
2373.942, 0.8465492
2375.871, 0.8470697
2377.799, 0.8480017
2379.728, 0.8476629
2381.656, 0.8482736
2383.585, 0.8495013
2385.513, 0.8488261
2387.442, 0.8490553
2389.370, 0.8509365
2391.299, 0.8512160
2393.227, 0.8493127
2395.156, 0.8491259
2397.084, 0.8497707
2399.012, 0.8481262
2400.941, 0.8486568
2402.869, 0.8508585
2404.798, 0.8510882
2406.726, 0.8506362
2408.655, 0.8492640
2410.583, 0.8472879
2412.512, 0.8468364
2414.440, 0.8484045
2416.369, 0.8511782
2418.297, 0.8520013
2420.226, 0.8520044
2422.154, 0.8508708
2424.083, 0.8490095
2426.011, 0.8488113
2427.939, 0.8495028
2429.868, 0.8512927
2431.796, 0.8516161
2433.725, 0.8519339
2435.653, 0.8516747
2437.582, 0.8517848
2439.510, 0.8528372
2441.439, 0.8521985
2443.367, 0.8524637
2445.296, 0.8550568
2447.224, 0.8550044
2449.153, 0.8555110
2451.081, 0.8568009
2453.010, 0.8558286
2454.938, 0.8552939
2456.866, 0.8548865
2458.795, 0.8567964
2460.723, 0.8590945
2462.652, 0.8595520
2464.580, 0.8585393
2466.509, 0.8578738
2468.437, 0.8573354
2470.366, 0.8570571
2472.294, 0.8570045
2474.223, 0.8584018
2476.151, 0.8595894
2478.080, 0.8597893
2480.008, 0.8588387
2481.937, 0.8566916
2483.865, 0.8557966
2485.793, 0.8575299
2487.722, 0.8587582
2489.650, 0.8591835
2491.579, 0.8596351
2493.507, 0.8613443
2495.436, 0.8617506
2497.364, 0.8606969
2499.293, 0.8599488
2501.221, 0.8617701
2503.150, 0.8637862
2505.078, 0.8647209
2507.007, 0.8626112
2508.935, 0.8608859
2510.864, 0.8630852
2512.792, 0.8637725
2514.720, 0.8634959
2516.649, 0.8648810
2518.577, 0.8647603
2520.506, 0.8643655
2522.434, 0.8653345
2524.363, 0.8640757
2526.291, 0.8635237
2528.220, 0.8663415
2530.148, 0.8680905
2532.077, 0.8648987
2534.005, 0.8634588
2535.934, 0.8643017
2537.862, 0.8677164
2539.791, 0.8695542
2541.719, 0.8694826
2543.647, 0.8691151
2545.576, 0.8694738
2547.504, 0.8691531
2549.433, 0.8689022
2551.361, 0.8698714
2553.290, 0.8715485
2555.218, 0.8705921
2557.147, 0.8682053
2559.075, 0.8686482
2561.004, 0.8714139
2562.932, 0.8729845
2564.861, 0.8724133
2566.789, 0.8743644
2568.718, 0.8759426
2570.646, 0.8738518
2572.574, 0.8724744
2574.503, 0.8748134
2576.431, 0.8770198
2578.360, 0.8777335
2580.288, 0.8773792
2582.217, 0.8773827
2584.145, 0.8780111
2586.074, 0.8796205
2588.002, 0.8803328
2589.931, 0.8795060
2591.859, 0.8779473
2593.788, 0.8769324
2595.716, 0.8782822
2597.645, 0.8819309
2599.573, 0.8829953
2601.501, 0.8811259
2603.430, 0.8807294
2605.358, 0.8813531
2607.287, 0.8821514
2609.215, 0.8829641
2611.144, 0.8838615
2613.072, 0.8839049
2615.001, 0.8837706
2616.929, 0.8844798
2618.858, 0.8860962
2620.786, 0.8868947
2622.715, 0.8863370
2624.643, 0.8856434
2626.572, 0.8871790
2628.500, 0.8881171
2630.428, 0.8882611
2632.357, 0.8874580
2634.285, 0.8874179
2636.214, 0.8877311
2638.142, 0.8887488
2640.071, 0.8924306
2641.999, 0.8926794
2643.928, 0.8908716
2645.856, 0.8907561
2647.785, 0.8924120
2649.713, 0.8931587
2651.642, 0.8935427
2653.570, 0.8938321
2655.499, 0.8945879
2657.427, 0.8961781
2659.355, 0.8961367
2661.284, 0.8953226
2663.212, 0.8962788
2665.141, 0.8971488
2667.069, 0.8972437
2668.998, 0.8960008
2670.926, 0.8970504
2672.855, 0.8976390
2674.783, 0.8962519
2676.712, 0.8958544
2678.640, 0.8956624
2680.569, 0.8970342
2682.497, 0.8982767
2684.426, 0.8975539
2686.354, 0.8963754
2688.282, 0.8978596
2690.211, 0.9006906
2692.139, 0.9016714
2694.068, 0.9004729
2695.996, 0.8997702
2697.925, 0.8990850
2699.853, 0.8991482
2701.782, 0.9006187
2703.710, 0.9010507
2705.639, 0.9019981
2707.567, 0.9027032
2709.496, 0.9014389
2711.424, 0.9021568
2713.353, 0.9037294
2715.281, 0.9042487
2717.209, 0.9039508
2719.138, 0.9050546
2721.066, 0.9058323
2722.995, 0.9057364
2724.923, 0.9058709
2726.852, 0.9054916
2728.780, 0.9042330
2730.709, 0.9053497
2732.637, 0.9073277
2734.566, 0.9075791
2736.494, 0.9075978
2738.423, 0.9064251
2740.351, 0.9059883
2742.280, 0.9070014
2744.208, 0.9079689
2746.136, 0.9083660
2748.065, 0.9088422
2749.993, 0.9077585
2751.922, 0.9073600
2753.850, 0.9082559
2755.779, 0.9091851
2757.707, 0.9098848
2759.636, 0.9102859
2761.564, 0.9101717
2763.493, 0.9111204
2765.421, 0.9111887
2767.350, 0.9110311
2769.278, 0.9119393
2771.207, 0.9116640
2773.135, 0.9126779
2775.063, 0.9147514
2776.992, 0.9151169
2778.920, 0.9145499
2780.849, 0.9137916
2782.777, 0.9133381
2784.706, 0.9138516
2786.634, 0.9154262
2788.563, 0.9164387
2790.491, 0.9169707
2792.420, 0.9169936
2794.348, 0.9164805
2796.277, 0.9160363
2798.205, 0.9164889
2800.134, 0.9174123
2802.062, 0.9182793
2803.990, 0.9185642
2805.919, 0.9172826
2807.847, 0.9176938
2809.776, 0.9187499
2811.704, 0.9204415
2813.633, 0.9224187
2815.561, 0.9223979
2817.490, 0.9213954
2819.418, 0.9207996
2821.347, 0.9211261
2823.275, 0.9221714
2825.204, 0.9213731
2827.132, 0.9210999
2829.061, 0.9225621
2830.989, 0.9222264
2832.917, 0.9235032
2834.846, 0.9251980
2836.774, 0.9252269
2838.703, 0.9239382
2840.631, 0.9236813
2842.560, 0.9251031
2844.488, 0.9262437
2846.417, 0.9262118
2848.345, 0.9245884
2850.274, 0.9235619
2852.202, 0.9235257
2854.131, 0.9246694
2856.059, 0.9246054
2857.988, 0.9218732
2859.916, 0.9213452
2861.844, 0.9240606
2863.773, 0.9267284
2865.701, 0.9279166
2867.630, 0.9281425
2869.558, 0.9275466
2871.487, 0.9277139
2873.415, 0.9273003
2875.344, 0.9271739
2877.272, 0.9283355
2879.201, 0.9305150
2881.129, 0.9298810
2883.058, 0.9306568
2884.986, 0.9316561
2886.915, 0.9303076
2888.843, 0.9291245
2890.771, 0.9302029
2892.700, 0.9304002
2894.628, 0.9311404
2896.557, 0.9323317
2898.485, 0.9316189
2900.414, 0.9325402
2902.342, 0.9336278
2904.271, 0.9340761
2906.199, 0.9343184
2908.128, 0.9354079
2910.056, 0.9348814
2911.985, 0.9352993
2913.913, 0.9359241
2915.842, 0.9341618
2917.770, 0.9316879
2919.698, 0.9314438
2921.627, 0.9332964
2923.555, 0.9319105
2925.484, 0.9309799
2927.412, 0.9316196
2929.341, 0.9310186
2931.269, 0.9296039
2933.198, 0.9296808
2935.126, 0.9295528
2937.055, 0.9297045
2938.983, 0.9286123
2940.912, 0.9285462
2942.840, 0.9308244
2944.769, 0.9322551
2946.697, 0.9322733
2948.625, 0.9309618
2950.554, 0.9311682
2952.482, 0.9330483
2954.411, 0.9339401
2956.339, 0.9332114
2958.268, 0.9332287
2960.196, 0.9326288
2962.125, 0.9334047
2964.053, 0.9337343
2965.982, 0.9360678
2967.910, 0.9387566
2969.839, 0.9360779
2971.767, 0.9331688
2973.696, 0.9354681
2975.624, 0.9379463
2977.552, 0.9368488
2979.481, 0.9365492
2981.409, 0.9377250
2983.338, 0.9397233
2985.266, 0.9408861
2987.195, 0.9413582
2989.123, 0.9436406
2991.052, 0.9442191
2992.980, 0.9421215
2994.909, 0.9419574
2996.837, 0.9412804
2998.766, 0.9404600
3000.694, 0.9400153
3002.623, 0.9415551
3004.551, 0.9421446
3006.479, 0.9422811
3008.408, 0.9442312
3010.336, 0.9433733
3012.265, 0.9419447
3014.193, 0.9416965
3016.122, 0.9444686
3018.050, 0.9460761
3019.979, 0.9452762
3021.907, 0.9450346
3023.836, 0.9459497
3025.764, 0.9481496
3027.693, 0.9488298
3029.621, 0.9459265
3031.550, 0.9428999
3033.478, 0.9427199
3035.406, 0.9453217
3037.335, 0.9479228
3039.263, 0.9468341
3041.192, 0.9455450
3043.120, 0.9462684
3045.049, 0.9471641
3046.977, 0.9457790
3048.906, 0.9464338
3050.834, 0.9488595
3052.763, 0.9500422
3054.691, 0.9509984
3056.620, 0.9506834
3058.548, 0.9506398
3060.477, 0.9521747
3062.405, 0.9525755
3064.333, 0.9523802
3066.262, 0.9524173
3068.190, 0.9543598
3070.119, 0.9545981
3072.047, 0.9523203
3073.976, 0.9503499
3075.904, 0.9518720
3077.833, 0.9541990
3079.761, 0.9538084
3081.690, 0.9527608
3083.618, 0.9538279
3085.547, 0.9581437
3087.475, 0.9581652
3089.404, 0.9563726
3091.332, 0.9550934
3093.260, 0.9542604
3095.189, 0.9563869
3097.117, 0.9565485
3099.046, 0.9582227
3100.974, 0.9589461
3102.903, 0.9573870
3104.831, 0.9586354
3106.760, 0.9580137
3108.688, 0.9580369
3110.617, 0.9598931
3112.545, 0.9634425
3114.474, 0.9640780
3116.402, 0.9634184
3118.331, 0.9623272
3120.259, 0.9641973
3122.188, 0.9662272
3124.116, 0.9663203
3126.044, 0.9655967
3127.973, 0.9655488
3129.901, 0.9655237
3131.830, 0.9639627
3133.758, 0.9638444
3135.687, 0.9632849
3137.615, 0.9654312
3139.544, 0.9659203
3141.472, 0.9634695
3143.401, 0.9626697
3145.329, 0.9639677
3147.258, 0.9647572
3149.186, 0.9650135
3151.115, 0.9680137
3153.043, 0.9700091
3154.971, 0.9695318
3156.900, 0.9681338
3158.828, 0.9689138
3160.757, 0.9701463
3162.685, 0.9707180
3164.614, 0.9705564
3166.542, 0.9693269
3168.471, 0.9683818
3170.399, 0.9666100
3172.328, 0.9666651
3174.256, 0.9699401
3176.185, 0.9692488
3178.113, 0.9692705
3180.042, 0.9722143
3181.970, 0.9730260
3183.898, 0.9734705
3185.827, 0.9736073
3187.755, 0.9722698
3189.684, 0.9714978
3191.612, 0.9720767
3193.541, 0.9724993
3195.469, 0.9729286
3197.398, 0.9749598
3199.326, 0.9754618
3201.255, 0.9750000
3203.183, 0.9756645
3205.112, 0.9764828
3207.040, 0.9738177
3208.969, 0.9714277
3210.897, 0.9745173
3212.825, 0.9785822
3214.754, 0.9789753
3216.682, 0.9768825
3218.611, 0.9774838
3220.539, 0.9779605
3222.468, 0.9775604
3224.396, 0.9784325
3226.325, 0.9794965
3228.253, 0.9779484
3230.182, 0.9790169
3232.110, 0.9787817
3234.039, 0.9773790
3235.967, 0.9788612
3237.896, 0.9808481
3239.824, 0.9806706
3241.752, 0.9784386
3243.681, 0.9779097
3245.609, 0.9816486
3247.538, 0.9830039
3249.466, 0.9814701
3251.395, 0.9817448
3253.323, 0.9805070
3255.252, 0.9829406
3257.180, 0.9819103
3259.109, 0.9805017
3261.037, 0.9808592
3262.966, 0.9823205
3264.894, 0.9836451
3266.823, 0.9813634
3268.751, 0.9818652
3270.679, 0.9817635
3272.608, 0.9808327
3274.536, 0.9819833
3276.465, 0.9849716
3278.393, 0.9847995
3280.322, 0.9851207
3282.250, 0.9867589
3284.179, 0.9866397
3286.107, 0.9877322
3288.036, 0.9885425
3289.964, 0.9871415
3291.893, 0.9890688
3293.821, 0.9898148
3295.750, 0.9851847
3297.678, 0.9812855
3299.606, 0.9821081
3301.535, 0.9843346
3303.463, 0.9856360
3305.392, 0.9870981
3307.320, 0.9898833
3309.249, 0.9899927
3311.177, 0.9891127
3313.106, 0.9869576
3315.034, 0.9876822
3316.963, 0.9904698
3318.891, 0.9906440
3320.820, 0.9891850
3322.748, 0.9888129
3324.677, 0.9890344
3326.605, 0.9888002
3328.533, 0.9904866
3330.462, 0.9894843
3332.390, 0.9901499
3334.319, 0.9906909
3336.247, 0.9898592
3338.176, 0.9920954
3340.104, 0.9941033
3342.033, 0.9955593
3343.961, 0.9967878
3345.890, 0.9967192
3347.818, 0.9945309
3349.747, 0.9947072
3351.675, 0.9966293
3353.604, 0.9977433
3355.532, 0.9952399
3357.460, 0.9943624
3359.389, 0.9957860
3361.317, 0.9947333
3363.246, 0.9920012
3365.174, 0.9904683
3367.103, 0.9929386
3369.031, 0.9979006
3370.960, 0.9971216
3372.888, 0.9947224
3374.817, 0.9971738
3376.745, 0.9996583
3378.674, 0.9996331
3380.602, 1.000937
3382.531, 0.9985974
3384.459, 0.9954565
3386.387, 0.9950336
3388.316, 0.9948988
3390.244, 0.9983848
3392.173, 1.000853
3394.101, 0.9989135
3396.030, 0.9982786
3397.958, 0.9977940
3399.887, 0.9969910
3401.815, 0.9997326
3403.744, 1.001764
3405.672, 1.001087
3407.601, 1.001317
3409.529, 1.000364
3411.458, 1.000229
3413.386, 1.002030
3415.314, 0.9997889
3417.243, 0.9980810
3419.171, 1.003503
3421.100, 1.004707
3423.028, 1.002781
3424.957, 1.001835
3426.885, 1.000613
3428.814, 0.9994370
3430.742, 1.000109
3432.671, 1.006313
3434.599, 1.007103
3436.528, 1.004831
3438.456, 1.005113
3440.385, 1.004522
3442.313, 1.003365
3444.241, 1.004124
3446.170, 1.003614
3448.098, 1.002797
3450.027, 1.001675
3451.955, 1.001005
3453.884, 1.004032
3455.812, 1.003080
3457.741, 1.002070
3459.669, 1.005820
3461.598, 1.010232
3463.526, 1.012490
3465.455, 1.012026
3467.383, 1.011161
3469.312, 1.010737
3471.240, 1.010294
3473.168, 1.009469
3475.097, 1.008093
3477.025, 1.013412
3478.954, 1.012927
3480.882, 1.006998
3482.811, 1.009559
3484.739, 1.013715
3486.668, 1.012389
3488.596, 1.009062
3490.525, 1.008395
3492.453, 1.011104
3494.382, 1.012000
3496.310, 1.010644
3498.239, 1.011187
3500.167, 1.013572
3502.095, 1.016268
3504.024, 1.016945
3505.952, 1.016264
3507.881, 1.010830
3509.809, 1.010637
3511.738, 1.011549
3513.666, 1.013215
3515.595, 1.011869
3517.523, 1.014324
3519.452, 1.019220
3521.380, 1.021898
3523.309, 1.018329
3525.237, 1.012828
3527.166, 1.015363
3529.094, 1.019220
3531.022, 1.018395
3532.951, 1.014957
3534.879, 1.013991
3536.808, 1.022554
3538.736, 1.022089
3540.665, 1.013913
3542.593, 1.014012
3544.522, 1.018867
3546.450, 1.020160
3548.379, 1.021293
3550.307, 1.018547
3552.236, 1.016966
3554.164, 1.019232
3556.093, 1.019987
3558.021, 1.019947
3559.949, 1.018678
3561.878, 1.017365
3563.806, 1.017527
3565.735, 1.023306
3567.663, 1.027259
3569.592, 1.025212
3571.520, 1.023394
3573.449, 1.025052
3575.377, 1.025954
3577.306, 1.028117
3579.234, 1.028921
3581.163, 1.028096
3583.091, 1.026380
3585.020, 1.024529
3586.948, 1.027479
3588.876, 1.026020
3590.805, 1.022740
3592.733, 1.023090
3594.662, 1.024938
3596.590, 1.026323
3598.519, 1.033052
3600.447, 1.032618
3602.376, 1.024587
3604.304, 1.021185
3606.233, 1.027195
3608.161, 1.032365
3610.090, 1.032037
3612.018, 1.031425
3613.947, 1.030657
3615.875, 1.032256
3617.803, 1.034457
3619.732, 1.032652
3621.660, 1.033651
3623.589, 1.035898
3625.517, 1.036855
3627.446, 1.035973
3629.374, 1.035826
3631.303, 1.033924
3633.231, 1.026709
3635.160, 1.025100
3637.088, 1.029613
3639.017, 1.031738
3640.945, 1.034055
3642.874, 1.036289
3644.802, 1.037702
3646.730, 1.035497
3648.659, 1.033766
3650.587, 1.035994
3652.516, 1.039235
3654.444, 1.037114
3656.373, 1.037984
3658.301, 1.038103
3660.230, 1.034652
3662.158, 1.035576
3664.087, 1.045093
3666.015, 1.049055
3667.944, 1.039440
3669.872, 1.035014
3671.801, 1.036364
3673.729, 1.037205
3675.657, 1.041944
3677.586, 1.042036
3679.514, 1.038037
3681.443, 1.037543
3683.371, 1.041504
3685.300, 1.046243
3687.228, 1.046808
3689.157, 1.045111
3691.085, 1.046040
3693.014, 1.051890
3694.942, 1.051815
3696.871, 1.046940
3698.799, 1.050611
3700.728, 1.050516
3702.656, 1.045220
3704.584, 1.042342
3706.513, 1.045423
3708.441, 1.050976
3710.370, 1.050856
3712.298, 1.053998
3714.227, 1.053226
3716.155, 1.050410
3718.084, 1.052974
3720.012, 1.054147
3721.941, 1.058598
3723.869, 1.061312
3725.798, 1.058807
3727.726, 1.053027
3729.655, 1.049569
3731.583, 1.054840
3733.511, 1.057062
3735.440, 1.059811
3737.368, 1.063202
3739.297, 1.063688
3741.225, 1.063475
3743.154, 1.060753
3745.082, 1.060267
3747.011, 1.061937
3748.939, 1.061259
3750.868, 1.056672
3752.796, 1.056649
3754.725, 1.057255
3756.653, 1.057775
3758.582, 1.060167
3760.510, 1.061841
3762.438, 1.065167
3764.367, 1.067697
3766.295, 1.064471
3768.224, 1.060914
3770.152, 1.061067
3772.081, 1.065367
3774.009, 1.066794
3775.938, 1.065265
3777.866, 1.066125
3779.795, 1.064835
3781.723, 1.064086
3783.652, 1.066390
3785.580, 1.066329
3787.509, 1.063244
3789.437, 1.064536
3791.365, 1.066550
3793.294, 1.066323
3795.222, 1.062054
3797.151, 1.062832
3799.079, 1.068506
3801.008, 1.070118
3802.936, 1.071859
3804.865, 1.073484
3806.793, 1.073828
3808.722, 1.072509
3810.650, 1.071922
3812.579, 1.075207
3814.507, 1.075242
3816.436, 1.075133
3818.364, 1.072226
3820.292, 1.072844
3822.221, 1.075242
3824.149, 1.076528
3826.078, 1.078647
3828.006, 1.078114
3829.935, 1.077576
3831.863, 1.073417
3833.792, 1.073739
3835.720, 1.076237
3837.649, 1.079122
3839.577, 1.081787
3841.506, 1.083543
3843.434, 1.083476
3845.363, 1.081235
3847.291, 1.076804
3849.219, 1.071667
3851.148, 1.075222
3853.076, 1.081228
3855.005, 1.078455
3856.933, 1.074265
3858.862, 1.078458
3860.790, 1.082469
3862.719, 1.081489
3864.647, 1.079286
3866.576, 1.083256
3868.504, 1.086195
3870.433, 1.084049
3872.361, 1.083582
3874.290, 1.085403
3876.218, 1.087259
3878.146, 1.084976
3880.075, 1.079358
3882.003, 1.079648
3883.932, 1.086612
3885.860, 1.090744
3887.789, 1.093160
3889.717, 1.094775
3891.646, 1.091184
3893.574, 1.092546
3895.503, 1.097124
3897.431, 1.089550
3899.360, 1.085795
3901.288, 1.091983
3903.217, 1.093959
3905.145, 1.090715
3907.073, 1.085827
3909.002, 1.084020
3910.930, 1.087029
3912.859, 1.089797
3914.787, 1.091963
3916.716, 1.089888
3918.644, 1.088702
3920.573, 1.098536
3922.501, 1.102264
3924.430, 1.094015
3926.358, 1.093589
3928.287, 1.100774
3930.215, 1.103407
3932.144, 1.098488
3934.072, 1.093039
3936.000, 1.092116
3937.929, 1.095071
3939.857, 1.098385
3941.786, 1.101675
3943.714, 1.100402
3945.643, 1.105188
3947.571, 1.107954
3949.500, 1.101009
3951.428, 1.096461
3953.357, 1.096938
3955.285, 1.101488
3957.214, 1.106478
3959.142, 1.101836
3961.071, 1.101143
3962.999, 1.100076
3964.927, 1.098268
3966.856, 1.100473
3968.784, 1.105449
3970.713, 1.100457
3972.641, 1.101228
3974.570, 1.109758
3976.498, 1.107818
3978.427, 1.104756
3980.355, 1.104675
3982.284, 1.104971
3984.212, 1.107136
3986.141, 1.108407
3988.069, 1.109959
3989.998, 1.108518
3991.926, 1.107091
3993.854, 1.108705
3995.783, 1.109985
3997.711, 1.108310
3999.640, 1.108845
##END=



