##NAMES=Gillespite
##RRUFFID=R060060
##IDEAL CHEMISTRY=BaFe^2+^Si_4_O_10_
##LOCALITY=Incline, California, USA
##OWNER=RRUFF
##SOURCE=University of Arizona Mineral Museum
##DESCRIPTION=Salmon-red platelets associated with white sanbornite
##STATUS=The identification of this mineral has been confirmed by X-ray diffraction and chemical analysis
##URL=rruff.info/R060060
##MEASURED CHEMISTRY=Ba_1.00_(Fe^2+^_0.99_Fe^3+^_0.01_)_Σ=1_(Si_3.99_Al_0.01_)_Σ=4_O_10_
3.991926e+002, 1.769216e-001
4.011211e+002, 1.692273e-001
4.030495e+002, 1.762451e-001
4.049780e+002, 1.720436e-001
4.069065e+002, 1.758323e-001
4.088349e+002, 1.778115e-001
4.107634e+002, 1.773331e-001
4.126919e+002, 1.873405e-001
4.146203e+002, 1.892466e-001
4.165488e+002, 1.961287e-001
4.184773e+002, 2.066469e-001
4.204057e+002, 2.105717e-001
4.223342e+002, 2.134402e-001
4.242627e+002, 2.160259e-001
4.261911e+002, 2.180219e-001
4.281196e+002, 2.263443e-001
4.300481e+002, 2.328054e-001
4.319765e+002, 2.302389e-001
4.339050e+002, 2.238069e-001
4.358335e+002, 2.220231e-001
4.377619e+002, 2.153053e-001
4.396904e+002, 2.058310e-001
4.416189e+002, 1.939668e-001
4.435473e+002, 1.834518e-001
4.454758e+002, 1.758274e-001
4.474043e+002, 1.716208e-001
4.493327e+002, 1.652270e-001
4.512612e+002, 1.630924e-001
4.531897e+002, 1.729769e-001
4.551181e+002, 1.836882e-001
4.570466e+002, 1.909684e-001
4.589751e+002, 1.998015e-001
4.609035e+002, 2.084117e-001
4.628320e+002, 2.120368e-001
4.647605e+002, 2.106984e-001
4.666889e+002, 2.091469e-001
4.686174e+002, 2.053457e-001
4.705459e+002, 1.986046e-001
4.724743e+002, 1.900984e-001
4.744028e+002, 1.811159e-001
4.763313e+002, 1.718998e-001
4.782597e+002, 1.627340e-001
4.801882e+002, 1.539938e-001
4.821167e+002, 1.470134e-001
4.840451e+002, 1.401479e-001
4.859736e+002, 1.308704e-001
4.879021e+002, 1.211631e-001
4.898305e+002, 1.154181e-001
4.917590e+002, 1.114543e-001
4.936875e+002, 1.055047e-001
4.956159e+002, 1.017675e-001
4.975444e+002, 9.911312e-002
4.994729e+002, 9.926019e-002
5.014013e+002, 1.044592e-001
5.033298e+002, 1.090742e-001
5.052583e+002, 1.109265e-001
5.071867e+002, 1.112132e-001
5.091152e+002, 1.101191e-001
5.110437e+002, 1.067333e-001
5.129721e+002, 1.036788e-001
5.149006e+002, 1.005631e-001
5.168290e+002, 9.745054e-002
5.187575e+002, 9.517065e-002
5.206860e+002, 9.298313e-002
5.226144e+002, 9.172930e-002
5.245429e+002, 9.068896e-002
5.264714e+002, 8.881340e-002
5.283998e+002, 8.921938e-002
5.303283e+002, 9.066553e-002
5.322568e+002, 9.140611e-002
5.341852e+002, 9.108122e-002
5.361137e+002, 9.028766e-002
5.380422e+002, 9.072323e-002
5.399706e+002, 9.099615e-002
5.418991e+002, 8.948632e-002
5.438276e+002, 8.865125e-002
5.457560e+002, 8.838777e-002
5.476845e+002, 8.764757e-002
5.496130e+002, 8.753984e-002
5.515414e+002, 8.732765e-002
5.534699e+002, 8.602405e-002
5.553984e+002, 8.299953e-002
5.573268e+002, 7.907525e-002
5.592553e+002, 7.380279e-002
5.611838e+002, 6.760995e-002
5.631122e+002, 6.310830e-002
5.650407e+002, 5.986549e-002
5.669692e+002, 5.806011e-002
5.688976e+002, 5.891487e-002
5.708261e+002, 6.171926e-002
5.727546e+002, 6.578097e-002
5.746830e+002, 7.096116e-002
5.766115e+002, 7.790207e-002
5.785400e+002, 8.528745e-002
5.804684e+002, 9.203140e-002
5.823969e+002, 9.707605e-002
5.843254e+002, 9.998956e-002
5.862538e+002, 1.023163e-001
5.881823e+002, 1.024151e-001
5.901108e+002, 1.017712e-001
5.920392e+002, 1.024971e-001
5.939677e+002, 1.017480e-001
5.958962e+002, 9.958915e-002
5.978246e+002, 9.801023e-002
5.997531e+002, 9.597578e-002
6.016816e+002, 9.285378e-002
6.036100e+002, 8.864900e-002
6.055385e+002, 8.312340e-002
6.074670e+002, 7.733499e-002
6.093954e+002, 7.055823e-002
6.113239e+002, 6.348769e-002
6.132524e+002, 5.747990e-002
6.151808e+002, 5.235012e-002
6.171093e+002, 4.831427e-002
6.190378e+002, 4.575977e-002
6.209662e+002, 4.445051e-002
6.228947e+002, 4.355558e-002
6.248232e+002, 4.351210e-002
6.267516e+002, 4.513178e-002
6.286801e+002, 4.668535e-002
6.306086e+002, 4.936229e-002
6.325370e+002, 5.253799e-002
6.344655e+002, 5.642003e-002
6.363940e+002, 6.151387e-002
6.383224e+002, 6.800489e-002
6.402509e+002, 7.536460e-002
6.421794e+002, 8.393183e-002
6.441078e+002, 9.376980e-002
6.460363e+002, 1.040934e-001
6.479648e+002, 1.145652e-001
6.498932e+002, 1.256807e-001
6.518217e+002, 1.358138e-001
6.537502e+002, 1.433603e-001
6.556786e+002, 1.483309e-001
6.576071e+002, 1.490923e-001
6.595356e+002, 1.446843e-001
6.614641e+002, 1.366690e-001
6.633925e+002, 1.263707e-001
6.653210e+002, 1.155747e-001
6.672495e+002, 1.051184e-001
6.691779e+002, 9.417219e-002
6.711064e+002, 8.390973e-002
6.730349e+002, 7.480968e-002
6.749633e+002, 6.659734e-002
6.768918e+002, 5.944267e-002
6.788203e+002, 5.246123e-002
6.807487e+002, 4.610226e-002
6.826772e+002, 4.150145e-002
6.846057e+002, 3.831288e-002
6.865341e+002, 3.583591e-002
6.884626e+002, 3.392031e-002
6.903911e+002, 3.250208e-002
6.923195e+002, 3.079348e-002
6.942480e+002, 2.908756e-002
6.961765e+002, 2.829979e-002
6.981049e+002, 2.690257e-002
7.000334e+002, 2.539244e-002
7.019619e+002, 2.467798e-002
7.038903e+002, 2.442240e-002
7.058188e+002, 2.422579e-002
7.077473e+002, 2.412922e-002
7.096757e+002, 2.404021e-002
7.116042e+002, 2.391969e-002
7.135327e+002, 2.392569e-002
7.154611e+002, 2.360518e-002
7.173896e+002, 2.334075e-002
7.193181e+002, 2.381758e-002
7.212465e+002, 2.404215e-002
7.231750e+002, 2.404717e-002
7.251035e+002, 2.372411e-002
7.270319e+002, 2.359123e-002
7.289604e+002, 2.403099e-002
7.308889e+002, 2.408776e-002
7.328173e+002, 2.413385e-002
7.347458e+002, 2.438772e-002
7.366743e+002, 2.456779e-002
7.386027e+002, 2.483170e-002
7.405312e+002, 2.555188e-002
7.424597e+002, 2.624541e-002
7.443881e+002, 2.696085e-002
7.463166e+002, 2.801384e-002
7.482451e+002, 2.963893e-002
7.501735e+002, 3.147282e-002
7.521020e+002, 3.292311e-002
7.540305e+002, 3.370068e-002
7.559589e+002, 3.379811e-002
7.578874e+002, 3.287409e-002
7.598159e+002, 3.098496e-002
7.617443e+002, 2.973735e-002
7.636728e+002, 2.904683e-002
7.656013e+002, 2.890190e-002
7.675297e+002, 2.904886e-002
7.694582e+002, 2.898245e-002
7.713867e+002, 2.894207e-002
7.733151e+002, 2.894798e-002
7.752436e+002, 2.894623e-002
7.771721e+002, 2.976523e-002
7.791005e+002, 3.057285e-002
7.810290e+002, 3.033890e-002
7.829575e+002, 3.031422e-002
7.848859e+002, 3.060259e-002
7.868144e+002, 3.061176e-002
7.887429e+002, 3.072535e-002
7.906713e+002, 3.115342e-002
7.925998e+002, 3.147222e-002
7.945283e+002, 3.143738e-002
7.964567e+002, 3.171806e-002
7.983852e+002, 3.212645e-002
8.003137e+002, 3.235810e-002
8.022421e+002, 3.198991e-002
8.041706e+002, 3.131151e-002
8.060991e+002, 3.081305e-002
8.080275e+002, 3.088414e-002
8.099560e+002, 3.084574e-002
8.118845e+002, 3.054542e-002
8.138129e+002, 3.061057e-002
8.157414e+002, 3.044583e-002
8.176699e+002, 3.047453e-002
8.195983e+002, 3.064770e-002
8.215268e+002, 3.040980e-002
8.234553e+002, 3.027214e-002
8.253837e+002, 3.046836e-002
8.273122e+002, 3.098240e-002
8.292407e+002, 3.189977e-002
8.311691e+002, 3.235429e-002
8.330976e+002, 3.215647e-002
8.350261e+002, 3.226293e-002
8.369545e+002, 3.324830e-002
8.388830e+002, 3.451657e-002
8.408115e+002, 3.508679e-002
8.427399e+002, 3.530549e-002
8.446684e+002, 3.613830e-002
8.465969e+002, 3.742381e-002
8.485253e+002, 3.853844e-002
8.504538e+002, 3.922388e-002
8.523823e+002, 4.019491e-002
8.543107e+002, 4.164226e-002
8.562392e+002, 4.271699e-002
8.581677e+002, 4.415147e-002
8.600961e+002, 4.534164e-002
8.620246e+002, 4.624609e-002
8.639531e+002, 4.726479e-002
8.658815e+002, 4.888185e-002
8.678100e+002, 5.081882e-002
8.697385e+002, 5.273157e-002
8.716669e+002, 5.453940e-002
8.735954e+002, 5.637194e-002
8.755239e+002, 5.855307e-002
8.774523e+002, 6.044447e-002
8.793808e+002, 6.206977e-002
8.813093e+002, 6.434538e-002
8.832377e+002, 6.641643e-002
8.851662e+002, 6.875740e-002
8.870947e+002, 7.145209e-002
8.890231e+002, 7.378694e-002
8.909516e+002, 7.655676e-002
8.928801e+002, 7.976635e-002
8.948085e+002, 8.273254e-002
8.967370e+002, 8.543036e-002
8.986655e+002, 8.824989e-002
9.005939e+002, 9.180231e-002
9.025224e+002, 9.547313e-002
9.044509e+002, 9.860887e-002
9.063793e+002, 1.020977e-001
9.083078e+002, 1.064768e-001
9.102363e+002, 1.110182e-001
9.121647e+002, 1.151624e-001
9.140932e+002, 1.192683e-001
9.160217e+002, 1.233308e-001
9.179501e+002, 1.277855e-001
9.198786e+002, 1.321369e-001
9.218071e+002, 1.363436e-001
9.237355e+002, 1.407797e-001
9.256640e+002, 1.454969e-001
9.275925e+002, 1.507689e-001
9.295209e+002, 1.554884e-001
9.314494e+002, 1.597686e-001
9.333779e+002, 1.645965e-001
9.353063e+002, 1.695896e-001
9.372348e+002, 1.750690e-001
9.391633e+002, 1.802402e-001
9.410917e+002, 1.853669e-001
9.430202e+002, 1.910736e-001
9.449487e+002, 1.970598e-001
9.468771e+002, 2.032690e-001
9.488056e+002, 2.088903e-001
9.507341e+002, 2.146479e-001
9.526625e+002, 2.207139e-001
9.545910e+002, 2.267440e-001
9.565195e+002, 2.313910e-001
9.584479e+002, 2.352438e-001
9.603764e+002, 2.394287e-001
9.623049e+002, 2.436438e-001
9.642333e+002, 2.477103e-001
9.661618e+002, 2.527345e-001
9.680903e+002, 2.586674e-001
9.700187e+002, 2.646063e-001
9.719472e+002, 2.698972e-001
9.738757e+002, 2.746879e-001
9.758041e+002, 2.793962e-001
9.777326e+002, 2.846080e-001
9.796611e+002, 2.898836e-001
9.815895e+002, 2.945546e-001
9.835180e+002, 2.989971e-001
9.854465e+002, 3.027980e-001
9.873749e+002, 3.051273e-001
9.893034e+002, 3.079293e-001
9.912319e+002, 3.104154e-001
9.931603e+002, 3.115991e-001
9.950888e+002, 3.116791e-001
9.970173e+002, 3.109416e-001
9.989457e+002, 3.082034e-001
1.000874e+003, 3.037391e-001
1.002803e+003, 2.978624e-001
1.004731e+003, 2.915233e-001
1.006660e+003, 2.853014e-001
1.008588e+003, 2.796513e-001
1.010517e+003, 2.738514e-001
1.012445e+003, 2.674939e-001
1.014373e+003, 2.619680e-001
1.016302e+003, 2.572606e-001
1.018230e+003, 2.524237e-001
1.020159e+003, 2.482046e-001
1.022087e+003, 2.447589e-001
1.024016e+003, 2.423668e-001
1.025944e+003, 2.431623e-001
1.027873e+003, 2.465743e-001
1.029801e+003, 2.506263e-001
1.031730e+003, 2.552825e-001
1.033658e+003, 2.606750e-001
1.035587e+003, 2.659474e-001
1.037515e+003, 2.698484e-001
1.039443e+003, 2.724000e-001
1.041372e+003, 2.737789e-001
1.043300e+003, 2.736335e-001
1.045229e+003, 2.720852e-001
1.047157e+003, 2.706183e-001
1.049086e+003, 2.684484e-001
1.051014e+003, 2.651764e-001
1.052943e+003, 2.617744e-001
1.054871e+003, 2.575542e-001
1.056800e+003, 2.528130e-001
1.058728e+003, 2.482020e-001
1.060657e+003, 2.429114e-001
1.062585e+003, 2.365718e-001
1.064514e+003, 2.305068e-001
1.066442e+003, 2.242337e-001
1.068370e+003, 2.175703e-001
1.070299e+003, 2.117277e-001
1.072227e+003, 2.051758e-001
1.074156e+003, 1.981261e-001
1.076084e+003, 1.907460e-001
1.078013e+003, 1.832588e-001
1.079941e+003, 1.758456e-001
1.081870e+003, 1.682646e-001
1.083798e+003, 1.611078e-001
1.085727e+003, 1.542076e-001
1.087655e+003, 1.472014e-001
1.089584e+003, 1.402003e-001
1.091512e+003, 1.336156e-001
1.093441e+003, 1.275256e-001
1.095369e+003, 1.215506e-001
1.097297e+003, 1.170050e-001
1.099226e+003, 1.132856e-001
1.101154e+003, 1.102861e-001
1.103083e+003, 1.074732e-001
1.105011e+003, 1.046355e-001
1.106940e+003, 1.018077e-001
1.108868e+003, 9.937827e-002
1.110797e+003, 9.725924e-002
1.112725e+003, 9.514084e-002
1.114654e+003, 9.283030e-002
1.116582e+003, 8.961449e-002
1.118511e+003, 8.676660e-002
1.120439e+003, 8.432942e-002
1.122368e+003, 8.184251e-002
1.124296e+003, 7.968722e-002
1.126224e+003, 7.814070e-002
1.128153e+003, 7.675362e-002
1.130081e+003, 7.550503e-002
1.132010e+003, 7.508779e-002
1.133938e+003, 7.524381e-002
1.135867e+003, 7.596838e-002
1.137795e+003, 7.731080e-002
1.139724e+003, 7.875939e-002
1.141652e+003, 8.093815e-002
1.143581e+003, 8.407336e-002
1.145509e+003, 8.790921e-002
1.147438e+003, 9.252099e-002
1.149366e+003, 9.767929e-002
1.151295e+003, 1.045511e-001
1.153223e+003, 1.122176e-001
1.155151e+003, 1.194400e-001
1.157080e+003, 1.258884e-001
1.159008e+003, 1.295579e-001
1.160937e+003, 1.288406e-001
1.162865e+003, 1.249294e-001
1.164794e+003, 1.188095e-001
1.166722e+003, 1.116050e-001
1.168651e+003, 1.045661e-001
1.170579e+003, 9.766068e-002
1.172508e+003, 9.214557e-002
1.174436e+003, 8.795011e-002
1.176365e+003, 8.458983e-002
1.178293e+003, 8.192883e-002
1.180222e+003, 7.967751e-002
1.182150e+003, 7.806386e-002
1.184078e+003, 7.712563e-002
1.186007e+003, 7.722015e-002
1.187935e+003, 7.717737e-002
1.189864e+003, 7.675978e-002
1.191792e+003, 7.620309e-002
1.193721e+003, 7.606257e-002
1.195649e+003, 7.621055e-002
1.197578e+003, 7.664812e-002
1.199506e+003, 7.676312e-002
1.201435e+003, 7.662652e-002
1.203363e+003, 7.676154e-002
1.205292e+003, 7.681345e-002
1.207220e+003, 7.643099e-002
1.209149e+003, 7.624253e-002
1.211077e+003, 7.632766e-002
1.213005e+003, 7.609746e-002
1.214934e+003, 7.512154e-002
1.216862e+003, 7.442228e-002
1.218791e+003, 7.427529e-002
1.220719e+003, 7.393420e-002
1.222648e+003, 7.326665e-002
1.224576e+003, 7.230487e-002
1.226505e+003, 7.171502e-002
1.228433e+003, 7.070827e-002
1.230362e+003, 6.945925e-002
1.232290e+003, 6.778305e-002
1.234219e+003, 6.547506e-002
1.236147e+003, 6.394601e-002
1.238076e+003, 6.247820e-002
1.240004e+003, 6.012460e-002
1.241932e+003, 5.744752e-002
1.243861e+003, 5.503469e-002
1.245789e+003, 5.262307e-002
1.247718e+003, 4.997306e-002
1.249646e+003, 4.711151e-002
1.251575e+003, 4.416724e-002
1.253503e+003, 4.106535e-002
1.255432e+003, 3.797771e-002
1.257360e+003, 3.462055e-002
1.259289e+003, 3.094971e-002
1.261217e+003, 2.777712e-002
1.263146e+003, 2.513635e-002
1.265074e+003, 2.229675e-002
1.267003e+003, 1.949780e-002
1.268931e+003, 1.668360e-002
1.270859e+003, 1.425361e-002
1.272788e+003, 1.270961e-002
1.274716e+003, 1.134565e-002
1.276645e+003, 1.021737e-002
1.278573e+003, 9.260999e-003
1.280502e+003, 8.488144e-003
1.282430e+003, 7.744022e-003
1.284359e+003, 7.225496e-003
1.286287e+003, 6.735948e-003
1.288216e+003, 5.999158e-003
1.290144e+003, 5.811790e-003
1.292073e+003, 5.711566e-003
1.294001e+003, 5.188834e-003
1.295930e+003, 4.919836e-003
1.297858e+003, 4.877012e-003
1.299786e+003, 4.865622e-003
1.301715e+003, 4.517739e-003
1.303643e+003, 4.029016e-003
1.305572e+003, 3.730605e-003
1.307500e+003, 3.893740e-003
1.309429e+003, 4.105540e-003
1.311357e+003, 4.165332e-003
1.313286e+003, 4.048956e-003
1.315214e+003, 3.971036e-003
1.317143e+003, 3.951677e-003
1.319071e+003, 3.539221e-003
1.321000e+003, 3.167261e-003
1.322928e+003, 3.014377e-003
1.324857e+003, 2.959156e-003
1.326785e+003, 3.112840e-003
1.328714e+003, 3.337089e-003
1.330642e+003, 3.444512e-003
1.332570e+003, 3.527950e-003
1.334499e+003, 3.562285e-003
1.336427e+003, 3.674596e-003
1.338356e+003, 3.719350e-003
1.340284e+003, 3.266953e-003
1.342213e+003, 2.947634e-003
1.344141e+003, 3.081427e-003
1.346070e+003, 3.071994e-003
1.347998e+003, 3.088518e-003
1.349927e+003, 3.087316e-003
1.351855e+003, 3.066195e-003
1.353784e+003, 3.229041e-003
1.355712e+003, 3.218781e-003
1.357641e+003, 3.191654e-003
1.359569e+003, 3.224994e-003
1.361497e+003, 3.052151e-003
1.363426e+003, 3.321181e-003
1.365354e+003, 3.444857e-003
1.367283e+003, 3.336270e-003
1.369211e+003, 3.404441e-003
1.371140e+003, 3.711018e-003
1.373068e+003, 4.090741e-003
1.374997e+003, 4.130297e-003
1.376925e+003, 3.806103e-003
1.378854e+003, 3.458054e-003
1.380782e+003, 3.671746e-003
1.382711e+003, 3.963846e-003
1.384639e+003, 3.809327e-003
1.386568e+003, 3.920704e-003
1.388496e+003, 4.436120e-003
1.390424e+003, 4.433788e-003
1.392353e+003, 3.811050e-003
1.394281e+003, 3.606601e-003
1.396210e+003, 4.137002e-003
1.398138e+003, 4.570305e-003
1.400067e+003, 4.374770e-003
1.401995e+003, 4.160085e-003
1.403924e+003, 4.298651e-003
1.405852e+003, 4.809903e-003
1.407781e+003, 4.957796e-003
1.409709e+003, 4.759970e-003
1.411638e+003, 4.682204e-003
1.413566e+003, 4.933408e-003
1.415495e+003, 5.150001e-003
1.417423e+003, 5.203764e-003
1.419351e+003, 5.405282e-003
1.421280e+003, 5.625497e-003
1.423208e+003, 5.852693e-003
1.425137e+003, 5.965316e-003
1.427065e+003, 5.974296e-003
1.428994e+003, 6.145029e-003
1.430922e+003, 6.266625e-003
1.432851e+003, 6.038927e-003
1.434779e+003, 6.001501e-003
1.436708e+003, 5.961505e-003
1.438636e+003, 5.779536e-003
1.440565e+003, 5.767098e-003
1.442493e+003, 5.688622e-003
1.444422e+003, 5.473768e-003
1.446350e+003, 5.388167e-003
1.448278e+003, 5.512394e-003
1.450207e+003, 5.735045e-003
1.452135e+003, 5.999920e-003
1.454064e+003, 5.784526e-003
1.455992e+003, 5.802179e-003
1.457921e+003, 5.803186e-003
1.459849e+003, 5.775178e-003
1.461778e+003, 5.808860e-003
1.463706e+003, 5.902426e-003
1.465635e+003, 5.673258e-003
1.467563e+003, 5.357145e-003
1.469492e+003, 5.475457e-003
1.471420e+003, 5.574114e-003
1.473349e+003, 5.443644e-003
1.475277e+003, 5.432677e-003
1.477205e+003, 5.372106e-003
1.479134e+003, 5.294218e-003
1.481062e+003, 5.161752e-003
1.482991e+003, 5.136375e-003
1.484919e+003, 5.243890e-003
1.486848e+003, 5.516476e-003
1.488776e+003, 5.625632e-003
1.490705e+003, 5.864794e-003
1.492633e+003, 5.739443e-003
1.494562e+003, 5.452802e-003
1.496490e+003, 5.299599e-003
1.498419e+003, 4.928071e-003
1.500347e+003, 4.961663e-003
1.502276e+003, 5.460115e-003
1.504204e+003, 5.434205e-003
1.506132e+003, 5.194847e-003
1.508061e+003, 5.016125e-003
1.509989e+003, 4.878112e-003
1.511918e+003, 4.967622e-003
1.513846e+003, 5.206891e-003
1.515775e+003, 5.551267e-003
1.517703e+003, 5.810120e-003
1.519632e+003, 5.524416e-003
1.521560e+003, 5.250905e-003
1.523489e+003, 5.083006e-003
1.525417e+003, 5.058168e-003
1.527346e+003, 5.572158e-003
1.529274e+003, 5.793944e-003
1.531203e+003, 5.722182e-003
1.533131e+003, 5.556791e-003
1.535059e+003, 5.375936e-003
1.536988e+003, 5.623924e-003
1.538916e+003, 5.604087e-003
1.540845e+003, 5.329138e-003
1.542773e+003, 5.550503e-003
1.544702e+003, 6.177436e-003
1.546630e+003, 6.074115e-003
1.548559e+003, 5.668072e-003
1.550487e+003, 5.339287e-003
1.552416e+003, 5.512534e-003
1.554344e+003, 5.884510e-003
1.556273e+003, 6.332801e-003
1.558201e+003, 6.279883e-003
1.560130e+003, 6.001690e-003
1.562058e+003, 6.052660e-003
1.563986e+003, 5.772256e-003
1.565915e+003, 5.390009e-003
1.567843e+003, 5.560404e-003
1.569772e+003, 5.872666e-003
1.571700e+003, 5.977431e-003
1.573629e+003, 5.776556e-003
1.575557e+003, 5.779475e-003
1.577486e+003, 6.147089e-003
1.579414e+003, 6.508905e-003
1.581343e+003, 6.734553e-003
1.583271e+003, 6.549743e-003
1.585200e+003, 6.269210e-003
1.587128e+003, 6.016052e-003
1.589057e+003, 5.863084e-003
1.590985e+003, 6.098424e-003
1.592913e+003, 6.484669e-003
1.594842e+003, 6.617829e-003
1.596770e+003, 6.216258e-003
1.598699e+003, 5.930396e-003
1.600627e+003, 6.036941e-003
1.602556e+003, 6.141490e-003
1.604484e+003, 6.214049e-003
1.606413e+003, 6.079541e-003
1.608341e+003, 6.060767e-003
1.610270e+003, 6.121425e-003
1.612198e+003, 6.179251e-003
1.614127e+003, 6.197164e-003
1.616055e+003, 6.126889e-003
1.617984e+003, 6.000148e-003
1.619912e+003, 6.431626e-003
1.621840e+003, 6.608939e-003
1.623769e+003, 6.528876e-003
1.625697e+003, 6.527931e-003
1.627626e+003, 6.542752e-003
1.629554e+003, 6.072628e-003
1.631483e+003, 5.911357e-003
1.633411e+003, 6.571252e-003
1.635340e+003, 6.453562e-003
1.637268e+003, 6.309766e-003
1.639197e+003, 6.206626e-003
1.641125e+003, 6.294841e-003
1.643054e+003, 6.598284e-003
1.644982e+003, 6.814056e-003
1.646911e+003, 6.349239e-003
1.648839e+003, 5.933533e-003
1.650767e+003, 5.726957e-003
1.652696e+003, 5.789180e-003
1.654624e+003, 5.999574e-003
1.656553e+003, 5.626698e-003
1.658481e+003, 5.345810e-003
1.660410e+003, 5.437886e-003
1.662338e+003, 5.650790e-003
1.664267e+003, 6.137637e-003
1.666195e+003, 6.388105e-003
1.668124e+003, 6.142608e-003
1.670052e+003, 5.908608e-003
1.671981e+003, 5.948776e-003
1.673909e+003, 5.937967e-003
1.675838e+003, 5.968993e-003
1.677766e+003, 5.865398e-003
1.679694e+003, 5.888635e-003
1.681623e+003, 6.078534e-003
1.683551e+003, 6.098274e-003
1.685480e+003, 6.468577e-003
1.687408e+003, 5.889412e-003
1.689337e+003, 5.165844e-003
1.691265e+003, 5.428224e-003
1.693194e+003, 5.707731e-003
1.695122e+003, 6.053593e-003
1.697051e+003, 5.765785e-003
1.698979e+003, 5.176338e-003
1.700908e+003, 5.372366e-003
1.702836e+003, 5.936774e-003
1.704765e+003, 6.544412e-003
1.706693e+003, 6.268208e-003
1.708621e+003, 5.347291e-003
1.710550e+003, 5.200803e-003
1.712478e+003, 5.742718e-003
1.714407e+003, 5.849830e-003
1.716335e+003, 5.924335e-003
1.718264e+003, 6.009788e-003
1.720192e+003, 5.706498e-003
1.722121e+003, 5.446495e-003
1.724049e+003, 5.908007e-003
1.725978e+003, 6.323233e-003
1.727906e+003, 6.230650e-003
1.729835e+003, 6.360889e-003
1.731763e+003, 5.909457e-003
1.733692e+003, 5.300377e-003
1.735620e+003, 5.672381e-003
1.737548e+003, 6.024541e-003
1.739477e+003, 5.740563e-003
1.741405e+003, 5.417636e-003
1.743334e+003, 6.084488e-003
1.745262e+003, 6.750521e-003
1.747191e+003, 6.452852e-003
1.749119e+003, 6.241519e-003
1.751048e+003, 6.266652e-003
1.752976e+003, 6.844061e-003
1.754905e+003, 6.960729e-003
1.756833e+003, 6.510656e-003
1.758762e+003, 6.076653e-003
1.760690e+003, 6.221108e-003
1.762619e+003, 6.578336e-003
1.764547e+003, 6.733743e-003
1.766475e+003, 6.458260e-003
1.768404e+003, 6.231528e-003
1.770332e+003, 6.843525e-003
1.772261e+003, 6.907444e-003
1.774189e+003, 6.710525e-003
1.776118e+003, 6.997359e-003
1.778046e+003, 6.660813e-003
1.779975e+003, 6.270458e-003
1.781903e+003, 6.489062e-003
1.783832e+003, 6.738231e-003
1.785760e+003, 6.672642e-003
1.787689e+003, 6.802334e-003
1.789617e+003, 7.037857e-003
1.791546e+003, 7.263272e-003
1.793474e+003, 7.189278e-003
1.795402e+003, 6.649510e-003
1.797331e+003, 6.020425e-003
1.799259e+003, 6.367905e-003
1.801188e+003, 6.421603e-003
1.803116e+003, 6.343187e-003
1.805045e+003, 6.561212e-003
1.806973e+003, 6.335630e-003
1.808902e+003, 6.182531e-003
1.810830e+003, 6.951769e-003
1.812759e+003, 7.134924e-003
1.814687e+003, 6.429659e-003
1.816616e+003, 5.605910e-003
1.818544e+003, 6.346375e-003
1.820473e+003, 6.891910e-003
1.822401e+003, 6.272247e-003
1.824329e+003, 5.641343e-003
1.826258e+003, 5.756768e-003
1.828186e+003, 5.983941e-003
1.830115e+003, 6.662981e-003
1.832043e+003, 7.023714e-003
1.833972e+003, 6.851931e-003
1.835900e+003, 6.773916e-003
1.837829e+003, 6.034461e-003
1.839757e+003, 5.379867e-003
1.841686e+003, 6.010235e-003
1.843614e+003, 6.169302e-003
1.845543e+003, 6.155174e-003
1.847471e+003, 6.476451e-003
1.849400e+003, 6.331383e-003
1.851328e+003, 6.822365e-003
1.853256e+003, 7.343523e-003
1.855185e+003, 7.064994e-003
1.857113e+003, 6.420311e-003
1.859042e+003, 5.405501e-003
1.860970e+003, 4.995185e-003
1.862899e+003, 5.206275e-003
1.864827e+003, 4.967862e-003
1.866756e+003, 5.190909e-003
1.868684e+003, 6.090045e-003
1.870613e+003, 4.976539e-003
1.872541e+003, 4.964690e-003
1.874470e+003, 6.524076e-003
1.876398e+003, 7.310813e-003
1.878327e+003, 6.112127e-003
1.880255e+003, 6.250730e-003
1.882183e+003, 7.795679e-003
1.884112e+003, 7.622800e-003
1.886040e+003, 7.192713e-003
1.887969e+003, 7.565794e-003
1.889897e+003, 8.133099e-003
1.891826e+003, 7.858968e-003
1.893754e+003, 6.336897e-003
1.895683e+003, 5.727064e-003
1.897611e+003, 5.849966e-003
1.899540e+003, 5.476242e-003
1.901468e+003, 4.718417e-003
1.903397e+003, 5.311014e-003
1.905325e+003, 6.540788e-003
1.907254e+003, 7.247219e-003
1.909182e+003, 6.124901e-003
1.911110e+003, 5.061661e-003
1.913039e+003, 4.940569e-003
1.914967e+003, 4.761040e-003
1.916896e+003, 5.143318e-003
1.918824e+003, 4.301097e-003
1.920753e+003, 2.230141e-003
1.922681e+003, 2.523709e-003
1.924610e+003, 5.502620e-003
1.926538e+003, 7.103643e-003
1.928467e+003, 5.924946e-003
1.930395e+003, 4.728959e-003
1.932324e+003, 5.033141e-003
1.934252e+003, 5.274434e-003
1.936181e+003, 6.339491e-003
1.938109e+003, 7.066456e-003
1.940037e+003, 7.713859e-003
1.941966e+003, 8.783071e-003
1.943894e+003, 7.818903e-003
1.945823e+003, 5.419662e-003
1.947751e+003, 4.525664e-003
1.949680e+003, 4.811349e-003
1.951608e+003, 6.557142e-003
1.953537e+003, 7.153582e-003
1.955465e+003, 1.777496e-003
1.957394e+003, -1.833068e-003
1.959322e+003, 1.970988e-003
1.961251e+003, 5.307251e-003
1.963179e+003, 4.627631e-003
1.965108e+003, 2.186784e-003
1.967036e+003, 2.439623e-003
1.968964e+003, 3.108380e-003
1.970893e+003, 4.115772e-004
1.972821e+003, 2.390751e-003
1.974750e+003, 5.366627e-003
1.976678e+003, 3.085719e-003
1.978607e+003, 3.575687e-003
1.980535e+003, 5.889318e-003
1.982464e+003, 6.230836e-003
1.984392e+003, 5.513588e-003
1.986321e+003, 5.515966e-003
1.988249e+003, 5.172978e-003
1.990178e+003, 3.726857e-003
1.992106e+003, 2.605037e-003
1.994035e+003, 4.518497e-003
1.995963e+003, 3.444032e-003
1.997891e+003, 1.496575e-003
1.999820e+003, 3.278269e-003
2.001748e+003, 5.046509e-003
2.003677e+003, 5.835745e-003
2.005605e+003, 5.409356e-003
2.007534e+003, 2.069092e-003
2.009462e+003, -2.843903e-004
2.011391e+003, 1.087598e-003
2.013319e+003, 1.868257e-003
2.015248e+003, 2.921863e-003
2.017176e+003, 3.208305e-003
2.019105e+003, 6.586878e-004
2.021033e+003, -3.074063e-003
2.022962e+003, -4.310693e-003
2.024890e+003, 2.869356e-004
2.026818e+003, 4.783786e-003
2.028747e+003, 1.025980e-003
2.030675e+003, -3.875407e-004
2.032604e+003, 1.132044e-003
2.034532e+003, 3.338624e-003
2.036461e+003, 7.947929e-003
2.038389e+003, 8.687140e-003
2.040318e+003, 6.809548e-003
2.042246e+003, 4.562718e-003
2.044175e+003, 4.236078e-003
2.046103e+003, 3.825866e-003
2.048031e+003, 3.307509e-003
2.049960e+003, 6.137410e-003
2.051888e+003, 3.937130e-003
2.053817e+003, 7.879731e-004
2.055745e+003, 9.296426e-004
2.057674e+003, 3.124716e-003
2.059602e+003, 3.778118e-003
2.061531e+003, 5.360205e-003
2.063459e+003, 5.074389e-003
2.065388e+003, 6.396412e-003
2.067316e+003, 8.147494e-003
2.069245e+003, 6.022779e-003
2.071173e+003, 4.611343e-003
2.073102e+003, 6.451157e-003
2.075030e+003, 6.188376e-003
2.076958e+003, 4.244620e-003
2.078887e+003, 4.207038e-003
2.080815e+003, 4.922255e-003
2.082744e+003, 4.781671e-003
2.084672e+003, 5.589318e-003
2.086601e+003, 7.002059e-003
2.088529e+003, 6.004507e-003
2.090458e+003, 3.874855e-003
2.092386e+003, 5.224944e-003
2.094315e+003, 6.212631e-003
2.096243e+003, 5.134056e-003
2.098172e+003, 6.041117e-003
2.100100e+003, 7.492058e-003
2.102029e+003, 7.109913e-003
2.103957e+003, 6.319500e-003
2.105885e+003, 6.510658e-003
2.107814e+003, 4.975727e-003
2.109742e+003, 4.371320e-003
2.111671e+003, 5.254100e-003
2.113599e+003, 7.627280e-003
2.115528e+003, 7.086556e-003
2.117456e+003, 5.979762e-003
2.119385e+003, 5.406930e-003
2.121313e+003, 5.688335e-003
2.123242e+003, 6.962746e-003
2.125170e+003, 4.328858e-003
2.127099e+003, 1.043049e-003
2.129027e+003, 1.476167e-003
2.130956e+003, 2.421673e-003
2.132884e+003, 3.335311e-003
2.134813e+003, 5.250855e-003
2.136741e+003, 3.367420e-003
2.138669e+003, 2.147496e-003
2.140598e+003, 1.437304e-003
2.142526e+003, 1.264775e-003
2.144455e+003, 1.294161e-003
2.146383e+003, 1.454081e-003
2.148312e+003, 1.957856e-003
2.150240e+003, 3.073624e-003
2.152169e+003, 2.702847e-003
2.154097e+003, 8.686672e-004
2.156026e+003, -1.590569e-003
2.157954e+003, 2.247705e-003
2.159883e+003, 6.543978e-003
2.161811e+003, 6.483606e-003
2.163740e+003, 3.492431e-003
2.165668e+003, 5.332364e-004
2.167596e+003, -7.193019e-004
2.169525e+003, 1.275170e-003
2.171453e+003, 4.597507e-003
2.173382e+003, 6.046156e-003
2.175310e+003, 7.393013e-003
2.177239e+003, 4.216272e-003
2.179167e+003, 4.725076e-003
2.181096e+003, 8.733024e-003
2.183024e+003, 7.418719e-003
2.184953e+003, 7.881706e-003
2.186881e+003, 7.301331e-003
2.188810e+003, 4.549719e-003
2.190738e+003, 5.567571e-003
2.192667e+003, 6.233548e-003
2.194595e+003, 4.286112e-003
2.196523e+003, 5.523418e-003
2.198452e+003, 7.476800e-003
2.200380e+003, 6.114587e-003
2.202309e+003, 5.286474e-003
2.204237e+003, 5.207385e-003
2.206166e+003, 5.652221e-003
2.208094e+003, 7.745807e-003
2.210023e+003, 7.811334e-003
2.211951e+003, 6.168501e-003
2.213880e+003, 5.099332e-003
2.215808e+003, 4.113249e-003
2.217737e+003, 7.052454e-003
2.219665e+003, 7.853350e-003
2.221594e+003, 5.813634e-003
2.223522e+003, 5.850478e-003
2.225450e+003, 7.478404e-003
2.227379e+003, 7.087875e-003
2.229307e+003, 8.238134e-003
2.231236e+003, 9.515279e-003
2.233164e+003, 8.225746e-003
2.235093e+003, 7.133685e-003
2.237021e+003, 5.839391e-003
2.238950e+003, 7.950226e-003
2.240878e+003, 1.040039e-002
2.242807e+003, 8.570540e-003
2.244735e+003, 7.576338e-003
2.246664e+003, 9.544387e-003
2.248592e+003, 7.356692e-003
2.250521e+003, 5.809815e-003
2.252449e+003, 6.153828e-003
2.254377e+003, 6.859312e-003
2.256306e+003, 8.635399e-003
2.258234e+003, 7.961673e-003
2.260163e+003, 7.478834e-003
2.262091e+003, 8.927224e-003
2.264020e+003, 8.955123e-003
2.265948e+003, 8.597849e-003
2.267877e+003, 9.072149e-003
2.269805e+003, 8.551260e-003
2.271734e+003, 8.666880e-003
2.273662e+003, 9.359465e-003
2.275591e+003, 8.601350e-003
2.277519e+003, 9.632566e-003
2.279448e+003, 9.672451e-003
2.281376e+003, 9.359017e-003
2.283304e+003, 9.730301e-003
2.285233e+003, 8.455186e-003
2.287161e+003, 8.049448e-003
2.289090e+003, 7.989027e-003
2.291018e+003, 8.955513e-003
2.292947e+003, 9.238536e-003
2.294875e+003, 8.734686e-003
2.296804e+003, 9.039870e-003
2.298732e+003, 1.007076e-002
2.300661e+003, 9.769008e-003
2.302589e+003, 9.761480e-003
2.304518e+003, 9.917326e-003
2.306446e+003, 9.780840e-003
2.308375e+003, 9.942885e-003
2.310303e+003, 9.683261e-003
2.312231e+003, 8.491024e-003
2.314160e+003, 8.247514e-003
2.316088e+003, 8.626315e-003
2.318017e+003, 7.849451e-003
2.319945e+003, 8.449351e-003
2.321874e+003, 1.015497e-002
2.323802e+003, 1.020672e-002
2.325731e+003, 8.704433e-003
2.327659e+003, 8.166396e-003
2.329588e+003, 8.873504e-003
2.331516e+003, 8.647078e-003
2.333445e+003, 8.494462e-003
2.335373e+003, 8.552048e-003
2.337302e+003, 8.321869e-003
2.339230e+003, 8.665915e-003
2.341158e+003, 8.644190e-003
2.343087e+003, 8.162530e-003
2.345015e+003, 7.937510e-003
2.346944e+003, 7.949444e-003
2.348872e+003, 8.147224e-003
2.350801e+003, 7.583652e-003
2.352729e+003, 6.848129e-003
2.354658e+003, 7.100321e-003
2.356586e+003, 7.149932e-003
2.358515e+003, 7.323968e-003
2.360443e+003, 8.602209e-003
2.362372e+003, 8.939079e-003
2.364300e+003, 7.854050e-003
2.366229e+003, 6.828936e-003
2.368157e+003, 7.122617e-003
2.370085e+003, 7.997833e-003
2.372014e+003, 8.331361e-003
2.373942e+003, 8.094166e-003
2.375871e+003, 7.881065e-003
2.377799e+003, 8.028786e-003
2.379728e+003, 9.328214e-003
2.381656e+003, 1.049950e-002
2.383585e+003, 9.996152e-003
2.385513e+003, 9.070659e-003
2.387442e+003, 9.212625e-003
2.389370e+003, 8.923609e-003
2.391299e+003, 8.459964e-003
2.393227e+003, 9.061353e-003
2.395156e+003, 9.097395e-003
2.397084e+003, 8.060924e-003
2.399012e+003, 7.463018e-003
2.400941e+003, 8.384523e-003
2.402869e+003, 9.053770e-003
2.404798e+003, 9.253231e-003
2.406726e+003, 8.809642e-003
2.408655e+003, 9.443617e-003
2.410583e+003, 1.009155e-002
2.412512e+003, 1.034857e-002
2.414440e+003, 1.073842e-002
2.416369e+003, 1.017479e-002
2.418297e+003, 9.709537e-003
2.420226e+003, 9.762444e-003
2.422154e+003, 8.812374e-003
2.424083e+003, 8.333206e-003
2.426011e+003, 9.293739e-003
2.427939e+003, 9.666004e-003
2.429868e+003, 1.059931e-002
2.431796e+003, 1.144587e-002
2.433725e+003, 1.028248e-002
2.435653e+003, 9.252681e-003
2.437582e+003, 1.000757e-002
2.439510e+003, 9.783043e-003
2.441439e+003, 8.554002e-003
2.443367e+003, 7.655388e-003
2.445296e+003, 7.917224e-003
2.447224e+003, 9.860054e-003
2.449153e+003, 1.071958e-002
2.451081e+003, 1.083985e-002
2.453010e+003, 1.032169e-002
2.454938e+003, 9.483173e-003
2.456866e+003, 1.058084e-002
2.458795e+003, 1.210215e-002
2.460723e+003, 1.094707e-002
2.462652e+003, 9.583198e-003
2.464580e+003, 9.023800e-003
2.466509e+003, 8.062566e-003
2.468437e+003, 8.624026e-003
2.470366e+003, 9.393467e-003
2.472294e+003, 8.620903e-003
2.474223e+003, 8.383861e-003
2.476151e+003, 1.021984e-002
2.478080e+003, 1.161773e-002
2.480008e+003, 1.058922e-002
2.481937e+003, 9.277862e-003
2.483865e+003, 1.082297e-002
2.485793e+003, 1.245697e-002
2.487722e+003, 1.204162e-002
2.489650e+003, 1.129613e-002
2.491579e+003, 1.051365e-002
2.493507e+003, 9.186788e-003
2.495436e+003, 9.371358e-003
2.497364e+003, 1.014526e-002
2.499293e+003, 1.040983e-002
2.501221e+003, 1.066063e-002
2.503150e+003, 1.170651e-002
2.505078e+003, 1.317153e-002
2.507007e+003, 1.202561e-002
2.508935e+003, 1.111309e-002
2.510864e+003, 1.106305e-002
2.512792e+003, 1.115667e-002
2.514720e+003, 1.173451e-002
2.516649e+003, 1.041578e-002
2.518577e+003, 9.238926e-003
2.520506e+003, 1.090468e-002
2.522434e+003, 1.212936e-002
2.524363e+003, 1.230331e-002
2.526291e+003, 1.135598e-002
2.528220e+003, 1.089998e-002
2.530148e+003, 1.247352e-002
2.532077e+003, 1.287929e-002
2.534005e+003, 1.241891e-002
2.535934e+003, 1.197195e-002
2.537862e+003, 1.224717e-002
2.539791e+003, 1.303110e-002
2.541719e+003, 1.409795e-002
2.543647e+003, 1.383722e-002
2.545576e+003, 1.195088e-002
2.547504e+003, 9.984854e-003
2.549433e+003, 1.027646e-002
2.551361e+003, 1.282780e-002
2.553290e+003, 1.326054e-002
2.555218e+003, 1.243083e-002
2.557147e+003, 1.163808e-002
2.559075e+003, 1.106452e-002
2.561004e+003, 1.111109e-002
2.562932e+003, 1.228434e-002
2.564861e+003, 1.396897e-002
2.566789e+003, 1.446961e-002
2.568718e+003, 1.372248e-002
2.570646e+003, 1.411727e-002
2.572574e+003, 1.330566e-002
2.574503e+003, 1.348640e-002
2.576431e+003, 1.343507e-002
2.578360e+003, 1.360440e-002
2.580288e+003, 1.448465e-002
2.582217e+003, 1.490941e-002
2.584145e+003, 1.383983e-002
2.586074e+003, 1.441514e-002
2.588002e+003, 1.479423e-002
2.589931e+003, 1.314873e-002
2.591859e+003, 1.346919e-002
2.593788e+003, 1.382727e-002
2.595716e+003, 1.283226e-002
2.597645e+003, 1.283239e-002
2.599573e+003, 1.354546e-002
2.601501e+003, 1.425424e-002
2.603430e+003, 1.540986e-002
2.605358e+003, 1.551649e-002
2.607287e+003, 1.537279e-002
2.609215e+003, 1.523939e-002
2.611144e+003, 1.520760e-002
2.613072e+003, 1.410223e-002
2.615001e+003, 1.392746e-002
2.616929e+003, 1.409486e-002
2.618858e+003, 1.342922e-002
2.620786e+003, 1.423012e-002
2.622715e+003, 1.538306e-002
2.624643e+003, 1.582805e-002
2.626572e+003, 1.550325e-002
2.628500e+003, 1.540684e-002
2.630428e+003, 1.548776e-002
2.632357e+003, 1.600768e-002
2.634285e+003, 1.496249e-002
2.636214e+003, 1.427798e-002
2.638142e+003, 1.438773e-002
2.640071e+003, 1.512059e-002
2.641999e+003, 1.648568e-002
2.643928e+003, 1.611927e-002
2.645856e+003, 1.479029e-002
2.647785e+003, 1.395739e-002
2.649713e+003, 1.405856e-002
2.651642e+003, 1.414884e-002
2.653570e+003, 1.370865e-002
2.655499e+003, 1.468056e-002
2.657427e+003, 1.520885e-002
2.659355e+003, 1.459078e-002
2.661284e+003, 1.408746e-002
2.663212e+003, 1.291650e-002
2.665141e+003, 1.293175e-002
2.667069e+003, 1.374995e-002
2.668998e+003, 1.378200e-002
2.670926e+003, 1.329914e-002
2.672855e+003, 1.397382e-002
2.674783e+003, 1.503692e-002
2.676712e+003, 1.481365e-002
2.678640e+003, 1.464877e-002
2.680569e+003, 1.429088e-002
2.682497e+003, 1.356607e-002
2.684426e+003, 1.386373e-002
2.686354e+003, 1.486142e-002
2.688282e+003, 1.501644e-002
2.690211e+003, 1.357379e-002
2.692139e+003, 1.285873e-002
2.694068e+003, 1.454459e-002
2.695996e+003, 1.540116e-002
2.697925e+003, 1.430766e-002
2.699853e+003, 1.385615e-002
2.701782e+003, 1.470652e-002
2.703710e+003, 1.504817e-002
2.705639e+003, 1.516007e-002
2.707567e+003, 1.439803e-002
2.709496e+003, 1.459334e-002
2.711424e+003, 1.477920e-002
2.713353e+003, 1.463951e-002
2.715281e+003, 1.409683e-002
2.717209e+003, 1.365154e-002
2.719138e+003, 1.455624e-002
2.721066e+003, 1.505345e-002
2.722995e+003, 1.470459e-002
2.724923e+003, 1.499688e-002
2.726852e+003, 1.524342e-002
2.728780e+003, 1.553696e-002
2.730709e+003, 1.626991e-002
2.732637e+003, 1.566846e-002
2.734566e+003, 1.414799e-002
2.736494e+003, 1.435903e-002
2.738423e+003, 1.473857e-002
2.740351e+003, 1.496805e-002
2.742280e+003, 1.519897e-002
2.744208e+003, 1.492042e-002
2.746136e+003, 1.462699e-002
2.748065e+003, 1.441771e-002
2.749993e+003, 1.521072e-002
2.751922e+003, 1.576139e-002
2.753850e+003, 1.548077e-002
2.755779e+003, 1.477892e-002
2.757707e+003, 1.450705e-002
2.759636e+003, 1.569263e-002
2.761564e+003, 1.622213e-002
2.763493e+003, 1.645929e-002
2.765421e+003, 1.601234e-002
2.767350e+003, 1.632425e-002
2.769278e+003, 1.598771e-002
2.771207e+003, 1.518614e-002
2.773135e+003, 1.576046e-002
2.775063e+003, 1.576480e-002
2.776992e+003, 1.578266e-002
2.778920e+003, 1.624019e-002
2.780849e+003, 1.640752e-002
2.782777e+003, 1.668829e-002
2.784706e+003, 1.760990e-002
2.786634e+003, 1.749075e-002
2.788563e+003, 1.617367e-002
2.790491e+003, 1.557575e-002
2.792420e+003, 1.545344e-002
2.794348e+003, 1.453947e-002
2.796277e+003, 1.551824e-002
2.798205e+003, 1.683449e-002
2.800134e+003, 1.686566e-002
2.802062e+003, 1.603031e-002
2.803990e+003, 1.486761e-002
2.805919e+003, 1.525746e-002
2.807847e+003, 1.701552e-002
2.809776e+003, 1.749801e-002
2.811704e+003, 1.710342e-002
2.813633e+003, 1.812830e-002
2.815561e+003, 1.758960e-002
2.817490e+003, 1.671900e-002
2.819418e+003, 1.690396e-002
2.821347e+003, 1.709296e-002
2.823275e+003, 1.667017e-002
2.825204e+003, 1.637073e-002
2.827132e+003, 1.661233e-002
2.829061e+003, 1.759120e-002
2.830989e+003, 1.675432e-002
2.832917e+003, 1.565237e-002
2.834846e+003, 1.664271e-002
2.836774e+003, 1.904646e-002
2.838703e+003, 1.913344e-002
2.840631e+003, 1.737932e-002
2.842560e+003, 1.830799e-002
2.844488e+003, 1.911012e-002
2.846417e+003, 1.784579e-002
2.848345e+003, 1.703845e-002
2.850274e+003, 1.767520e-002
2.852202e+003, 1.854199e-002
2.854131e+003, 1.898667e-002
2.856059e+003, 1.867782e-002
2.857988e+003, 1.820419e-002
2.859916e+003, 1.927094e-002
2.861844e+003, 2.003083e-002
2.863773e+003, 1.920702e-002
2.865701e+003, 1.964103e-002
2.867630e+003, 1.961429e-002
2.869558e+003, 1.958382e-002
2.871487e+003, 1.852771e-002
2.873415e+003, 1.803265e-002
2.875344e+003, 2.003547e-002
2.877272e+003, 1.981167e-002
2.879201e+003, 1.854785e-002
2.881129e+003, 1.761111e-002
2.883058e+003, 1.700631e-002
2.884986e+003, 1.892998e-002
2.886915e+003, 2.074077e-002
2.888843e+003, 1.954042e-002
2.890771e+003, 1.755573e-002
2.892700e+003, 1.825996e-002
2.894628e+003, 1.898828e-002
2.896557e+003, 1.885313e-002
2.898485e+003, 1.942139e-002
2.900414e+003, 1.957223e-002
2.902342e+003, 1.987458e-002
2.904271e+003, 2.095020e-002
2.906199e+003, 2.089528e-002
2.908128e+003, 1.997704e-002
2.910056e+003, 1.988959e-002
2.911985e+003, 1.941377e-002
2.913913e+003, 1.949476e-002
2.915842e+003, 2.027348e-002
2.917770e+003, 2.178491e-002
2.919698e+003, 2.182648e-002
2.921627e+003, 2.156890e-002
2.923555e+003, 2.176327e-002
2.925484e+003, 2.198787e-002
2.927412e+003, 2.290452e-002
2.929341e+003, 2.353613e-002
2.931269e+003, 2.353619e-002
2.933198e+003, 2.261031e-002
2.935126e+003, 2.204234e-002
2.937055e+003, 2.222535e-002
2.938983e+003, 2.246134e-002
2.940912e+003, 2.152386e-002
2.942840e+003, 1.974305e-002
2.944769e+003, 2.028118e-002
2.946697e+003, 2.218635e-002
2.948625e+003, 2.311436e-002
2.950554e+003, 2.296186e-002
2.952482e+003, 2.143355e-002
2.954411e+003, 2.183254e-002
2.956339e+003, 2.284853e-002
2.958268e+003, 2.283280e-002
2.960196e+003, 2.122986e-002
2.962125e+003, 2.013989e-002
2.964053e+003, 2.116307e-002
2.965982e+003, 2.149797e-002
2.967910e+003, 2.235718e-002
2.969839e+003, 2.226137e-002
2.971767e+003, 2.011673e-002
2.973696e+003, 2.039662e-002
2.975624e+003, 2.010268e-002
2.977552e+003, 1.922299e-002
2.979481e+003, 2.053700e-002
2.981409e+003, 2.056515e-002
2.983338e+003, 2.058739e-002
2.985266e+003, 2.105272e-002
2.987195e+003, 2.122407e-002
2.989123e+003, 2.279585e-002
2.991052e+003, 2.306566e-002
2.992980e+003, 2.158305e-002
2.994909e+003, 2.119556e-002
2.996837e+003, 2.192317e-002
2.998766e+003, 2.188898e-002
3.000694e+003, 2.143500e-002
3.002623e+003, 2.197379e-002
3.004551e+003, 2.286092e-002
3.006479e+003, 2.313464e-002
3.008408e+003, 2.237971e-002
3.010336e+003, 2.082772e-002
3.012265e+003, 1.932341e-002
3.014193e+003, 1.995006e-002
3.016122e+003, 2.078682e-002
3.018050e+003, 2.056716e-002
3.019979e+003, 1.982580e-002
3.021907e+003, 1.983287e-002
3.023836e+003, 2.017299e-002
3.025764e+003, 2.091674e-002
3.027693e+003, 2.179879e-002
3.029621e+003, 2.077012e-002
3.031550e+003, 2.008645e-002
3.033478e+003, 2.169636e-002
3.035406e+003, 2.223335e-002
3.037335e+003, 2.217358e-002
3.039263e+003, 2.234384e-002
3.041192e+003, 2.197252e-002
3.043120e+003, 1.978948e-002
3.045049e+003, 1.792145e-002
3.046977e+003, 1.967192e-002
3.048906e+003, 2.163254e-002
3.050834e+003, 2.113945e-002
3.052763e+003, 2.053804e-002
3.054691e+003, 2.231994e-002
3.056620e+003, 2.435441e-002
3.058548e+003, 2.345681e-002
3.060477e+003, 2.263584e-002
3.062405e+003, 2.268220e-002
3.064333e+003, 2.191148e-002
3.066262e+003, 2.181001e-002
3.068190e+003, 2.124545e-002
3.070119e+003, 2.039489e-002
3.072047e+003, 2.188147e-002
3.073976e+003, 2.207610e-002
3.075904e+003, 2.180597e-002
3.077833e+003, 2.130497e-002
3.079761e+003, 2.195488e-002
3.081690e+003, 2.326082e-002
3.083618e+003, 2.375744e-002
3.085547e+003, 2.209445e-002
3.087475e+003, 2.173972e-002
3.089404e+003, 2.231345e-002
3.091332e+003, 2.266184e-002
3.093260e+003, 2.211655e-002
3.095189e+003, 2.332473e-002
3.097117e+003, 2.562039e-002
3.099046e+003, 2.398982e-002
3.100974e+003, 2.406363e-002
3.102903e+003, 2.553591e-002
3.104831e+003, 2.540207e-002
3.106760e+003, 2.551373e-002
3.108688e+003, 2.373200e-002
3.110617e+003, 2.343680e-002
3.112545e+003, 2.474097e-002
3.114474e+003, 2.558276e-002
3.116402e+003, 2.341850e-002
3.118331e+003, 2.157333e-002
3.120259e+003, 2.393229e-002
3.122188e+003, 2.514976e-002
3.124116e+003, 2.326110e-002
3.126044e+003, 2.215711e-002
3.127973e+003, 2.083184e-002
3.129901e+003, 2.082257e-002
3.131830e+003, 2.356199e-002
3.133758e+003, 2.428242e-002
3.135687e+003, 2.319876e-002
3.137615e+003, 2.315392e-002
3.139544e+003, 2.248142e-002
3.141472e+003, 2.131298e-002
3.143401e+003, 2.040090e-002
3.145329e+003, 2.146915e-002
3.147258e+003, 2.195433e-002
3.149186e+003, 2.290153e-002
3.151115e+003, 2.515070e-002
3.153043e+003, 2.360668e-002
3.154971e+003, 2.288025e-002
3.156900e+003, 2.439444e-002
3.158828e+003, 2.461669e-002
3.160757e+003, 2.359518e-002
3.162685e+003, 2.270359e-002
3.164614e+003, 2.316503e-002
3.166542e+003, 2.362449e-002
3.168471e+003, 2.514831e-002
3.170399e+003, 2.448613e-002
3.172328e+003, 2.354758e-002
3.174256e+003, 2.467642e-002
3.176185e+003, 2.551449e-002
3.178113e+003, 2.587104e-002
3.180042e+003, 2.556641e-002
3.181970e+003, 2.607519e-002
3.183898e+003, 2.635548e-002
3.185827e+003, 2.445862e-002
3.187755e+003, 2.366596e-002
3.189684e+003, 2.505568e-002
3.191612e+003, 2.561150e-002
3.193541e+003, 2.657001e-002
3.195469e+003, 2.730795e-002
3.197398e+003, 2.668158e-002
3.199326e+003, 2.631648e-002
3.201255e+003, 2.543801e-002
3.203183e+003, 2.353566e-002
3.205112e+003, 2.444174e-002
3.207040e+003, 2.478784e-002
3.208969e+003, 2.461356e-002
3.210897e+003, 2.564932e-002
3.212825e+003, 2.743228e-002
3.214754e+003, 2.630509e-002
3.216682e+003, 2.455666e-002
3.218611e+003, 2.487955e-002
3.220539e+003, 2.539085e-002
3.222468e+003, 2.534626e-002
3.224396e+003, 2.490034e-002
3.226325e+003, 2.354707e-002
3.228253e+003, 2.269445e-002
3.230182e+003, 2.485438e-002
3.232110e+003, 2.575693e-002
3.234039e+003, 2.593569e-002
3.235967e+003, 2.558553e-002
3.237896e+003, 2.452415e-002
3.239824e+003, 2.525947e-002
3.241752e+003, 2.559606e-002
3.243681e+003, 2.555984e-002
3.245609e+003, 2.690226e-002
3.247538e+003, 2.730096e-002
3.249466e+003, 2.636324e-002
3.251395e+003, 2.598698e-002
3.253323e+003, 2.484878e-002
3.255252e+003, 2.350988e-002
3.257180e+003, 2.427831e-002
3.259109e+003, 2.580260e-002
3.261037e+003, 2.794167e-002
3.262966e+003, 2.880587e-002
3.264894e+003, 2.877476e-002
3.266823e+003, 2.817441e-002
3.268751e+003, 2.624176e-002
3.270679e+003, 2.561324e-002
3.272608e+003, 2.618447e-002
3.274536e+003, 2.838703e-002
3.276465e+003, 2.801020e-002
3.278393e+003, 2.523651e-002
3.280322e+003, 2.575438e-002
3.282250e+003, 2.715764e-002
3.284179e+003, 2.793531e-002
3.286107e+003, 2.624767e-002
3.288036e+003, 2.398539e-002
3.289964e+003, 2.446457e-002
3.291893e+003, 2.422063e-002
3.293821e+003, 2.339910e-002
3.295750e+003, 2.487356e-002
3.297678e+003, 2.573712e-002
3.299606e+003, 2.498088e-002
3.301535e+003, 2.503845e-002
3.303463e+003, 2.477519e-002
3.305392e+003, 2.496394e-002
3.307320e+003, 2.641153e-002
3.309249e+003, 2.792148e-002
3.311177e+003, 2.731446e-002
3.313106e+003, 2.517133e-002
3.315034e+003, 2.422612e-002
3.316963e+003, 2.481505e-002
3.318891e+003, 2.469813e-002
3.320820e+003, 2.570344e-002
3.322748e+003, 2.638537e-002
3.324677e+003, 2.510992e-002
3.326605e+003, 2.589432e-002
3.328533e+003, 2.546004e-002
3.330462e+003, 2.291421e-002
3.332390e+003, 2.444167e-002
3.334319e+003, 2.483003e-002
3.336247e+003, 2.314484e-002
3.338176e+003, 2.370599e-002
3.340104e+003, 2.599737e-002
3.342033e+003, 2.502930e-002
3.343961e+003, 2.542515e-002
3.345890e+003, 2.715615e-002
3.347818e+003, 2.826658e-002
3.349747e+003, 2.701230e-002
3.351675e+003, 2.559241e-002
3.353604e+003, 2.372993e-002
3.355532e+003, 2.354730e-002
3.357460e+003, 2.375067e-002
3.359389e+003, 2.557530e-002
3.361317e+003, 2.905856e-002
3.363246e+003, 2.683748e-002
3.365174e+003, 2.469800e-002
3.367103e+003, 2.390177e-002
3.369031e+003, 2.340131e-002
3.370960e+003, 2.454361e-002
3.372888e+003, 2.630192e-002
3.374817e+003, 2.668291e-002
3.376745e+003, 2.590887e-002
3.378674e+003, 2.579287e-002
3.380602e+003, 2.604678e-002
3.382531e+003, 2.607636e-002
3.384459e+003, 2.552720e-002
3.386387e+003, 2.476548e-002
3.388316e+003, 2.634987e-002
3.390244e+003, 2.599987e-002
3.392173e+003, 2.661812e-002
3.394101e+003, 2.875873e-002
3.396030e+003, 2.902328e-002
3.397958e+003, 2.640365e-002
3.399887e+003, 2.321516e-002
3.401815e+003, 2.388182e-002
3.403744e+003, 2.736443e-002
3.405672e+003, 2.771023e-002
3.407601e+003, 2.490891e-002
3.409529e+003, 2.454300e-002
3.411458e+003, 2.479100e-002
3.413386e+003, 2.419296e-002
3.415314e+003, 2.273549e-002
3.417243e+003, 2.308214e-002
3.419171e+003, 2.583606e-002
3.421100e+003, 2.613948e-002
3.423028e+003, 2.390257e-002
3.424957e+003, 2.420045e-002
3.426885e+003, 2.550110e-002
3.428814e+003, 2.494786e-002
3.430742e+003, 2.531727e-002
3.432671e+003, 2.524196e-002
3.434599e+003, 2.397979e-002
3.436528e+003, 2.598111e-002
3.438456e+003, 2.908449e-002
3.440385e+003, 2.886486e-002
3.442313e+003, 2.642926e-002
3.444241e+003, 2.365066e-002
3.446170e+003, 2.410710e-002
3.448098e+003, 2.784440e-002
3.450027e+003, 3.164593e-002
3.451955e+003, 3.056429e-002
3.453884e+003, 2.732891e-002
3.455812e+003, 2.514628e-002
3.457741e+003, 2.387162e-002
3.459669e+003, 2.313215e-002
3.461598e+003, 2.520727e-002
3.463526e+003, 2.723424e-002
3.465455e+003, 2.733850e-002
3.467383e+003, 2.620690e-002
3.469312e+003, 2.548217e-002
3.471240e+003, 2.456104e-002
3.473168e+003, 2.298823e-002
3.475097e+003, 2.343304e-002
3.477025e+003, 2.381140e-002
3.478954e+003, 2.435026e-002
3.480882e+003, 2.681789e-002
3.482811e+003, 2.831012e-002
3.484739e+003, 2.653383e-002
3.486668e+003, 2.208260e-002
3.488596e+003, 2.147659e-002
3.490525e+003, 2.589090e-002
3.492453e+003, 2.643972e-002
3.494382e+003, 2.687298e-002
3.496310e+003, 2.619887e-002
3.498239e+003, 2.701308e-002
3.500167e+003, 2.887406e-002
3.502095e+003, 2.760049e-002
3.504024e+003, 2.614564e-002
3.505952e+003, 2.394896e-002
3.507881e+003, 2.246346e-002
3.509809e+003, 2.422613e-002
3.511738e+003, 2.532144e-002
3.513666e+003, 2.451194e-002
3.515595e+003, 2.609084e-002
3.517523e+003, 2.780872e-002
3.519452e+003, 2.627914e-002
3.521380e+003, 2.571059e-002
3.523309e+003, 2.555218e-002
3.525237e+003, 2.510587e-002
3.527166e+003, 2.638656e-002
3.529094e+003, 2.613679e-002
3.531022e+003, 2.540102e-002
3.532951e+003, 2.454216e-002
3.534879e+003, 2.484026e-002
3.536808e+003, 2.683609e-002
3.538736e+003, 2.570496e-002
3.540665e+003, 2.194803e-002
3.542593e+003, 2.132191e-002
3.544522e+003, 2.277879e-002
3.546450e+003, 2.535598e-002
3.548379e+003, 2.614842e-002
3.550307e+003, 2.620619e-002
3.552236e+003, 2.692680e-002
3.554164e+003, 2.575572e-002
3.556093e+003, 2.354869e-002
3.558021e+003, 2.386422e-002
3.559949e+003, 2.408788e-002
3.561878e+003, 2.305599e-002
3.563806e+003, 2.445512e-002
3.565735e+003, 2.652713e-002
3.567663e+003, 2.500456e-002
3.569592e+003, 2.326789e-002
3.571520e+003, 2.445563e-002
3.573449e+003, 2.484814e-002
3.575377e+003, 2.358787e-002
3.577306e+003, 2.327810e-002
3.579234e+003, 2.436883e-002
3.581163e+003, 2.681755e-002
3.583091e+003, 2.437760e-002
3.585020e+003, 2.188346e-002
3.586948e+003, 2.262064e-002
3.588876e+003, 2.621320e-002
3.590805e+003, 2.786776e-002
3.592733e+003, 2.718278e-002
3.594662e+003, 2.641256e-002
3.596590e+003, 2.635292e-002
3.598519e+003, 2.464135e-002
3.600447e+003, 2.301156e-002
3.602376e+003, 2.422136e-002
3.604304e+003, 2.644126e-002
3.606233e+003, 2.816036e-002
3.608161e+003, 2.644962e-002
3.610090e+003, 2.309880e-002
3.612018e+003, 2.421460e-002
3.613947e+003, 2.683367e-002
3.615875e+003, 2.576465e-002
3.617803e+003, 2.431352e-002
3.619732e+003, 2.381838e-002
3.621660e+003, 2.377345e-002
3.623589e+003, 2.100953e-002
3.625517e+003, 1.888521e-002
3.627446e+003, 1.808606e-002
3.629374e+003, 2.153905e-002
3.631303e+003, 2.631166e-002
3.633231e+003, 2.757555e-002
3.635160e+003, 2.688373e-002
3.637088e+003, 2.146914e-002
3.639017e+003, 1.901813e-002
3.640945e+003, 2.230118e-002
3.642874e+003, 2.493944e-002
3.644802e+003, 2.805915e-002
3.646730e+003, 2.927756e-002
3.648659e+003, 2.708231e-002
3.650587e+003, 2.656750e-002
3.652516e+003, 2.526722e-002
3.654444e+003, 2.435368e-002
3.656373e+003, 2.167569e-002
3.658301e+003, 1.653305e-002
3.660230e+003, 1.812586e-002
3.662158e+003, 2.232984e-002
3.664087e+003, 2.315256e-002
3.666015e+003, 2.607204e-002
3.667944e+003, 2.613974e-002
3.669872e+003, 2.287317e-002
3.671801e+003, 2.156773e-002
3.673729e+003, 2.216635e-002
3.675657e+003, 2.277939e-002
3.677586e+003, 2.505169e-002
3.679514e+003, 2.482582e-002
3.681443e+003, 2.287822e-002
3.683371e+003, 2.032062e-002
3.685300e+003, 2.043576e-002
3.687228e+003, 1.904643e-002
3.689157e+003, 1.681912e-002
3.691085e+003, 1.955380e-002
3.693014e+003, 2.701488e-002
3.694942e+003, 2.971638e-002
3.696871e+003, 2.329956e-002
3.698799e+003, 1.883858e-002
3.700728e+003, 2.087543e-002
3.702656e+003, 2.432306e-002
3.704584e+003, 2.828100e-002
3.706513e+003, 2.823086e-002
3.708441e+003, 2.271037e-002
3.710370e+003, 2.351500e-002
3.712298e+003, 2.738589e-002
3.714227e+003, 2.494866e-002
3.716155e+003, 2.216629e-002
3.718084e+003, 2.551591e-002
3.720012e+003, 2.725751e-002
3.721941e+003, 2.388593e-002
3.723869e+003, 1.945409e-002
3.725798e+003, 1.796478e-002
3.727726e+003, 1.981105e-002
3.729655e+003, 2.284065e-002
3.731583e+003, 2.180610e-002
3.733511e+003, 1.662072e-002
3.735440e+003, 1.983313e-002
3.737368e+003, 2.305306e-002
3.739297e+003, 2.316851e-002
3.741225e+003, 2.414494e-002
3.743154e+003, 2.129431e-002
3.745082e+003, 2.218259e-002
3.747011e+003, 2.267020e-002
3.748939e+003, 1.970853e-002
3.750868e+003, 2.105717e-002
3.752796e+003, 2.431389e-002
3.754725e+003, 2.547644e-002
3.756653e+003, 2.430818e-002
3.758582e+003, 2.221785e-002
3.760510e+003, 2.365438e-002
3.762438e+003, 2.413723e-002
3.764367e+003, 2.127157e-002
3.766295e+003, 1.741206e-002
3.768224e+003, 1.558540e-002
3.770152e+003, 2.003476e-002
3.772081e+003, 2.491527e-002
3.774009e+003, 2.645941e-002
3.775938e+003, 2.402030e-002
3.777866e+003, 2.294460e-002
3.779795e+003, 2.614898e-002
3.781723e+003, 2.511701e-002
3.783652e+003, 2.550501e-002
3.785580e+003, 2.326812e-002
3.787509e+003, 1.982187e-002
3.789437e+003, 2.050690e-002
3.791365e+003, 1.837290e-002
3.793294e+003, 1.654848e-002
3.795222e+003, 1.811122e-002
3.797151e+003, 2.108403e-002
3.799079e+003, 2.322866e-002
3.801008e+003, 2.091986e-002
3.802936e+003, 1.910915e-002
3.804865e+003, 1.788780e-002
3.806793e+003, 1.934649e-002
3.808722e+003, 1.742493e-002
3.810650e+003, 1.860566e-002
3.812579e+003, 2.092533e-002
3.814507e+003, 2.116850e-002
3.816436e+003, 2.174811e-002
3.818364e+003, 2.543385e-002
3.820292e+003, 2.413728e-002
3.822221e+003, 2.363194e-002
3.824149e+003, 2.289254e-002
3.826078e+003, 2.312569e-002
3.828006e+003, 2.445128e-002
3.829935e+003, 2.282656e-002
3.831863e+003, 2.034997e-002
3.833792e+003, 1.898292e-002
3.835720e+003, 2.074244e-002
3.837649e+003, 2.110414e-002
3.839577e+003, 2.017034e-002
3.841506e+003, 2.320900e-002
3.843434e+003, 2.392044e-002
3.845363e+003, 2.258967e-002
3.847291e+003, 2.310681e-002
3.849219e+003, 2.502198e-002
3.851148e+003, 2.504410e-002
3.853076e+003, 2.687817e-002
3.855005e+003, 2.668811e-002
3.856933e+003, 2.089313e-002
3.858862e+003, 1.594040e-002
3.860790e+003, 1.812318e-002
3.862719e+003, 2.055335e-002
3.864647e+003, 2.166492e-002
3.866576e+003, 2.043679e-002
3.868504e+003, 2.026236e-002
3.870433e+003, 2.264427e-002
3.872361e+003, 2.072273e-002
3.874290e+003, 2.020068e-002
3.876218e+003, 1.918948e-002
3.878146e+003, 1.930496e-002
3.880075e+003, 2.391322e-002
3.882003e+003, 2.677752e-002
3.883932e+003, 2.349417e-002
3.885860e+003, 2.386582e-002
3.887789e+003, 2.251734e-002
3.889717e+003, 1.903068e-002
3.891646e+003, 1.658321e-002
3.893574e+003, 1.836719e-002
3.895503e+003, 2.102913e-002
3.897431e+003, 1.823669e-002
3.899360e+003, 1.871255e-002
3.901288e+003, 1.842540e-002
3.903217e+003, 2.089034e-002
3.905145e+003, 2.377207e-002
3.907073e+003, 2.222710e-002
3.909002e+003, 2.247390e-002
3.910930e+003, 2.321419e-002
3.912859e+003, 2.113700e-002
3.914787e+003, 1.901848e-002
3.916716e+003, 1.897982e-002
3.918644e+003, 2.001451e-002
3.920573e+003, 2.113172e-002
3.922501e+003, 2.279623e-002
3.924430e+003, 1.904258e-002
3.926358e+003, 1.354711e-002
3.928287e+003, 1.499204e-002
3.930215e+003, 2.068537e-002
3.932144e+003, 2.128933e-002
3.934072e+003, 1.848694e-002
3.936000e+003, 1.905414e-002
3.937929e+003, 2.316599e-002
3.939857e+003, 2.648001e-002
3.941786e+003, 2.544594e-002
3.943714e+003, 2.426780e-002
3.945643e+003, 2.433271e-002
3.947571e+003, 2.097439e-002
3.949500e+003, 1.884573e-002
3.951428e+003, 1.841286e-002
3.953357e+003, 1.984790e-002
3.955285e+003, 2.031265e-002
3.957214e+003, 1.911892e-002
3.959142e+003, 1.944185e-002
3.961071e+003, 2.245130e-002
3.962999e+003, 1.943290e-002
3.964927e+003, 1.481170e-002
3.966856e+003, 1.652770e-002
3.968784e+003, 1.940874e-002
3.970713e+003, 1.840831e-002
3.972641e+003, 1.956525e-002
3.974570e+003, 2.016157e-002
3.976498e+003, 2.035146e-002
3.978427e+003, 1.871882e-002
3.980355e+003, 1.545062e-002
3.982284e+003, 1.389023e-002
3.984212e+003, 1.549396e-002
3.986141e+003, 1.851067e-002
3.988069e+003, 2.002324e-002
3.989998e+003, 1.533332e-002
3.991926e+003, 1.362962e-002
3.993854e+003, 1.618224e-002
3.995783e+003, 2.123953e-002
3.997711e+003, 2.340006e-002
3.999640e+003, 2.288032e-002
4.001568e+003, 0.000000e+000
##END=



