##NAMES=Hambergite
##RRUFFID=R050672
##IDEAL CHEMISTRY=Be_2_BO_3_(OH)
##LOCALITY=Anjanabonoina, Madagascar
##OWNER=RRUFF
##SOURCE=University of Arizona Mineral Museum
##DESCRIPTION=Pale gray prismatic crystal
##STATUS=The identification of this mineral has been confirmed by X-ray diffraction.
##URL=rruff.info/R050672
3.991926e+002, 2.450771e-001
4.011211e+002, 2.347803e-001
4.030495e+002, 2.161262e-001
4.049780e+002, 1.942176e-001
4.069065e+002, 1.915818e-001
4.088349e+002, 1.957920e-001
4.107634e+002, 2.000059e-001
4.126919e+002, 2.079995e-001
4.146203e+002, 2.186914e-001
4.165488e+002, 2.308512e-001
4.184773e+002, 2.378294e-001
4.204057e+002, 2.294711e-001
4.223342e+002, 2.057144e-001
4.242627e+002, 1.995093e-001
4.261911e+002, 2.121389e-001
4.281196e+002, 2.285501e-001
4.300481e+002, 2.464483e-001
4.319765e+002, 2.634073e-001
4.339050e+002, 2.851213e-001
4.358335e+002, 3.081560e-001
4.377619e+002, 3.210961e-001
4.396904e+002, 3.216174e-001
4.416189e+002, 2.934484e-001
4.435473e+002, 2.499069e-001
4.454758e+002, 2.309152e-001
4.474043e+002, 2.319389e-001
4.493327e+002, 2.062875e-001
4.512612e+002, 1.538161e-001
4.531897e+002, 1.069805e-001
4.551181e+002, 8.318608e-002
4.570466e+002, 7.831965e-002
4.589751e+002, 8.040862e-002
4.609035e+002, 8.460561e-002
4.628320e+002, 9.061921e-002
4.647605e+002, 9.781382e-002
4.666889e+002, 1.046821e-001
4.686174e+002, 1.100935e-001
4.705459e+002, 1.121143e-001
4.724743e+002, 1.118883e-001
4.744028e+002, 1.142016e-001
4.763313e+002, 1.190534e-001
4.782597e+002, 1.243702e-001
4.801882e+002, 1.288860e-001
4.821167e+002, 1.328820e-001
4.840451e+002, 1.373127e-001
4.859736e+002, 1.417305e-001
4.879021e+002, 1.450579e-001
4.898305e+002, 1.489406e-001
4.917590e+002, 1.529951e-001
4.936875e+002, 1.566781e-001
4.956159e+002, 1.596167e-001
4.975444e+002, 1.630383e-001
4.994729e+002, 1.676659e-001
5.014013e+002, 1.725401e-001
5.033298e+002, 1.750624e-001
5.052583e+002, 1.773177e-001
5.071867e+002, 1.810586e-001
5.091152e+002, 1.848189e-001
5.110437e+002, 1.876759e-001
5.129721e+002, 1.905605e-001
5.149006e+002, 1.945017e-001
5.168290e+002, 1.986387e-001
5.187575e+002, 2.018228e-001
5.206860e+002, 2.053939e-001
5.226144e+002, 2.086513e-001
5.245429e+002, 2.117230e-001
5.264714e+002, 2.151252e-001
5.283998e+002, 2.193989e-001
5.303283e+002, 2.230229e-001
5.322568e+002, 2.260059e-001
5.341852e+002, 2.292626e-001
5.361137e+002, 2.322612e-001
5.380422e+002, 2.352652e-001
5.399706e+002, 2.390857e-001
5.418991e+002, 2.424551e-001
5.438276e+002, 2.458421e-001
5.457560e+002, 2.493413e-001
5.476845e+002, 2.516823e-001
5.496130e+002, 2.537549e-001
5.515414e+002, 2.571742e-001
5.534699e+002, 2.599926e-001
5.553984e+002, 2.619852e-001
5.573268e+002, 2.630978e-001
5.592553e+002, 2.624309e-001
5.611838e+002, 2.624312e-001
5.631122e+002, 2.627797e-001
5.650407e+002, 2.625569e-001
5.669692e+002, 2.628938e-001
5.688976e+002, 2.638669e-001
5.708261e+002, 2.656525e-001
5.727546e+002, 2.698707e-001
5.746830e+002, 2.756819e-001
5.766115e+002, 2.808643e-001
5.785400e+002, 2.867310e-001
5.804684e+002, 2.944263e-001
5.823969e+002, 3.024310e-001
5.843254e+002, 3.086934e-001
5.862538e+002, 3.144382e-001
5.881823e+002, 3.192693e-001
5.901108e+002, 3.254763e-001
5.920392e+002, 3.349850e-001
5.939677e+002, 3.457189e-001
5.958962e+002, 3.565256e-001
5.978246e+002, 3.622568e-001
5.997531e+002, 3.545585e-001
6.016816e+002, 3.312104e-001
6.036100e+002, 3.050035e-001
6.055385e+002, 2.917019e-001
6.074670e+002, 2.923464e-001
6.093954e+002, 2.996051e-001
6.113239e+002, 3.081161e-001
6.132524e+002, 3.154650e-001
6.151808e+002, 3.219386e-001
6.171093e+002, 3.289750e-001
6.190378e+002, 3.355218e-001
6.209662e+002, 3.406177e-001
6.228947e+002, 3.469691e-001
6.248232e+002, 3.531495e-001
6.267516e+002, 3.589612e-001
6.286801e+002, 3.661906e-001
6.306086e+002, 3.741273e-001
6.325370e+002, 3.825085e-001
6.344655e+002, 3.900006e-001
6.363940e+002, 3.967157e-001
6.383224e+002, 4.057454e-001
6.402509e+002, 4.144632e-001
6.421794e+002, 4.209833e-001
6.441078e+002, 4.266482e-001
6.460363e+002, 4.259450e-001
6.479648e+002, 4.105112e-001
6.498932e+002, 3.867602e-001
6.518217e+002, 3.659383e-001
6.537502e+002, 3.468310e-001
6.556786e+002, 3.314280e-001
6.576071e+002, 3.284689e-001
6.595356e+002, 3.367444e-001
6.614641e+002, 3.486143e-001
6.633925e+002, 3.596911e-001
6.653210e+002, 3.720918e-001
6.672495e+002, 3.853881e-001
6.691779e+002, 3.976187e-001
6.711064e+002, 4.083467e-001
6.730349e+002, 4.174234e-001
6.749633e+002, 4.253744e-001
6.768918e+002, 4.333673e-001
6.788203e+002, 4.404713e-001
6.807487e+002, 4.478782e-001
6.826772e+002, 4.552495e-001
6.846057e+002, 4.621406e-001
6.865341e+002, 4.691803e-001
6.884626e+002, 4.768061e-001
6.903911e+002, 4.836997e-001
6.923195e+002, 4.905425e-001
6.942480e+002, 4.972469e-001
6.961765e+002, 5.031041e-001
6.981049e+002, 5.091324e-001
7.000334e+002, 5.135562e-001
7.019619e+002, 5.148251e-001
7.038903e+002, 5.132986e-001
7.058188e+002, 5.093011e-001
7.077473e+002, 5.069405e-001
7.096757e+002, 5.107273e-001
7.116042e+002, 5.190442e-001
7.135327e+002, 5.257143e-001
7.154611e+002, 5.297250e-001
7.173896e+002, 5.305938e-001
7.193181e+002, 5.264542e-001
7.212465e+002, 5.156437e-001
7.231750e+002, 5.034333e-001
7.251035e+002, 5.009112e-001
7.270319e+002, 5.064673e-001
7.289604e+002, 5.106100e-001
7.308889e+002, 5.126592e-001
7.328173e+002, 5.123957e-001
7.347458e+002, 5.078912e-001
7.366743e+002, 4.997100e-001
7.386027e+002, 4.887438e-001
7.405312e+002, 4.748648e-001
7.424597e+002, 4.596088e-001
7.443881e+002, 4.437256e-001
7.463166e+002, 4.300777e-001
7.482451e+002, 4.208312e-001
7.501735e+002, 4.162994e-001
7.521020e+002, 4.160722e-001
7.540305e+002, 4.177057e-001
7.559589e+002, 4.175152e-001
7.578874e+002, 4.155587e-001
7.598159e+002, 4.124188e-001
7.617443e+002, 4.097836e-001
7.636728e+002, 4.067666e-001
7.656013e+002, 4.027817e-001
7.675297e+002, 3.959891e-001
7.694582e+002, 3.845841e-001
7.713867e+002, 3.677314e-001
7.733151e+002, 3.469878e-001
7.752436e+002, 3.251965e-001
7.771721e+002, 3.032987e-001
7.791005e+002, 2.830549e-001
7.810290e+002, 2.678600e-001
7.829575e+002, 2.619604e-001
7.848859e+002, 2.667373e-001
7.868144e+002, 2.785062e-001
7.887429e+002, 2.905092e-001
7.906713e+002, 3.002060e-001
7.925998e+002, 3.082179e-001
7.945283e+002, 3.129705e-001
7.964567e+002, 3.130523e-001
7.983852e+002, 3.065157e-001
8.003137e+002, 2.938322e-001
8.022421e+002, 2.777254e-001
8.041706e+002, 2.616305e-001
8.060991e+002, 2.495986e-001
8.080275e+002, 2.463010e-001
8.099560e+002, 2.529430e-001
8.118845e+002, 2.648793e-001
8.138129e+002, 2.764454e-001
8.157414e+002, 2.871615e-001
8.176699e+002, 2.984127e-001
8.195983e+002, 3.090338e-001
8.215268e+002, 3.168830e-001
8.234553e+002, 3.200292e-001
8.253837e+002, 3.182798e-001
8.273122e+002, 3.127848e-001
8.292407e+002, 3.052220e-001
8.311691e+002, 2.970521e-001
8.330976e+002, 2.892047e-001
8.350261e+002, 2.815964e-001
8.369545e+002, 2.747782e-001
8.388830e+002, 2.694684e-001
8.408115e+002, 2.653309e-001
8.427399e+002, 2.619464e-001
8.446684e+002, 2.588831e-001
8.465969e+002, 2.558691e-001
8.485253e+002, 2.529257e-001
8.504538e+002, 2.495265e-001
8.523823e+002, 2.454550e-001
8.543107e+002, 2.409765e-001
8.562392e+002, 2.361073e-001
8.581677e+002, 2.304968e-001
8.600961e+002, 2.241431e-001
8.620246e+002, 2.169334e-001
8.639531e+002, 2.087315e-001
8.658815e+002, 2.000601e-001
8.678100e+002, 1.913089e-001
8.697385e+002, 1.832456e-001
8.716669e+002, 1.756778e-001
8.735954e+002, 1.682500e-001
8.755239e+002, 1.607721e-001
8.774523e+002, 1.537489e-001
8.793808e+002, 1.473947e-001
8.813093e+002, 1.413317e-001
8.832377e+002, 1.352420e-001
8.851662e+002, 1.294074e-001
8.870947e+002, 1.239517e-001
8.890231e+002, 1.190978e-001
8.909516e+002, 1.143088e-001
8.928801e+002, 1.096580e-001
8.948085e+002, 1.053725e-001
8.967370e+002, 1.015738e-001
8.986655e+002, 9.810615e-002
9.005939e+002, 9.434021e-002
9.025224e+002, 9.037140e-002
9.044509e+002, 8.675390e-002
9.063793e+002, 8.359674e-002
9.083078e+002, 8.078340e-002
9.102363e+002, 7.809557e-002
9.121647e+002, 7.535000e-002
9.140932e+002, 7.203608e-002
9.160217e+002, 6.812489e-002
9.179501e+002, 6.431214e-002
9.198786e+002, 6.067193e-002
9.218071e+002, 5.730562e-002
9.237355e+002, 5.482653e-002
9.256640e+002, 5.339240e-002
9.275925e+002, 5.203431e-002
9.295209e+002, 4.971966e-002
9.314494e+002, 4.590875e-002
9.333779e+002, 4.103811e-002
9.353063e+002, 3.641176e-002
9.372348e+002, 3.289415e-002
9.391633e+002, 2.977416e-002
9.410917e+002, 2.691575e-002
9.430202e+002, 2.483188e-002
9.449487e+002, 2.318292e-002
9.468771e+002, 2.200118e-002
9.488056e+002, 2.081692e-002
9.507341e+002, 1.971094e-002
9.526625e+002, 1.874791e-002
9.545910e+002, 1.813029e-002
9.565195e+002, 1.764114e-002
9.584479e+002, 1.734740e-002
9.603764e+002, 1.695742e-002
9.623049e+002, 1.668586e-002
9.642333e+002, 1.654374e-002
9.661618e+002, 1.636625e-002
9.680903e+002, 1.607712e-002
9.700187e+002, 1.589755e-002
9.719472e+002, 1.553558e-002
9.738757e+002, 1.536514e-002
9.758041e+002, 1.528521e-002
9.777326e+002, 1.516975e-002
9.796611e+002, 1.521323e-002
9.815895e+002, 1.508632e-002
9.835180e+002, 1.489248e-002
9.854465e+002, 1.500311e-002
9.873749e+002, 1.522405e-002
9.893034e+002, 1.533412e-002
9.912319e+002, 1.534852e-002
9.931603e+002, 1.539168e-002
9.950888e+002, 1.557652e-002
9.970173e+002, 1.593945e-002
9.989457e+002, 1.631066e-002
1.000874e+003, 1.663741e-002
1.002803e+003, 1.725804e-002
1.004731e+003, 1.831323e-002
1.006660e+003, 1.955707e-002
1.008588e+003, 2.125401e-002
1.010517e+003, 2.311168e-002
1.012445e+003, 2.465717e-002
1.014373e+003, 2.510670e-002
1.016302e+003, 2.460837e-002
1.018230e+003, 2.378260e-002
1.020159e+003, 2.344603e-002
1.022087e+003, 2.384845e-002
1.024016e+003, 2.440880e-002
1.025944e+003, 2.443674e-002
1.027873e+003, 2.352877e-002
1.029801e+003, 2.201874e-002
1.031730e+003, 2.060413e-002
1.033658e+003, 1.958427e-002
1.035587e+003, 1.894037e-002
1.037515e+003, 1.839479e-002
1.039443e+003, 1.809636e-002
1.041372e+003, 1.787191e-002
1.043300e+003, 1.764770e-002
1.045229e+003, 1.756752e-002
1.047157e+003, 1.750675e-002
1.049086e+003, 1.752537e-002
1.051014e+003, 1.751076e-002
1.052943e+003, 1.749685e-002
1.054871e+003, 1.752700e-002
1.056800e+003, 1.749255e-002
1.058728e+003, 1.758187e-002
1.060657e+003, 1.778529e-002
1.062585e+003, 1.780738e-002
1.064514e+003, 1.773079e-002
1.066442e+003, 1.778498e-002
1.068370e+003, 1.801232e-002
1.070299e+003, 1.833740e-002
1.072227e+003, 1.863350e-002
1.074156e+003, 1.910223e-002
1.076084e+003, 1.962323e-002
1.078013e+003, 1.988486e-002
1.079941e+003, 2.031258e-002
1.081870e+003, 2.100046e-002
1.083798e+003, 2.165467e-002
1.085727e+003, 2.244966e-002
1.087655e+003, 2.340493e-002
1.089584e+003, 2.432369e-002
1.091512e+003, 2.548544e-002
1.093441e+003, 2.696707e-002
1.095369e+003, 2.870646e-002
1.097297e+003, 3.064735e-002
1.099226e+003, 3.303090e-002
1.101154e+003, 3.559489e-002
1.103083e+003, 3.767793e-002
1.105011e+003, 3.912848e-002
1.106940e+003, 4.007429e-002
1.108868e+003, 4.085984e-002
1.110797e+003, 4.170877e-002
1.112725e+003, 4.321261e-002
1.114654e+003, 4.530575e-002
1.116582e+003, 4.800696e-002
1.118511e+003, 5.151220e-002
1.120439e+003, 5.585413e-002
1.122368e+003, 6.111856e-002
1.124296e+003, 6.749194e-002
1.126224e+003, 7.497368e-002
1.128153e+003, 8.351063e-002
1.130081e+003, 9.342958e-002
1.132010e+003, 1.049344e-001
1.133938e+003, 1.180383e-001
1.135867e+003, 1.330980e-001
1.137795e+003, 1.502073e-001
1.139724e+003, 1.692245e-001
1.141652e+003, 1.894461e-001
1.143581e+003, 2.095831e-001
1.145509e+003, 2.281728e-001
1.147438e+003, 2.438875e-001
1.149366e+003, 2.551045e-001
1.151295e+003, 2.611252e-001
1.153223e+003, 2.621359e-001
1.155151e+003, 2.587039e-001
1.157080e+003, 2.515879e-001
1.159008e+003, 2.421830e-001
1.160937e+003, 2.308290e-001
1.162865e+003, 2.174227e-001
1.164794e+003, 2.023230e-001
1.166722e+003, 1.857863e-001
1.168651e+003, 1.685169e-001
1.170579e+003, 1.514961e-001
1.172508e+003, 1.351936e-001
1.174436e+003, 1.201284e-001
1.176365e+003, 1.067778e-001
1.178293e+003, 9.527342e-002
1.180222e+003, 8.574486e-002
1.182150e+003, 7.791577e-002
1.184078e+003, 7.156255e-002
1.186007e+003, 6.661715e-002
1.187935e+003, 6.276905e-002
1.189864e+003, 5.977568e-002
1.191792e+003, 5.746623e-002
1.193721e+003, 5.578618e-002
1.195649e+003, 5.460155e-002
1.197578e+003, 5.391992e-002
1.199506e+003, 5.357281e-002
1.201435e+003, 5.365114e-002
1.203363e+003, 5.403103e-002
1.205292e+003, 5.450695e-002
1.207220e+003, 5.535284e-002
1.209149e+003, 5.659787e-002
1.211077e+003, 5.794512e-002
1.213005e+003, 5.957130e-002
1.214934e+003, 6.135692e-002
1.216862e+003, 6.339476e-002
1.218791e+003, 6.591272e-002
1.220719e+003, 6.857000e-002
1.222648e+003, 7.140797e-002
1.224576e+003, 7.454006e-002
1.226505e+003, 7.800736e-002
1.228433e+003, 8.176480e-002
1.230362e+003, 8.589146e-002
1.232290e+003, 9.029083e-002
1.234219e+003, 9.487382e-002
1.236147e+003, 1.001937e-001
1.238076e+003, 1.059276e-001
1.240004e+003, 1.119793e-001
1.241932e+003, 1.185611e-001
1.243861e+003, 1.256584e-001
1.245789e+003, 1.333859e-001
1.247718e+003, 1.414565e-001
1.249646e+003, 1.501430e-001
1.251575e+003, 1.599264e-001
1.253503e+003, 1.703434e-001
1.255432e+003, 1.814157e-001
1.257360e+003, 1.930977e-001
1.259289e+003, 2.056151e-001
1.261217e+003, 2.191550e-001
1.263146e+003, 2.336101e-001
1.265074e+003, 2.490272e-001
1.267003e+003, 2.657121e-001
1.268931e+003, 2.834551e-001
1.270859e+003, 3.019426e-001
1.272788e+003, 3.215779e-001
1.274716e+003, 3.421245e-001
1.276645e+003, 3.631410e-001
1.278573e+003, 3.851703e-001
1.280502e+003, 4.074089e-001
1.282430e+003, 4.290820e-001
1.284359e+003, 4.492894e-001
1.286287e+003, 4.664260e-001
1.288216e+003, 4.789729e-001
1.290144e+003, 4.865837e-001
1.292073e+003, 4.903485e-001
1.294001e+003, 4.903584e-001
1.295930e+003, 4.863302e-001
1.297858e+003, 4.789695e-001
1.299786e+003, 4.690927e-001
1.301715e+003, 4.572617e-001
1.303643e+003, 4.440873e-001
1.305572e+003, 4.300854e-001
1.307500e+003, 4.157642e-001
1.309429e+003, 4.016701e-001
1.311357e+003, 3.879023e-001
1.313286e+003, 3.745186e-001
1.315214e+003, 3.615358e-001
1.317143e+003, 3.487570e-001
1.319071e+003, 3.360913e-001
1.321000e+003, 3.243507e-001
1.322928e+003, 3.133647e-001
1.324857e+003, 3.028746e-001
1.326785e+003, 2.928914e-001
1.328714e+003, 2.832971e-001
1.330642e+003, 2.744207e-001
1.332570e+003, 2.662922e-001
1.334499e+003, 2.582591e-001
1.336427e+003, 2.508006e-001
1.338356e+003, 2.437998e-001
1.340284e+003, 2.373542e-001
1.342213e+003, 2.314886e-001
1.344141e+003, 2.260176e-001
1.346070e+003, 2.207362e-001
1.347998e+003, 2.154260e-001
1.349927e+003, 2.103167e-001
1.351855e+003, 2.052934e-001
1.353784e+003, 2.003761e-001
1.355712e+003, 1.961572e-001
1.357641e+003, 1.923470e-001
1.359569e+003, 1.885524e-001
1.361497e+003, 1.849883e-001
1.363426e+003, 1.816779e-001
1.365354e+003, 1.783498e-001
1.367283e+003, 1.749864e-001
1.369211e+003, 1.713661e-001
1.371140e+003, 1.675465e-001
1.373068e+003, 1.639770e-001
1.374997e+003, 1.605541e-001
1.376925e+003, 1.571321e-001
1.378854e+003, 1.542977e-001
1.380782e+003, 1.522513e-001
1.382711e+003, 1.504757e-001
1.384639e+003, 1.487420e-001
1.386568e+003, 1.473014e-001
1.388496e+003, 1.457571e-001
1.390424e+003, 1.440538e-001
1.392353e+003, 1.419346e-001
1.394281e+003, 1.394500e-001
1.396210e+003, 1.363625e-001
1.398138e+003, 1.330032e-001
1.400067e+003, 1.294194e-001
1.401995e+003, 1.261101e-001
1.403924e+003, 1.231822e-001
1.405852e+003, 1.208497e-001
1.407781e+003, 1.190813e-001
1.409709e+003, 1.179773e-001
1.411638e+003, 1.174928e-001
1.413566e+003, 1.169375e-001
1.415495e+003, 1.162922e-001
1.417423e+003, 1.153864e-001
1.419351e+003, 1.131800e-001
1.421280e+003, 1.097279e-001
1.423208e+003, 1.053934e-001
1.425137e+003, 1.004550e-001
1.427065e+003, 9.483206e-002
1.428994e+003, 8.896554e-002
1.430922e+003, 8.267161e-002
1.432851e+003, 7.618445e-002
1.434779e+003, 6.999701e-002
1.436708e+003, 6.380677e-002
1.438636e+003, 5.732651e-002
1.440565e+003, 5.124465e-002
1.442493e+003, 4.545413e-002
1.444422e+003, 3.973648e-002
1.446350e+003, 3.463789e-002
1.448278e+003, 3.009889e-002
1.450207e+003, 2.591478e-002
1.452135e+003, 2.281631e-002
1.454064e+003, 2.062840e-002
1.455992e+003, 1.937858e-002
1.457921e+003, 1.794152e-002
1.459849e+003, 1.634458e-002
1.461778e+003, 1.539806e-002
1.463706e+003, 1.481861e-002
1.465635e+003, 1.419753e-002
1.467563e+003, 1.359353e-002
1.469492e+003, 1.304451e-002
1.471420e+003, 1.265323e-002
1.473349e+003, 1.222849e-002
1.475277e+003, 1.177412e-002
1.477205e+003, 1.133212e-002
1.479134e+003, 1.088710e-002
1.481062e+003, 1.053345e-002
1.482991e+003, 1.017320e-002
1.484919e+003, 9.839234e-003
1.486848e+003, 9.519096e-003
1.488776e+003, 9.272326e-003
1.490705e+003, 9.081586e-003
1.492633e+003, 8.705597e-003
1.494562e+003, 8.587717e-003
1.496490e+003, 8.578601e-003
1.498419e+003, 8.353802e-003
1.500347e+003, 7.955347e-003
1.502276e+003, 7.746624e-003
1.504204e+003, 7.832832e-003
1.506132e+003, 8.095605e-003
1.508061e+003, 7.673414e-003
1.509989e+003, 7.194605e-003
1.511918e+003, 6.981079e-003
1.513846e+003, 6.967171e-003
1.515775e+003, 6.913312e-003
1.517703e+003, 6.742132e-003
1.519632e+003, 6.560323e-003
1.521560e+003, 6.421661e-003
1.523489e+003, 5.995811e-003
1.525417e+003, 5.878456e-003
1.527346e+003, 5.846114e-003
1.529274e+003, 5.595596e-003
1.531203e+003, 5.591806e-003
1.533131e+003, 5.774121e-003
1.535059e+003, 5.602864e-003
1.536988e+003, 5.444402e-003
1.538916e+003, 5.689552e-003
1.540845e+003, 5.475874e-003
1.542773e+003, 4.974443e-003
1.544702e+003, 4.968698e-003
1.546630e+003, 4.850595e-003
1.548559e+003, 4.835971e-003
1.550487e+003, 4.783058e-003
1.552416e+003, 4.694160e-003
1.554344e+003, 4.624018e-003
1.556273e+003, 4.769955e-003
1.558201e+003, 5.289044e-003
1.560130e+003, 5.580006e-003
1.562058e+003, 5.056594e-003
1.563986e+003, 4.508918e-003
1.565915e+003, 4.265174e-003
1.567843e+003, 4.301218e-003
1.569772e+003, 4.357126e-003
1.571700e+003, 3.954217e-003
1.573629e+003, 3.839665e-003
1.575557e+003, 4.025252e-003
1.577486e+003, 3.856487e-003
1.579414e+003, 3.603269e-003
1.581343e+003, 3.357837e-003
1.583271e+003, 3.370261e-003
1.585200e+003, 3.462412e-003
1.587128e+003, 3.230517e-003
1.589057e+003, 3.149068e-003
1.590985e+003, 3.403739e-003
1.592913e+003, 3.380231e-003
1.594842e+003, 2.991477e-003
1.596770e+003, 2.791453e-003
1.598699e+003, 2.848969e-003
1.600627e+003, 2.966004e-003
1.602556e+003, 2.843046e-003
1.604484e+003, 2.547226e-003
1.606413e+003, 2.651903e-003
1.608341e+003, 2.742287e-003
1.610270e+003, 2.640275e-003
1.612198e+003, 2.755835e-003
1.614127e+003, 2.966902e-003
1.616055e+003, 2.939474e-003
1.617984e+003, 2.543314e-003
1.619912e+003, 2.006948e-003
1.621840e+003, 2.043991e-003
1.623769e+003, 2.051331e-003
1.625697e+003, 1.840302e-003
1.627626e+003, 1.639371e-003
1.629554e+003, 1.385917e-003
1.631483e+003, 1.261746e-003
1.633411e+003, 1.740679e-003
1.635340e+003, 2.132251e-003
1.637268e+003, 1.771764e-003
1.639197e+003, 1.129742e-003
1.641125e+003, 9.308368e-004
1.643054e+003, 9.779948e-004
1.644982e+003, 8.741391e-004
1.646911e+003, 1.102047e-003
1.648839e+003, 1.080959e-003
1.650767e+003, 1.135854e-003
1.652696e+003, 1.611877e-003
1.654624e+003, 9.872427e-004
1.656553e+003, 4.848269e-004
1.658481e+003, 5.143163e-004
1.660410e+003, 2.538339e-004
1.662338e+003, 2.175436e-004
1.664267e+003, 2.736206e-004
1.666195e+003, 3.059710e-004
1.668124e+003, 4.933571e-004
1.670052e+003, 2.985969e-004
1.671981e+003, -1.540089e-005
1.673909e+003, -5.812329e-005
1.675838e+003, -2.332141e-006
1.677766e+003, -1.516369e-004
1.679694e+003, -3.647834e-004
1.681623e+003, -2.457350e-004
1.683551e+003, 1.119090e-004
1.685480e+003, -1.689169e-004
1.687408e+003, -5.839218e-004
1.689337e+003, -5.317334e-004
1.691265e+003, -3.886919e-004
1.693194e+003, -6.793099e-004
1.695122e+003, -4.720944e-004
1.697051e+003, -2.413003e-004
1.698979e+003, -2.790531e-004
1.700908e+003, -2.788065e-004
1.702836e+003, -5.782670e-004
1.704765e+003, -7.190530e-004
1.706693e+003, -7.934189e-004
1.708621e+003, -8.552772e-004
1.710550e+003, -1.248008e-003
1.712478e+003, -1.522060e-003
1.714407e+003, -9.382853e-004
1.716335e+003, -5.796690e-004
1.718264e+003, -7.688828e-004
1.720192e+003, -1.137021e-003
1.722121e+003, -1.307091e-003
1.724049e+003, -1.252554e-003
1.725978e+003, -1.310988e-003
1.727906e+003, -1.197225e-003
1.729835e+003, -1.164512e-003
1.731763e+003, -1.045832e-003
1.733692e+003, -9.542900e-004
1.735620e+003, -1.615223e-003
1.737548e+003, -1.873368e-003
1.739477e+003, -1.907241e-003
1.741405e+003, -2.212778e-003
1.743334e+003, -2.236769e-003
1.745262e+003, -1.771674e-003
1.747191e+003, -1.521945e-003
1.749119e+003, -1.563880e-003
1.751048e+003, -1.479213e-003
1.752976e+003, -1.339439e-003
1.754905e+003, -1.495296e-003
1.756833e+003, -1.663543e-003
1.758762e+003, -1.737702e-003
1.760690e+003, -1.554780e-003
1.762619e+003, -1.588189e-003
1.764547e+003, -1.794750e-003
1.766475e+003, -1.643121e-003
1.768404e+003, -1.559604e-003
1.770332e+003, -1.528288e-003
1.772261e+003, -1.537630e-003
1.774189e+003, -1.759983e-003
1.776118e+003, -1.820609e-003
1.778046e+003, -1.707555e-003
1.779975e+003, -1.798203e-003
1.781903e+003, -2.197478e-003
1.783832e+003, -2.117338e-003
1.785760e+003, -1.788168e-003
1.787689e+003, -1.600433e-003
1.789617e+003, -1.890585e-003
1.791546e+003, -1.944909e-003
1.793474e+003, -1.772947e-003
1.795402e+003, -1.791353e-003
1.797331e+003, -2.027580e-003
1.799259e+003, -1.713948e-003
1.801188e+003, -1.286194e-003
1.803116e+003, -1.389977e-003
1.805045e+003, -1.739869e-003
1.806973e+003, -1.982979e-003
1.808902e+003, -2.272966e-003
1.810830e+003, -1.947411e-003
1.812759e+003, -1.583076e-003
1.814687e+003, -1.865784e-003
1.816616e+003, -2.083014e-003
1.818544e+003, -1.901909e-003
1.820473e+003, -1.807340e-003
1.822401e+003, -1.758345e-003
1.824329e+003, -1.381228e-003
1.826258e+003, -1.284643e-003
1.828186e+003, -1.701308e-003
1.830115e+003, -2.058092e-003
1.832043e+003, -2.230256e-003
1.833972e+003, -2.223696e-003
1.835900e+003, -2.338189e-003
1.837829e+003, -2.414594e-003
1.839757e+003, -2.369783e-003
1.841686e+003, -1.768245e-003
1.843614e+003, -9.636074e-004
1.845543e+003, -9.702955e-004
1.847471e+003, -8.708498e-004
1.849400e+003, -1.143064e-003
1.851328e+003, -1.477352e-003
1.853256e+003, -1.305228e-003
1.855185e+003, -1.520679e-003
1.857113e+003, -1.551064e-003
1.859042e+003, -1.585811e-003
1.860970e+003, -1.821768e-003
1.862899e+003, -1.575363e-003
1.864827e+003, -1.537771e-003
1.866756e+003, -1.869951e-003
1.868684e+003, -1.250936e-003
1.870613e+003, -1.024457e-003
1.872541e+003, -1.331880e-003
1.874470e+003, -1.182499e-003
1.876398e+003, -1.138208e-003
1.878327e+003, -1.490758e-003
1.880255e+003, -2.047303e-003
1.882183e+003, -2.412867e-003
1.884112e+003, -2.310264e-003
1.886040e+003, -2.167045e-003
1.887969e+003, -1.752447e-003
1.889897e+003, -1.722369e-003
1.891826e+003, -1.646745e-003
1.893754e+003, -1.528870e-003
1.895683e+003, -1.859760e-003
1.897611e+003, -1.929903e-003
1.899540e+003, -1.932367e-003
1.901468e+003, -1.769001e-003
1.903397e+003, -2.039095e-003
1.905325e+003, -2.429063e-003
1.907254e+003, -2.220474e-003
1.909182e+003, -1.408022e-003
1.911110e+003, -1.087047e-003
1.913039e+003, -1.466298e-003
1.914967e+003, -2.773302e-003
1.916896e+003, -3.439246e-003
1.918824e+003, -2.876213e-003
1.920753e+003, -1.916295e-003
1.922681e+003, -1.388341e-003
1.924610e+003, -1.595789e-003
1.926538e+003, -1.096651e-003
1.928467e+003, -1.128361e-004
1.930395e+003, -1.507375e-003
1.932324e+003, -2.779996e-003
1.934252e+003, -2.631941e-003
1.936181e+003, -1.331029e-003
1.938109e+003, -1.581792e-003
1.940037e+003, -2.559004e-003
1.941966e+003, -3.072798e-003
1.943894e+003, -3.411994e-003
1.945823e+003, -3.389179e-003
1.947751e+003, -3.369848e-003
1.949680e+003, -3.521677e-003
1.951608e+003, -2.909244e-003
1.953537e+003, -2.742191e-003
1.955465e+003, -2.598733e-003
1.957394e+003, -2.462205e-003
1.959322e+003, -2.316963e-003
1.961251e+003, -2.991744e-003
1.963179e+003, -3.924022e-003
1.965108e+003, -4.117952e-003
1.967036e+003, -3.281940e-003
1.968964e+003, -2.924389e-003
1.970893e+003, -3.100805e-003
1.972821e+003, -3.193781e-003
1.974750e+003, -4.589557e-003
1.976678e+003, -5.182298e-003
1.978607e+003, -4.019005e-003
1.980535e+003, -2.713105e-003
1.982464e+003, -2.998182e-003
1.984392e+003, -3.168295e-003
1.986321e+003, -3.081993e-003
1.988249e+003, -3.185414e-003
1.990178e+003, -3.151054e-003
1.992106e+003, -3.214940e-003
1.994035e+003, -2.896896e-003
1.995963e+003, -1.746962e-003
1.997891e+003, -1.952436e-003
1.999820e+003, -4.015332e-003
2.001748e+003, -4.770980e-003
2.003677e+003, -4.588899e-003
2.005605e+003, -4.928334e-003
2.007534e+003, -3.626575e-003
2.009462e+003, -4.398265e-003
2.011391e+003, -5.542878e-003
2.013319e+003, -4.430867e-003
2.015248e+003, -3.550869e-003
2.017176e+003, -3.169827e-003
2.019105e+003, -3.237915e-003
2.021033e+003, -5.320416e-003
2.022962e+003, -6.164020e-003
2.024890e+003, -5.047637e-003
2.026818e+003, -3.270960e-003
2.028747e+003, -2.961997e-003
2.030675e+003, -1.839656e-003
2.032604e+003, -6.209302e-005
2.034532e+003, 3.976871e-004
2.036461e+003, -1.122428e-003
2.038389e+003, -2.346741e-003
2.040318e+003, -3.968848e-003
2.042246e+003, -3.787864e-003
2.044175e+003, -3.315300e-003
2.046103e+003, -3.567221e-003
2.048031e+003, -3.093691e-003
2.049960e+003, -2.869619e-003
2.051888e+003, -3.324762e-003
2.053817e+003, -2.394229e-003
2.055745e+003, -2.648608e-003
2.057674e+003, -3.575985e-003
2.059602e+003, -3.589533e-003
2.061531e+003, -2.768154e-003
2.063459e+003, -2.522131e-003
2.065388e+003, -2.762759e-003
2.067316e+003, -2.320401e-003
2.069245e+003, -1.094002e-003
2.071173e+003, -8.898492e-004
2.073102e+003, -1.433179e-003
2.075030e+003, -2.045450e-003
2.076958e+003, -1.067149e-003
2.078887e+003, -1.678813e-003
2.080815e+003, -2.919410e-003
2.082744e+003, -3.289983e-003
2.084672e+003, -3.098033e-003
2.086601e+003, -2.592816e-003
2.088529e+003, -2.930784e-003
2.090458e+003, -3.032422e-003
2.092386e+003, -2.688142e-003
2.094315e+003, -2.184022e-003
2.096243e+003, -1.142614e-003
2.098172e+003, -1.255100e-003
2.100100e+003, -1.240479e-003
2.102029e+003, -9.053323e-004
2.103957e+003, -1.521743e-003
2.105885e+003, -2.154183e-003
2.107814e+003, -2.646961e-003
2.109742e+003, -3.023818e-003
2.111671e+003, -1.828823e-003
2.113599e+003, -7.164287e-004
2.115528e+003, -7.072765e-004
2.117456e+003, -9.105050e-004
2.119385e+003, -1.110832e-003
2.121313e+003, -9.601213e-004
2.123242e+003, -1.143137e-003
2.125170e+003, -1.762576e-003
2.127099e+003, -2.199718e-003
2.129027e+003, -3.221313e-003
2.130956e+003, -3.674858e-003
2.132884e+003, -3.465790e-003
2.134813e+003, -3.261646e-003
2.136741e+003, -3.962706e-003
2.138669e+003, -4.201644e-003
2.140598e+003, -4.064279e-003
2.142526e+003, -2.447727e-003
2.144455e+003, -1.754954e-003
2.146383e+003, -3.076688e-003
2.148312e+003, -4.131085e-003
2.150240e+003, -5.800337e-003
2.152169e+003, -6.872138e-003
2.154097e+003, -6.368171e-003
2.156026e+003, -6.251328e-003
2.157954e+003, -5.318339e-003
2.159883e+003, -4.647036e-003
2.161811e+003, -4.354489e-003
2.163740e+003, -3.704401e-003
2.165668e+003, -2.345976e-003
2.167596e+003, -8.696405e-004
2.169525e+003, -1.332526e-003
2.171453e+003, -3.309883e-003
2.173382e+003, -4.430621e-003
2.175310e+003, -4.604632e-003
2.177239e+003, -3.268882e-003
2.179167e+003, -3.567972e-003
2.181096e+003, -4.200746e-003
2.183024e+003, -3.462443e-003
2.184953e+003, -3.690672e-003
2.186881e+003, -4.079359e-003
2.188810e+003, -4.026412e-003
2.190738e+003, -3.641586e-003
2.192667e+003, -1.642985e-003
2.194595e+003, -1.758535e-003
2.196523e+003, -2.942017e-003
2.198452e+003, -3.484299e-003
2.200380e+003, -3.117973e-003
2.202309e+003, -2.665794e-003
2.204237e+003, -2.906842e-003
2.206166e+003, -3.944270e-003
2.208094e+003, -3.726482e-003
2.210023e+003, -3.572094e-003
2.211951e+003, -3.582950e-003
2.213880e+003, -3.778114e-003
2.215808e+003, -3.993826e-003
2.217737e+003, -3.044563e-003
2.219665e+003, -2.409898e-003
2.221594e+003, -2.765769e-003
2.223522e+003, -3.112652e-003
2.225450e+003, -3.685256e-003
2.227379e+003, -2.725652e-003
2.229307e+003, -2.087342e-003
2.231236e+003, -3.190213e-003
2.233164e+003, -3.005257e-003
2.235093e+003, -2.418522e-003
2.237021e+003, -2.569654e-003
2.238950e+003, -3.092320e-003
2.240878e+003, -2.060093e-003
2.242807e+003, -1.743759e-003
2.244735e+003, -3.006740e-003
2.246664e+003, -3.806997e-003
2.248592e+003, -3.058031e-003
2.250521e+003, -1.869218e-003
2.252449e+003, -1.822028e-003
2.254377e+003, -1.252608e-003
2.256306e+003, -1.045865e-003
2.258234e+003, -1.229642e-003
2.260163e+003, -1.940609e-003
2.262091e+003, -2.319878e-003
2.264020e+003, -1.802260e-003
2.265948e+003, -1.436133e-003
2.267877e+003, -1.816356e-003
2.269805e+003, -2.330415e-003
2.271734e+003, -1.567792e-003
2.273662e+003, -6.844881e-004
2.275591e+003, -6.569637e-004
2.277519e+003, -1.214215e-003
2.279448e+003, -2.081684e-003
2.281376e+003, -2.340937e-003
2.283304e+003, -2.174438e-003
2.285233e+003, -1.707055e-003
2.287161e+003, -1.455859e-003
2.289090e+003, -1.632248e-003
2.291018e+003, -1.921265e-003
2.292947e+003, -2.143518e-003
2.294875e+003, -1.987033e-003
2.296804e+003, -1.495128e-003
2.298732e+003, -1.315743e-003
2.300661e+003, -1.647348e-003
2.302589e+003, -2.441023e-003
2.304518e+003, -2.657697e-003
2.306446e+003, -2.653823e-003
2.308375e+003, -2.787698e-003
2.310303e+003, -2.796516e-003
2.312231e+003, -1.860674e-003
2.314160e+003, -8.426387e-004
2.316088e+003, -6.092954e-004
2.318017e+003, -9.906843e-004
2.319945e+003, -8.038076e-004
2.321874e+003, -3.568293e-004
2.323802e+003, 6.722058e-005
2.325731e+003, -3.933961e-004
2.327659e+003, -8.859293e-004
2.329588e+003, -4.756790e-004
2.331516e+003, -1.667745e-004
2.333445e+003, -2.814279e-005
2.335373e+003, 5.501687e-004
2.337302e+003, 6.329168e-004
2.339230e+003, 4.480069e-005
2.341158e+003, -4.256262e-004
2.343087e+003, 3.284053e-005
2.345015e+003, 2.410534e-004
2.346944e+003, -2.358301e-004
2.348872e+003, -7.484272e-004
2.350801e+003, -5.718751e-004
2.352729e+003, 2.731144e-004
2.354658e+003, 9.903105e-004
2.356586e+003, 1.740392e-003
2.358515e+003, 2.373419e-003
2.360443e+003, 2.034801e-003
2.362372e+003, 1.525146e-003
2.364300e+003, 1.316779e-003
2.366229e+003, 1.500154e-003
2.368157e+003, 2.127939e-003
2.370085e+003, 2.217339e-003
2.372014e+003, 1.714076e-003
2.373942e+003, 1.579580e-004
2.375871e+003, -9.673571e-004
2.377799e+003, -5.535603e-004
2.379728e+003, -7.733079e-004
2.381656e+003, -9.086100e-004
2.383585e+003, -7.478864e-004
2.385513e+003, -4.185993e-004
2.387442e+003, -1.274313e-004
2.389370e+003, 3.175182e-004
2.391299e+003, -1.049789e-004
2.393227e+003, -2.541960e-004
2.395156e+003, -6.199434e-004
2.397084e+003, -5.549539e-004
2.399012e+003, -1.076519e-003
2.400941e+003, -1.009832e-003
2.402869e+003, -3.073551e-004
2.404798e+003, 8.781179e-005
2.406726e+003, -2.794673e-004
2.408655e+003, -5.674228e-005
2.410583e+003, 4.600749e-005
2.412512e+003, -1.940673e-004
2.414440e+003, -1.100944e-003
2.416369e+003, -1.164126e-003
2.418297e+003, -9.908754e-004
2.420226e+003, -1.094690e-003
2.422154e+003, -9.788251e-004
2.424083e+003, -1.110235e-003
2.426011e+003, -1.119871e-003
2.427939e+003, -4.984150e-004
2.429868e+003, 1.323690e-004
2.431796e+003, -5.587221e-004
2.433725e+003, -2.418904e-003
2.435653e+003, -2.134055e-003
2.437582e+003, -8.389167e-004
2.439510e+003, -5.404588e-004
2.441439e+003, -1.820116e-005
2.443367e+003, -9.391159e-006
2.445296e+003, -5.072419e-004
2.447224e+003, -1.398307e-003
2.449153e+003, -2.191235e-003
2.451081e+003, -1.856886e-003
2.453010e+003, -1.436678e-003
2.454938e+003, -1.519362e-003
2.456866e+003, -2.399020e-003
2.458795e+003, -3.252043e-003
2.460723e+003, -2.830686e-003
2.462652e+003, -2.021220e-003
2.464580e+003, -1.978869e-003
2.466509e+003, -2.305361e-003
2.468437e+003, -2.562420e-003
2.470366e+003, -2.440785e-003
2.472294e+003, -2.855271e-003
2.474223e+003, -2.909989e-003
2.476151e+003, -2.736814e-003
2.478080e+003, -3.048565e-003
2.480008e+003, -3.491931e-003
2.481937e+003, -3.583827e-003
2.483865e+003, -3.667323e-003
2.485793e+003, -2.554636e-003
2.487722e+003, -2.906465e-003
2.489650e+003, -4.376908e-003
2.491579e+003, -4.881576e-003
2.493507e+003, -4.509168e-003
2.495436e+003, -4.466790e-003
2.497364e+003, -4.843731e-003
2.499293e+003, -4.693788e-003
2.501221e+003, -4.164956e-003
2.503150e+003, -4.014644e-003
2.505078e+003, -4.803326e-003
2.507007e+003, -5.197966e-003
2.508935e+003, -5.196752e-003
2.510864e+003, -5.203147e-003
2.512792e+003, -5.543183e-003
2.514720e+003, -5.871448e-003
2.516649e+003, -5.444497e-003
2.518577e+003, -5.041052e-003
2.520506e+003, -6.254707e-003
2.522434e+003, -6.610959e-003
2.524363e+003, -6.076057e-003
2.526291e+003, -5.833272e-003
2.528220e+003, -6.078593e-003
2.530148e+003, -6.214448e-003
2.532077e+003, -6.674923e-003
2.534005e+003, -7.297642e-003
2.535934e+003, -6.952146e-003
2.537862e+003, -6.567388e-003
2.539791e+003, -7.474296e-003
2.541719e+003, -7.889858e-003
2.543647e+003, -7.565254e-003
2.545576e+003, -8.796613e-003
2.547504e+003, -9.156437e-003
2.549433e+003, -7.686991e-003
2.551361e+003, -6.982344e-003
2.553290e+003, -7.655688e-003
2.555218e+003, -8.292411e-003
2.557147e+003, -8.620045e-003
2.559075e+003, -8.401711e-003
2.561004e+003, -8.738966e-003
2.562932e+003, -8.713613e-003
2.564861e+003, -8.548816e-003
2.566789e+003, -8.455227e-003
2.568718e+003, -8.213721e-003
2.570646e+003, -7.773621e-003
2.572574e+003, -7.504312e-003
2.574503e+003, -8.807373e-003
2.576431e+003, -9.427946e-003
2.578360e+003, -9.004993e-003
2.580288e+003, -8.539319e-003
2.582217e+003, -8.115634e-003
2.584145e+003, -8.661268e-003
2.586074e+003, -8.470279e-003
2.588002e+003, -7.666343e-003
2.589931e+003, -8.151892e-003
2.591859e+003, -9.193633e-003
2.593788e+003, -8.325450e-003
2.595716e+003, -6.861493e-003
2.597645e+003, -6.619928e-003
2.599573e+003, -6.037865e-003
2.601501e+003, -6.307845e-003
2.603430e+003, -6.913349e-003
2.605358e+003, -6.462696e-003
2.607287e+003, -5.809482e-003
2.609215e+003, -5.923610e-003
2.611144e+003, -5.594947e-003
2.613072e+003, -5.206918e-003
2.615001e+003, -5.169102e-003
2.616929e+003, -5.651606e-003
2.618858e+003, -5.302056e-003
2.620786e+003, -5.216152e-003
2.622715e+003, -5.605731e-003
2.624643e+003, -5.112151e-003
2.626572e+003, -4.846860e-003
2.628500e+003, -5.206623e-003
2.630428e+003, -5.880035e-003
2.632357e+003, -5.268613e-003
2.634285e+003, -3.990228e-003
2.636214e+003, -3.952238e-003
2.638142e+003, -3.917845e-003
2.640071e+003, -3.304023e-003
2.641999e+003, -3.204828e-003
2.643928e+003, -3.430874e-003
2.645856e+003, -3.493335e-003
2.647785e+003, -3.811938e-003
2.649713e+003, -3.973001e-003
2.651642e+003, -2.992560e-003
2.653570e+003, -2.669341e-003
2.655499e+003, -2.967250e-003
2.657427e+003, -3.318456e-003
2.659355e+003, -3.130276e-003
2.661284e+003, -2.741761e-003
2.663212e+003, -2.470898e-003
2.665141e+003, -2.668734e-003
2.667069e+003, -3.160154e-003
2.668998e+003, -2.997241e-003
2.670926e+003, -2.167693e-003
2.672855e+003, -1.898908e-003
2.674783e+003, -2.426535e-003
2.676712e+003, -2.725271e-003
2.678640e+003, -3.084375e-003
2.680569e+003, -3.145325e-003
2.682497e+003, -3.037489e-003
2.684426e+003, -2.739247e-003
2.686354e+003, -2.253508e-003
2.688282e+003, -2.029560e-003
2.690211e+003, -2.277917e-003
2.692139e+003, -2.157130e-003
2.694068e+003, -2.097105e-003
2.695996e+003, -2.391758e-003
2.697925e+003, -2.218067e-003
2.699853e+003, -1.711674e-003
2.701782e+003, -1.410628e-003
2.703710e+003, -1.828525e-003
2.705639e+003, -1.979748e-003
2.707567e+003, -1.718535e-003
2.709496e+003, -1.065076e-003
2.711424e+003, -1.268044e-003
2.713353e+003, -1.701380e-003
2.715281e+003, -1.747597e-003
2.717209e+003, -1.595011e-003
2.719138e+003, -2.031988e-003
2.721066e+003, -1.648956e-003
2.722995e+003, -7.884737e-004
2.724923e+003, -7.972429e-004
2.726852e+003, -1.222188e-003
2.728780e+003, -9.229637e-004
2.730709e+003, -7.970367e-004
2.732637e+003, -9.175733e-004
2.734566e+003, -1.229175e-003
2.736494e+003, -1.490333e-003
2.738423e+003, -1.374929e-003
2.740351e+003, -1.181252e-003
2.742280e+003, -1.240630e-003
2.744208e+003, -1.459752e-003
2.746136e+003, -1.369623e-003
2.748065e+003, -1.718145e-003
2.749993e+003, -1.548464e-003
2.751922e+003, -1.273320e-003
2.753850e+003, -1.654153e-003
2.755779e+003, -1.417753e-003
2.757707e+003, -1.356136e-003
2.759636e+003, -1.598091e-003
2.761564e+003, -1.527655e-003
2.763493e+003, -1.311785e-003
2.765421e+003, -1.704108e-003
2.767350e+003, -1.498987e-003
2.769278e+003, -1.362101e-003
2.771207e+003, -1.476131e-003
2.773135e+003, -1.339033e-003
2.775063e+003, -1.292478e-003
2.776992e+003, -1.437857e-003
2.778920e+003, -1.148112e-003
2.780849e+003, -9.350509e-004
2.782777e+003, -6.941017e-004
2.784706e+003, -1.430608e-003
2.786634e+003, -2.087774e-003
2.788563e+003, -1.902332e-003
2.790491e+003, -1.441799e-003
2.792420e+003, -8.732984e-004
2.794348e+003, -8.093199e-004
2.796277e+003, -1.014115e-003
2.798205e+003, -1.625612e-003
2.800134e+003, -2.151698e-003
2.802062e+003, -1.939072e-003
2.803990e+003, -8.016211e-004
2.805919e+003, -9.772956e-004
2.807847e+003, -1.708513e-003
2.809776e+003, -1.579616e-003
2.811704e+003, -1.212289e-003
2.813633e+003, -1.558042e-003
2.815561e+003, -1.957355e-003
2.817490e+003, -1.849827e-003
2.819418e+003, -1.869748e-003
2.821347e+003, -1.661741e-003
2.823275e+003, -1.644567e-003
2.825204e+003, -1.846386e-003
2.827132e+003, -2.159354e-003
2.829061e+003, -2.030097e-003
2.830989e+003, -1.282075e-003
2.832917e+003, -1.058916e-003
2.834846e+003, -1.654215e-003
2.836774e+003, -2.525655e-003
2.838703e+003, -1.895592e-003
2.840631e+003, -1.055875e-003
2.842560e+003, -1.096774e-003
2.844488e+003, -1.376405e-003
2.846417e+003, -2.275382e-003
2.848345e+003, -2.437436e-003
2.850274e+003, -2.540218e-003
2.852202e+003, -1.948105e-003
2.854131e+003, -1.819304e-003
2.856059e+003, -2.028497e-003
2.857988e+003, -1.853817e-003
2.859916e+003, -1.324141e-003
2.861844e+003, -1.043958e-003
2.863773e+003, -1.309529e-003
2.865701e+003, -1.910776e-003
2.867630e+003, -1.486401e-003
2.869558e+003, -1.299542e-003
2.871487e+003, -8.475397e-004
2.873415e+003, -1.054838e-003
2.875344e+003, -1.077916e-003
2.877272e+003, -5.309068e-004
2.879201e+003, -4.594552e-004
2.881129e+003, -6.801831e-004
2.883058e+003, -8.411222e-004
2.884986e+003, -8.924088e-004
2.886915e+003, -6.795413e-004
2.888843e+003, -1.896051e-004
2.890771e+003, -3.979150e-004
2.892700e+003, 9.795928e-005
2.894628e+003, 4.752316e-004
2.896557e+003, -2.129497e-004
2.898485e+003, 1.034377e-004
2.900414e+003, 3.844684e-004
2.902342e+003, 3.663990e-005
2.904271e+003, 4.965578e-005
2.906199e+003, -6.952244e-005
2.908128e+003, 2.013899e-005
2.910056e+003, 7.280064e-005
2.911985e+003, 5.552048e-004
2.913913e+003, 7.866419e-004
2.915842e+003, 5.234641e-004
2.917770e+003, 6.612915e-005
2.919698e+003, 1.049688e-004
2.921627e+003, 3.439959e-004
2.923555e+003, 7.057915e-004
2.925484e+003, 6.643592e-004
2.927412e+003, -2.483099e-005
2.929341e+003, 1.709357e-004
2.931269e+003, 7.061960e-004
2.933198e+003, -1.001040e-005
2.935126e+003, 7.441995e-004
2.937055e+003, 1.695016e-003
2.938983e+003, 1.192298e-003
2.940912e+003, 6.002029e-004
2.942840e+003, 4.212423e-005
2.944769e+003, 7.417629e-004
2.946697e+003, 1.014645e-003
2.948625e+003, 8.842937e-004
2.950554e+003, 2.456061e-004
2.952482e+003, 6.727417e-004
2.954411e+003, 1.188758e-003
2.956339e+003, 5.743434e-004
2.958268e+003, 5.362778e-004
2.960196e+003, 7.539909e-004
2.962125e+003, -2.591806e-004
2.964053e+003, -1.835434e-004
2.965982e+003, 3.295581e-004
2.967910e+003, 6.218482e-004
2.969839e+003, 1.772368e-003
2.971767e+003, 1.964526e-003
2.973696e+003, 1.305007e-003
2.975624e+003, 7.176710e-004
2.977552e+003, 6.740121e-004
2.979481e+003, 8.917691e-004
2.981409e+003, 1.269629e-003
2.983338e+003, 1.192285e-003
2.985266e+003, 9.190383e-004
2.987195e+003, 1.714637e-003
2.989123e+003, 2.088191e-003
2.991052e+003, 2.568680e-003
2.992980e+003, 2.232139e-003
2.994909e+003, 1.722741e-003
2.996837e+003, 1.245486e-003
2.998766e+003, 1.515146e-003
3.000694e+003, 1.393293e-003
3.002623e+003, 1.633040e-003
3.004551e+003, 2.205766e-003
3.006479e+003, 3.819710e-003
3.008408e+003, 3.754780e-003
3.010336e+003, 2.049162e-003
3.012265e+003, 8.529421e-004
3.014193e+003, 1.499444e-003
3.016122e+003, 2.368932e-003
3.018050e+003, 1.633921e-003
3.019979e+003, 1.514544e-003
3.021907e+003, 2.441287e-003
3.023836e+003, 2.874945e-003
3.025764e+003, 2.511601e-003
3.027693e+003, 1.989941e-003
3.029621e+003, 2.911834e-003
3.031550e+003, 3.008321e-003
3.033478e+003, 2.491821e-003
3.035406e+003, 2.334608e-003
3.037335e+003, 2.176204e-003
3.039263e+003, 1.842238e-003
3.041192e+003, 1.971162e-003
3.043120e+003, 1.680810e-003
3.045049e+003, 1.553582e-003
3.046977e+003, 2.623486e-003
3.048906e+003, 3.151611e-003
3.050834e+003, 2.650204e-003
3.052763e+003, 2.149974e-003
3.054691e+003, 2.109970e-003
3.056620e+003, 3.038883e-003
3.058548e+003, 3.913306e-003
3.060477e+003, 4.743503e-003
3.062405e+003, 4.210758e-003
3.064333e+003, 3.152801e-003
3.066262e+003, 3.333625e-003
3.068190e+003, 3.996100e-003
3.070119e+003, 2.768176e-003
3.072047e+003, 2.239616e-003
3.073976e+003, 2.798293e-003
3.075904e+003, 3.032723e-003
3.077833e+003, 3.562453e-003
3.079761e+003, 3.926835e-003
3.081690e+003, 3.700532e-003
3.083618e+003, 3.258879e-003
3.085547e+003, 3.716543e-003
3.087475e+003, 4.667289e-003
3.089404e+003, 3.603251e-003
3.091332e+003, 2.646795e-003
3.093260e+003, 3.358766e-003
3.095189e+003, 3.545935e-003
3.097117e+003, 3.092106e-003
3.099046e+003, 3.054408e-003
3.100974e+003, 3.528560e-003
3.102903e+003, 3.193411e-003
3.104831e+003, 3.332862e-003
3.106760e+003, 4.151445e-003
3.108688e+003, 4.432707e-003
3.110617e+003, 3.733304e-003
3.112545e+003, 3.215947e-003
3.114474e+003, 3.164669e-003
3.116402e+003, 3.755158e-003
3.118331e+003, 4.406858e-003
3.120259e+003, 4.134224e-003
3.122188e+003, 4.181711e-003
3.124116e+003, 4.068835e-003
3.126044e+003, 4.195916e-003
3.127973e+003, 4.283133e-003
3.129901e+003, 4.684906e-003
3.131830e+003, 3.779680e-003
3.133758e+003, 3.535466e-003
3.135687e+003, 3.274330e-003
3.137615e+003, 3.578905e-003
3.139544e+003, 4.409075e-003
3.141472e+003, 4.641647e-003
3.143401e+003, 4.060418e-003
3.145329e+003, 4.210824e-003
3.147258e+003, 3.885827e-003
3.149186e+003, 3.102571e-003
3.151115e+003, 3.873627e-003
3.153043e+003, 4.930382e-003
3.154971e+003, 4.880522e-003
3.156900e+003, 4.990268e-003
3.158828e+003, 4.702053e-003
3.160757e+003, 5.165183e-003
3.162685e+003, 5.315079e-003
3.164614e+003, 5.074447e-003
3.166542e+003, 5.569523e-003
3.168471e+003, 6.563179e-003
3.170399e+003, 6.099876e-003
3.172328e+003, 5.995583e-003
3.174256e+003, 6.681374e-003
3.176185e+003, 7.278719e-003
3.178113e+003, 6.270951e-003
3.180042e+003, 5.943916e-003
3.181970e+003, 5.800029e-003
3.183898e+003, 5.503451e-003
3.185827e+003, 5.676575e-003
3.187755e+003, 5.244820e-003
3.189684e+003, 5.736509e-003
3.191612e+003, 6.959042e-003
3.193541e+003, 7.878563e-003
3.195469e+003, 9.117570e-003
3.197398e+003, 8.035652e-003
3.199326e+003, 6.367225e-003
3.201255e+003, 5.259045e-003
3.203183e+003, 5.292044e-003
3.205112e+003, 6.359109e-003
3.207040e+003, 7.657117e-003
3.208969e+003, 6.878168e-003
3.210897e+003, 6.131523e-003
3.212825e+003, 6.096180e-003
3.214754e+003, 6.371818e-003
3.216682e+003, 6.512803e-003
3.218611e+003, 7.487662e-003
3.220539e+003, 8.734603e-003
3.222468e+003, 8.543551e-003
3.224396e+003, 8.852575e-003
3.226325e+003, 8.985787e-003
3.228253e+003, 8.515304e-003
3.230182e+003, 7.444101e-003
3.232110e+003, 6.412783e-003
3.234039e+003, 7.266634e-003
3.235967e+003, 9.604224e-003
3.237896e+003, 1.037688e-002
3.239824e+003, 9.812616e-003
3.241752e+003, 1.019957e-002
3.243681e+003, 9.487314e-003
3.245609e+003, 8.801732e-003
3.247538e+003, 9.640191e-003
3.249466e+003, 1.043946e-002
3.251395e+003, 1.156191e-002
3.253323e+003, 1.234986e-002
3.255252e+003, 1.116875e-002
3.257180e+003, 9.653710e-003
3.259109e+003, 9.105897e-003
3.261037e+003, 1.117346e-002
3.262966e+003, 1.244896e-002
3.264894e+003, 1.288408e-002
3.266823e+003, 1.334059e-002
3.268751e+003, 1.408652e-002
3.270679e+003, 1.437845e-002
3.272608e+003, 1.338041e-002
3.274536e+003, 1.290932e-002
3.276465e+003, 1.454745e-002
3.278393e+003, 1.443321e-002
3.280322e+003, 1.448255e-002
3.282250e+003, 1.533442e-002
3.284179e+003, 1.603580e-002
3.286107e+003, 1.619872e-002
3.288036e+003, 1.545660e-002
3.289964e+003, 1.483372e-002
3.291893e+003, 1.460283e-002
3.293821e+003, 1.508800e-002
3.295750e+003, 1.601057e-002
3.297678e+003, 1.577455e-002
3.299606e+003, 1.557001e-002
3.301535e+003, 1.565973e-002
3.303463e+003, 1.521613e-002
3.305392e+003, 1.527483e-002
3.307320e+003, 1.597060e-002
3.309249e+003, 1.585851e-002
3.311177e+003, 1.569715e-002
3.313106e+003, 1.439586e-002
3.315034e+003, 1.460917e-002
3.316963e+003, 1.418152e-002
3.318891e+003, 1.407116e-002
3.320820e+003, 1.448262e-002
3.322748e+003, 1.521239e-002
3.324677e+003, 1.504177e-002
3.326605e+003, 1.428029e-002
3.328533e+003, 1.579571e-002
3.330462e+003, 1.740702e-002
3.332390e+003, 1.767539e-002
3.334319e+003, 1.629157e-002
3.336247e+003, 1.597224e-002
3.338176e+003, 1.766666e-002
3.340104e+003, 1.910559e-002
3.342033e+003, 1.962679e-002
3.343961e+003, 2.031897e-002
3.345890e+003, 2.156046e-002
3.347818e+003, 2.119792e-002
3.349747e+003, 1.979011e-002
3.351675e+003, 2.034343e-002
3.353604e+003, 2.245716e-002
3.355532e+003, 2.377579e-002
3.357460e+003, 2.477648e-002
3.359389e+003, 2.546644e-002
3.361317e+003, 2.697343e-002
3.363246e+003, 2.898645e-002
3.365174e+003, 3.104277e-002
3.367103e+003, 3.256048e-002
3.369031e+003, 3.455663e-002
3.370960e+003, 3.840926e-002
3.372888e+003, 4.179215e-002
3.374817e+003, 4.396931e-002
3.376745e+003, 4.634772e-002
3.378674e+003, 5.036459e-002
3.380602e+003, 5.620534e-002
3.382531e+003, 6.108848e-002
3.384459e+003, 6.619298e-002
3.386387e+003, 7.182453e-002
3.388316e+003, 7.845072e-002
3.390244e+003, 8.665863e-002
3.392173e+003, 9.448925e-002
3.394101e+003, 1.042569e-001
3.396030e+003, 1.154707e-001
3.397958e+003, 1.235700e-001
3.399887e+003, 1.289956e-001
3.401815e+003, 1.328834e-001
3.403744e+003, 1.335557e-001
3.405672e+003, 1.302489e-001
3.407601e+003, 1.242226e-001
3.409529e+003, 1.152686e-001
3.411458e+003, 1.053197e-001
3.413386e+003, 9.417117e-002
3.415314e+003, 8.323777e-002
3.417243e+003, 7.240728e-002
3.419171e+003, 6.271353e-002
3.421100e+003, 5.671955e-002
3.423028e+003, 5.136082e-002
3.424957e+003, 4.500618e-002
3.426885e+003, 4.088281e-002
3.428814e+003, 3.870356e-002
3.430742e+003, 3.634011e-002
3.432671e+003, 3.394381e-002
3.434599e+003, 3.283900e-002
3.436528e+003, 3.106839e-002
3.438456e+003, 3.021665e-002
3.440385e+003, 3.104192e-002
3.442313e+003, 3.193495e-002
3.444241e+003, 3.257752e-002
3.446170e+003, 3.475591e-002
3.448098e+003, 3.584018e-002
3.450027e+003, 3.859578e-002
3.451955e+003, 4.382068e-002
3.453884e+003, 4.876639e-002
3.455812e+003, 5.400049e-002
3.457741e+003, 6.119289e-002
3.459669e+003, 6.854472e-002
3.461598e+003, 7.636669e-002
3.463526e+003, 8.562434e-002
3.465455e+003, 9.685316e-002
3.467383e+003, 1.074379e-001
3.469312e+003, 1.115207e-001
3.471240e+003, 1.089059e-001
3.473168e+003, 9.958619e-002
3.475097e+003, 8.667225e-002
3.477025e+003, 7.227480e-002
3.478954e+003, 5.661446e-002
3.480882e+003, 4.356123e-002
3.482811e+003, 3.254091e-002
3.484739e+003, 2.561651e-002
3.486668e+003, 1.984971e-002
3.488596e+003, 1.467931e-002
3.490525e+003, 1.194566e-002
3.492453e+003, 1.151530e-002
3.494382e+003, 1.008490e-002
3.496310e+003, 7.724475e-003
3.498239e+003, 7.644507e-003
3.500167e+003, 6.969097e-003
3.502095e+003, 6.171133e-003
3.504024e+003, 5.852471e-003
3.505952e+003, 4.748378e-003
3.507881e+003, 3.949971e-003
3.509809e+003, 4.012424e-003
3.511738e+003, 4.592229e-003
3.513666e+003, 5.209802e-003
3.515595e+003, 5.093677e-003
3.517523e+003, 4.419777e-003
3.519452e+003, 4.166098e-003
3.521380e+003, 4.326216e-003
3.523309e+003, 1.951059e-003
3.525237e+003, 7.023948e-004
3.527166e+003, 3.119844e-003
3.529094e+003, 4.723653e-003
3.531022e+003, 4.179208e-003
3.532951e+003, 5.266939e-003
3.534879e+003, 5.466803e-003
3.536808e+003, 5.537175e-003
3.538736e+003, 6.158235e-003
3.540665e+003, 6.993514e-003
3.542593e+003, 8.491685e-003
3.544522e+003, 7.531661e-003
3.546450e+003, 7.252972e-003
3.548379e+003, 6.602631e-003
3.550307e+003, 5.988111e-003
3.552236e+003, 4.658999e-003
3.554164e+003, 2.955520e-003
3.556093e+003, 2.543283e-003
3.558021e+003, 3.657905e-003
3.559949e+003, 3.026514e-003
3.561878e+003, 2.432876e-003
3.563806e+003, 3.326436e-003
3.565735e+003, 3.863503e-003
3.567663e+003, 3.937528e-003
3.569592e+003, 3.021320e-003
3.571520e+003, 1.644243e-003
3.573449e+003, 3.004654e-003
3.575377e+003, 4.045810e-003
3.577306e+003, 3.625217e-003
3.579234e+003, 3.197154e-003
3.581163e+003, 1.911337e-003
3.583091e+003, 1.261936e-003
3.585020e+003, 2.853838e-003
3.586948e+003, 2.594874e-003
3.588876e+003, 2.984862e-003
3.590805e+003, 6.514301e-003
3.592733e+003, 1.269565e-002
3.594662e+003, 1.602461e-002
3.596590e+003, 1.433747e-002
3.598519e+003, 1.001928e-002
3.600447e+003, 7.612374e-003
3.602376e+003, 2.998122e-003
3.604304e+003, -1.785304e-004
3.606233e+003, 9.027610e-004
3.608161e+003, 3.188491e-003
3.610090e+003, 2.047622e-003
3.612018e+003, 1.561912e-004
3.613947e+003, -4.607098e-004
3.615875e+003, -2.457506e-003
3.617803e+003, -3.714409e-003
3.619732e+003, -2.542991e-003
3.621660e+003, -1.460924e-003
3.623589e+003, -7.391814e-004
3.625517e+003, 4.420774e-005
3.627446e+003, 1.599836e-004
3.629374e+003, -2.848603e-004
3.631303e+003, -1.557972e-003
3.633231e+003, -3.008647e-003
3.635160e+003, -3.364967e-003
3.637088e+003, -2.937144e-003
3.639017e+003, -3.483798e-003
3.640945e+003, -2.604746e-003
3.642874e+003, -1.545211e-003
3.644802e+003, -1.956665e-003
3.646730e+003, -7.668490e-004
3.648659e+003, -4.791546e-004
3.650587e+003, -9.411423e-004
3.652516e+003, -1.524394e-003
3.654444e+003, -2.445757e-003
3.656373e+003, -2.345798e-003
3.658301e+003, -1.272241e-003
3.660230e+003, 2.947334e-004
3.662158e+003, 9.972592e-004
3.664087e+003, 9.530656e-005
3.666015e+003, -6.345537e-004
3.667944e+003, -8.602269e-004
3.669872e+003, -4.181119e-003
3.671801e+003, -5.022181e-003
3.673729e+003, -2.475436e-003
3.675657e+003, -1.088548e-003
3.677586e+003, 7.566444e-004
3.679514e+003, -1.337375e-004
3.681443e+003, -2.699844e-003
3.683371e+003, -3.549642e-003
3.685300e+003, -3.697578e-003
3.687228e+003, -2.085841e-003
3.689157e+003, -5.217433e-004
3.691085e+003, -1.670244e-003
3.693014e+003, -2.584579e-003
3.694942e+003, -3.105693e-003
3.696871e+003, -5.003110e-003
3.698799e+003, -4.672515e-003
3.700728e+003, -9.146080e-004
3.702656e+003, 9.676541e-004
3.704584e+003, -2.853634e-004
3.706513e+003, -1.689126e-003
3.708441e+003, -1.165914e-003
3.710370e+003, -1.220328e-003
3.712298e+003, -3.628574e-003
3.714227e+003, -3.181966e-003
3.716155e+003, -1.466934e-003
3.718084e+003, -1.103944e-003
3.720012e+003, -2.428103e-003
3.721941e+003, -2.028499e-003
3.723869e+003, -2.545687e-003
3.725798e+003, -1.581125e-003
3.727726e+003, -1.635372e-003
3.729655e+003, -3.135487e-003
3.731583e+003, -2.197243e-003
3.733511e+003, -1.686600e-003
3.735440e+003, -1.426443e-003
3.737368e+003, -1.833195e-003
3.739297e+003, -2.959950e-003
3.741225e+003, -2.531313e-003
3.743154e+003, -5.198331e-004
3.745082e+003, -8.652955e-004
3.747011e+003, -4.606030e-003
3.748939e+003, -5.064908e-003
3.750868e+003, -2.357651e-003
3.752796e+003, -1.441022e-003
3.754725e+003, -2.385418e-003
3.756653e+003, -2.778610e-003
3.758582e+003, -1.191011e-003
3.760510e+003, -1.248024e-003
3.762438e+003, -2.926377e-003
3.764367e+003, -3.803166e-003
3.766295e+003, -3.192695e-003
3.768224e+003, -3.178255e-003
3.770152e+003, -2.137616e-003
3.772081e+003, 1.197662e-003
3.774009e+003, 1.510778e-003
3.775938e+003, -8.220305e-004
3.777866e+003, -1.130075e-003
3.779795e+003, -1.279453e-003
3.781723e+003, -3.282433e-003
3.783652e+003, -2.164676e-003
3.785580e+003, -1.400725e-003
3.787509e+003, -2.003319e-003
3.789437e+003, -2.044719e-003
3.791365e+003, -1.429098e-003
3.793294e+003, -8.858562e-004
3.795222e+003, 1.574478e-004
3.797151e+003, -8.274031e-004
3.799079e+003, -4.157255e-004
3.801008e+003, 1.737665e-003
3.802936e+003, 9.204830e-004
3.804865e+003, 2.065165e-004
3.806793e+003, 7.265679e-004
3.808722e+003, -3.774162e-004
3.810650e+003, -2.449694e-003
3.812579e+003, -4.329091e-003
3.814507e+003, -3.249332e-003
3.816436e+003, -1.052016e-003
3.818364e+003, 2.305315e-004
3.820292e+003, -1.167042e-004
3.822221e+003, -7.979290e-004
3.824149e+003, -1.939930e-003
3.826078e+003, -1.450162e-003
3.828006e+003, -2.161171e-003
3.829935e+003, -1.564083e-003
3.831863e+003, 1.344615e-004
3.833792e+003, -1.407422e-004
3.835720e+003, 9.467299e-004
3.837649e+003, 2.589015e-003
3.839577e+003, 1.616741e-003
3.841506e+003, -5.702649e-004
3.843434e+003, -1.070530e-003
3.845363e+003, -3.129627e-003
3.847291e+003, -3.616410e-003
3.849219e+003, -1.849330e-003
3.851148e+003, -1.906297e-004
3.853076e+003, 5.981037e-004
3.855005e+003, -5.526047e-004
3.856933e+003, -2.171886e-003
3.858862e+003, -1.213844e-003
3.860790e+003, 1.265898e-003
3.862719e+003, 2.064171e-003
3.864647e+003, -1.802866e-004
3.866576e+003, -1.520680e-003
3.868504e+003, -4.681733e-004
3.870433e+003, 6.360777e-004
3.872361e+003, -8.696963e-004
3.874290e+003, -2.819741e-003
3.876218e+003, -2.474916e-003
3.878146e+003, -6.130840e-004
3.880075e+003, 2.567590e-004
3.882003e+003, 3.680405e-004
3.883932e+003, 7.468267e-004
3.885860e+003, 2.160333e-003
3.887789e+003, 2.863870e-004
3.889717e+003, -2.065489e-003
3.891646e+003, -2.161685e-003
3.893574e+003, -1.281356e-003
3.895503e+003, 1.089417e-004
3.897431e+003, 1.367086e-003
3.899360e+003, -2.414605e-004
3.901288e+003, -1.922121e-003
3.903217e+003, -1.429650e-003
3.905145e+003, -9.568518e-004
3.907073e+003, -1.187095e-003
3.909002e+003, -1.840791e-003
3.910930e+003, -1.215072e-003
3.912859e+003, -1.494194e-003
3.914787e+003, -1.280042e-003
3.916716e+003, 8.657005e-004
3.918644e+003, -1.038692e-004
3.920573e+003, -1.672477e-003
3.922501e+003, -1.644475e-003
3.924430e+003, -1.019018e-003
3.926358e+003, -7.304632e-004
3.928287e+003, -6.203600e-004
3.930215e+003, -4.424435e-004
3.932144e+003, -1.177526e-003
3.934072e+003, -1.693732e-003
3.936000e+003, -1.737557e-003
3.937929e+003, -1.264300e-004
3.939857e+003, 1.269875e-003
3.941786e+003, -1.526731e-004
3.943714e+003, -1.890683e-003
3.945643e+003, -3.154086e-003
3.947571e+003, -9.618874e-004
3.949500e+003, -6.255413e-004
3.951428e+003, -2.323555e-003
3.953357e+003, -2.311477e-003
3.955285e+003, -1.244568e-003
3.957214e+003, -7.310922e-004
3.959142e+003, -1.521709e-005
3.961071e+003, -7.450549e-004
3.962999e+003, -1.974035e-003
3.964927e+003, -2.159355e-003
3.966856e+003, -2.899315e-003
3.968784e+003, -8.596763e-004
3.970713e+003, 1.154744e-003
3.972641e+003, 6.453692e-004
3.974570e+003, -1.094339e-004
3.976498e+003, -9.904003e-004
3.978427e+003, -1.660151e-003
3.980355e+003, -1.226493e-003
3.982284e+003, -1.438835e-003
3.984212e+003, -6.966246e-004
3.986141e+003, -1.944005e-003
3.988069e+003, -3.540001e-003
3.989998e+003, -2.013498e-003
3.991926e+003, -2.998271e-004
3.993854e+003, 3.958518e-004
3.995783e+003, 3.402622e-005
3.997711e+003, 5.900786e-004
3.999640e+003, 2.576856e-003
4.001568e+003, 0.000000e+000
##END=



