##NAMES=Harmotome
##RRUFFID=R070016
##IDEAL CHEMISTRY=Ba_2_(Si_12_Al_4_)O_32_&#183;12H_2_O
##LOCALITY=Idar-Oberstein, Germany
##OWNER=RRUFF
##SOURCE=Michael Scott
##DESCRIPTION=Colorless to milky-white prismatic crystals
##STATUS=The identification of this mineral has been made only by X-ray diffraction.
##URL=rruff.info/R070016
3.741225e+002, 1.804942e-001
3.760510e+002, 1.735987e-001
3.779795e+002, 1.639175e-001
3.799079e+002, 1.639887e-001
3.818364e+002, 1.681769e-001
3.837649e+002, 1.736388e-001
3.856933e+002, 1.747716e-001
3.876218e+002, 1.765591e-001
3.895503e+002, 1.779656e-001
3.914787e+002, 1.837427e-001
3.934072e+002, 1.877025e-001
3.953357e+002, 1.838194e-001
3.972641e+002, 1.776242e-001
3.991926e+002, 1.742151e-001
4.011211e+002, 1.687747e-001
4.030495e+002, 1.624074e-001
4.049780e+002, 1.616184e-001
4.069065e+002, 1.668459e-001
4.088349e+002, 1.696037e-001
4.107634e+002, 1.710870e-001
4.126919e+002, 1.705247e-001
4.146203e+002, 1.696703e-001
4.165488e+002, 1.711139e-001
4.184773e+002, 1.738090e-001
4.204057e+002, 1.743295e-001
4.223342e+002, 1.718586e-001
4.242627e+002, 1.677338e-001
4.261911e+002, 1.666522e-001
4.281196e+002, 1.644384e-001
4.300481e+002, 1.612379e-001
4.319765e+002, 1.576936e-001
4.339050e+002, 1.547192e-001
4.358335e+002, 1.534277e-001
4.377619e+002, 1.536715e-001
4.396904e+002, 1.523407e-001
4.416189e+002, 1.492123e-001
4.435473e+002, 1.468371e-001
4.454758e+002, 1.451106e-001
4.474043e+002, 1.423876e-001
4.493327e+002, 1.399170e-001
4.512612e+002, 1.387005e-001
4.531897e+002, 1.374787e-001
4.551181e+002, 1.352609e-001
4.570466e+002, 1.315555e-001
4.589751e+002, 1.290875e-001
4.609035e+002, 1.268218e-001
4.628320e+002, 1.234913e-001
4.647605e+002, 1.197212e-001
4.666889e+002, 1.157050e-001
4.686174e+002, 1.110069e-001
4.705459e+002, 1.065787e-001
4.724743e+002, 1.035909e-001
4.744028e+002, 9.977596e-002
4.763313e+002, 9.570735e-002
4.782597e+002, 9.295351e-002
4.801882e+002, 9.045617e-002
4.821167e+002, 8.770349e-002
4.840451e+002, 8.482148e-002
4.859736e+002, 8.176271e-002
4.879021e+002, 7.906384e-002
4.898305e+002, 7.724600e-002
4.917590e+002, 7.529201e-002
4.936875e+002, 7.303880e-002
4.956159e+002, 7.015691e-002
4.975444e+002, 6.795149e-002
4.994729e+002, 6.663774e-002
5.014013e+002, 6.513713e-002
5.033298e+002, 6.350813e-002
5.052583e+002, 6.252755e-002
5.071867e+002, 6.232234e-002
5.091152e+002, 6.113969e-002
5.110437e+002, 6.065259e-002
5.129721e+002, 6.110923e-002
5.149006e+002, 6.117979e-002
5.168290e+002, 6.117311e-002
5.187575e+002, 6.081330e-002
5.206860e+002, 6.049143e-002
5.226144e+002, 5.947713e-002
5.245429e+002, 5.861189e-002
5.264714e+002, 5.778960e-002
5.283998e+002, 5.705544e-002
5.303283e+002, 5.645272e-002
5.322568e+002, 5.527527e-002
5.341852e+002, 5.440153e-002
5.361137e+002, 5.390140e-002
5.380422e+002, 5.328054e-002
5.399706e+002, 5.254883e-002
5.418991e+002, 5.203467e-002
5.438276e+002, 5.181227e-002
5.457560e+002, 5.139336e-002
5.476845e+002, 5.127163e-002
5.496130e+002, 5.153810e-002
5.515414e+002, 5.200862e-002
5.534699e+002, 5.262197e-002
5.553984e+002, 5.271173e-002
5.573268e+002, 5.315426e-002
5.592553e+002, 5.298172e-002
5.611838e+002, 5.308169e-002
5.631122e+002, 5.352934e-002
5.650407e+002, 5.406930e-002
5.669692e+002, 5.487135e-002
5.688976e+002, 5.542251e-002
5.708261e+002, 5.600689e-002
5.727546e+002, 5.671108e-002
5.746830e+002, 5.784774e-002
5.766115e+002, 5.883323e-002
5.785400e+002, 6.031128e-002
5.804684e+002, 6.157050e-002
5.823969e+002, 6.290876e-002
5.843254e+002, 6.419551e-002
5.862538e+002, 6.541358e-002
5.881823e+002, 6.641770e-002
5.901108e+002, 6.739189e-002
5.920392e+002, 6.892920e-002
5.939677e+002, 7.029404e-002
5.958962e+002, 7.176047e-002
5.978246e+002, 7.299101e-002
5.997531e+002, 7.396723e-002
6.016816e+002, 7.544573e-002
6.036100e+002, 7.687518e-002
6.055385e+002, 7.792292e-002
6.074670e+002, 7.859819e-002
6.093954e+002, 7.873698e-002
6.113239e+002, 7.903158e-002
6.132524e+002, 7.881227e-002
6.151808e+002, 7.774139e-002
6.171093e+002, 7.649232e-002
6.190378e+002, 7.491944e-002
6.209662e+002, 7.283916e-002
6.228947e+002, 7.081323e-002
6.248232e+002, 6.857998e-002
6.267516e+002, 6.613099e-002
6.286801e+002, 6.376745e-002
6.306086e+002, 6.150230e-002
6.325370e+002, 5.923094e-002
6.344655e+002, 5.716074e-002
6.363940e+002, 5.518095e-002
6.383224e+002, 5.329769e-002
6.402509e+002, 5.142276e-002
6.421794e+002, 4.964572e-002
6.441078e+002, 4.857109e-002
6.460363e+002, 4.749440e-002
6.479648e+002, 4.621894e-002
6.498932e+002, 4.527308e-002
6.518217e+002, 4.448720e-002
6.537502e+002, 4.417099e-002
6.556786e+002, 4.414964e-002
6.576071e+002, 4.397854e-002
6.595356e+002, 4.383168e-002
6.614641e+002, 4.397915e-002
6.633925e+002, 4.454128e-002
6.653210e+002, 4.526125e-002
6.672495e+002, 4.595128e-002
6.691779e+002, 4.646132e-002
6.711064e+002, 4.701411e-002
6.730349e+002, 4.807588e-002
6.749633e+002, 4.925297e-002
6.768918e+002, 5.031641e-002
6.788203e+002, 5.145580e-002
6.807487e+002, 5.291907e-002
6.826772e+002, 5.441626e-002
6.846057e+002, 5.598668e-002
6.865341e+002, 5.770277e-002
6.884626e+002, 5.962069e-002
6.903911e+002, 6.177301e-002
6.923195e+002, 6.387588e-002
6.942480e+002, 6.491213e-002
6.961765e+002, 6.445619e-002
6.981049e+002, 6.274986e-002
7.000334e+002, 6.141626e-002
7.019619e+002, 6.050966e-002
7.038903e+002, 6.005662e-002
7.058188e+002, 5.985079e-002
7.077473e+002, 5.974869e-002
7.096757e+002, 5.977515e-002
7.116042e+002, 5.996208e-002
7.135327e+002, 5.998465e-002
7.154611e+002, 5.991646e-002
7.173896e+002, 5.985339e-002
7.193181e+002, 5.974886e-002
7.212465e+002, 5.961051e-002
7.231750e+002, 5.951792e-002
7.251035e+002, 5.958131e-002
7.270319e+002, 5.936328e-002
7.289604e+002, 5.918349e-002
7.308889e+002, 5.892751e-002
7.328173e+002, 5.865893e-002
7.347458e+002, 5.837014e-002
7.366743e+002, 5.810434e-002
7.386027e+002, 5.795678e-002
7.405312e+002, 5.770223e-002
7.424597e+002, 5.703910e-002
7.443881e+002, 5.642991e-002
7.463166e+002, 5.604635e-002
7.482451e+002, 5.536347e-002
7.501735e+002, 5.479048e-002
7.521020e+002, 5.429519e-002
7.540305e+002, 5.372345e-002
7.559589e+002, 5.340680e-002
7.578874e+002, 5.322312e-002
7.598159e+002, 5.340972e-002
7.617443e+002, 5.373338e-002
7.636728e+002, 5.415452e-002
7.656013e+002, 5.486818e-002
7.675297e+002, 5.598006e-002
7.694582e+002, 5.702402e-002
7.713867e+002, 5.789942e-002
7.733151e+002, 5.883175e-002
7.752436e+002, 5.987619e-002
7.771721e+002, 6.029299e-002
7.791005e+002, 5.991466e-002
7.810290e+002, 5.880164e-002
7.829575e+002, 5.728203e-002
7.848859e+002, 5.576493e-002
7.868144e+002, 5.503267e-002
7.887429e+002, 5.537525e-002
7.906713e+002, 5.625647e-002
7.925998e+002, 5.704634e-002
7.945283e+002, 5.739418e-002
7.964567e+002, 5.726382e-002
7.983852e+002, 5.580450e-002
8.003137e+002, 5.262515e-002
8.022421e+002, 4.827987e-002
8.041706e+002, 4.343732e-002
8.060991e+002, 3.858095e-002
8.080275e+002, 3.414585e-002
8.099560e+002, 3.080059e-002
8.118845e+002, 2.818901e-002
8.138129e+002, 2.596300e-002
8.157414e+002, 2.413754e-002
8.176699e+002, 2.254972e-002
8.195983e+002, 2.150857e-002
8.215268e+002, 2.076108e-002
8.234553e+002, 2.019543e-002
8.253837e+002, 1.982886e-002
8.273122e+002, 1.964900e-002
8.292407e+002, 1.944296e-002
8.311691e+002, 1.943962e-002
8.330976e+002, 1.944669e-002
8.350261e+002, 1.962487e-002
8.369545e+002, 1.976225e-002
8.388830e+002, 1.997530e-002
8.408115e+002, 2.048880e-002
8.427399e+002, 2.094304e-002
8.446684e+002, 2.133808e-002
8.465969e+002, 2.176846e-002
8.485253e+002, 2.223548e-002
8.504538e+002, 2.257001e-002
8.523823e+002, 2.299281e-002
8.543107e+002, 2.371428e-002
8.562392e+002, 2.434141e-002
8.581677e+002, 2.517507e-002
8.600961e+002, 2.575753e-002
8.620246e+002, 2.624152e-002
8.639531e+002, 2.683699e-002
8.658815e+002, 2.748792e-002
8.678100e+002, 2.829723e-002
8.697385e+002, 2.916864e-002
8.716669e+002, 2.988575e-002
8.735954e+002, 3.072652e-002
8.755239e+002, 3.168017e-002
8.774523e+002, 3.256743e-002
8.793808e+002, 3.342469e-002
8.813093e+002, 3.437433e-002
8.832377e+002, 3.533278e-002
8.851662e+002, 3.636348e-002
8.870947e+002, 3.751970e-002
8.890231e+002, 3.874307e-002
8.909516e+002, 4.004313e-002
8.928801e+002, 4.144230e-002
8.948085e+002, 4.292149e-002
8.967370e+002, 4.416194e-002
8.986655e+002, 4.563086e-002
9.005939e+002, 4.733294e-002
9.025224e+002, 4.898019e-002
9.044509e+002, 5.084759e-002
9.063793e+002, 5.278419e-002
9.083078e+002, 5.485971e-002
9.102363e+002, 5.721362e-002
9.121647e+002, 5.970092e-002
9.140932e+002, 6.227234e-002
9.160217e+002, 6.501681e-002
9.179501e+002, 6.807088e-002
9.198786e+002, 7.131443e-002
9.218071e+002, 7.472114e-002
9.237355e+002, 7.834191e-002
9.256640e+002, 8.248819e-002
9.275925e+002, 8.687422e-002
9.295209e+002, 9.145600e-002
9.314494e+002, 9.638931e-002
9.333779e+002, 1.015212e-001
9.353063e+002, 1.071617e-001
9.372348e+002, 1.131709e-001
9.391633e+002, 1.192395e-001
9.410917e+002, 1.257034e-001
9.430202e+002, 1.324963e-001
9.449487e+002, 1.396811e-001
9.468771e+002, 1.472571e-001
9.488056e+002, 1.550244e-001
9.507341e+002, 1.630316e-001
9.526625e+002, 1.711889e-001
9.545910e+002, 1.796344e-001
9.565195e+002, 1.884041e-001
9.584479e+002, 1.969646e-001
9.603764e+002, 2.055809e-001
9.623049e+002, 2.140323e-001
9.642333e+002, 2.220269e-001
9.661618e+002, 2.298135e-001
9.680903e+002, 2.372176e-001
9.700187e+002, 2.439638e-001
9.719472e+002, 2.501605e-001
9.738757e+002, 2.554802e-001
9.758041e+002, 2.602048e-001
9.777326e+002, 2.642700e-001
9.796611e+002, 2.676031e-001
9.815895e+002, 2.704931e-001
9.835180e+002, 2.729693e-001
9.854465e+002, 2.747409e-001
9.873749e+002, 2.760515e-001
9.893034e+002, 2.768981e-001
9.912319e+002, 2.773483e-001
9.931603e+002, 2.773925e-001
9.950888e+002, 2.774335e-001
9.970173e+002, 2.773961e-001
9.989457e+002, 2.772420e-001
1.000874e+003, 2.766632e-001
1.002803e+003, 2.758538e-001
1.004731e+003, 2.749016e-001
1.006660e+003, 2.738124e-001
1.008588e+003, 2.724514e-001
1.010517e+003, 2.706226e-001
1.012445e+003, 2.685128e-001
1.014373e+003, 2.663355e-001
1.016302e+003, 2.639915e-001
1.018230e+003, 2.610277e-001
1.020159e+003, 2.577712e-001
1.022087e+003, 2.542832e-001
1.024016e+003, 2.502968e-001
1.025944e+003, 2.461918e-001
1.027873e+003, 2.418104e-001
1.029801e+003, 2.371401e-001
1.031730e+003, 2.323184e-001
1.033658e+003, 2.274395e-001
1.035587e+003, 2.224991e-001
1.037515e+003, 2.173861e-001
1.039443e+003, 2.122336e-001
1.041372e+003, 2.070378e-001
1.043300e+003, 2.018767e-001
1.045229e+003, 1.967783e-001
1.047157e+003, 1.916285e-001
1.049086e+003, 1.864748e-001
1.051014e+003, 1.811314e-001
1.052943e+003, 1.753554e-001
1.054871e+003, 1.694367e-001
1.056800e+003, 1.637663e-001
1.058728e+003, 1.581016e-001
1.060657e+003, 1.521688e-001
1.062585e+003, 1.461867e-001
1.064514e+003, 1.405084e-001
1.066442e+003, 1.353665e-001
1.068370e+003, 1.309645e-001
1.070299e+003, 1.270696e-001
1.072227e+003, 1.239781e-001
1.074156e+003, 1.216100e-001
1.076084e+003, 1.196195e-001
1.078013e+003, 1.179270e-001
1.079941e+003, 1.164927e-001
1.081870e+003, 1.153001e-001
1.083798e+003, 1.142686e-001
1.085727e+003, 1.131404e-001
1.087655e+003, 1.120391e-001
1.089584e+003, 1.107313e-001
1.091512e+003, 1.093643e-001
1.093441e+003, 1.081376e-001
1.095369e+003, 1.068901e-001
1.097297e+003, 1.055967e-001
1.099226e+003, 1.043031e-001
1.101154e+003, 1.029344e-001
1.103083e+003, 1.017398e-001
1.105011e+003, 1.005482e-001
1.106940e+003, 9.926496e-002
1.108868e+003, 9.780322e-002
1.110797e+003, 9.635153e-002
1.112725e+003, 9.508169e-002
1.114654e+003, 9.383630e-002
1.116582e+003, 9.255911e-002
1.118511e+003, 9.122615e-002
1.120439e+003, 8.992746e-002
1.122368e+003, 8.885470e-002
1.124296e+003, 8.785811e-002
1.126224e+003, 8.680913e-002
1.128153e+003, 8.567217e-002
1.130081e+003, 8.435313e-002
1.132010e+003, 8.335543e-002
1.133938e+003, 8.236583e-002
1.135867e+003, 8.109649e-002
1.137795e+003, 7.996421e-002
1.139724e+003, 7.873483e-002
1.141652e+003, 7.748965e-002
1.143581e+003, 7.625522e-002
1.145509e+003, 7.487082e-002
1.147438e+003, 7.338801e-002
1.149366e+003, 7.170492e-002
1.151295e+003, 6.989736e-002
1.153223e+003, 6.802540e-002
1.155151e+003, 6.620939e-002
1.157080e+003, 6.468150e-002
1.159008e+003, 6.372542e-002
1.160937e+003, 6.274466e-002
1.162865e+003, 6.127118e-002
1.164794e+003, 5.936921e-002
1.166722e+003, 5.729873e-002
1.168651e+003, 5.503570e-002
1.170579e+003, 5.266414e-002
1.172508e+003, 5.027177e-002
1.174436e+003, 4.783424e-002
1.176365e+003, 4.555404e-002
1.178293e+003, 4.347672e-002
1.180222e+003, 4.134627e-002
1.182150e+003, 3.915834e-002
1.184078e+003, 3.714535e-002
1.186007e+003, 3.534485e-002
1.187935e+003, 3.362108e-002
1.189864e+003, 3.192228e-002
1.191792e+003, 3.011680e-002
1.193721e+003, 2.825406e-002
1.195649e+003, 2.645687e-002
1.197578e+003, 2.498179e-002
1.199506e+003, 2.368838e-002
1.201435e+003, 2.228083e-002
1.203363e+003, 2.094194e-002
1.205292e+003, 1.967000e-002
1.207220e+003, 1.850087e-002
1.209149e+003, 1.734063e-002
1.211077e+003, 1.622063e-002
1.213005e+003, 1.514340e-002
1.214934e+003, 1.418156e-002
1.216862e+003, 1.336134e-002
1.218791e+003, 1.243450e-002
1.220719e+003, 1.152959e-002
1.222648e+003, 1.080874e-002
1.224576e+003, 1.024205e-002
1.226505e+003, 9.803033e-003
1.228433e+003, 9.406094e-003
1.230362e+003, 8.993538e-003
1.232290e+003, 8.588621e-003
1.234219e+003, 8.119774e-003
1.236147e+003, 7.690651e-003
1.238076e+003, 7.440834e-003
1.240004e+003, 7.292628e-003
1.241932e+003, 7.039278e-003
1.243861e+003, 6.726741e-003
1.245789e+003, 6.547642e-003
1.247718e+003, 6.265522e-003
1.249646e+003, 5.847371e-003
1.251575e+003, 5.600534e-003
1.253503e+003, 5.442622e-003
1.255432e+003, 5.206556e-003
1.257360e+003, 4.958625e-003
1.259289e+003, 4.881409e-003
1.261217e+003, 4.757672e-003
1.263146e+003, 4.588822e-003
1.265074e+003, 4.439950e-003
1.267003e+003, 4.228039e-003
1.268931e+003, 4.184080e-003
1.270859e+003, 4.203221e-003
1.272788e+003, 4.145886e-003
1.274716e+003, 4.004684e-003
1.276645e+003, 3.913337e-003
1.278573e+003, 3.815307e-003
1.280502e+003, 3.627260e-003
1.282430e+003, 3.521520e-003
1.284359e+003, 3.523370e-003
1.286287e+003, 3.458484e-003
1.288216e+003, 3.443588e-003
1.290144e+003, 3.461283e-003
1.292073e+003, 3.462513e-003
1.294001e+003, 3.307560e-003
1.295930e+003, 3.069060e-003
1.297858e+003, 2.842481e-003
1.299786e+003, 2.786834e-003
1.301715e+003, 2.792557e-003
1.303643e+003, 2.759874e-003
1.305572e+003, 2.699303e-003
1.307500e+003, 2.720775e-003
1.309429e+003, 2.789635e-003
1.311357e+003, 2.644301e-003
1.313286e+003, 2.650276e-003
1.315214e+003, 2.695572e-003
1.317143e+003, 2.541429e-003
1.319071e+003, 2.406872e-003
1.321000e+003, 2.294846e-003
1.322928e+003, 2.325119e-003
1.324857e+003, 2.408490e-003
1.326785e+003, 2.336324e-003
1.328714e+003, 2.274173e-003
1.330642e+003, 2.280653e-003
1.332570e+003, 2.210591e-003
1.334499e+003, 2.139484e-003
1.336427e+003, 2.142259e-003
1.338356e+003, 2.210943e-003
1.340284e+003, 2.229815e-003
1.342213e+003, 2.040383e-003
1.344141e+003, 2.083749e-003
1.346070e+003, 2.144072e-003
1.347998e+003, 2.183004e-003
1.349927e+003, 2.097738e-003
1.351855e+003, 1.934750e-003
1.353784e+003, 1.904479e-003
1.355712e+003, 1.935484e-003
1.357641e+003, 2.075265e-003
1.359569e+003, 2.231022e-003
1.361497e+003, 2.239621e-003
1.363426e+003, 2.185165e-003
1.365354e+003, 2.059862e-003
1.367283e+003, 1.919644e-003
1.369211e+003, 1.943108e-003
1.371140e+003, 2.005094e-003
1.373068e+003, 1.953101e-003
1.374997e+003, 1.950912e-003
1.376925e+003, 2.169861e-003
1.378854e+003, 2.083314e-003
1.380782e+003, 2.006399e-003
1.382711e+003, 1.975011e-003
1.384639e+003, 1.841174e-003
1.386568e+003, 1.730629e-003
1.388496e+003, 1.754820e-003
1.390424e+003, 1.799627e-003
1.392353e+003, 1.879129e-003
1.394281e+003, 1.953015e-003
1.396210e+003, 1.868067e-003
1.398138e+003, 1.826277e-003
1.400067e+003, 1.911397e-003
1.401995e+003, 2.049375e-003
1.403924e+003, 2.077915e-003
1.405852e+003, 1.961099e-003
1.407781e+003, 1.959310e-003
1.409709e+003, 1.984124e-003
1.411638e+003, 1.983748e-003
1.413566e+003, 2.007993e-003
1.415495e+003, 1.974660e-003
1.417423e+003, 1.968219e-003
1.419351e+003, 1.994832e-003
1.421280e+003, 2.051796e-003
1.423208e+003, 2.064296e-003
1.425137e+003, 2.020251e-003
1.427065e+003, 2.071144e-003
1.428994e+003, 2.100897e-003
1.430922e+003, 2.014747e-003
1.432851e+003, 2.082068e-003
1.434779e+003, 2.267786e-003
1.436708e+003, 2.294360e-003
1.438636e+003, 2.197570e-003
1.440565e+003, 2.092587e-003
1.442493e+003, 2.127108e-003
1.444422e+003, 2.185144e-003
1.446350e+003, 2.182458e-003
1.448278e+003, 2.117887e-003
1.450207e+003, 2.141309e-003
1.452135e+003, 2.167403e-003
1.454064e+003, 2.131682e-003
1.455992e+003, 2.181391e-003
1.457921e+003, 2.235438e-003
1.459849e+003, 2.219200e-003
1.461778e+003, 2.251369e-003
1.463706e+003, 2.198199e-003
1.465635e+003, 2.202292e-003
1.467563e+003, 2.197607e-003
1.469492e+003, 2.141118e-003
1.471420e+003, 2.071705e-003
1.473349e+003, 2.080810e-003
1.475277e+003, 2.066702e-003
1.477205e+003, 2.099519e-003
1.479134e+003, 2.119451e-003
1.481062e+003, 2.108510e-003
1.482991e+003, 2.157480e-003
1.484919e+003, 2.156411e-003
1.486848e+003, 2.102257e-003
1.488776e+003, 2.084975e-003
1.490705e+003, 2.136363e-003
1.492633e+003, 2.183422e-003
1.494562e+003, 2.241630e-003
1.496490e+003, 2.314615e-003
1.498419e+003, 2.354845e-003
1.500347e+003, 2.289766e-003
1.502276e+003, 2.339800e-003
1.504204e+003, 2.426174e-003
1.506132e+003, 2.313331e-003
1.508061e+003, 2.262966e-003
1.509989e+003, 2.263640e-003
1.511918e+003, 2.231686e-003
1.513846e+003, 2.256566e-003
1.515775e+003, 2.377816e-003
1.517703e+003, 2.480714e-003
1.519632e+003, 2.507156e-003
1.521560e+003, 2.489465e-003
1.523489e+003, 2.509028e-003
1.525417e+003, 2.642440e-003
1.527346e+003, 2.702374e-003
1.529274e+003, 2.636032e-003
1.531203e+003, 2.660335e-003
1.533131e+003, 2.642514e-003
1.535059e+003, 2.721394e-003
1.536988e+003, 2.833115e-003
1.538916e+003, 2.853665e-003
1.540845e+003, 2.884871e-003
1.542773e+003, 2.948118e-003
1.544702e+003, 2.985126e-003
1.546630e+003, 3.044942e-003
1.548559e+003, 3.162944e-003
1.550487e+003, 3.192739e-003
1.552416e+003, 3.252938e-003
1.554344e+003, 3.343403e-003
1.556273e+003, 3.425024e-003
1.558201e+003, 3.609659e-003
1.560130e+003, 3.745446e-003
1.562058e+003, 3.791450e-003
1.563986e+003, 3.819945e-003
1.565915e+003, 3.950358e-003
1.567843e+003, 4.113349e-003
1.569772e+003, 4.317696e-003
1.571700e+003, 4.454553e-003
1.573629e+003, 4.622975e-003
1.575557e+003, 4.784282e-003
1.577486e+003, 4.874464e-003
1.579414e+003, 5.043722e-003
1.581343e+003, 5.363000e-003
1.583271e+003, 5.647006e-003
1.585200e+003, 5.968090e-003
1.587128e+003, 6.289552e-003
1.589057e+003, 6.420516e-003
1.590985e+003, 6.676247e-003
1.592913e+003, 7.149565e-003
1.594842e+003, 7.567106e-003
1.596770e+003, 7.982722e-003
1.598699e+003, 8.328522e-003
1.600627e+003, 8.716539e-003
1.602556e+003, 9.191522e-003
1.604484e+003, 9.694848e-003
1.606413e+003, 1.022439e-002
1.608341e+003, 1.081861e-002
1.610270e+003, 1.153761e-002
1.612198e+003, 1.238313e-002
1.614127e+003, 1.332990e-002
1.616055e+003, 1.434668e-002
1.617984e+003, 1.525252e-002
1.619912e+003, 1.621230e-002
1.621840e+003, 1.738782e-002
1.623769e+003, 1.869500e-002
1.625697e+003, 1.986148e-002
1.627626e+003, 2.092575e-002
1.629554e+003, 2.216215e-002
1.631483e+003, 2.319977e-002
1.633411e+003, 2.395204e-002
1.635340e+003, 2.465779e-002
1.637268e+003, 2.531558e-002
1.639197e+003, 2.569235e-002
1.641125e+003, 2.582857e-002
1.643054e+003, 2.591888e-002
1.644982e+003, 2.579917e-002
1.646911e+003, 2.563434e-002
1.648839e+003, 2.525380e-002
1.650767e+003, 2.475674e-002
1.652696e+003, 2.404444e-002
1.654624e+003, 2.323725e-002
1.656553e+003, 2.222920e-002
1.658481e+003, 2.093018e-002
1.660410e+003, 1.944970e-002
1.662338e+003, 1.786711e-002
1.664267e+003, 1.651129e-002
1.666195e+003, 1.531411e-002
1.668124e+003, 1.386338e-002
1.670052e+003, 1.248215e-002
1.671981e+003, 1.118246e-002
1.673909e+003, 1.007469e-002
1.675838e+003, 9.064566e-003
1.677766e+003, 8.351426e-003
1.679694e+003, 7.593757e-003
1.681623e+003, 6.743338e-003
1.683551e+003, 6.011761e-003
1.685480e+003, 5.409636e-003
1.687408e+003, 5.080067e-003
1.689337e+003, 4.744590e-003
1.691265e+003, 4.271572e-003
1.693194e+003, 3.905209e-003
1.695122e+003, 3.796692e-003
1.697051e+003, 3.697952e-003
1.698979e+003, 3.381240e-003
1.700908e+003, 3.022346e-003
1.702836e+003, 2.745143e-003
1.704765e+003, 2.771694e-003
1.706693e+003, 2.720540e-003
1.708621e+003, 2.528474e-003
1.710550e+003, 2.352750e-003
1.712478e+003, 2.313767e-003
1.714407e+003, 2.171058e-003
1.716335e+003, 1.992753e-003
1.718264e+003, 1.902722e-003
1.720192e+003, 1.864090e-003
1.722121e+003, 1.892394e-003
1.724049e+003, 1.847069e-003
1.725978e+003, 1.608539e-003
1.727906e+003, 1.477960e-003
1.729835e+003, 1.439787e-003
1.731763e+003, 1.260412e-003
1.733692e+003, 1.122615e-003
1.735620e+003, 1.106661e-003
1.737548e+003, 1.110560e-003
1.739477e+003, 7.932815e-004
1.741405e+003, 5.259505e-004
1.743334e+003, 4.946601e-004
1.745262e+003, 3.879687e-004
1.747191e+003, 2.566173e-004
1.749119e+003, 2.876466e-004
1.751048e+003, 3.881823e-004
1.752976e+003, 4.880805e-004
1.754905e+003, 4.607837e-004
1.756833e+003, 4.933032e-004
1.758762e+003, 5.502119e-004
1.760690e+003, 4.778224e-004
1.762619e+003, 5.668477e-004
1.764547e+003, 5.128016e-004
1.766475e+003, 4.364445e-004
1.768404e+003, 5.556869e-004
1.770332e+003, 6.476732e-004
1.772261e+003, 6.605242e-004
1.774189e+003, 6.159212e-004
1.776118e+003, 5.243895e-004
1.778046e+003, 6.371350e-004
1.779975e+003, 5.832106e-004
1.781903e+003, 4.617636e-004
1.783832e+003, 5.878679e-004
1.785760e+003, 5.090251e-004
1.787689e+003, 4.383605e-004
1.789617e+003, 3.934299e-004
1.791546e+003, 4.825705e-004
1.793474e+003, 3.408555e-004
1.795402e+003, 1.998725e-004
1.797331e+003, 2.229447e-004
1.799259e+003, 2.818486e-004
1.801188e+003, 4.032626e-004
1.803116e+003, 3.798889e-004
1.805045e+003, 1.923560e-004
1.806973e+003, 1.680533e-004
1.808902e+003, 1.603647e-004
1.810830e+003, 4.380747e-005
1.812759e+003, -1.844664e-005
1.814687e+003, -1.646472e-004
1.816616e+003, -5.632703e-005
1.818544e+003, 1.521542e-004
1.820473e+003, -2.426486e-005
1.822401e+003, 4.981662e-006
1.824329e+003, 8.540602e-006
1.826258e+003, -8.161919e-005
1.828186e+003, -6.477346e-005
1.830115e+003, 1.955234e-005
1.832043e+003, 7.656409e-005
1.833972e+003, 5.419368e-005
1.835900e+003, -2.788221e-005
1.837829e+003, -2.238479e-004
1.839757e+003, -2.833864e-004
1.841686e+003, -3.145744e-004
1.843614e+003, -2.356520e-004
1.845543e+003, -4.371279e-004
1.847471e+003, -5.109457e-004
1.849400e+003, -2.921640e-004
1.851328e+003, -1.419869e-004
1.853256e+003, -1.308468e-004
1.855185e+003, -2.487535e-004
1.857113e+003, -1.823363e-004
1.859042e+003, -3.570648e-005
1.860970e+003, -1.213279e-004
1.862899e+003, -5.024022e-004
1.864827e+003, -5.286171e-004
1.866756e+003, -3.067401e-004
1.868684e+003, -6.090602e-004
1.870613e+003, -6.874184e-004
1.872541e+003, -5.754243e-004
1.874470e+003, -4.472915e-004
1.876398e+003, -2.850503e-004
1.878327e+003, -2.204920e-004
1.880255e+003, -3.127177e-004
1.882183e+003, -5.878296e-004
1.884112e+003, -9.708553e-004
1.886040e+003, -8.586934e-004
1.887969e+003, -6.033695e-004
1.889897e+003, -7.927943e-004
1.891826e+003, -8.570836e-004
1.893754e+003, -6.767572e-004
1.895683e+003, -1.131876e-003
1.897611e+003, -1.310858e-003
1.899540e+003, -1.423338e-003
1.901468e+003, -1.895775e-003
1.903397e+003, -1.809517e-003
1.905325e+003, -1.016834e-003
1.907254e+003, -9.494541e-004
1.909182e+003, -1.381227e-003
1.911110e+003, -1.428344e-003
1.913039e+003, -1.683574e-003
1.914967e+003, -1.830607e-003
1.916896e+003, -1.567745e-003
1.918824e+003, -1.305446e-003
1.920753e+003, -1.392665e-003
1.922681e+003, -1.715509e-003
1.924610e+003, -1.923240e-003
1.926538e+003, -1.891309e-003
1.928467e+003, -2.096980e-003
1.930395e+003, -2.040525e-003
1.932324e+003, -1.622410e-003
1.934252e+003, -1.741083e-003
1.936181e+003, -2.134266e-003
1.938109e+003, -2.621404e-003
1.940037e+003, -2.475907e-003
1.941966e+003, -2.081596e-003
1.943894e+003, -2.535049e-003
1.945823e+003, -2.954893e-003
1.947751e+003, -2.889188e-003
1.949680e+003, -2.835772e-003
1.951608e+003, -3.014326e-003
1.953537e+003, -2.405050e-003
1.955465e+003, -2.196879e-003
1.957394e+003, -2.096760e-003
1.959322e+003, -2.240792e-003
1.961251e+003, -2.156304e-003
1.963179e+003, -1.822098e-003
1.965108e+003, -2.418692e-003
1.967036e+003, -2.937343e-003
1.968964e+003, -2.564921e-003
1.970893e+003, -1.628681e-003
1.972821e+003, -1.441116e-003
1.974750e+003, -2.194499e-003
1.976678e+003, -1.530939e-003
1.978607e+003, 8.249097e-005
1.980535e+003, 1.873588e-004
1.982464e+003, -2.023000e-004
1.984392e+003, -8.969950e-004
1.986321e+003, -7.942002e-004
1.988249e+003, -8.968334e-004
1.990178e+003, -1.667852e-003
1.992106e+003, -1.791507e-003
1.994035e+003, -1.996038e-003
1.995963e+003, -2.325951e-003
1.997891e+003, -1.717436e-003
1.999820e+003, -1.277592e-003
2.001748e+003, -1.609110e-003
2.003677e+003, -1.885705e-003
2.005605e+003, -2.318207e-003
2.007534e+003, -1.816996e-003
2.009462e+003, -1.661009e-003
2.011391e+003, -2.148235e-003
2.013319e+003, -1.025557e-003
2.015248e+003, -9.102821e-004
2.017176e+003, -2.332755e-003
2.019105e+003, -2.268103e-003
2.021033e+003, -1.799483e-003
2.022962e+003, -2.081229e-003
2.024890e+003, -1.750967e-003
2.026818e+003, -1.460157e-003
2.028747e+003, -1.221169e-003
2.030675e+003, -1.053551e-003
2.032604e+003, -5.696770e-004
2.034532e+003, 1.663575e-005
2.036461e+003, -9.288848e-004
2.038389e+003, -1.095405e-003
2.040318e+003, -5.773758e-004
2.042246e+003, -1.171865e-004
2.044175e+003, 3.564311e-005
2.046103e+003, -6.014188e-004
2.048031e+003, -2.305666e-004
2.049960e+003, 3.265860e-004
2.051888e+003, -3.134094e-004
2.053817e+003, -3.391909e-004
2.055745e+003, -3.431495e-004
2.057674e+003, -5.377841e-004
2.059602e+003, -1.007039e-003
2.061531e+003, -1.449167e-003
2.063459e+003, -1.324421e-003
2.065388e+003, -9.804803e-004
2.067316e+003, -8.470472e-004
2.069245e+003, -5.114395e-004
2.071173e+003, 2.955094e-004
2.073102e+003, 2.855631e-004
2.075030e+003, 9.893463e-005
2.076958e+003, -8.236214e-004
2.078887e+003, -7.507905e-004
2.080815e+003, 1.995966e-004
2.082744e+003, 7.233117e-006
2.084672e+003, -4.812810e-004
2.086601e+003, -1.057181e-003
2.088529e+003, -1.052451e-003
2.090458e+003, -8.103137e-004
2.092386e+003, -1.271542e-003
2.094315e+003, -1.202624e-003
2.096243e+003, -9.926569e-004
2.098172e+003, -9.625277e-004
2.100100e+003, -8.683791e-004
2.102029e+003, -7.949369e-004
2.103957e+003, -1.393151e-004
2.105885e+003, 4.126433e-004
2.107814e+003, -2.084628e-004
2.109742e+003, -7.576569e-004
2.111671e+003, -3.182840e-004
2.113599e+003, 7.400941e-005
2.115528e+003, -4.666881e-005
2.117456e+003, -1.445897e-004
2.119385e+003, -1.336611e-005
2.121313e+003, -8.556060e-006
2.123242e+003, -5.694937e-004
2.125170e+003, -1.097938e-003
2.127099e+003, -1.697230e-003
2.129027e+003, -1.754621e-003
2.130956e+003, -1.478470e-003
2.132884e+003, -1.781952e-003
2.134813e+003, -1.472634e-003
2.136741e+003, -9.091618e-004
2.138669e+003, -8.318704e-004
2.140598e+003, -7.430268e-004
2.142526e+003, -8.295551e-004
2.144455e+003, -2.204371e-004
2.146383e+003, 1.270545e-003
2.148312e+003, 1.577738e-003
2.150240e+003, 2.353946e-004
2.152169e+003, -4.068697e-004
2.154097e+003, -3.305515e-004
2.156026e+003, -7.813824e-004
2.157954e+003, 1.326267e-003
2.159883e+003, 5.022714e-003
2.161811e+003, 5.193879e-003
2.163740e+003, 3.452116e-003
2.165668e+003, 3.389502e-003
2.167596e+003, 3.295723e-003
2.169525e+003, 2.693355e-003
2.171453e+003, 1.533209e-003
2.173382e+003, 1.862118e-003
2.175310e+003, 2.208325e-003
2.177239e+003, 2.060995e-003
2.179167e+003, 2.135632e-003
2.181096e+003, 2.559724e-003
2.183024e+003, 2.839716e-003
2.184953e+003, 2.458138e-003
2.186881e+003, 1.418431e-003
2.188810e+003, 1.102084e-003
2.190738e+003, 1.137129e-003
2.192667e+003, 1.463433e-003
2.194595e+003, 2.224474e-003
2.196523e+003, 2.831642e-003
2.198452e+003, 2.165492e-003
2.200380e+003, 2.161890e-003
2.202309e+003, 1.980233e-003
2.204237e+003, 1.393144e-003
2.206166e+003, 1.427718e-003
2.208094e+003, 1.836380e-003
2.210023e+003, 2.075693e-003
2.211951e+003, 2.079176e-003
2.213880e+003, 1.616632e-003
2.215808e+003, 1.176449e-003
2.217737e+003, 1.585274e-003
2.219665e+003, 2.422394e-003
2.221594e+003, 1.948502e-003
2.223522e+003, 1.364424e-003
2.225450e+003, 1.216743e-003
2.227379e+003, 1.061847e-003
2.229307e+003, 1.190098e-003
2.231236e+003, 1.264739e-003
2.233164e+003, 1.460205e-003
2.235093e+003, 2.145377e-003
2.237021e+003, 2.058819e-003
2.238950e+003, 1.917784e-003
2.240878e+003, 2.107562e-003
2.242807e+003, 2.108959e-003
2.244735e+003, 1.757530e-003
2.246664e+003, 1.482183e-003
2.248592e+003, 2.033132e-003
2.250521e+003, 2.204752e-003
2.252449e+003, 1.673937e-003
2.254377e+003, 1.113387e-003
2.256306e+003, 1.613578e-003
2.258234e+003, 2.079146e-003
2.260163e+003, 1.681381e-003
2.262091e+003, 1.461761e-003
2.264020e+003, 1.242123e-003
2.265948e+003, 1.488116e-003
2.267877e+003, 1.489218e-003
2.269805e+003, 1.501228e-003
2.271734e+003, 1.832025e-003
2.273662e+003, 2.285928e-003
2.275591e+003, 2.515234e-003
2.277519e+003, 2.371932e-003
2.279448e+003, 2.023307e-003
2.281376e+003, 1.806980e-003
2.283304e+003, 1.962703e-003
2.285233e+003, 2.332448e-003
2.287161e+003, 2.473959e-003
2.289090e+003, 1.743896e-003
2.291018e+003, 1.436330e-003
2.292947e+003, 1.270857e-003
2.294875e+003, 1.183805e-003
2.296804e+003, 1.324017e-003
2.298732e+003, 1.178840e-003
2.300661e+003, 1.177007e-003
2.302589e+003, 1.269594e-003
2.304518e+003, 9.393552e-004
2.306446e+003, 8.335634e-004
2.308375e+003, 1.118844e-003
2.310303e+003, 1.033842e-003
2.312231e+003, 1.034962e-003
2.314160e+003, 1.048063e-003
2.316088e+003, 9.268096e-004
2.318017e+003, 1.381253e-003
2.319945e+003, 1.988607e-003
2.321874e+003, 2.035597e-003
2.323802e+003, 1.685305e-003
2.325731e+003, 8.259841e-004
2.327659e+003, 2.135137e-004
2.329588e+003, 2.363288e-004
2.331516e+003, 2.795534e-004
2.333445e+003, 8.529273e-005
2.335373e+003, -6.229203e-005
2.337302e+003, 2.975558e-005
2.339230e+003, -8.080929e-005
2.341158e+003, -3.401643e-004
2.343087e+003, -2.840784e-004
2.345015e+003, -3.609958e-004
2.346944e+003, -1.468591e-004
2.348872e+003, -1.742074e-004
2.350801e+003, -2.782442e-004
2.352729e+003, -3.702439e-004
2.354658e+003, -4.390700e-004
2.356586e+003, -5.090535e-004
2.358515e+003, -6.097684e-004
2.360443e+003, -7.093385e-004
2.362372e+003, -7.121235e-004
2.364300e+003, -6.366865e-004
2.366229e+003, -8.442955e-004
2.368157e+003, -8.842315e-004
2.370085e+003, -7.803327e-004
2.372014e+003, -7.290423e-004
2.373942e+003, -5.962137e-004
2.375871e+003, -4.080863e-004
2.377799e+003, -2.614833e-004
2.379728e+003, 9.568712e-005
2.381656e+003, 8.392229e-005
2.383585e+003, -3.795351e-004
2.385513e+003, -1.369614e-004
2.387442e+003, 3.102488e-004
2.389370e+003, 1.531902e-004
2.391299e+003, 5.961380e-005
2.393227e+003, -1.487466e-004
2.395156e+003, -9.256775e-005
2.397084e+003, -1.134767e-004
2.399012e+003, 6.115490e-006
2.400941e+003, 8.356928e-005
2.402869e+003, -5.133684e-004
2.404798e+003, -6.797124e-004
2.406726e+003, -2.313878e-004
2.408655e+003, 1.235918e-004
2.410583e+003, 3.770240e-004
2.412512e+003, 4.529749e-004
2.414440e+003, 4.491276e-004
2.416369e+003, 4.726342e-004
2.418297e+003, 7.579615e-004
2.420226e+003, 4.109790e-004
2.422154e+003, -4.823240e-005
2.424083e+003, 2.558990e-004
2.426011e+003, 2.648997e-004
2.427939e+003, 3.006436e-004
2.429868e+003, 3.577723e-004
2.431796e+003, 2.760818e-004
2.433725e+003, -6.311361e-005
2.435653e+003, 8.095158e-005
2.437582e+003, 7.567958e-004
2.439510e+003, 7.035294e-004
2.441439e+003, 2.595416e-004
2.443367e+003, 2.047692e-004
2.445296e+003, 4.657161e-004
2.447224e+003, 8.886290e-004
2.449153e+003, 1.103351e-003
2.451081e+003, 9.721949e-004
2.453010e+003, 8.261405e-004
2.454938e+003, 6.783140e-004
2.456866e+003, 6.624782e-004
2.458795e+003, 7.277119e-004
2.460723e+003, 1.088299e-003
2.462652e+003, 1.066056e-003
2.464580e+003, 7.635102e-004
2.466509e+003, 2.618604e-004
2.468437e+003, 9.461301e-005
2.470366e+003, 5.847919e-004
2.472294e+003, 7.644928e-004
2.474223e+003, 3.719730e-004
2.476151e+003, 2.604958e-004
2.478080e+003, 3.397766e-004
2.480008e+003, 3.139907e-004
2.481937e+003, 2.703832e-004
2.483865e+003, 2.505134e-004
2.485793e+003, 4.696833e-004
2.487722e+003, 8.595798e-004
2.489650e+003, 6.034742e-004
2.491579e+003, 5.224940e-004
2.493507e+003, 4.232265e-004
2.495436e+003, 5.186670e-004
2.497364e+003, 5.694071e-004
2.499293e+003, 4.258530e-004
2.501221e+003, 7.304864e-004
2.503150e+003, 8.367083e-004
2.505078e+003, 8.866016e-004
2.507007e+003, 6.876299e-004
2.508935e+003, 5.681296e-004
2.510864e+003, 6.434864e-004
2.512792e+003, 1.847335e-004
2.514720e+003, -1.783713e-004
2.516649e+003, 3.912066e-004
2.518577e+003, 8.672633e-004
2.520506e+003, 8.513870e-004
2.522434e+003, 5.768934e-004
2.524363e+003, 3.652293e-004
2.526291e+003, 4.848223e-004
2.528220e+003, 8.588560e-004
2.530148e+003, 8.908815e-004
2.532077e+003, 8.200359e-004
2.534005e+003, 7.050637e-004
2.535934e+003, 6.580923e-004
2.537862e+003, 9.613620e-004
2.539791e+003, 1.177142e-003
2.541719e+003, 1.124261e-003
2.543647e+003, 1.180198e-003
2.545576e+003, 1.310796e-003
2.547504e+003, 1.192737e-003
2.549433e+003, 9.704198e-004
2.551361e+003, 7.719329e-004
2.553290e+003, 8.595400e-004
2.555218e+003, 1.106101e-003
2.557147e+003, 7.157772e-004
2.559075e+003, 4.541093e-004
2.561004e+003, 5.061588e-004
2.562932e+003, 7.745138e-004
2.564861e+003, 8.817508e-004
2.566789e+003, 1.233052e-003
2.568718e+003, 1.522604e-003
2.570646e+003, 1.280699e-003
2.572574e+003, 1.222366e-003
2.574503e+003, 1.253764e-003
2.576431e+003, 1.411628e-003
2.578360e+003, 1.464702e-003
2.580288e+003, 1.597630e-003
2.582217e+003, 1.733099e-003
2.584145e+003, 1.375837e-003
2.586074e+003, 1.252147e-003
2.588002e+003, 1.519406e-003
2.589931e+003, 1.694737e-003
2.591859e+003, 1.653784e-003
2.593788e+003, 1.680402e-003
2.595716e+003, 1.436563e-003
2.597645e+003, 1.168877e-003
2.599573e+003, 1.537111e-003
2.601501e+003, 1.838134e-003
2.603430e+003, 1.837609e-003
2.605358e+003, 1.678694e-003
2.607287e+003, 1.817673e-003
2.609215e+003, 1.939135e-003
2.611144e+003, 1.735299e-003
2.613072e+003, 1.932836e-003
2.615001e+003, 2.330694e-003
2.616929e+003, 2.392031e-003
2.618858e+003, 2.330073e-003
2.620786e+003, 2.260181e-003
2.622715e+003, 2.309312e-003
2.624643e+003, 2.361288e-003
2.626572e+003, 2.213317e-003
2.628500e+003, 2.435128e-003
2.630428e+003, 2.547840e-003
2.632357e+003, 2.083043e-003
2.634285e+003, 1.806371e-003
2.636214e+003, 2.025910e-003
2.638142e+003, 2.464778e-003
2.640071e+003, 2.531817e-003
2.641999e+003, 2.445078e-003
2.643928e+003, 2.380674e-003
2.645856e+003, 2.280076e-003
2.647785e+003, 2.196405e-003
2.649713e+003, 2.085878e-003
2.651642e+003, 2.044270e-003
2.653570e+003, 2.014859e-003
2.655499e+003, 1.841562e-003
2.657427e+003, 1.841858e-003
2.659355e+003, 2.018227e-003
2.661284e+003, 1.849848e-003
2.663212e+003, 1.499168e-003
2.665141e+003, 1.393718e-003
2.667069e+003, 1.427921e-003
2.668998e+003, 1.327405e-003
2.670926e+003, 1.224817e-003
2.672855e+003, 1.133082e-003
2.674783e+003, 1.272118e-003
2.676712e+003, 1.344969e-003
2.678640e+003, 1.336167e-003
2.680569e+003, 1.435936e-003
2.682497e+003, 1.520890e-003
2.684426e+003, 1.408280e-003
2.686354e+003, 1.376874e-003
2.688282e+003, 1.391346e-003
2.690211e+003, 1.184453e-003
2.692139e+003, 1.096467e-003
2.694068e+003, 1.039198e-003
2.695996e+003, 1.125688e-003
2.697925e+003, 1.036683e-003
2.699853e+003, 1.150168e-003
2.701782e+003, 1.393758e-003
2.703710e+003, 1.333069e-003
2.705639e+003, 1.100796e-003
2.707567e+003, 1.112555e-003
2.709496e+003, 1.218669e-003
2.711424e+003, 1.186103e-003
2.713353e+003, 1.459220e-003
2.715281e+003, 1.448747e-003
2.717209e+003, 1.241054e-003
2.719138e+003, 1.335106e-003
2.721066e+003, 1.576905e-003
2.722995e+003, 1.426267e-003
2.724923e+003, 1.090272e-003
2.726852e+003, 1.326101e-003
2.728780e+003, 1.485829e-003
2.730709e+003, 1.550767e-003
2.732637e+003, 1.704182e-003
2.734566e+003, 1.615584e-003
2.736494e+003, 1.460490e-003
2.738423e+003, 1.321560e-003
2.740351e+003, 1.363325e-003
2.742280e+003, 1.420432e-003
2.744208e+003, 1.362921e-003
2.746136e+003, 1.389026e-003
2.748065e+003, 1.300147e-003
2.749993e+003, 1.397118e-003
2.751922e+003, 1.622884e-003
2.753850e+003, 1.735134e-003
2.755779e+003, 1.727868e-003
2.757707e+003, 1.906718e-003
2.759636e+003, 1.787089e-003
2.761564e+003, 1.591363e-003
2.763493e+003, 1.539491e-003
2.765421e+003, 1.728415e-003
2.767350e+003, 1.737342e-003
2.769278e+003, 1.806022e-003
2.771207e+003, 1.849971e-003
2.773135e+003, 1.547079e-003
2.775063e+003, 1.540445e-003
2.776992e+003, 1.748181e-003
2.778920e+003, 2.023856e-003
2.780849e+003, 2.080184e-003
2.782777e+003, 2.069551e-003
2.784706e+003, 1.889691e-003
2.786634e+003, 1.622220e-003
2.788563e+003, 1.588304e-003
2.790491e+003, 1.699969e-003
2.792420e+003, 1.642337e-003
2.794348e+003, 1.237019e-003
2.796277e+003, 1.494635e-003
2.798205e+003, 2.230800e-003
2.800134e+003, 2.155592e-003
2.802062e+003, 1.713552e-003
2.803990e+003, 1.675575e-003
2.805919e+003, 1.989128e-003
2.807847e+003, 2.288728e-003
2.809776e+003, 2.292843e-003
2.811704e+003, 2.075485e-003
2.813633e+003, 1.998403e-003
2.815561e+003, 2.186692e-003
2.817490e+003, 2.294831e-003
2.819418e+003, 2.085775e-003
2.821347e+003, 2.091520e-003
2.823275e+003, 2.253218e-003
2.825204e+003, 2.127626e-003
2.827132e+003, 1.970617e-003
2.829061e+003, 2.022780e-003
2.830989e+003, 2.376826e-003
2.832917e+003, 2.570994e-003
2.834846e+003, 2.599016e-003
2.836774e+003, 2.484118e-003
2.838703e+003, 2.251284e-003
2.840631e+003, 2.488007e-003
2.842560e+003, 2.700111e-003
2.844488e+003, 2.721790e-003
2.846417e+003, 2.825651e-003
2.848345e+003, 2.884428e-003
2.850274e+003, 3.056047e-003
2.852202e+003, 3.061269e-003
2.854131e+003, 2.752072e-003
2.856059e+003, 2.500481e-003
2.857988e+003, 2.569931e-003
2.859916e+003, 2.861619e-003
2.861844e+003, 3.165538e-003
2.863773e+003, 2.827861e-003
2.865701e+003, 2.438049e-003
2.867630e+003, 2.638905e-003
2.869558e+003, 2.788588e-003
2.871487e+003, 2.831097e-003
2.873415e+003, 3.036481e-003
2.875344e+003, 3.122862e-003
2.877272e+003, 3.151651e-003
2.879201e+003, 2.996657e-003
2.881129e+003, 2.967500e-003
2.883058e+003, 3.011360e-003
2.884986e+003, 2.925719e-003
2.886915e+003, 2.897888e-003
2.888843e+003, 3.006621e-003
2.890771e+003, 3.210581e-003
2.892700e+003, 3.499210e-003
2.894628e+003, 3.499281e-003
2.896557e+003, 3.232205e-003
2.898485e+003, 3.350590e-003
2.900414e+003, 3.730713e-003
2.902342e+003, 3.972808e-003
2.904271e+003, 3.871038e-003
2.906199e+003, 3.997357e-003
2.908128e+003, 3.995788e-003
2.910056e+003, 4.097132e-003
2.911985e+003, 4.460380e-003
2.913913e+003, 4.674112e-003
2.915842e+003, 4.826269e-003
2.917770e+003, 4.675026e-003
2.919698e+003, 4.919534e-003
2.921627e+003, 4.917374e-003
2.923555e+003, 4.719281e-003
2.925484e+003, 4.620748e-003
2.927412e+003, 4.633561e-003
2.929341e+003, 4.491399e-003
2.931269e+003, 4.103227e-003
2.933198e+003, 3.848867e-003
2.935126e+003, 3.661626e-003
2.937055e+003, 3.843925e-003
2.938983e+003, 3.766703e-003
2.940912e+003, 3.257606e-003
2.942840e+003, 3.097402e-003
2.944769e+003, 3.229553e-003
2.946697e+003, 3.572350e-003
2.948625e+003, 3.763130e-003
2.950554e+003, 3.570902e-003
2.952482e+003, 3.588966e-003
2.954411e+003, 3.512915e-003
2.956339e+003, 3.486253e-003
2.958268e+003, 3.692512e-003
2.960196e+003, 3.804223e-003
2.962125e+003, 3.923189e-003
2.964053e+003, 3.855824e-003
2.965982e+003, 3.661562e-003
2.967910e+003, 3.443789e-003
2.969839e+003, 3.444173e-003
2.971767e+003, 3.653983e-003
2.973696e+003, 3.510248e-003
2.975624e+003, 3.353308e-003
2.977552e+003, 3.323653e-003
2.979481e+003, 3.220044e-003
2.981409e+003, 3.191564e-003
2.983338e+003, 3.376781e-003
2.985266e+003, 3.587368e-003
2.987195e+003, 3.430820e-003
2.989123e+003, 3.565544e-003
2.991052e+003, 3.811271e-003
2.992980e+003, 3.540485e-003
2.994909e+003, 3.413758e-003
2.996837e+003, 3.544309e-003
2.998766e+003, 3.670172e-003
3.000694e+003, 3.819921e-003
3.002623e+003, 3.591848e-003
3.004551e+003, 3.763005e-003
3.006479e+003, 3.594024e-003
3.008408e+003, 3.331506e-003
3.010336e+003, 3.656704e-003
3.012265e+003, 4.156297e-003
3.014193e+003, 4.080235e-003
3.016122e+003, 3.620353e-003
3.018050e+003, 4.025348e-003
3.019979e+003, 4.577388e-003
3.021907e+003, 4.535724e-003
3.023836e+003, 4.116679e-003
3.025764e+003, 3.947988e-003
3.027693e+003, 3.910482e-003
3.029621e+003, 3.774484e-003
3.031550e+003, 3.912906e-003
3.033478e+003, 4.199537e-003
3.035406e+003, 4.001081e-003
3.037335e+003, 4.036958e-003
3.039263e+003, 4.326555e-003
3.041192e+003, 4.480974e-003
3.043120e+003, 4.740258e-003
3.045049e+003, 4.965354e-003
3.046977e+003, 4.597300e-003
3.048906e+003, 4.711356e-003
3.050834e+003, 4.913101e-003
3.052763e+003, 4.822241e-003
3.054691e+003, 4.894590e-003
3.056620e+003, 5.169557e-003
3.058548e+003, 5.349160e-003
3.060477e+003, 5.190804e-003
3.062405e+003, 5.382066e-003
3.064333e+003, 5.483960e-003
3.066262e+003, 5.383402e-003
3.068190e+003, 5.302215e-003
3.070119e+003, 5.530594e-003
3.072047e+003, 5.898313e-003
3.073976e+003, 6.201627e-003
3.075904e+003, 6.084030e-003
3.077833e+003, 5.673450e-003
3.079761e+003, 5.935822e-003
3.081690e+003, 6.274668e-003
3.083618e+003, 6.108864e-003
3.085547e+003, 6.198264e-003
3.087475e+003, 6.104345e-003
3.089404e+003, 6.233743e-003
3.091332e+003, 6.653992e-003
3.093260e+003, 6.814030e-003
3.095189e+003, 6.449146e-003
3.097117e+003, 6.360307e-003
3.099046e+003, 6.758863e-003
3.100974e+003, 6.949201e-003
3.102903e+003, 7.009768e-003
3.104831e+003, 6.941990e-003
3.106760e+003, 6.852711e-003
3.108688e+003, 6.969424e-003
3.110617e+003, 7.093657e-003
3.112545e+003, 7.403427e-003
3.114474e+003, 7.802707e-003
3.116402e+003, 7.686065e-003
3.118331e+003, 7.481626e-003
3.120259e+003, 7.299501e-003
3.122188e+003, 7.774020e-003
3.124116e+003, 8.427809e-003
3.126044e+003, 8.333826e-003
3.127973e+003, 8.486780e-003
3.129901e+003, 8.769647e-003
3.131830e+003, 8.501182e-003
3.133758e+003, 8.239746e-003
3.135687e+003, 8.526884e-003
3.137615e+003, 8.455181e-003
3.139544e+003, 8.432147e-003
3.141472e+003, 8.701426e-003
3.143401e+003, 8.649374e-003
3.145329e+003, 8.839949e-003
3.147258e+003, 9.280400e-003
3.149186e+003, 9.317439e-003
3.151115e+003, 8.981174e-003
3.153043e+003, 9.073143e-003
3.154971e+003, 9.769631e-003
3.156900e+003, 1.019834e-002
3.158828e+003, 1.012132e-002
3.160757e+003, 9.963912e-003
3.162685e+003, 1.025738e-002
3.164614e+003, 1.081639e-002
3.166542e+003, 1.144673e-002
3.168471e+003, 1.146594e-002
3.170399e+003, 1.124142e-002
3.172328e+003, 1.142380e-002
3.174256e+003, 1.220791e-002
3.176185e+003, 1.228523e-002
3.178113e+003, 1.159140e-002
3.180042e+003, 1.159082e-002
3.181970e+003, 1.210937e-002
3.183898e+003, 1.242092e-002
3.185827e+003, 1.251892e-002
3.187755e+003, 1.223720e-002
3.189684e+003, 1.213761e-002
3.191612e+003, 1.215876e-002
3.193541e+003, 1.274993e-002
3.195469e+003, 1.322504e-002
3.197398e+003, 1.328889e-002
3.199326e+003, 1.316157e-002
3.201255e+003, 1.385735e-002
3.203183e+003, 1.464227e-002
3.205112e+003, 1.413427e-002
3.207040e+003, 1.349858e-002
3.208969e+003, 1.362313e-002
3.210897e+003, 1.402052e-002
3.212825e+003, 1.442883e-002
3.214754e+003, 1.421779e-002
3.216682e+003, 1.401825e-002
3.218611e+003, 1.446529e-002
3.220539e+003, 1.481010e-002
3.222468e+003, 1.517052e-002
3.224396e+003, 1.595830e-002
3.226325e+003, 1.663668e-002
3.228253e+003, 1.653323e-002
3.230182e+003, 1.586864e-002
3.232110e+003, 1.567251e-002
3.234039e+003, 1.640276e-002
3.235967e+003, 1.731638e-002
3.237896e+003, 1.752257e-002
3.239824e+003, 1.750078e-002
3.241752e+003, 1.745033e-002
3.243681e+003, 1.713938e-002
3.245609e+003, 1.748852e-002
3.247538e+003, 1.794722e-002
3.249466e+003, 1.796000e-002
3.251395e+003, 1.829402e-002
3.253323e+003, 1.842046e-002
3.255252e+003, 1.839863e-002
3.257180e+003, 1.858649e-002
3.259109e+003, 1.851440e-002
3.261037e+003, 1.821004e-002
3.262966e+003, 1.788241e-002
3.264894e+003, 1.807564e-002
3.266823e+003, 1.877325e-002
3.268751e+003, 1.893332e-002
3.270679e+003, 1.856911e-002
3.272608e+003, 1.852923e-002
3.274536e+003, 1.899710e-002
3.276465e+003, 1.928110e-002
3.278393e+003, 1.921993e-002
3.280322e+003, 1.892198e-002
3.282250e+003, 1.854043e-002
3.284179e+003, 1.837643e-002
3.286107e+003, 1.876925e-002
3.288036e+003, 1.867005e-002
3.289964e+003, 1.866504e-002
3.291893e+003, 1.930006e-002
3.293821e+003, 1.965450e-002
3.295750e+003, 1.946004e-002
3.297678e+003, 1.968769e-002
3.299606e+003, 1.991473e-002
3.301535e+003, 1.935596e-002
3.303463e+003, 1.950689e-002
3.305392e+003, 2.019113e-002
3.307320e+003, 2.046860e-002
3.309249e+003, 2.030475e-002
3.311177e+003, 2.058983e-002
3.313106e+003, 2.116577e-002
3.315034e+003, 2.121648e-002
3.316963e+003, 2.093547e-002
3.318891e+003, 2.099421e-002
3.320820e+003, 2.132771e-002
3.322748e+003, 2.173349e-002
3.324677e+003, 2.190877e-002
3.326605e+003, 2.193942e-002
3.328533e+003, 2.236128e-002
3.330462e+003, 2.272433e-002
3.332390e+003, 2.260866e-002
3.334319e+003, 2.268958e-002
3.336247e+003, 2.296147e-002
3.338176e+003, 2.359837e-002
3.340104e+003, 2.427461e-002
3.342033e+003, 2.408140e-002
3.343961e+003, 2.396773e-002
3.345890e+003, 2.442618e-002
3.347818e+003, 2.489465e-002
3.349747e+003, 2.468008e-002
3.351675e+003, 2.478787e-002
3.353604e+003, 2.549156e-002
3.355532e+003, 2.627279e-002
3.357460e+003, 2.645151e-002
3.359389e+003, 2.632133e-002
3.361317e+003, 2.661968e-002
3.363246e+003, 2.742132e-002
3.365174e+003, 2.750504e-002
3.367103e+003, 2.711392e-002
3.369031e+003, 2.699965e-002
3.370960e+003, 2.769341e-002
3.372888e+003, 2.791511e-002
3.374817e+003, 2.814153e-002
3.376745e+003, 2.869025e-002
3.378674e+003, 2.875361e-002
3.380602e+003, 2.850326e-002
3.382531e+003, 2.838475e-002
3.384459e+003, 2.827408e-002
3.386387e+003, 2.889179e-002
3.388316e+003, 2.954925e-002
3.390244e+003, 2.952497e-002
3.392173e+003, 2.942819e-002
3.394101e+003, 2.963749e-002
3.396030e+003, 3.004915e-002
3.397958e+003, 3.036803e-002
3.399887e+003, 3.034991e-002
3.401815e+003, 3.024040e-002
3.403744e+003, 3.014318e-002
3.405672e+003, 2.954650e-002
3.407601e+003, 2.973698e-002
3.409529e+003, 3.063519e-002
3.411458e+003, 3.100584e-002
3.413386e+003, 3.090378e-002
3.415314e+003, 3.141579e-002
3.417243e+003, 3.110517e-002
3.419171e+003, 2.995712e-002
3.421100e+003, 3.022022e-002
3.423028e+003, 3.096380e-002
3.424957e+003, 3.114514e-002
3.426885e+003, 3.100587e-002
3.428814e+003, 3.078340e-002
3.430742e+003, 3.034048e-002
3.432671e+003, 3.009645e-002
3.434599e+003, 2.969984e-002
3.436528e+003, 2.975944e-002
3.438456e+003, 3.063170e-002
3.440385e+003, 3.088179e-002
3.442313e+003, 3.027938e-002
3.444241e+003, 3.022314e-002
3.446170e+003, 3.078028e-002
3.448098e+003, 3.038267e-002
3.450027e+003, 3.025567e-002
3.451955e+003, 3.054820e-002
3.453884e+003, 3.010278e-002
3.455812e+003, 2.967486e-002
3.457741e+003, 2.954143e-002
3.459669e+003, 2.928385e-002
3.461598e+003, 2.932069e-002
3.463526e+003, 2.925939e-002
3.465455e+003, 2.911744e-002
3.467383e+003, 2.874911e-002
3.469312e+003, 2.859352e-002
3.471240e+003, 2.840519e-002
3.473168e+003, 2.848987e-002
3.475097e+003, 2.872963e-002
3.477025e+003, 2.861366e-002
3.478954e+003, 2.869431e-002
3.480882e+003, 2.865833e-002
3.482811e+003, 2.822178e-002
3.484739e+003, 2.803550e-002
3.486668e+003, 2.801166e-002
3.488596e+003, 2.799671e-002
3.490525e+003, 2.764461e-002
3.492453e+003, 2.727274e-002
3.494382e+003, 2.712049e-002
3.496310e+003, 2.745715e-002
3.498239e+003, 2.784383e-002
3.500167e+003, 2.744364e-002
3.502095e+003, 2.727794e-002
3.504024e+003, 2.745296e-002
3.505952e+003, 2.740839e-002
3.507881e+003, 2.710275e-002
3.509809e+003, 2.735271e-002
3.511738e+003, 2.761634e-002
3.513666e+003, 2.716576e-002
3.515595e+003, 2.647335e-002
3.517523e+003, 2.640422e-002
3.519452e+003, 2.658224e-002
3.521380e+003, 2.651616e-002
3.523309e+003, 2.636255e-002
3.525237e+003, 2.576874e-002
3.527166e+003, 2.546573e-002
3.529094e+003, 2.539863e-002
3.531022e+003, 2.486217e-002
3.532951e+003, 2.496492e-002
3.534879e+003, 2.469055e-002
3.536808e+003, 2.420697e-002
3.538736e+003, 2.492733e-002
3.540665e+003, 2.545877e-002
3.542593e+003, 2.498372e-002
3.544522e+003, 2.455640e-002
3.546450e+003, 2.477065e-002
3.548379e+003, 2.508543e-002
3.550307e+003, 2.496509e-002
3.552236e+003, 2.482238e-002
3.554164e+003, 2.450747e-002
3.556093e+003, 2.359753e-002
3.558021e+003, 2.300696e-002
3.559949e+003, 2.319693e-002
3.561878e+003, 2.332828e-002
3.563806e+003, 2.301159e-002
3.565735e+003, 2.263983e-002
3.567663e+003, 2.249442e-002
3.569592e+003, 2.248839e-002
3.571520e+003, 2.199546e-002
3.573449e+003, 2.166530e-002
3.575377e+003, 2.192455e-002
3.577306e+003, 2.197478e-002
3.579234e+003, 2.174915e-002
3.581163e+003, 2.166925e-002
3.583091e+003, 2.099253e-002
3.585020e+003, 2.082042e-002
3.586948e+003, 2.114993e-002
3.588876e+003, 2.051109e-002
3.590805e+003, 2.030868e-002
3.592733e+003, 2.043580e-002
3.594662e+003, 2.036694e-002
3.596590e+003, 1.975267e-002
3.598519e+003, 1.969210e-002
3.600447e+003, 1.933104e-002
3.602376e+003, 1.909725e-002
3.604304e+003, 1.881126e-002
3.606233e+003, 1.799940e-002
3.608161e+003, 1.769094e-002
3.610090e+003, 1.773398e-002
3.612018e+003, 1.721794e-002
3.613947e+003, 1.631282e-002
3.615875e+003, 1.502706e-002
3.617803e+003, 1.406592e-002
3.619732e+003, 1.350386e-002
3.621660e+003, 1.291720e-002
3.623589e+003, 1.243120e-002
3.625517e+003, 1.186008e-002
3.627446e+003, 1.075202e-002
3.629374e+003, 1.045005e-002
3.631303e+003, 9.859517e-003
3.633231e+003, 9.153553e-003
3.635160e+003, 8.998806e-003
3.637088e+003, 8.194139e-003
3.639017e+003, 6.737563e-003
3.640945e+003, 5.928712e-003
3.642874e+003, 5.236291e-003
3.644802e+003, 5.002138e-003
3.646730e+003, 4.776027e-003
3.648659e+003, 4.595050e-003
3.650587e+003, 4.373875e-003
3.652516e+003, 3.663097e-003
3.654444e+003, 2.789448e-003
3.656373e+003, 1.730532e-003
3.658301e+003, 1.221212e-003
3.660230e+003, 1.168768e-003
3.662158e+003, 7.478955e-004
3.664087e+003, 9.637411e-005
3.666015e+003, -9.857154e-004
3.667944e+003, -1.087712e-003
3.669872e+003, -6.140033e-004
3.671801e+003, -2.232401e-004
3.673729e+003, -1.927226e-004
3.675657e+003, -5.708241e-004
3.677586e+003, -1.074644e-003
3.679514e+003, -1.158223e-003
3.681443e+003, -8.486563e-004
3.683371e+003, -1.439290e-003
3.685300e+003, -1.557343e-003
3.687228e+003, -7.497825e-004
3.689157e+003, -1.513295e-003
3.691085e+003, -2.644046e-003
3.693014e+003, -2.134279e-003
3.694942e+003, -1.627010e-003
3.696871e+003, -1.398458e-003
3.698799e+003, -7.906851e-004
3.700728e+003, -1.731128e-003
3.702656e+003, -2.557374e-003
3.704584e+003, -1.442674e-003
3.706513e+003, -1.134383e-003
3.708441e+003, -2.162661e-003
3.710370e+003, -2.111657e-003
3.712298e+003, -2.226196e-003
3.714227e+003, -1.759597e-003
3.716155e+003, -2.073812e-003
3.718084e+003, -2.836216e-003
3.720012e+003, -2.926692e-003
3.721941e+003, -2.225362e-003
3.723869e+003, -2.314522e-003
3.725798e+003, -2.381118e-003
3.727726e+003, -2.307783e-003
3.729655e+003, -1.963733e-003
3.731583e+003, -1.777206e-003
3.733511e+003, -1.588007e-003
3.735440e+003, -1.653171e-003
3.737368e+003, -2.200873e-003
3.739297e+003, -2.212456e-003
3.741225e+003, -2.065947e-003
3.743154e+003, -2.429827e-003
3.745082e+003, -2.862857e-003
3.747011e+003, -2.392380e-003
3.748939e+003, -1.423052e-003
3.750868e+003, -1.625088e-003
3.752796e+003, -2.038561e-003
3.754725e+003, -1.827657e-003
3.756653e+003, -1.364824e-003
3.758582e+003, -1.499067e-003
3.760510e+003, -1.081066e-003
3.762438e+003, -8.281125e-004
3.764367e+003, -1.537001e-003
3.766295e+003, -2.335798e-003
3.768224e+003, -1.912697e-003
3.770152e+003, -1.834615e-003
3.772081e+003, -2.090866e-003
3.774009e+003, -1.680676e-003
3.775938e+003, -1.863277e-003
3.777866e+003, -2.051919e-003
3.779795e+003, -1.595524e-003
3.781723e+003, -1.213645e-003
3.783652e+003, -1.804988e-003
3.785580e+003, -2.357237e-003
3.787509e+003, -1.594764e-003
3.789437e+003, -7.863405e-004
3.791365e+003, -3.516368e-004
3.793294e+003, -9.320442e-004
3.795222e+003, -1.266686e-003
3.797151e+003, -1.494648e-003
3.799079e+003, -2.304644e-003
3.801008e+003, -2.745595e-003
3.802936e+003, -2.839215e-003
3.804865e+003, -2.406428e-003
3.806793e+003, -2.178818e-003
3.808722e+003, -2.804307e-003
3.810650e+003, -2.625252e-003
3.812579e+003, -2.330937e-003
3.814507e+003, -2.590736e-003
3.816436e+003, -2.644207e-003
3.818364e+003, -2.487644e-003
3.820292e+003, -1.884548e-003
3.822221e+003, -1.764956e-003
3.824149e+003, -2.414948e-003
3.826078e+003, -2.243380e-003
3.828006e+003, -2.322944e-003
3.829935e+003, -1.892834e-003
3.831863e+003, -1.702673e-003
3.833792e+003, -1.642899e-003
3.835720e+003, -1.564129e-003
3.837649e+003, -2.300577e-003
3.839577e+003, -2.285991e-003
3.841506e+003, -2.263015e-003
3.843434e+003, -2.236055e-003
3.845363e+003, -1.823109e-003
3.847291e+003, -1.259454e-003
3.849219e+003, -1.231291e-003
3.851148e+003, -1.650989e-003
3.853076e+003, -1.631162e-003
3.855005e+003, -1.547140e-003
3.856933e+003, -2.178529e-003
3.858862e+003, -2.638378e-003
3.860790e+003, -2.449259e-003
3.862719e+003, -1.838596e-003
3.864647e+003, -1.442963e-003
3.866576e+003, -1.715164e-003
3.868504e+003, -1.384361e-003
3.870433e+003, -1.503065e-003
3.872361e+003, -2.673692e-003
3.874290e+003, -2.809724e-003
3.876218e+003, -2.709699e-003
3.878146e+003, -3.146688e-003
3.880075e+003, -3.140298e-003
3.882003e+003, -3.084228e-003
3.883932e+003, -2.602699e-003
3.885860e+003, -2.234095e-003
3.887789e+003, -2.164701e-003
3.889717e+003, -3.093313e-003
3.891646e+003, -3.178391e-003
3.893574e+003, -2.678982e-003
3.895503e+003, -1.890551e-003
3.897431e+003, -1.604706e-003
3.899360e+003, -2.272076e-003
3.901288e+003, -2.562725e-003
3.903217e+003, -2.102398e-003
3.905145e+003, -1.970459e-003
3.907073e+003, -1.804482e-003
3.909002e+003, -2.619012e-003
3.910930e+003, -2.536711e-003
3.912859e+003, -1.758983e-003
3.914787e+003, -1.385704e-003
3.916716e+003, -1.512933e-003
3.918644e+003, -1.371223e-003
3.920573e+003, -2.231990e-003
3.922501e+003, -3.496478e-003
3.924430e+003, -3.036934e-003
3.926358e+003, -2.571499e-003
3.928287e+003, -2.860989e-003
3.930215e+003, -2.347086e-003
3.932144e+003, -1.901514e-003
3.934072e+003, -2.201495e-003
3.936000e+003, -2.038714e-003
3.937929e+003, -1.838595e-003
3.939857e+003, -2.004840e-003
3.941786e+003, -1.740308e-003
3.943714e+003, -2.425428e-003
3.945643e+003, -3.234536e-003
3.947571e+003, -2.947813e-003
3.949500e+003, -2.315401e-003
3.951428e+003, -3.054957e-003
3.953357e+003, -3.096457e-003
3.955285e+003, -2.541742e-003
3.957214e+003, -2.453683e-003
3.959142e+003, -2.618729e-003
3.961071e+003, -2.697039e-003
3.962999e+003, -2.815682e-003
3.964927e+003, -2.664221e-003
3.966856e+003, -2.749106e-003
3.968784e+003, -3.190331e-003
3.970713e+003, -3.156416e-003
3.972641e+003, -2.601921e-003
3.974570e+003, -2.041839e-003
3.976498e+003, -2.372325e-003
3.978427e+003, -3.112202e-003
3.980355e+003, -3.696944e-003
3.982284e+003, -3.495664e-003
3.984212e+003, -3.717337e-003
3.986141e+003, -3.411076e-003
3.988069e+003, -2.971757e-003
3.989998e+003, -2.942826e-003
3.991926e+003, -3.296353e-003
3.993854e+003, -3.035594e-003
3.995783e+003, -2.366812e-003
3.997711e+003, -2.065383e-003
3.999640e+003, -2.538976e-003
##END=



