##NAMES=Hauyne
##RRUFFID=R050606
##IDEAL CHEMISTRY=Na_3_Ca(Si_3_Al_3_)O_12_(S^6+^O_4_)
##LOCALITY=Ariccia, near Rome, Italy
##OWNER=RRUFF
##SOURCE=University of Arizona Mineral Museum
##DESCRIPTION=Blue crystal embedded in calcite
##STATUS=The identification of this mineral has been confirmed only by X-ray diffraction
##URL=rruff.info/R050606
3.991926e+002, 2.305288e-001
4.011211e+002, 2.529100e-001
4.030496e+002, 2.541258e-001
4.049780e+002, 2.550067e-001
4.069065e+002, 2.655354e-001
4.088350e+002, 2.836554e-001
4.107634e+002, 3.043520e-001
4.126919e+002, 3.241987e-001
4.146204e+002, 3.211807e-001
4.165488e+002, 3.152828e-001
4.184773e+002, 3.098370e-001
4.204058e+002, 2.987771e-001
4.223342e+002, 2.801748e-001
4.242627e+002, 2.558709e-001
4.261912e+002, 2.319145e-001
4.281196e+002, 2.285331e-001
4.300481e+002, 2.350238e-001
4.319766e+002, 2.363044e-001
4.339050e+002, 2.419783e-001
4.358335e+002, 2.558382e-001
4.377620e+002, 2.688467e-001
4.396904e+002, 2.741671e-001
4.416189e+002, 2.698853e-001
4.435474e+002, 2.637058e-001
4.454758e+002, 2.591960e-001
4.474043e+002, 2.475129e-001
4.493328e+002, 2.307962e-001
4.512612e+002, 2.146150e-001
4.531897e+002, 1.985706e-001
4.551182e+002, 1.840114e-001
4.570466e+002, 1.695020e-001
4.589751e+002, 1.554745e-001
4.609036e+002, 1.430946e-001
4.628320e+002, 1.329438e-001
4.647605e+002, 1.216845e-001
4.666890e+002, 1.106738e-001
4.686174e+002, 1.008530e-001
4.705459e+002, 9.057590e-002
4.724744e+002, 8.246679e-002
4.744028e+002, 7.444786e-002
4.763313e+002, 6.519167e-002
4.782598e+002, 5.804127e-002
4.801882e+002, 5.201478e-002
4.821167e+002, 4.481803e-002
4.840452e+002, 3.905145e-002
4.859736e+002, 3.486950e-002
4.879021e+002, 3.037873e-002
4.898306e+002, 2.644671e-002
4.917590e+002, 2.337957e-002
4.936875e+002, 2.164304e-002
4.956160e+002, 2.074108e-002
4.975444e+002, 1.976006e-002
4.994729e+002, 1.835494e-002
5.014014e+002, 1.693684e-002
5.033298e+002, 1.659437e-002
5.052583e+002, 1.611725e-002
5.071868e+002, 1.555874e-002
5.091152e+002, 1.588407e-002
5.110437e+002, 1.634888e-002
5.129722e+002, 1.534647e-002
5.149006e+002, 1.415338e-002
5.168291e+002, 1.368385e-002
5.187576e+002, 1.381573e-002
5.206860e+002, 1.415497e-002
5.226145e+002, 1.434688e-002
5.245430e+002, 1.429037e-002
5.264714e+002, 1.424957e-002
5.283999e+002, 1.399116e-002
5.303284e+002, 1.412237e-002
5.322568e+002, 1.488697e-002
5.341853e+002, 1.528994e-002
5.361138e+002, 1.531927e-002
5.380422e+002, 1.527209e-002
5.399707e+002, 1.566893e-002
5.418992e+002, 1.649400e-002
5.438276e+002, 1.688029e-002
5.457561e+002, 1.716539e-002
5.476846e+002, 1.788861e-002
5.496130e+002, 1.786099e-002
5.515415e+002, 1.768480e-002
5.534700e+002, 1.789739e-002
5.553984e+002, 1.825213e-002
5.573269e+002, 1.838300e-002
5.592554e+002, 1.848106e-002
5.611838e+002, 1.868612e-002
5.631123e+002, 1.874910e-002
5.650408e+002, 1.893078e-002
5.669692e+002, 1.947757e-002
5.688977e+002, 1.986029e-002
5.708262e+002, 1.979948e-002
5.727546e+002, 1.964989e-002
5.746831e+002, 1.972421e-002
5.766116e+002, 2.064691e-002
5.785400e+002, 2.207503e-002
5.804685e+002, 2.291321e-002
5.823970e+002, 2.346122e-002
5.843254e+002, 2.427678e-002
5.862539e+002, 2.519294e-002
5.881824e+002, 2.629875e-002
5.901108e+002, 2.772987e-002
5.920393e+002, 2.919539e-002
5.939678e+002, 3.123634e-002
5.958962e+002, 3.394997e-002
5.978247e+002, 3.753833e-002
5.997532e+002, 4.213202e-002
6.016816e+002, 4.836471e-002
6.036101e+002, 5.662840e-002
6.055386e+002, 6.642625e-002
6.074670e+002, 7.454352e-002
6.093955e+002, 7.752988e-002
6.113240e+002, 7.727516e-002
6.132524e+002, 7.644350e-002
6.151809e+002, 7.570776e-002
6.171094e+002, 7.520930e-002
6.190378e+002, 7.443856e-002
6.209663e+002, 7.394203e-002
6.228948e+002, 7.286519e-002
6.248232e+002, 7.223938e-002
6.267517e+002, 7.245935e-002
6.286802e+002, 7.405966e-002
6.306086e+002, 7.797927e-002
6.325371e+002, 8.384355e-002
6.344656e+002, 9.142423e-002
6.363940e+002, 1.004548e-001
6.383225e+002, 1.095547e-001
6.402510e+002, 1.172327e-001
6.421794e+002, 1.235742e-001
6.441079e+002, 1.272131e-001
6.460364e+002, 1.268398e-001
6.479648e+002, 1.240780e-001
6.498933e+002, 1.207731e-001
6.518218e+002, 1.160959e-001
6.537502e+002, 1.090541e-001
6.556787e+002, 1.004713e-001
6.576072e+002, 9.096933e-002
6.595356e+002, 8.212713e-002
6.614641e+002, 7.464878e-002
6.633926e+002, 6.827843e-002
6.653210e+002, 6.348158e-002
6.672495e+002, 6.032406e-002
6.691780e+002, 5.833253e-002
6.711064e+002, 5.782504e-002
6.730349e+002, 5.861490e-002
6.749634e+002, 6.042060e-002
6.768918e+002, 6.271278e-002
6.788203e+002, 6.573887e-002
6.807488e+002, 6.963191e-002
6.826772e+002, 7.439277e-002
6.846057e+002, 8.009989e-002
6.865342e+002, 8.734036e-002
6.884626e+002, 9.567376e-002
6.903911e+002, 1.045595e-001
6.923196e+002, 1.134889e-001
6.942480e+002, 1.199863e-001
6.961765e+002, 1.215882e-001
6.981050e+002, 1.161565e-001
7.000334e+002, 1.042337e-001
7.019619e+002, 9.031229e-002
7.038904e+002, 7.974792e-002
7.058188e+002, 7.391553e-002
7.077473e+002, 7.210143e-002
7.096758e+002, 7.298835e-002
7.116042e+002, 7.576913e-002
7.135327e+002, 7.950076e-002
7.154612e+002, 8.401823e-002
7.173896e+002, 8.884310e-002
7.193181e+002, 9.304406e-002
7.212466e+002, 9.474674e-002
7.231750e+002, 9.295373e-002
7.251035e+002, 8.730099e-002
7.270320e+002, 7.854025e-002
7.289604e+002, 6.901506e-002
7.308889e+002, 6.050802e-002
7.328174e+002, 5.259501e-002
7.347458e+002, 4.631288e-002
7.366743e+002, 4.194307e-002
7.386028e+002, 3.866486e-002
7.405313e+002, 3.581122e-002
7.424597e+002, 3.344693e-002
7.443882e+002, 3.147535e-002
7.463167e+002, 2.981317e-002
7.482451e+002, 2.832245e-002
7.501736e+002, 2.700568e-002
7.521021e+002, 2.596652e-002
7.540305e+002, 2.525292e-002
7.559590e+002, 2.458487e-002
7.578875e+002, 2.395011e-002
7.598159e+002, 2.318497e-002
7.617444e+002, 2.255659e-002
7.636729e+002, 2.246309e-002
7.656013e+002, 2.243504e-002
7.675298e+002, 2.244512e-002
7.694583e+002, 2.214811e-002
7.713867e+002, 2.188041e-002
7.733152e+002, 2.191345e-002
7.752437e+002, 2.203424e-002
7.771721e+002, 2.175243e-002
7.791006e+002, 2.137089e-002
7.810291e+002, 2.134155e-002
7.829575e+002, 2.121353e-002
7.848860e+002, 2.101851e-002
7.868145e+002, 2.126888e-002
7.887429e+002, 2.118351e-002
7.906714e+002, 2.085646e-002
7.925999e+002, 2.142628e-002
7.945283e+002, 2.183522e-002
7.964568e+002, 2.202738e-002
7.983853e+002, 2.244209e-002
8.003137e+002, 2.258798e-002
8.022422e+002, 2.284142e-002
8.041707e+002, 2.302324e-002
8.060991e+002, 2.295719e-002
8.080276e+002, 2.327839e-002
8.099561e+002, 2.374822e-002
8.118845e+002, 2.441442e-002
8.138130e+002, 2.495227e-002
8.157415e+002, 2.512399e-002
8.176699e+002, 2.559827e-002
8.195984e+002, 2.599646e-002
8.215269e+002, 2.657506e-002
8.234553e+002, 2.718303e-002
8.253838e+002, 2.748567e-002
8.273123e+002, 2.787583e-002
8.292407e+002, 2.842530e-002
8.311692e+002, 2.894633e-002
8.330977e+002, 2.943461e-002
8.350261e+002, 3.018606e-002
8.369546e+002, 3.068402e-002
8.388831e+002, 3.114810e-002
8.408115e+002, 3.177526e-002
8.427400e+002, 3.255786e-002
8.446685e+002, 3.339938e-002
8.465969e+002, 3.446403e-002
8.485254e+002, 3.527541e-002
8.504539e+002, 3.613876e-002
8.523823e+002, 3.754278e-002
8.543108e+002, 3.871065e-002
8.562393e+002, 3.949049e-002
8.581677e+002, 4.061052e-002
8.600962e+002, 4.170442e-002
8.620247e+002, 4.282077e-002
8.639531e+002, 4.416912e-002
8.658816e+002, 4.576829e-002
8.678101e+002, 4.790788e-002
8.697385e+002, 5.044626e-002
8.716670e+002, 5.331478e-002
8.735955e+002, 5.615177e-002
8.755239e+002, 5.909841e-002
8.774524e+002, 6.142565e-002
8.793809e+002, 6.253481e-002
8.813093e+002, 6.295808e-002
8.832378e+002, 6.368426e-002
8.851663e+002, 6.517054e-002
8.870947e+002, 6.705337e-002
8.890232e+002, 6.944834e-002
8.909517e+002, 7.236793e-002
8.928801e+002, 7.557911e-002
8.948085e+002, 7.905138e-002
8.967370e+002, 8.265609e-002
8.986655e+002, 8.672156e-002
9.005939e+002, 9.138218e-002
9.025224e+002, 9.624826e-002
9.044509e+002, 1.013706e-001
9.063793e+002, 1.073031e-001
9.083078e+002, 1.132397e-001
9.102363e+002, 1.193939e-001
9.121647e+002, 1.261498e-001
9.140932e+002, 1.336689e-001
9.160217e+002, 1.417786e-001
9.179501e+002, 1.501159e-001
9.198786e+002, 1.588633e-001
9.218071e+002, 1.679346e-001
9.237355e+002, 1.777293e-001
9.256640e+002, 1.876779e-001
9.275925e+002, 1.979346e-001
9.295209e+002, 2.087866e-001
9.314494e+002, 2.205431e-001
9.333779e+002, 2.325549e-001
9.353063e+002, 2.449855e-001
9.372348e+002, 2.577672e-001
9.391633e+002, 2.705800e-001
9.410917e+002, 2.841982e-001
9.430202e+002, 2.979649e-001
9.449487e+002, 3.110663e-001
9.468771e+002, 3.248445e-001
9.488056e+002, 3.378852e-001
9.507341e+002, 3.497280e-001
9.526625e+002, 3.605016e-001
9.545910e+002, 3.712028e-001
9.565195e+002, 3.816102e-001
9.584479e+002, 3.909715e-001
9.603764e+002, 3.993204e-001
9.623049e+002, 4.060309e-001
9.642333e+002, 4.115218e-001
9.661618e+002, 4.160627e-001
9.680903e+002, 4.192753e-001
9.700187e+002, 4.215260e-001
9.719472e+002, 4.225726e-001
9.738757e+002, 4.228112e-001
9.758041e+002, 4.219383e-001
9.777326e+002, 4.202225e-001
9.796611e+002, 4.176818e-001
9.815895e+002, 4.145314e-001
9.835180e+002, 4.113677e-001
9.854465e+002, 4.081629e-001
9.873749e+002, 4.043635e-001
9.893034e+002, 4.002512e-001
9.912319e+002, 3.965015e-001
9.931603e+002, 3.919294e-001
9.950888e+002, 3.863321e-001
9.970173e+002, 3.802110e-001
9.989457e+002, 3.726331e-001
1.000874e+003, 3.639884e-001
1.002803e+003, 3.547745e-001
1.004731e+003, 3.446831e-001
1.006660e+003, 3.343007e-001
1.008588e+003, 3.243739e-001
1.010517e+003, 3.144075e-001
1.012445e+003, 3.041375e-001
1.014373e+003, 2.936481e-001
1.016302e+003, 2.838583e-001
1.018230e+003, 2.739705e-001
1.020159e+003, 2.634595e-001
1.022087e+003, 2.530749e-001
1.024016e+003, 2.422367e-001
1.025944e+003, 2.312223e-001
1.027873e+003, 2.202085e-001
1.029801e+003, 2.092882e-001
1.031730e+003, 1.987473e-001
1.033658e+003, 1.884528e-001
1.035587e+003, 1.791036e-001
1.037515e+003, 1.703321e-001
1.039444e+003, 1.621193e-001
1.041372e+003, 1.549439e-001
1.043301e+003, 1.488958e-001
1.045229e+003, 1.436587e-001
1.047157e+003, 1.389642e-001
1.049086e+003, 1.344713e-001
1.051014e+003, 1.306027e-001
1.052943e+003, 1.271731e-001
1.054871e+003, 1.238201e-001
1.056800e+003, 1.203763e-001
1.058728e+003, 1.173512e-001
1.060657e+003, 1.145569e-001
1.062585e+003, 1.120452e-001
1.064514e+003, 1.096323e-001
1.066442e+003, 1.074340e-001
1.068371e+003, 1.052954e-001
1.070299e+003, 1.036191e-001
1.072228e+003, 1.023688e-001
1.074156e+003, 1.016710e-001
1.076084e+003, 1.013226e-001
1.078013e+003, 1.014478e-001
1.079941e+003, 1.018775e-001
1.081870e+003, 1.028229e-001
1.083798e+003, 1.046763e-001
1.085727e+003, 1.067338e-001
1.087655e+003, 1.088169e-001
1.089584e+003, 1.109679e-001
1.091512e+003, 1.130775e-001
1.093441e+003, 1.152339e-001
1.095369e+003, 1.172314e-001
1.097298e+003, 1.190022e-001
1.099226e+003, 1.205238e-001
1.101155e+003, 1.218801e-001
1.103083e+003, 1.232598e-001
1.105011e+003, 1.246126e-001
1.106940e+003, 1.255083e-001
1.108868e+003, 1.256940e-001
1.110797e+003, 1.258920e-001
1.112725e+003, 1.259619e-001
1.114654e+003, 1.256782e-001
1.116582e+003, 1.250786e-001
1.118511e+003, 1.244368e-001
1.120439e+003, 1.239657e-001
1.122368e+003, 1.234186e-001
1.124296e+003, 1.227585e-001
1.126225e+003, 1.219211e-001
1.128153e+003, 1.205922e-001
1.130082e+003, 1.194208e-001
1.132010e+003, 1.184274e-001
1.133938e+003, 1.172520e-001
1.135867e+003, 1.163610e-001
1.137795e+003, 1.151899e-001
1.139724e+003, 1.131496e-001
1.141652e+003, 1.106925e-001
1.143581e+003, 1.083367e-001
1.145509e+003, 1.059279e-001
1.147438e+003, 1.031537e-001
1.149366e+003, 9.995623e-002
1.151295e+003, 9.661481e-002
1.153223e+003, 9.295224e-002
1.155152e+003, 8.943801e-002
1.157080e+003, 8.606470e-002
1.159009e+003, 8.278878e-002
1.160937e+003, 7.940406e-002
1.162865e+003, 7.594637e-002
1.164794e+003, 7.235034e-002
1.166722e+003, 6.864599e-002
1.168651e+003, 6.514608e-002
1.170579e+003, 6.140555e-002
1.172508e+003, 5.809187e-002
1.174436e+003, 5.475440e-002
1.176365e+003, 5.100355e-002
1.178293e+003, 4.746268e-002
1.180222e+003, 4.409387e-002
1.182150e+003, 4.096258e-002
1.184079e+003, 3.800427e-002
1.186007e+003, 3.503503e-002
1.187936e+003, 3.222417e-002
1.189864e+003, 2.968763e-002
1.191792e+003, 2.726629e-002
1.193721e+003, 2.503177e-002
1.195649e+003, 2.336225e-002
1.197578e+003, 2.180052e-002
1.199506e+003, 2.047368e-002
1.201435e+003, 1.918793e-002
1.203363e+003, 1.799094e-002
1.205292e+003, 1.708578e-002
1.207220e+003, 1.645828e-002
1.209149e+003, 1.575659e-002
1.211077e+003, 1.499955e-002
1.213006e+003, 1.447155e-002
1.214934e+003, 1.403874e-002
1.216863e+003, 1.316835e-002
1.218791e+003, 1.228924e-002
1.220719e+003, 1.157380e-002
1.222648e+003, 1.058999e-002
1.224576e+003, 9.630643e-003
1.226505e+003, 9.091584e-003
1.228433e+003, 8.608190e-003
1.230362e+003, 7.920382e-003
1.232290e+003, 7.384943e-003
1.234219e+003, 7.190428e-003
1.236147e+003, 6.843454e-003
1.238076e+003, 6.382219e-003
1.240004e+003, 5.839222e-003
1.241933e+003, 5.299893e-003
1.243861e+003, 5.073555e-003
1.245790e+003, 4.912111e-003
1.247718e+003, 4.740394e-003
1.249646e+003, 4.559205e-003
1.251575e+003, 4.484114e-003
1.253503e+003, 4.220728e-003
1.255432e+003, 3.935569e-003
1.257360e+003, 3.871037e-003
1.259289e+003, 3.774618e-003
1.261217e+003, 3.346108e-003
1.263146e+003, 2.946364e-003
1.265074e+003, 3.014544e-003
1.267003e+003, 3.075242e-003
1.268931e+003, 2.982517e-003
1.270860e+003, 3.017152e-003
1.272788e+003, 2.922472e-003
1.274717e+003, 2.698086e-003
1.276645e+003, 2.599905e-003
1.278573e+003, 2.806854e-003
1.280502e+003, 2.775013e-003
1.282430e+003, 2.680980e-003
1.284359e+003, 2.550672e-003
1.286287e+003, 2.325915e-003
1.288216e+003, 2.257656e-003
1.290144e+003, 2.254426e-003
1.292073e+003, 2.153998e-003
1.294001e+003, 2.231893e-003
1.295930e+003, 2.135773e-003
1.297858e+003, 1.992937e-003
1.299787e+003, 1.952248e-003
1.301715e+003, 2.142667e-003
1.303644e+003, 2.114624e-003
1.305572e+003, 1.945961e-003
1.307500e+003, 2.046352e-003
1.309429e+003, 2.141167e-003
1.311357e+003, 2.036428e-003
1.313286e+003, 2.028636e-003
1.315214e+003, 2.071370e-003
1.317143e+003, 2.127760e-003
1.319071e+003, 2.271624e-003
1.321000e+003, 2.483936e-003
1.322928e+003, 2.320427e-003
1.324857e+003, 2.156215e-003
1.326785e+003, 2.153352e-003
1.328714e+003, 2.091659e-003
1.330642e+003, 2.016511e-003
1.332571e+003, 2.211539e-003
1.334499e+003, 2.697823e-003
1.336427e+003, 2.786344e-003
1.338356e+003, 2.672208e-003
1.340284e+003, 2.631089e-003
1.342213e+003, 2.514668e-003
1.344141e+003, 2.823550e-003
1.346070e+003, 3.108715e-003
1.347998e+003, 2.919356e-003
1.349927e+003, 2.945649e-003
1.351855e+003, 3.336014e-003
1.353784e+003, 3.487676e-003
1.355712e+003, 3.516549e-003
1.357641e+003, 3.641938e-003
1.359569e+003, 3.891112e-003
1.361498e+003, 4.175062e-003
1.363426e+003, 4.312064e-003
1.365354e+003, 4.256235e-003
1.367283e+003, 4.480581e-003
1.369211e+003, 4.395212e-003
1.371140e+003, 4.137056e-003
1.373068e+003, 4.160925e-003
1.374997e+003, 4.249264e-003
1.376925e+003, 4.221222e-003
1.378854e+003, 4.365275e-003
1.380782e+003, 4.766556e-003
1.382711e+003, 5.103309e-003
1.384639e+003, 5.318771e-003
1.386568e+003, 5.696727e-003
1.388496e+003, 5.983842e-003
1.390424e+003, 6.064372e-003
1.392353e+003, 6.286527e-003
1.394281e+003, 6.892673e-003
1.396210e+003, 7.290093e-003
1.398138e+003, 7.567519e-003
1.400067e+003, 7.784010e-003
1.401995e+003, 7.997325e-003
1.403924e+003, 8.206316e-003
1.405852e+003, 8.581188e-003
1.407781e+003, 9.224531e-003
1.409709e+003, 9.395331e-003
1.411638e+003, 9.704302e-003
1.413566e+003, 1.024083e-002
1.415495e+003, 1.039889e-002
1.417423e+003, 1.047970e-002
1.419351e+003, 1.070193e-002
1.421280e+003, 1.108023e-002
1.423208e+003, 1.157128e-002
1.425137e+003, 1.158224e-002
1.427065e+003, 1.154473e-002
1.428994e+003, 1.171380e-002
1.430922e+003, 1.181271e-002
1.432851e+003, 1.201655e-002
1.434779e+003, 1.204062e-002
1.436708e+003, 1.212941e-002
1.438636e+003, 1.199121e-002
1.440565e+003, 1.203141e-002
1.442493e+003, 1.216115e-002
1.444422e+003, 1.218141e-002
1.446350e+003, 1.222856e-002
1.448278e+003, 1.224261e-002
1.450207e+003, 1.194371e-002
1.452135e+003, 1.200372e-002
1.454064e+003, 1.196668e-002
1.455992e+003, 1.161107e-002
1.457921e+003, 1.142657e-002
1.459849e+003, 1.153872e-002
1.461778e+003, 1.129230e-002
1.463706e+003, 1.106687e-002
1.465635e+003, 1.086845e-002
1.467563e+003, 1.035519e-002
1.469492e+003, 1.028735e-002
1.471420e+003, 1.063627e-002
1.473349e+003, 1.076369e-002
1.475277e+003, 1.060317e-002
1.477205e+003, 1.032961e-002
1.479134e+003, 1.007187e-002
1.481062e+003, 9.906463e-003
1.482991e+003, 9.678490e-003
1.484919e+003, 9.456221e-003
1.486848e+003, 9.359627e-003
1.488776e+003, 9.160291e-003
1.490705e+003, 9.055139e-003
1.492633e+003, 8.663243e-003
1.494562e+003, 8.356778e-003
1.496490e+003, 8.249841e-003
1.498419e+003, 8.062588e-003
1.500347e+003, 7.788850e-003
1.502276e+003, 7.577752e-003
1.504204e+003, 7.335667e-003
1.506132e+003, 7.218966e-003
1.508061e+003, 7.068223e-003
1.509989e+003, 6.782779e-003
1.511918e+003, 6.683889e-003
1.513846e+003, 6.543301e-003
1.515775e+003, 6.123394e-003
1.517703e+003, 6.148849e-003
1.519632e+003, 5.957312e-003
1.521560e+003, 5.492790e-003
1.523489e+003, 5.218890e-003
1.525417e+003, 5.087506e-003
1.527346e+003, 4.970076e-003
1.529274e+003, 4.702871e-003
1.531203e+003, 4.287601e-003
1.533131e+003, 4.333240e-003
1.535059e+003, 4.492548e-003
1.536988e+003, 4.549312e-003
1.538916e+003, 4.301452e-003
1.540845e+003, 4.090704e-003
1.542773e+003, 3.870437e-003
1.544702e+003, 3.760796e-003
1.546630e+003, 3.707672e-003
1.548559e+003, 3.624694e-003
1.550487e+003, 3.504120e-003
1.552416e+003, 3.453465e-003
1.554344e+003, 3.679092e-003
1.556273e+003, 3.901555e-003
1.558201e+003, 3.986364e-003
1.560130e+003, 3.817487e-003
1.562058e+003, 3.626944e-003
1.563986e+003, 3.774240e-003
1.565915e+003, 3.697455e-003
1.567843e+003, 3.670565e-003
1.569772e+003, 3.634867e-003
1.571700e+003, 3.529866e-003
1.573629e+003, 3.469578e-003
1.575557e+003, 3.498229e-003
1.577486e+003, 3.236413e-003
1.579414e+003, 3.120445e-003
1.581343e+003, 3.432503e-003
1.583271e+003, 3.555273e-003
1.585200e+003, 3.194191e-003
1.587128e+003, 3.092315e-003
1.589057e+003, 3.023724e-003
1.590985e+003, 2.848350e-003
1.592913e+003, 3.011608e-003
1.594842e+003, 2.791265e-003
1.596770e+003, 2.523563e-003
1.598699e+003, 2.717498e-003
1.600627e+003, 2.975378e-003
1.602556e+003, 2.898550e-003
1.604484e+003, 2.843691e-003
1.606413e+003, 2.809592e-003
1.608341e+003, 2.707834e-003
1.610270e+003, 2.821909e-003
1.612198e+003, 2.921087e-003
1.614127e+003, 2.933227e-003
1.616055e+003, 3.230813e-003
1.617984e+003, 3.591890e-003
1.619912e+003, 3.451008e-003
1.621840e+003, 3.244485e-003
1.623769e+003, 3.346289e-003
1.625697e+003, 3.457703e-003
1.627626e+003, 3.293714e-003
1.629554e+003, 3.159086e-003
1.631483e+003, 3.284303e-003
1.633411e+003, 3.673848e-003
1.635340e+003, 3.611794e-003
1.637268e+003, 3.232131e-003
1.639197e+003, 2.916884e-003
1.641125e+003, 2.908577e-003
1.643054e+003, 3.369949e-003
1.644982e+003, 3.744800e-003
1.646911e+003, 3.616892e-003
1.648839e+003, 3.730460e-003
1.650767e+003, 4.106545e-003
1.652696e+003, 4.448039e-003
1.654624e+003, 4.390951e-003
1.656553e+003, 3.692519e-003
1.658481e+003, 3.321925e-003
1.660410e+003, 3.410798e-003
1.662338e+003, 3.436620e-003
1.664267e+003, 3.102426e-003
1.666195e+003, 3.065270e-003
1.668124e+003, 3.519558e-003
1.670052e+003, 3.366226e-003
1.671981e+003, 3.648397e-003
1.673909e+003, 4.483926e-003
1.675838e+003, 4.489147e-003
1.677766e+003, 3.820160e-003
1.679694e+003, 3.608234e-003
1.681623e+003, 3.788166e-003
1.683551e+003, 4.028279e-003
1.685480e+003, 4.010263e-003
1.687408e+003, 3.925358e-003
1.689337e+003, 4.076850e-003
1.691265e+003, 3.864698e-003
1.693194e+003, 3.840117e-003
1.695122e+003, 3.776628e-003
1.697051e+003, 3.483749e-003
1.698979e+003, 3.294240e-003
1.700908e+003, 3.115603e-003
1.702836e+003, 2.743743e-003
1.704765e+003, 2.462349e-003
1.706693e+003, 2.360858e-003
1.708621e+003, 2.733120e-003
1.710550e+003, 3.012782e-003
1.712478e+003, 2.405406e-003
1.714407e+003, 2.087334e-003
1.716335e+003, 2.321312e-003
1.718264e+003, 1.730720e-003
1.720192e+003, 1.461690e-003
1.722121e+003, 1.443376e-003
1.724049e+003, 1.310101e-003
1.725978e+003, 1.239787e-003
1.727906e+003, 1.336547e-003
1.729835e+003, 1.470056e-003
1.731763e+003, 1.150034e-003
1.733692e+003, 8.695754e-004
1.735620e+003, 3.616402e-004
1.737548e+003, -1.252087e-004
1.739477e+003, -4.079520e-004
1.741405e+003, -4.164202e-004
1.743334e+003, -4.094916e-004
1.745262e+003, -6.464680e-004
1.747191e+003, -5.758018e-004
1.749119e+003, -6.844223e-005
1.751048e+003, 6.893004e-005
1.752976e+003, 9.142842e-005
1.754905e+003, 3.608881e-004
1.756833e+003, 5.140596e-004
1.758762e+003, 8.315688e-004
1.760690e+003, 1.255839e-003
1.762619e+003, 7.769745e-004
1.764547e+003, 4.500324e-004
1.766475e+003, 1.036396e-003
1.768404e+003, 9.066382e-004
1.770332e+003, 6.519697e-004
1.772261e+003, 1.172282e-003
1.774189e+003, 1.022380e-003
1.776118e+003, 5.543304e-004
1.778046e+003, 7.098847e-004
1.779975e+003, 1.332157e-003
1.781903e+003, 1.417707e-003
1.783832e+003, 1.158566e-003
1.785760e+003, 1.165152e-003
1.787689e+003, 1.006612e-003
1.789617e+003, 1.126396e-003
1.791546e+003, 1.272972e-003
1.793474e+003, 8.184155e-004
1.795402e+003, 4.452233e-004
1.797331e+003, 3.538836e-004
1.799259e+003, 3.696516e-004
1.801188e+003, 5.601242e-004
1.803116e+003, 4.617223e-004
1.805045e+003, 4.187708e-004
1.806973e+003, 7.506189e-004
1.808902e+003, 8.129758e-004
1.810830e+003, 3.570818e-004
1.812759e+003, -1.249833e-004
1.814687e+003, -2.882606e-004
1.816616e+003, 8.023976e-005
1.818544e+003, 5.165000e-004
1.820473e+003, 7.467921e-005
1.822401e+003, -1.683313e-004
1.824329e+003, -1.698994e-004
1.826258e+003, 8.326792e-005
1.828186e+003, 2.150449e-005
1.830115e+003, -1.414584e-004
1.832043e+003, -2.411365e-004
1.833972e+003, -2.706705e-004
1.835900e+003, -3.328574e-004
1.837829e+003, -6.667011e-004
1.839757e+003, -3.688362e-004
1.841686e+003, 4.201892e-004
1.843614e+003, 7.771516e-004
1.845543e+003, 3.874195e-004
1.847471e+003, -2.790269e-004
1.849400e+003, -3.307110e-004
1.851328e+003, -2.864160e-004
1.853256e+003, -5.797696e-004
1.855185e+003, -4.736697e-004
1.857113e+003, -6.449841e-004
1.859042e+003, -8.338466e-004
1.860970e+003, -2.856271e-004
1.862899e+003, -4.787854e-004
1.864827e+003, -9.911109e-004
1.866756e+003, -1.265764e-003
1.868684e+003, -1.476245e-003
1.870613e+003, -1.380506e-003
1.872541e+003, -7.679387e-004
1.874470e+003, -4.047863e-004
1.876398e+003, -9.164067e-004
1.878327e+003, -8.858917e-004
1.880255e+003, -5.947527e-004
1.882183e+003, -9.418448e-004
1.884112e+003, -1.519714e-003
1.886040e+003, -1.486962e-003
1.887969e+003, -9.979119e-004
1.889897e+003, -1.220556e-003
1.891826e+003, -1.718372e-003
1.893754e+003, -2.576648e-003
1.895683e+003, -2.271148e-003
1.897611e+003, -1.416625e-003
1.899540e+003, -8.048542e-004
1.901468e+003, -1.147249e-003
1.903397e+003, -2.255987e-003
1.905325e+003, -2.808477e-003
1.907254e+003, -2.526408e-003
1.909182e+003, -2.566991e-003
1.911110e+003, -2.694629e-003
1.913039e+003, -3.018753e-003
1.914967e+003, -3.534103e-003
1.916896e+003, -3.617410e-003
1.918824e+003, -3.325880e-003
1.920753e+003, -3.862469e-003
1.922681e+003, -3.957718e-003
1.924610e+003, -3.673237e-003
1.926538e+003, -3.312928e-003
1.928467e+003, -3.270991e-003
1.930395e+003, -4.479854e-003
1.932324e+003, -4.524004e-003
1.934252e+003, -5.095085e-003
1.936181e+003, -6.565686e-003
1.938109e+003, -7.187961e-003
1.940037e+003, -6.053362e-003
1.941966e+003, -5.390563e-003
1.943894e+003, -5.177076e-003
1.945823e+003, -4.895090e-003
1.947751e+003, -5.303501e-003
1.949680e+003, -4.813905e-003
1.951608e+003, -4.104529e-003
1.953537e+003, -4.792535e-003
1.955465e+003, -8.560437e-003
1.957394e+003, -1.065493e-002
1.959322e+003, -8.831338e-003
1.961251e+003, -8.290491e-003
1.963179e+003, -8.462763e-003
1.965108e+003, -8.355541e-003
1.967036e+003, -7.788035e-003
1.968964e+003, -6.748060e-003
1.970893e+003, -7.183862e-003
1.972821e+003, -8.624963e-003
1.974750e+003, -1.000186e-002
1.976678e+003, -8.593908e-003
1.978607e+003, -7.363637e-003
1.980535e+003, -7.499109e-003
1.982464e+003, -8.379642e-003
1.984392e+003, -8.976288e-003
1.986321e+003, -6.885179e-003
1.988249e+003, -6.720290e-003
1.990178e+003, -6.364503e-003
1.992106e+003, -3.598443e-003
1.994035e+003, -4.887484e-003
1.995963e+003, -7.316558e-003
1.997891e+003, -7.046049e-003
1.999820e+003, -6.360411e-003
2.001748e+003, -6.235049e-003
2.003677e+003, -8.275989e-003
2.005605e+003, -8.387162e-003
2.007534e+003, -7.410683e-003
2.009462e+003, -7.509760e-003
2.011391e+003, -8.125036e-003
2.013319e+003, -8.050406e-003
2.015248e+003, -6.017642e-003
2.017176e+003, -4.805357e-003
2.019105e+003, -5.314609e-003
2.021033e+003, -7.207567e-003
2.022962e+003, -7.220495e-003
2.024890e+003, -4.515673e-003
2.026818e+003, -6.454146e-003
2.028747e+003, -1.022166e-002
2.030675e+003, -7.896574e-003
2.032604e+003, -5.178419e-003
2.034532e+003, -5.471128e-003
2.036461e+003, -6.133857e-003
2.038389e+003, -7.422049e-003
2.040318e+003, -7.957989e-003
2.042246e+003, -4.816287e-003
2.044175e+003, -3.651081e-003
2.046103e+003, -4.563722e-003
2.048032e+003, -3.105594e-003
2.049960e+003, -5.570019e-004
2.051889e+003, -1.636041e-003
2.053817e+003, -1.876647e-003
2.055746e+003, -1.731646e-003
2.057674e+003, -4.200510e-003
2.059603e+003, -4.585481e-003
2.061531e+003, -3.107889e-003
2.063459e+003, -3.564112e-003
2.065388e+003, -3.935312e-003
2.067316e+003, -2.132702e-003
2.069245e+003, -5.991731e-004
2.071173e+003, -7.813832e-004
2.073102e+003, -1.437775e-003
2.075030e+003, -2.079543e-003
2.076959e+003, -1.703357e-003
2.078887e+003, -1.031104e-004
2.080816e+003, 1.326802e-003
2.082744e+003, 5.787627e-004
2.084673e+003, -1.888276e-004
2.086601e+003, 2.236183e-004
2.088530e+003, 4.633527e-004
2.090458e+003, 3.740335e-006
2.092386e+003, -2.173020e-003
2.094315e+003, -4.200712e-003
2.096243e+003, -2.869396e-003
2.098172e+003, 1.719414e-004
2.100100e+003, 4.767110e-004
2.102029e+003, -6.186887e-004
2.103957e+003, -7.914529e-004
2.105886e+003, -5.791011e-004
2.107814e+003, -5.314010e-004
2.109743e+003, -2.382029e-004
2.111671e+003, -3.585169e-004
2.113600e+003, -3.635346e-004
2.115528e+003, -6.730955e-004
2.117457e+003, -9.926474e-004
2.119385e+003, -1.769062e-003
2.121313e+003, -1.415485e-004
2.123242e+003, 9.860824e-004
2.125170e+003, 1.699986e-004
2.127099e+003, -8.093124e-004
2.129027e+003, -1.278629e-003
2.130956e+003, -2.623078e-003
2.132884e+003, -5.117125e-003
2.134813e+003, -2.873325e-003
2.136741e+003, 7.812402e-004
2.138670e+003, 9.292630e-004
2.140598e+003, -3.435008e-003
2.142527e+003, -6.109719e-003
2.144455e+003, -3.891753e-003
2.146384e+003, -4.249435e-003
2.148312e+003, -7.248377e-003
2.150240e+003, -5.294937e-003
2.152169e+003, -3.895100e-003
2.154097e+003, -6.790651e-003
2.156026e+003, -9.079026e-003
2.157954e+003, -5.810487e-003
2.159883e+003, -2.563482e-003
2.161811e+003, -2.004346e-003
2.163740e+003, -1.516454e-003
2.165668e+003, 1.722192e-005
2.167597e+003, -1.211849e-003
2.169525e+003, -2.670124e-003
2.171454e+003, -4.401985e-003
2.173382e+003, -2.785235e-003
2.175311e+003, -1.409060e-003
2.177239e+003, -3.203027e-003
2.179167e+003, -4.405907e-003
2.181096e+003, -3.393282e-003
2.183024e+003, -1.589113e-003
2.184953e+003, -1.191619e-003
2.186881e+003, -2.316552e-003
2.188810e+003, -1.641471e-003
2.190738e+003, -9.044522e-004
2.192667e+003, -1.929205e-003
2.194595e+003, -2.367737e-003
2.196524e+003, -1.266181e-003
2.198452e+003, -1.348475e-003
2.200381e+003, -3.122847e-004
2.202309e+003, -9.943021e-004
2.204238e+003, -1.554170e-003
2.206166e+003, -1.890526e-003
2.208094e+003, -1.940881e-003
2.210023e+003, -3.302560e-003
2.211951e+003, -5.325333e-003
2.213880e+003, -4.499381e-003
2.215808e+003, -1.305819e-003
2.217737e+003, -7.940928e-004
2.219665e+003, -2.234472e-003
2.221594e+003, -3.602163e-003
2.223522e+003, -3.800880e-003
2.225451e+003, -3.301732e-003
2.227379e+003, -1.926970e-003
2.229308e+003, -2.179914e-003
2.231236e+003, -2.510803e-003
2.233165e+003, -1.820756e-003
2.235093e+003, -2.048346e-003
2.237021e+003, -3.279452e-003
2.238950e+003, -2.794849e-003
2.240878e+003, -1.588901e-003
2.242807e+003, -9.664844e-004
2.244735e+003, 2.809630e-004
2.246664e+003, -1.283041e-003
2.248592e+003, -2.664681e-003
2.250521e+003, -2.111892e-003
2.252449e+003, -1.852272e-003
2.254378e+003, -1.077504e-003
2.256306e+003, -8.157464e-004
2.258235e+003, -1.205348e-004
2.260163e+003, 5.548546e-004
2.262092e+003, 5.149353e-005
2.264020e+003, 1.499590e-003
2.265948e+003, 1.717903e-003
2.267877e+003, 3.772948e-004
2.269805e+003, 6.392481e-004
2.271734e+003, 2.830623e-004
2.273662e+003, 2.561444e-005
2.275591e+003, 1.174040e-004
2.277519e+003, 9.230464e-004
2.279448e+003, 2.102797e-003
2.281376e+003, 1.031223e-003
2.283305e+003, 8.177148e-004
2.285233e+003, 1.527064e-003
2.287162e+003, 2.464483e-003
2.289090e+003, 3.553471e-003
2.291019e+003, 2.706782e-003
2.292947e+003, 1.897297e-003
2.294875e+003, 1.907120e-003
2.296804e+003, 1.790240e-003
2.298732e+003, 2.574004e-003
2.300661e+003, 2.800349e-003
2.302589e+003, 2.519120e-003
2.304518e+003, 2.578875e-003
2.306446e+003, 2.102431e-003
2.308375e+003, 1.471519e-003
2.310303e+003, 1.500270e-003
2.312232e+003, 1.937203e-003
2.314160e+003, 2.019566e-003
2.316089e+003, 2.625600e-003
2.318017e+003, 3.718165e-003
2.319946e+003, 4.312120e-003
2.321874e+003, 4.930364e-003
2.323802e+003, 5.090768e-003
2.325731e+003, 3.226523e-003
2.327659e+003, 2.231444e-003
2.329588e+003, 2.775726e-003
2.331516e+003, 2.965041e-003
2.333445e+003, 2.539701e-003
2.335373e+003, 2.649091e-003
2.337302e+003, 3.014497e-003
2.339230e+003, 3.109809e-003
2.341159e+003, 2.774345e-003
2.343087e+003, 3.256053e-003
2.345016e+003, 3.198481e-003
2.346944e+003, 2.061968e-003
2.348873e+003, 1.830825e-003
2.350801e+003, 2.829745e-003
2.352729e+003, 2.864743e-003
2.354658e+003, 2.793393e-003
2.356586e+003, 3.198127e-003
2.358515e+003, 3.533571e-003
2.360443e+003, 2.587668e-003
2.362372e+003, 2.300651e-003
2.364300e+003, 2.647188e-003
2.366229e+003, 1.856528e-003
2.368157e+003, 1.501141e-003
2.370086e+003, 2.366723e-003
2.372014e+003, 2.322960e-003
2.373942e+003, 1.396974e-003
2.375871e+003, 1.704483e-003
2.377799e+003, 1.579766e-003
2.379728e+003, 1.309029e-003
2.381656e+003, 1.181147e-003
2.383585e+003, 1.602673e-003
2.385513e+003, 1.687570e-003
2.387442e+003, 1.802087e-003
2.389370e+003, 2.450257e-003
2.391299e+003, 1.913346e-003
2.393227e+003, 1.636239e-003
2.395156e+003, 2.454042e-003
2.397084e+003, 2.590651e-003
2.399012e+003, 2.408914e-003
2.400941e+003, 3.370368e-003
2.402869e+003, 2.788717e-003
2.404798e+003, 1.615420e-003
2.406726e+003, 2.692851e-003
2.408655e+003, 3.591714e-003
2.410583e+003, 3.459070e-003
2.412512e+003, 3.294391e-003
2.414440e+003, 3.286672e-003
2.416369e+003, 2.969771e-003
2.418297e+003, 2.243092e-003
2.420226e+003, 2.177618e-003
2.422154e+003, 3.107272e-003
2.424083e+003, 3.265636e-003
2.426011e+003, 2.542784e-003
2.427939e+003, 2.119505e-003
2.429868e+003, 2.283436e-003
2.431796e+003, 2.616616e-003
2.433725e+003, 2.344843e-003
2.435653e+003, 2.306989e-003
2.437582e+003, 1.961868e-003
2.439510e+003, 2.341507e-003
2.441439e+003, 3.231324e-003
2.443367e+003, 3.271881e-003
2.445296e+003, 2.385225e-003
2.447224e+003, 2.432049e-003
2.449153e+003, 2.551096e-003
2.451081e+003, 3.401564e-003
2.453010e+003, 3.749529e-003
2.454938e+003, 3.575602e-003
2.456866e+003, 2.625067e-003
2.458795e+003, 2.260571e-003
2.460723e+003, 2.451675e-003
2.462652e+003, 2.440674e-003
2.464580e+003, 2.527711e-003
2.466509e+003, 1.787354e-003
2.468437e+003, 1.149592e-003
2.470366e+003, 1.538879e-003
2.472294e+003, 2.295311e-003
2.474223e+003, 1.756320e-003
2.476151e+003, 1.723831e-003
2.478080e+003, 2.381324e-003
2.480008e+003, 2.995659e-003
2.481937e+003, 4.234362e-003
2.483865e+003, 4.404897e-003
2.485793e+003, 2.922204e-003
2.487722e+003, 2.183422e-003
2.489650e+003, 3.615483e-003
2.491579e+003, 3.998966e-003
2.493507e+003, 4.043691e-003
2.495436e+003, 3.662711e-003
2.497364e+003, 3.616307e-003
2.499293e+003, 3.986911e-003
2.501221e+003, 3.874954e-003
2.503150e+003, 3.802783e-003
2.505078e+003, 4.481688e-003
2.507007e+003, 4.272213e-003
2.508935e+003, 3.616965e-003
2.510864e+003, 3.746378e-003
2.512792e+003, 3.319833e-003
2.514720e+003, 1.983217e-003
2.516649e+003, 2.328803e-003
2.518577e+003, 3.177990e-003
2.520506e+003, 3.890750e-003
2.522434e+003, 4.703430e-003
2.524363e+003, 4.163246e-003
2.526291e+003, 3.404167e-003
2.528220e+003, 2.994170e-003
2.530148e+003, 2.506056e-003
2.532077e+003, 2.032711e-003
2.534005e+003, 3.547473e-003
2.535934e+003, 4.101361e-003
2.537862e+003, 3.734601e-003
2.539791e+003, 4.009789e-003
2.541719e+003, 3.176700e-003
2.543647e+003, 2.924552e-003
2.545576e+003, 2.812438e-003
2.547504e+003, 2.146917e-003
2.549433e+003, 2.558770e-003
2.551361e+003, 4.023390e-003
2.553290e+003, 4.409350e-003
2.555218e+003, 4.038650e-003
2.557147e+003, 3.661475e-003
2.559075e+003, 2.774819e-003
2.561004e+003, 2.255307e-003
2.562932e+003, 3.118391e-003
2.564861e+003, 3.768192e-003
2.566789e+003, 3.788263e-003
2.568718e+003, 3.387915e-003
2.570646e+003, 2.392853e-003
2.572574e+003, 3.361795e-003
2.574503e+003, 4.313673e-003
2.576431e+003, 4.246377e-003
2.578360e+003, 4.011950e-003
2.580288e+003, 3.958580e-003
2.582217e+003, 2.830276e-003
2.584145e+003, 3.131924e-003
2.586074e+003, 4.580562e-003
2.588002e+003, 4.877019e-003
2.589931e+003, 3.474255e-003
2.591859e+003, 2.791513e-003
2.593788e+003, 3.303835e-003
2.595716e+003, 3.836479e-003
2.597645e+003, 4.211446e-003
2.599573e+003, 4.562181e-003
2.601501e+003, 3.973218e-003
2.603430e+003, 3.486566e-003
2.605358e+003, 2.731110e-003
2.607287e+003, 2.875769e-003
2.609215e+003, 3.820605e-003
2.611144e+003, 4.563203e-003
2.613072e+003, 4.000013e-003
2.615001e+003, 2.974795e-003
2.616929e+003, 3.003244e-003
2.618858e+003, 3.027295e-003
2.620786e+003, 4.800573e-003
2.622715e+003, 5.615466e-003
2.624643e+003, 4.893575e-003
2.626572e+003, 4.955034e-003
2.628500e+003, 5.069592e-003
2.630428e+003, 4.252875e-003
2.632357e+003, 3.303714e-003
2.634285e+003, 4.009274e-003
2.636214e+003, 4.246447e-003
2.638142e+003, 3.970847e-003
2.640071e+003, 4.728730e-003
2.641999e+003, 5.096683e-003
2.643928e+003, 5.067758e-003
2.645856e+003, 4.956195e-003
2.647785e+003, 5.125997e-003
2.649713e+003, 4.696280e-003
2.651642e+003, 4.285673e-003
2.653570e+003, 4.094212e-003
2.655499e+003, 4.599550e-003
2.657427e+003, 4.823477e-003
2.659355e+003, 3.984739e-003
2.661284e+003, 3.679568e-003
2.663212e+003, 4.158505e-003
2.665141e+003, 4.066514e-003
2.667069e+003, 3.448230e-003
2.668998e+003, 3.006164e-003
2.670926e+003, 2.795052e-003
2.672855e+003, 2.505034e-003
2.674783e+003, 2.928269e-003
2.676712e+003, 3.084657e-003
2.678640e+003, 2.933293e-003
2.680569e+003, 2.619525e-003
2.682497e+003, 3.435549e-003
2.684426e+003, 4.219123e-003
2.686354e+003, 4.263248e-003
2.688282e+003, 4.061958e-003
2.690211e+003, 4.235015e-003
2.692139e+003, 4.510687e-003
2.694068e+003, 3.489493e-003
2.695996e+003, 2.368100e-003
2.697925e+003, 3.263726e-003
2.699853e+003, 3.986894e-003
2.701782e+003, 4.021720e-003
2.703710e+003, 2.857976e-003
2.705639e+003, 1.856948e-003
2.707567e+003, 2.073263e-003
2.709496e+003, 2.200060e-003
2.711424e+003, 2.450743e-003
2.713353e+003, 2.887354e-003
2.715281e+003, 2.906111e-003
2.717209e+003, 3.450176e-003
2.719138e+003, 3.305042e-003
2.721066e+003, 3.032521e-003
2.722995e+003, 3.671181e-003
2.724923e+003, 4.389109e-003
2.726852e+003, 4.601854e-003
2.728780e+003, 4.281010e-003
2.730709e+003, 3.634042e-003
2.732637e+003, 2.562843e-003
2.734566e+003, 2.396288e-003
2.736494e+003, 3.374155e-003
2.738423e+003, 4.120348e-003
2.740351e+003, 4.207229e-003
2.742280e+003, 3.806658e-003
2.744208e+003, 3.525646e-003
2.746136e+003, 3.735713e-003
2.748065e+003, 4.216889e-003
2.749993e+003, 4.374641e-003
2.751922e+003, 3.970728e-003
2.753850e+003, 3.249869e-003
2.755779e+003, 3.189212e-003
2.757707e+003, 3.257975e-003
2.759636e+003, 4.056703e-003
2.761564e+003, 4.193001e-003
2.763493e+003, 3.399164e-003
2.765421e+003, 3.639299e-003
2.767350e+003, 4.150732e-003
2.769278e+003, 4.619542e-003
2.771207e+003, 5.093625e-003
2.773135e+003, 4.860457e-003
2.775063e+003, 4.069463e-003
2.776992e+003, 3.006159e-003
2.778920e+003, 3.854457e-003
2.780849e+003, 5.385184e-003
2.782777e+003, 4.966468e-003
2.784706e+003, 3.733756e-003
2.786634e+003, 3.197873e-003
2.788563e+003, 3.641255e-003
2.790491e+003, 3.715978e-003
2.792420e+003, 3.156089e-003
2.794348e+003, 4.066552e-003
2.796277e+003, 5.006910e-003
2.798205e+003, 4.369880e-003
2.800134e+003, 4.567808e-003
2.802062e+003, 4.959026e-003
2.803990e+003, 5.115671e-003
2.805919e+003, 4.957425e-003
2.807847e+003, 3.983951e-003
2.809776e+003, 3.234739e-003
2.811704e+003, 3.529940e-003
2.813633e+003, 4.045507e-003
2.815561e+003, 3.826150e-003
2.817490e+003, 3.526740e-003
2.819418e+003, 3.656868e-003
2.821347e+003, 3.942179e-003
2.823275e+003, 3.999363e-003
2.825204e+003, 4.578563e-003
2.827132e+003, 3.798927e-003
2.829061e+003, 3.599274e-003
2.830989e+003, 4.359420e-003
2.832917e+003, 4.394464e-003
2.834846e+003, 5.085023e-003
2.836774e+003, 4.799468e-003
2.838703e+003, 4.382133e-003
2.840631e+003, 4.593290e-003
2.842560e+003, 4.078483e-003
2.844488e+003, 3.224118e-003
2.846417e+003, 4.266820e-003
2.848345e+003, 4.542991e-003
2.850274e+003, 4.521271e-003
2.852202e+003, 4.342991e-003
2.854131e+003, 3.167918e-003
2.856059e+003, 3.498130e-003
2.857988e+003, 4.836706e-003
2.859916e+003, 4.978428e-003
2.861844e+003, 4.503076e-003
2.863773e+003, 4.035418e-003
2.865701e+003, 3.666521e-003
2.867630e+003, 2.275013e-003
2.869558e+003, 2.092332e-003
2.871487e+003, 3.983516e-003
2.873415e+003, 5.513272e-003
2.875344e+003, 5.074494e-003
2.877272e+003, 5.040980e-003
2.879201e+003, 5.293500e-003
2.881129e+003, 4.838682e-003
2.883058e+003, 4.164193e-003
2.884986e+003, 4.499395e-003
2.886915e+003, 5.397159e-003
2.888843e+003, 5.180427e-003
2.890771e+003, 4.943729e-003
2.892700e+003, 5.321472e-003
2.894628e+003, 5.140975e-003
2.896557e+003, 4.162380e-003
2.898485e+003, 5.094642e-003
2.900414e+003, 5.608493e-003
2.902342e+003, 4.535156e-003
2.904271e+003, 3.863813e-003
2.906199e+003, 2.991661e-003
2.908128e+003, 4.181609e-003
2.910056e+003, 5.649170e-003
2.911985e+003, 5.519520e-003
2.913913e+003, 4.186510e-003
2.915842e+003, 3.227185e-003
2.917770e+003, 3.136357e-003
2.919698e+003, 3.926557e-003
2.921627e+003, 4.484835e-003
2.923555e+003, 4.337469e-003
2.925484e+003, 5.413826e-003
2.927412e+003, 5.283145e-003
2.929341e+003, 4.961885e-003
2.931269e+003, 5.924449e-003
2.933198e+003, 5.915862e-003
2.935126e+003, 5.026547e-003
2.937055e+003, 4.863165e-003
2.938983e+003, 5.309899e-003
2.940912e+003, 6.087120e-003
2.942840e+003, 5.310179e-003
2.944769e+003, 5.186810e-003
2.946697e+003, 4.196882e-003
2.948625e+003, 4.383571e-003
2.950554e+003, 5.594285e-003
2.952482e+003, 5.479024e-003
2.954411e+003, 5.087504e-003
2.956339e+003, 5.850261e-003
2.958268e+003, 6.406241e-003
2.960196e+003, 6.063534e-003
2.962125e+003, 6.385929e-003
2.964053e+003, 6.691145e-003
2.965982e+003, 7.997729e-003
2.967910e+003, 8.050177e-003
2.969839e+003, 6.359757e-003
2.971767e+003, 5.296442e-003
2.973696e+003, 5.012922e-003
2.975624e+003, 5.090849e-003
2.977552e+003, 4.249421e-003
2.979481e+003, 4.471169e-003
2.981409e+003, 4.823777e-003
2.983338e+003, 4.613093e-003
2.985266e+003, 4.990882e-003
2.987195e+003, 5.994592e-003
2.989123e+003, 6.052879e-003
2.991052e+003, 6.704092e-003
2.992980e+003, 6.629393e-003
2.994909e+003, 6.010810e-003
2.996837e+003, 4.513485e-003
2.998766e+003, 5.280043e-003
3.000694e+003, 6.028519e-003
3.002623e+003, 6.367073e-003
3.004551e+003, 6.867210e-003
3.006479e+003, 6.588955e-003
3.008408e+003, 6.743094e-003
3.010336e+003, 6.499263e-003
3.012265e+003, 6.752845e-003
3.014193e+003, 7.102242e-003
3.016122e+003, 6.248967e-003
3.018050e+003, 4.968858e-003
3.019979e+003, 5.893835e-003
3.021907e+003, 5.575426e-003
3.023836e+003, 5.003513e-003
3.025764e+003, 6.029544e-003
3.027693e+003, 6.600097e-003
3.029621e+003, 7.189325e-003
3.031550e+003, 6.766155e-003
3.033478e+003, 6.644418e-003
3.035406e+003, 6.882792e-003
3.037335e+003, 6.090989e-003
3.039263e+003, 5.140429e-003
3.041192e+003, 5.334198e-003
3.043120e+003, 6.092756e-003
3.045049e+003, 5.867238e-003
3.046977e+003, 5.730726e-003
3.048906e+003, 5.651481e-003
3.050834e+003, 5.068167e-003
3.052763e+003, 4.339315e-003
3.054691e+003, 5.688493e-003
3.056620e+003, 7.146531e-003
3.058548e+003, 7.534786e-003
3.060477e+003, 8.177687e-003
3.062405e+003, 7.432764e-003
3.064333e+003, 5.306518e-003
3.066262e+003, 5.258141e-003
3.068190e+003, 6.502419e-003
3.070119e+003, 6.649471e-003
3.072047e+003, 5.732069e-003
3.073976e+003, 4.975078e-003
3.075904e+003, 4.632471e-003
3.077833e+003, 5.713526e-003
3.079761e+003, 6.271382e-003
3.081690e+003, 5.330149e-003
3.083618e+003, 4.178127e-003
3.085547e+003, 3.787142e-003
3.087475e+003, 4.282052e-003
3.089404e+003, 6.563164e-003
3.091332e+003, 6.747000e-003
3.093260e+003, 7.193443e-003
3.095189e+003, 6.768339e-003
3.097117e+003, 6.671953e-003
3.099046e+003, 6.821674e-003
3.100974e+003, 5.520666e-003
3.102903e+003, 5.300857e-003
3.104831e+003, 6.608140e-003
3.106760e+003, 7.706975e-003
3.108688e+003, 7.419419e-003
3.110617e+003, 7.918143e-003
3.112545e+003, 7.115962e-003
3.114474e+003, 6.373867e-003
3.116402e+003, 4.824008e-003
3.118331e+003, 4.421630e-003
3.120259e+003, 5.225254e-003
3.122188e+003, 6.179301e-003
3.124116e+003, 7.648068e-003
3.126044e+003, 7.283967e-003
3.127973e+003, 6.627485e-003
3.129901e+003, 6.837007e-003
3.131830e+003, 8.314794e-003
3.133758e+003, 8.051872e-003
3.135687e+003, 7.227366e-003
3.137615e+003, 7.974237e-003
3.139544e+003, 8.143805e-003
3.141472e+003, 6.951317e-003
3.143401e+003, 7.211182e-003
3.145329e+003, 8.459964e-003
3.147258e+003, 8.588064e-003
3.149186e+003, 7.857396e-003
3.151115e+003, 8.057435e-003
3.153043e+003, 7.793678e-003
3.154971e+003, 7.360844e-003
3.156900e+003, 8.064233e-003
3.158828e+003, 8.719536e-003
3.160757e+003, 9.108028e-003
3.162685e+003, 9.348532e-003
3.164614e+003, 8.950161e-003
3.166542e+003, 7.847305e-003
3.168471e+003, 7.940779e-003
3.170399e+003, 7.954170e-003
3.172328e+003, 7.385274e-003
3.174256e+003, 6.509009e-003
3.176185e+003, 7.057304e-003
3.178113e+003, 8.548014e-003
3.180042e+003, 7.578458e-003
3.181970e+003, 7.814603e-003
3.183898e+003, 8.115478e-003
3.185827e+003, 8.314400e-003
3.187755e+003, 9.005935e-003
3.189684e+003, 8.225481e-003
3.191612e+003, 6.927476e-003
3.193541e+003, 7.837805e-003
3.195469e+003, 9.978017e-003
3.197398e+003, 9.623094e-003
3.199326e+003, 8.625017e-003
3.201255e+003, 8.741326e-003
3.203183e+003, 9.166287e-003
3.205112e+003, 9.390970e-003
3.207040e+003, 9.777847e-003
3.208969e+003, 8.768703e-003
3.210897e+003, 7.673493e-003
3.212825e+003, 8.511133e-003
3.214754e+003, 8.644636e-003
3.216682e+003, 8.990684e-003
3.218611e+003, 9.973155e-003
3.220539e+003, 9.256666e-003
3.222468e+003, 6.783604e-003
3.224396e+003, 6.887079e-003
3.226325e+003, 9.673341e-003
3.228253e+003, 8.971889e-003
3.230182e+003, 7.407303e-003
3.232110e+003, 8.792603e-003
3.234039e+003, 1.042293e-002
3.235967e+003, 8.827264e-003
3.237896e+003, 7.887756e-003
3.239824e+003, 8.506728e-003
3.241752e+003, 7.690747e-003
3.243681e+003, 8.548861e-003
3.245609e+003, 1.018647e-002
3.247538e+003, 9.771832e-003
3.249466e+003, 9.538814e-003
3.251395e+003, 1.157864e-002
3.253323e+003, 1.152627e-002
3.255252e+003, 9.086871e-003
3.257180e+003, 8.703015e-003
3.259109e+003, 1.081120e-002
3.261037e+003, 1.001712e-002
3.262966e+003, 9.532834e-003
3.264894e+003, 9.782229e-003
3.266823e+003, 1.131679e-002
3.268751e+003, 1.162723e-002
3.270679e+003, 1.112557e-002
3.272608e+003, 1.026345e-002
3.274536e+003, 8.321514e-003
3.276465e+003, 7.174497e-003
3.278393e+003, 7.245646e-003
3.280322e+003, 7.840718e-003
3.282250e+003, 8.884354e-003
3.284179e+003, 1.092211e-002
3.286107e+003, 1.190547e-002
3.288036e+003, 1.209955e-002
3.289964e+003, 1.167378e-002
3.291893e+003, 1.089479e-002
3.293821e+003, 1.177726e-002
3.295750e+003, 1.220735e-002
3.297678e+003, 1.075418e-002
3.299606e+003, 1.112942e-002
3.301535e+003, 1.196015e-002
3.303463e+003, 1.140036e-002
3.305392e+003, 9.651161e-003
3.307320e+003, 8.909429e-003
3.309249e+003, 8.139979e-003
3.311177e+003, 9.136984e-003
3.313106e+003, 1.035485e-002
3.315034e+003, 1.187171e-002
3.316963e+003, 1.206823e-002
3.318891e+003, 1.185614e-002
3.320820e+003, 1.017550e-002
3.322748e+003, 9.582802e-003
3.324677e+003, 1.072814e-002
3.326605e+003, 1.167856e-002
3.328533e+003, 1.251722e-002
3.330462e+003, 1.230565e-002
3.332390e+003, 1.230509e-002
3.334319e+003, 1.191582e-002
3.336247e+003, 1.118049e-002
3.338176e+003, 1.002229e-002
3.340104e+003, 1.105435e-002
3.342033e+003, 1.165569e-002
3.343961e+003, 1.052684e-002
3.345890e+003, 1.082239e-002
3.347818e+003, 1.078851e-002
3.349747e+003, 1.012163e-002
3.351675e+003, 9.430137e-003
3.353604e+003, 9.131163e-003
3.355532e+003, 8.979117e-003
3.357460e+003, 1.081308e-002
3.359389e+003, 1.239827e-002
3.361317e+003, 1.199703e-002
3.363246e+003, 1.136654e-002
3.365174e+003, 1.152567e-002
3.367103e+003, 1.316302e-002
3.369031e+003, 1.279946e-002
3.370960e+003, 1.099643e-002
3.372888e+003, 1.279799e-002
3.374817e+003, 1.464085e-002
3.376745e+003, 1.253387e-002
3.378674e+003, 1.098347e-002
3.380602e+003, 1.172370e-002
3.382531e+003, 1.233471e-002
3.384459e+003, 1.214340e-002
3.386387e+003, 1.199137e-002
3.388316e+003, 1.180568e-002
3.390244e+003, 1.108560e-002
3.392173e+003, 1.217074e-002
3.394101e+003, 1.215316e-002
3.396030e+003, 1.189438e-002
3.397958e+003, 1.257650e-002
3.399887e+003, 1.309341e-002
3.401815e+003, 1.453736e-002
3.403744e+003, 1.454036e-002
3.405672e+003, 1.265843e-002
3.407601e+003, 1.057377e-002
3.409529e+003, 9.585522e-003
3.411458e+003, 1.039950e-002
3.413386e+003, 1.062601e-002
3.415314e+003, 1.105116e-002
3.417243e+003, 1.172500e-002
3.419171e+003, 1.211751e-002
3.421100e+003, 1.220995e-002
3.423028e+003, 1.140719e-002
3.424957e+003, 1.409782e-002
3.426885e+003, 1.596136e-002
3.428814e+003, 1.299701e-002
3.430742e+003, 1.019238e-002
3.432671e+003, 1.232682e-002
3.434599e+003, 1.329518e-002
3.436528e+003, 1.099855e-002
3.438456e+003, 9.974652e-003
3.440385e+003, 1.044371e-002
3.442313e+003, 1.046197e-002
3.444241e+003, 1.047840e-002
3.446170e+003, 1.059501e-002
3.448098e+003, 1.067930e-002
3.450027e+003, 1.217235e-002
3.451955e+003, 1.252121e-002
3.453884e+003, 1.180919e-002
3.455812e+003, 1.087122e-002
3.457741e+003, 1.233772e-002
3.459669e+003, 1.384348e-002
3.461598e+003, 1.282743e-002
3.463526e+003, 1.139772e-002
3.465455e+003, 1.170329e-002
3.467383e+003, 1.400711e-002
3.469312e+003, 1.197190e-002
3.471240e+003, 1.103724e-002
3.473168e+003, 1.156443e-002
3.475097e+003, 1.125574e-002
3.477025e+003, 1.142868e-002
3.478954e+003, 1.219899e-002
3.480882e+003, 1.157256e-002
3.482811e+003, 1.200162e-002
3.484739e+003, 1.190166e-002
3.486668e+003, 1.112481e-002
3.488596e+003, 1.186194e-002
3.490525e+003, 1.216542e-002
3.492453e+003, 1.175645e-002
3.494382e+003, 1.083430e-002
3.496310e+003, 9.865293e-003
3.498239e+003, 1.142447e-002
3.500167e+003, 1.208562e-002
3.502095e+003, 1.048557e-002
3.504024e+003, 1.051659e-002
3.505952e+003, 1.100356e-002
3.507881e+003, 9.135722e-003
3.509809e+003, 1.133994e-002
3.511738e+003, 1.362043e-002
3.513666e+003, 1.296331e-002
3.515595e+003, 1.358802e-002
3.517523e+003, 1.264469e-002
3.519452e+003, 1.305604e-002
3.521380e+003, 1.496347e-002
3.523309e+003, 1.212352e-002
3.525237e+003, 1.123281e-002
3.527166e+003, 1.127887e-002
3.529094e+003, 1.079390e-002
3.531022e+003, 1.208037e-002
3.532951e+003, 1.127980e-002
3.534879e+003, 1.028137e-002
3.536808e+003, 9.993481e-003
3.538736e+003, 8.305715e-003
3.540665e+003, 6.901004e-003
3.542593e+003, 8.198290e-003
3.544522e+003, 9.155297e-003
3.546450e+003, 1.177918e-002
3.548379e+003, 1.217565e-002
3.550307e+003, 9.755768e-003
3.552236e+003, 1.185568e-002
3.554164e+003, 1.422159e-002
3.556093e+003, 1.196402e-002
3.558021e+003, 1.142029e-002
3.559949e+003, 1.177588e-002
3.561878e+003, 9.820106e-003
3.563806e+003, 1.178626e-002
3.565735e+003, 1.044736e-002
3.567663e+003, 9.202940e-003
3.569592e+003, 1.178752e-002
3.571520e+003, 1.202666e-002
3.573449e+003, 9.307913e-003
3.575377e+003, 7.494490e-003
3.577306e+003, 9.826140e-003
3.579234e+003, 7.916501e-003
3.581163e+003, 4.302328e-003
3.583091e+003, 4.265239e-003
3.585020e+003, 8.394043e-003
3.586948e+003, 1.177597e-002
3.588876e+003, 1.168789e-002
3.590805e+003, 1.054537e-002
3.592733e+003, 8.517670e-003
3.594662e+003, 8.767645e-003
3.596590e+003, 7.934049e-003
3.598519e+003, 5.419844e-003
3.600447e+003, 7.864500e-003
3.602376e+003, 6.242259e-003
3.604304e+003, 5.899360e-003
3.606233e+003, 8.338598e-003
3.608161e+003, 1.018053e-002
3.610090e+003, 1.046773e-002
3.612018e+003, 7.231477e-003
3.613947e+003, 5.254199e-003
3.615875e+003, 6.159199e-003
3.617803e+003, 7.751100e-003
3.619732e+003, 8.197155e-003
3.621660e+003, 8.030240e-003
3.623589e+003, 1.025621e-002
3.625517e+003, 1.042684e-002
3.627446e+003, 7.324913e-003
3.629374e+003, 8.826794e-003
3.631303e+003, 1.155393e-002
3.633231e+003, 1.231964e-002
3.635160e+003, 1.154133e-002
3.637088e+003, 1.041390e-002
3.639017e+003, 7.750020e-003
3.640945e+003, 5.738471e-003
3.642874e+003, 5.591786e-003
3.644802e+003, 5.746247e-003
3.646730e+003, 7.937910e-003
3.648659e+003, 9.572777e-003
3.650587e+003, 6.664904e-003
3.652516e+003, 4.151663e-003
3.654444e+003, 7.352181e-003
3.656373e+003, 8.083706e-003
3.658301e+003, 5.283780e-003
3.660230e+003, 3.412305e-003
3.662158e+003, 3.463961e-003
3.664087e+003, 7.528075e-003
3.666015e+003, 8.286093e-003
3.667944e+003, 5.574654e-003
3.669872e+003, 6.232988e-003
3.671801e+003, 6.541638e-003
3.673729e+003, 7.326656e-003
3.675657e+003, 7.729901e-003
3.677586e+003, 4.403506e-003
3.679514e+003, 2.690782e-003
3.681443e+003, 7.850190e-004
3.683371e+003, 2.233517e-003
3.685300e+003, 4.601443e-003
3.687228e+003, 5.483328e-003
3.689157e+003, 5.477855e-003
3.691085e+003, 5.399603e-003
3.693014e+003, 7.132308e-003
3.694942e+003, 5.475021e-003
3.696871e+003, 4.346760e-003
3.698799e+003, 4.598018e-003
3.700728e+003, 4.949447e-003
3.702656e+003, 6.203811e-003
3.704584e+003, 7.538394e-003
3.706513e+003, 6.266616e-003
3.708441e+003, 6.304663e-003
3.710370e+003, 7.945840e-003
3.712298e+003, 8.376486e-003
3.714227e+003, 9.150859e-003
3.716155e+003, 7.490808e-003
3.718084e+003, 5.899491e-003
3.720012e+003, 5.361286e-003
3.721941e+003, 5.294529e-003
3.723869e+003, 5.106768e-003
3.725798e+003, 3.582429e-003
3.727726e+003, 3.502090e-003
3.729655e+003, 7.663781e-003
3.731583e+003, 1.056909e-002
3.733511e+003, 1.076445e-002
3.735440e+003, 9.475619e-003
3.737368e+003, 8.171046e-003
3.739297e+003, 8.525210e-003
3.741225e+003, 7.220687e-003
3.743154e+003, 9.124839e-003
3.745082e+003, 9.138525e-003
3.747011e+003, 5.969440e-003
3.748939e+003, 5.210683e-003
3.750868e+003, 3.342371e-003
3.752796e+003, 4.827762e-003
3.754725e+003, 6.318653e-003
3.756653e+003, 6.445484e-003
3.758582e+003, 6.344771e-003
3.760510e+003, 8.798677e-003
3.762438e+003, 9.350632e-003
3.764367e+003, 6.080217e-003
3.766295e+003, 5.851871e-003
3.768224e+003, 5.305001e-003
3.770152e+003, 3.400739e-003
3.772081e+003, 3.015395e-003
3.774009e+003, 3.059657e-003
3.775938e+003, 4.836702e-003
3.777866e+003, 1.017550e-002
3.779795e+003, 1.031062e-002
3.781723e+003, 4.923289e-003
3.783652e+003, 4.932212e-003
3.785580e+003, 5.775343e-003
3.787509e+003, 7.358169e-003
3.789437e+003, 7.996685e-003
3.791365e+003, 6.260135e-003
3.793294e+003, 6.928348e-003
3.795222e+003, 8.974215e-003
3.797151e+003, 7.082464e-003
3.799079e+003, 4.435381e-003
3.801008e+003, 6.351405e-003
3.802936e+003, 7.673964e-003
3.804865e+003, 3.564578e-003
3.806793e+003, 1.538042e-003
3.808722e+003, 3.399741e-003
3.810650e+003, 4.313052e-003
3.812579e+003, 3.620673e-003
3.814507e+003, 5.033666e-003
3.816436e+003, 5.180306e-003
3.818364e+003, 6.930178e-003
3.820292e+003, 9.486648e-003
3.822221e+003, 1.234562e-002
3.824149e+003, 8.712425e-003
3.826078e+003, 7.973371e-003
3.828006e+003, 8.379408e-003
3.829935e+003, 5.716305e-003
3.831863e+003, 3.682250e-003
3.833792e+003, 5.811800e-003
3.835720e+003, 8.880096e-003
3.837649e+003, 7.912903e-003
3.839577e+003, 7.696138e-003
3.841506e+003, 8.972446e-003
3.843434e+003, 8.675455e-003
3.845363e+003, 5.798784e-003
3.847291e+003, 4.872869e-003
3.849219e+003, 4.500313e-003
3.851148e+003, 4.874427e-003
3.853076e+003, 5.698834e-003
3.855005e+003, 3.266863e-003
3.856933e+003, 3.288344e-003
3.858862e+003, 3.997438e-003
3.860790e+003, 2.773245e-003
3.862719e+003, 2.637719e-003
3.864647e+003, 5.890701e-003
3.866576e+003, 1.016062e-002
3.868504e+003, 7.198303e-003
3.870433e+003, 3.142582e-003
3.872361e+003, 6.570073e-003
3.874290e+003, 7.923706e-003
3.876218e+003, 8.949190e-003
3.878146e+003, 9.641428e-003
3.880075e+003, 9.535545e-003
3.882003e+003, 9.421927e-003
3.883932e+003, 7.272504e-003
3.885860e+003, 4.108395e-003
3.887789e+003, 3.192554e-003
3.889717e+003, 2.460861e-003
3.891646e+003, 1.119751e-003
3.893574e+003, 2.749240e-003
3.895503e+003, 5.360785e-003
3.897431e+003, 3.555404e-003
3.899360e+003, 2.735855e-003
3.901288e+003, 4.570004e-003
3.903217e+003, 4.922171e-003
3.905145e+003, 4.155893e-003
3.907073e+003, 4.941576e-003
3.909002e+003, 5.048717e-003
3.910930e+003, 6.012484e-003
3.912859e+003, 8.543777e-003
3.914787e+003, 9.595807e-003
3.916716e+003, 7.073497e-003
3.918644e+003, 7.663668e-003
3.920573e+003, 7.574141e-003
3.922501e+003, 5.336792e-003
3.924430e+003, 4.290608e-003
3.926358e+003, 5.018158e-003
3.928287e+003, 5.369863e-003
3.930215e+003, 2.659289e-003
3.932144e+003, -5.068746e-004
3.934072e+003, 2.924465e-003
3.936000e+003, 8.337817e-003
3.937929e+003, 1.010989e-002
3.939857e+003, 4.571203e-003
3.941786e+003, 2.082755e-003
3.943714e+003, 4.989885e-003
3.945643e+003, 9.368021e-003
3.947571e+003, 8.076604e-003
3.949500e+003, 5.559024e-003
3.951428e+003, 6.334787e-003
3.953357e+003, 6.938036e-003
3.955285e+003, 4.779783e-003
3.957214e+003, 3.666572e-003
3.959142e+003, 2.854010e-003
3.961071e+003, 7.791230e-004
3.962999e+003, 1.902685e-003
3.964927e+003, 5.471875e-003
3.966856e+003, 1.011461e-002
3.968784e+003, 7.484877e-003
3.970713e+003, 2.731626e-003
3.972641e+003, 2.889320e-003
3.974570e+003, 5.324277e-003
3.976498e+003, 6.237846e-003
3.978427e+003, 5.775508e-003
3.980355e+003, 6.578541e-003
3.982284e+003, 4.601112e-003
3.984212e+003, 4.449142e-003
3.986141e+003, 8.844370e-003
3.988069e+003, 7.228765e-003
3.989998e+003, 4.872640e-003
3.991926e+003, 5.951712e-003
3.993854e+003, 5.530250e-003
3.995783e+003, 4.639409e-003
3.997711e+003, 4.852040e-003
3.999640e+003, 4.854381e-003
4.001568e+003, 0.000000e+000
##END=



