##NAMES=Heulandite-Ca
##RRUFFID=R040021
##IDEAL CHEMISTRY=(Ca,Na,K)_5_(Si_27_Al_9_)O_72_&#183;26H_2_O
##LOCALITY=Prospect Park, Patterson, Passaic County, New Jersey, USA
##OWNER=RRUFF
##SOURCE=University of Arizona Mineral Museum
##DESCRIPTION=Group of colorless lamellar crystals
##STATUS=The identification of this mineral has been confirmed by X-ray diffraction and chemical analysis
##URL=rruff.info/R040021
##MEASURED CHEMISTRY=Na_0.25_(Na_0.55_K_0.45_)_Σ=1_(Ca_2.42_Na_0.85_Sr_0.73_)_Σ=4.00_(Si_27.60_Al_8.40_)_Σ=36_O_72_·24H_2_O ; H_2_O estimated by difference
3.991926e+002, 0.000000e+000
4.011211e+002, 2.063102e-001
4.030496e+002, 2.072970e-001
4.049780e+002, 2.074564e-001
4.069065e+002, 2.037807e-001
4.088350e+002, 2.017455e-001
4.107634e+002, 2.055119e-001
4.126919e+002, 2.050416e-001
4.146204e+002, 2.032998e-001
4.165488e+002, 2.025704e-001
4.184773e+002, 2.036452e-001
4.204058e+002, 2.030291e-001
4.223342e+002, 2.035619e-001
4.242627e+002, 2.032865e-001
4.261912e+002, 2.039296e-001
4.281196e+002, 2.069026e-001
4.300481e+002, 2.110699e-001
4.319766e+002, 2.122381e-001
4.339050e+002, 2.131011e-001
4.358335e+002, 2.171634e-001
4.377620e+002, 2.231782e-001
4.396904e+002, 2.265824e-001
4.416189e+002, 2.298507e-001
4.435474e+002, 2.304878e-001
4.454758e+002, 2.295387e-001
4.474043e+002, 2.291148e-001
4.493328e+002, 2.292175e-001
4.512612e+002, 2.274882e-001
4.531897e+002, 2.264407e-001
4.551182e+002, 2.231573e-001
4.570466e+002, 2.185318e-001
4.589751e+002, 2.144101e-001
4.609036e+002, 2.125219e-001
4.628320e+002, 2.100301e-001
4.647605e+002, 2.067699e-001
4.666890e+002, 2.034969e-001
4.686174e+002, 1.989000e-001
4.705459e+002, 1.911003e-001
4.724744e+002, 1.833732e-001
4.744028e+002, 1.754086e-001
4.763313e+002, 1.671945e-001
4.782598e+002, 1.596866e-001
4.801882e+002, 1.520718e-001
4.821167e+002, 1.436760e-001
4.840452e+002, 1.367378e-001
4.859736e+002, 1.309066e-001
4.879021e+002, 1.253713e-001
4.898306e+002, 1.203105e-001
4.917590e+002, 1.157488e-001
4.936875e+002, 1.117393e-001
4.956160e+002, 1.081817e-001
4.975444e+002, 1.054408e-001
4.994729e+002, 1.033765e-001
5.014014e+002, 1.015021e-001
5.033298e+002, 1.007951e-001
5.052583e+002, 1.008272e-001
5.071868e+002, 1.004824e-001
5.091152e+002, 1.006403e-001
5.110437e+002, 1.017188e-001
5.129722e+002, 1.029862e-001
5.149006e+002, 1.038389e-001
5.168291e+002, 1.044346e-001
5.187576e+002, 1.050441e-001
5.206860e+002, 1.047359e-001
5.226145e+002, 1.041853e-001
5.245430e+002, 1.030327e-001
5.264714e+002, 1.005922e-001
5.283999e+002, 9.774594e-002
5.303284e+002, 9.531664e-002
5.322568e+002, 9.312566e-002
5.341853e+002, 9.133294e-002
5.361138e+002, 9.024310e-002
5.380422e+002, 8.976761e-002
5.399707e+002, 8.961293e-002
5.418992e+002, 8.988590e-002
5.438276e+002, 9.013692e-002
5.457561e+002, 9.100971e-002
5.476846e+002, 9.217442e-002
5.496130e+002, 9.322303e-002
5.515415e+002, 9.448905e-002
5.534700e+002, 9.517862e-002
5.553984e+002, 9.580895e-002
5.573269e+002, 9.739151e-002
5.592554e+002, 9.855341e-002
5.611838e+002, 9.913314e-002
5.631123e+002, 1.002234e-001
5.650408e+002, 1.011810e-001
5.669692e+002, 1.021180e-001
5.688977e+002, 1.030166e-001
5.708262e+002, 1.037231e-001
5.727546e+002, 1.046371e-001
5.746831e+002, 1.053878e-001
5.766116e+002, 1.057712e-001
5.785400e+002, 1.064813e-001
5.804685e+002, 1.071564e-001
5.823970e+002, 1.074813e-001
5.843254e+002, 1.074444e-001
5.862539e+002, 1.074063e-001
5.881824e+002, 1.072520e-001
5.901108e+002, 1.067477e-001
5.920393e+002, 1.058942e-001
5.939678e+002, 1.042951e-001
5.958962e+002, 1.020286e-001
5.978247e+002, 9.934967e-002
5.997532e+002, 9.608377e-002
6.016816e+002, 9.231411e-002
6.036101e+002, 8.841940e-002
6.055386e+002, 8.407836e-002
6.074670e+002, 8.020008e-002
6.093955e+002, 7.712322e-002
6.113240e+002, 7.437238e-002
6.132524e+002, 7.168470e-002
6.151809e+002, 6.911211e-002
6.171094e+002, 6.724387e-002
6.190378e+002, 6.583565e-002
6.209663e+002, 6.437886e-002
6.228948e+002, 6.298352e-002
6.248232e+002, 6.198663e-002
6.267517e+002, 6.135016e-002
6.286802e+002, 6.073500e-002
6.306086e+002, 5.993707e-002
6.325371e+002, 5.963879e-002
6.344656e+002, 5.979566e-002
6.363940e+002, 5.988531e-002
6.383225e+002, 6.007941e-002
6.402510e+002, 6.038623e-002
6.421794e+002, 6.072516e-002
6.441079e+002, 6.097128e-002
6.460364e+002, 6.159306e-002
6.479648e+002, 6.251817e-002
6.498933e+002, 6.326480e-002
6.518218e+002, 6.409901e-002
6.537502e+002, 6.500693e-002
6.556787e+002, 6.569060e-002
6.576072e+002, 6.615841e-002
6.595356e+002, 6.673277e-002
6.614641e+002, 6.698607e-002
6.633926e+002, 6.672139e-002
6.653210e+002, 6.623820e-002
6.672495e+002, 6.550301e-002
6.691780e+002, 6.440105e-002
6.711064e+002, 6.297871e-002
6.730349e+002, 6.184877e-002
6.749634e+002, 6.079539e-002
6.768918e+002, 5.971378e-002
6.788203e+002, 5.896586e-002
6.807488e+002, 5.869544e-002
6.826772e+002, 5.815007e-002
6.846057e+002, 5.763531e-002
6.865342e+002, 5.756779e-002
6.884626e+002, 5.761073e-002
6.903911e+002, 5.800461e-002
6.923196e+002, 5.843982e-002
6.942480e+002, 5.863909e-002
6.961765e+002, 5.910695e-002
6.981050e+002, 5.979894e-002
7.000334e+002, 6.056203e-002
7.019619e+002, 6.149510e-002
7.038904e+002, 6.228646e-002
7.058188e+002, 6.298766e-002
7.077473e+002, 6.364124e-002
7.096758e+002, 6.418915e-002
7.116042e+002, 6.482831e-002
7.135327e+002, 6.547676e-002
7.154612e+002, 6.552896e-002
7.173896e+002, 6.535114e-002
7.193181e+002, 6.522501e-002
7.212466e+002, 6.509928e-002
7.231750e+002, 6.478933e-002
7.251035e+002, 6.419962e-002
7.270320e+002, 6.356867e-002
7.289604e+002, 6.292273e-002
7.308889e+002, 6.244384e-002
7.328174e+002, 6.172477e-002
7.347458e+002, 6.061976e-002
7.366743e+002, 5.948986e-002
7.386028e+002, 5.832668e-002
7.405313e+002, 5.743060e-002
7.424597e+002, 5.652069e-002
7.443882e+002, 5.565206e-002
7.463167e+002, 5.479522e-002
7.482451e+002, 5.377369e-002
7.501736e+002, 5.276654e-002
7.521021e+002, 5.189629e-002
7.540305e+002, 5.125596e-002
7.559590e+002, 5.080950e-002
7.578875e+002, 5.020057e-002
7.598159e+002, 4.956582e-002
7.617444e+002, 4.930930e-002
7.636729e+002, 4.933365e-002
7.656013e+002, 4.927560e-002
7.675298e+002, 4.914970e-002
7.694583e+002, 4.898161e-002
7.713867e+002, 4.873775e-002
7.733152e+002, 4.864739e-002
7.752437e+002, 4.863784e-002
7.771721e+002, 4.851650e-002
7.791006e+002, 4.846994e-002
7.810291e+002, 4.845379e-002
7.829575e+002, 4.820467e-002
7.848860e+002, 4.778458e-002
7.868145e+002, 4.715426e-002
7.887429e+002, 4.604353e-002
7.906714e+002, 4.498065e-002
7.925999e+002, 4.383020e-002
7.945283e+002, 4.267003e-002
7.964568e+002, 4.121174e-002
7.983853e+002, 3.939658e-002
8.003137e+002, 3.764209e-002
8.022422e+002, 3.604330e-002
8.041707e+002, 3.439366e-002
8.060991e+002, 3.268840e-002
8.080276e+002, 3.130014e-002
8.099561e+002, 3.027909e-002
8.118845e+002, 2.923029e-002
8.138130e+002, 2.838353e-002
8.157415e+002, 2.747603e-002
8.176699e+002, 2.677360e-002
8.195984e+002, 2.628011e-002
8.215269e+002, 2.590022e-002
8.234553e+002, 2.530083e-002
8.253838e+002, 2.479476e-002
8.273123e+002, 2.486354e-002
8.292407e+002, 2.491141e-002
8.311692e+002, 2.473343e-002
8.330977e+002, 2.464012e-002
8.350261e+002, 2.480740e-002
8.369546e+002, 2.519831e-002
8.388831e+002, 2.546663e-002
8.408115e+002, 2.546223e-002
8.427400e+002, 2.565227e-002
8.446685e+002, 2.594816e-002
8.465969e+002, 2.629543e-002
8.485254e+002, 2.690759e-002
8.504539e+002, 2.757302e-002
8.523823e+002, 2.806498e-002
8.543108e+002, 2.847722e-002
8.562393e+002, 2.895778e-002
8.581677e+002, 2.951526e-002
8.600962e+002, 3.016227e-002
8.620247e+002, 3.078479e-002
8.639531e+002, 3.171751e-002
8.658816e+002, 3.274401e-002
8.678101e+002, 3.395222e-002
8.697385e+002, 3.558602e-002
8.716670e+002, 3.776889e-002
8.735955e+002, 4.047861e-002
8.755239e+002, 4.299129e-002
8.774524e+002, 4.442060e-002
8.793809e+002, 4.420168e-002
8.813093e+002, 4.265798e-002
8.832378e+002, 4.127011e-002
8.851663e+002, 4.058355e-002
8.870947e+002, 4.063965e-002
8.890232e+002, 4.116239e-002
8.909517e+002, 4.223907e-002
8.928801e+002, 4.329352e-002
8.948085e+002, 4.434448e-002
8.967370e+002, 4.562707e-002
8.986655e+002, 4.693654e-002
9.005939e+002, 4.812577e-002
9.025224e+002, 4.921156e-002
9.044509e+002, 5.072540e-002
9.063793e+002, 5.243459e-002
9.083078e+002, 5.408289e-002
9.102363e+002, 5.587976e-002
9.121647e+002, 5.793930e-002
9.140932e+002, 6.013742e-002
9.160217e+002, 6.263731e-002
9.179501e+002, 6.510293e-002
9.198786e+002, 6.766110e-002
9.218071e+002, 7.067408e-002
9.237355e+002, 7.404326e-002
9.256640e+002, 7.773543e-002
9.275925e+002, 8.166318e-002
9.295209e+002, 8.611196e-002
9.314494e+002, 9.102678e-002
9.333779e+002, 9.655192e-002
9.353063e+002, 1.027223e-001
9.372348e+002, 1.093568e-001
9.391633e+002, 1.165561e-001
9.410917e+002, 1.246443e-001
9.430202e+002, 1.337326e-001
9.449487e+002, 1.437082e-001
9.468771e+002, 1.544435e-001
9.488056e+002, 1.660123e-001
9.507341e+002, 1.783254e-001
9.526625e+002, 1.912620e-001
9.545910e+002, 2.050025e-001
9.565195e+002, 2.194040e-001
9.584479e+002, 2.340728e-001
9.603764e+002, 2.490654e-001
9.623049e+002, 2.641340e-001
9.642333e+002, 2.789123e-001
9.661618e+002, 2.931851e-001
9.680903e+002, 3.067917e-001
9.700187e+002, 3.195521e-001
9.719472e+002, 3.310221e-001
9.738757e+002, 3.411652e-001
9.758041e+002, 3.504322e-001
9.777326e+002, 3.586134e-001
9.796611e+002, 3.654996e-001
9.815895e+002, 3.712874e-001
9.835180e+002, 3.760063e-001
9.854465e+002, 3.793385e-001
9.873749e+002, 3.821835e-001
9.893034e+002, 3.842475e-001
9.912319e+002, 3.857629e-001
9.931603e+002, 3.872079e-001
9.950888e+002, 3.878691e-001
9.970173e+002, 3.882601e-001
9.989457e+002, 3.882672e-001
1.000874e+003, 3.878141e-001
1.002803e+003, 3.875277e-001
1.004731e+003, 3.869288e-001
1.006660e+003, 3.857804e-001
1.008588e+003, 3.842313e-001
1.010517e+003, 3.820503e-001
1.012445e+003, 3.795370e-001
1.014373e+003, 3.766735e-001
1.016302e+003, 3.736426e-001
1.018230e+003, 3.705040e-001
1.020159e+003, 3.674005e-001
1.022087e+003, 3.640212e-001
1.024016e+003, 3.601437e-001
1.025944e+003, 3.563997e-001
1.027873e+003, 3.529822e-001
1.029801e+003, 3.493831e-001
1.031730e+003, 3.455265e-001
1.033658e+003, 3.417654e-001
1.035587e+003, 3.378452e-001
1.037515e+003, 3.338533e-001
1.039444e+003, 3.298010e-001
1.041372e+003, 3.253991e-001
1.043301e+003, 3.206451e-001
1.045229e+003, 3.158159e-001
1.047157e+003, 3.106993e-001
1.049086e+003, 3.053086e-001
1.051014e+003, 2.996086e-001
1.052943e+003, 2.937803e-001
1.054871e+003, 2.875896e-001
1.056800e+003, 2.809946e-001
1.058728e+003, 2.740960e-001
1.060657e+003, 2.665983e-001
1.062585e+003, 2.588961e-001
1.064514e+003, 2.511184e-001
1.066442e+003, 2.430146e-001
1.068371e+003, 2.343727e-001
1.070299e+003, 2.256598e-001
1.072228e+003, 2.171776e-001
1.074156e+003, 2.085126e-001
1.076084e+003, 2.004049e-001
1.078013e+003, 1.931411e-001
1.079941e+003, 1.861955e-001
1.081870e+003, 1.799019e-001
1.083798e+003, 1.741269e-001
1.085727e+003, 1.689479e-001
1.087655e+003, 1.645565e-001
1.089584e+003, 1.605005e-001
1.091512e+003, 1.567284e-001
1.093441e+003, 1.533309e-001
1.095369e+003, 1.502210e-001
1.097298e+003, 1.475562e-001
1.099226e+003, 1.450785e-001
1.101155e+003, 1.427862e-001
1.103083e+003, 1.406311e-001
1.105011e+003, 1.385896e-001
1.106940e+003, 1.368101e-001
1.108868e+003, 1.351433e-001
1.110797e+003, 1.334881e-001
1.112725e+003, 1.317736e-001
1.114654e+003, 1.302205e-001
1.116582e+003, 1.289003e-001
1.118511e+003, 1.276562e-001
1.120439e+003, 1.263409e-001
1.122368e+003, 1.251435e-001
1.124296e+003, 1.240944e-001
1.126225e+003, 1.229362e-001
1.128153e+003, 1.215394e-001
1.130082e+003, 1.202466e-001
1.132010e+003, 1.189676e-001
1.133938e+003, 1.176055e-001
1.135867e+003, 1.162148e-001
1.137795e+003, 1.148050e-001
1.139724e+003, 1.131830e-001
1.141652e+003, 1.116760e-001
1.143581e+003, 1.101495e-001
1.145509e+003, 1.086603e-001
1.147438e+003, 1.069985e-001
1.149366e+003, 1.052947e-001
1.151295e+003, 1.037322e-001
1.153223e+003, 1.019164e-001
1.155152e+003, 9.994684e-002
1.157080e+003, 9.826572e-002
1.159009e+003, 9.667256e-002
1.160937e+003, 9.519941e-002
1.162865e+003, 9.355240e-002
1.164794e+003, 9.193850e-002
1.166722e+003, 9.059415e-002
1.168651e+003, 8.927833e-002
1.170579e+003, 8.818080e-002
1.172508e+003, 8.697870e-002
1.174436e+003, 8.550481e-002
1.176365e+003, 8.432030e-002
1.178293e+003, 8.323254e-002
1.180222e+003, 8.202627e-002
1.182150e+003, 8.087003e-002
1.184079e+003, 7.949372e-002
1.186007e+003, 7.803564e-002
1.187936e+003, 7.671078e-002
1.189864e+003, 7.494464e-002
1.191792e+003, 7.293119e-002
1.193721e+003, 7.099038e-002
1.195649e+003, 6.883666e-002
1.197578e+003, 6.612523e-002
1.199506e+003, 6.303675e-002
1.201435e+003, 5.983447e-002
1.203363e+003, 5.628486e-002
1.205292e+003, 5.232063e-002
1.207220e+003, 4.836839e-002
1.209149e+003, 4.448746e-002
1.211077e+003, 4.083895e-002
1.213006e+003, 3.750211e-002
1.214934e+003, 3.445948e-002
1.216863e+003, 3.149630e-002
1.218791e+003, 2.877182e-002
1.220719e+003, 2.633949e-002
1.222648e+003, 2.428853e-002
1.224576e+003, 2.247976e-002
1.226505e+003, 2.090027e-002
1.228433e+003, 1.935511e-002
1.230362e+003, 1.813276e-002
1.232290e+003, 1.726599e-002
1.234219e+003, 1.636175e-002
1.236147e+003, 1.546404e-002
1.238076e+003, 1.478461e-002
1.240004e+003, 1.410927e-002
1.241933e+003, 1.349858e-002
1.243861e+003, 1.300651e-002
1.245790e+003, 1.251690e-002
1.247718e+003, 1.202545e-002
1.249646e+003, 1.157520e-002
1.251575e+003, 1.134314e-002
1.253503e+003, 1.105070e-002
1.255432e+003, 1.073674e-002
1.257360e+003, 1.035187e-002
1.259289e+003, 1.007663e-002
1.261217e+003, 9.782309e-003
1.263146e+003, 9.451473e-003
1.265074e+003, 9.327399e-003
1.267003e+003, 9.130557e-003
1.268931e+003, 8.878878e-003
1.270860e+003, 8.765480e-003
1.272788e+003, 8.408801e-003
1.274717e+003, 8.057505e-003
1.276645e+003, 8.104787e-003
1.278573e+003, 8.081332e-003
1.280502e+003, 7.962067e-003
1.282430e+003, 7.917374e-003
1.284359e+003, 7.716434e-003
1.286287e+003, 7.599384e-003
1.288216e+003, 7.596313e-003
1.290144e+003, 7.312699e-003
1.292073e+003, 7.210845e-003
1.294001e+003, 7.213848e-003
1.295930e+003, 7.178545e-003
1.297858e+003, 7.212682e-003
1.299787e+003, 7.242592e-003
1.301715e+003, 7.154616e-003
1.303644e+003, 7.031219e-003
1.305572e+003, 6.990828e-003
1.307500e+003, 7.107459e-003
1.309429e+003, 7.029577e-003
1.311357e+003, 6.902616e-003
1.313286e+003, 6.868225e-003
1.315214e+003, 6.940521e-003
1.317143e+003, 6.891765e-003
1.319071e+003, 6.801118e-003
1.321000e+003, 6.751566e-003
1.322928e+003, 6.773144e-003
1.324857e+003, 6.886213e-003
1.326785e+003, 6.817495e-003
1.328714e+003, 6.615210e-003
1.330642e+003, 6.525915e-003
1.332571e+003, 6.488756e-003
1.334499e+003, 6.535089e-003
1.336427e+003, 6.557767e-003
1.338356e+003, 6.564620e-003
1.340284e+003, 6.674531e-003
1.342213e+003, 6.741367e-003
1.344141e+003, 6.754563e-003
1.346070e+003, 6.754970e-003
1.347998e+003, 6.896718e-003
1.349927e+003, 6.959399e-003
1.351855e+003, 6.718511e-003
1.353784e+003, 6.701050e-003
1.355712e+003, 6.830947e-003
1.357641e+003, 6.901253e-003
1.359569e+003, 6.975185e-003
1.361498e+003, 7.066572e-003
1.363426e+003, 7.187091e-003
1.365354e+003, 7.218366e-003
1.367283e+003, 7.089717e-003
1.369211e+003, 7.109412e-003
1.371140e+003, 7.311761e-003
1.373068e+003, 7.462763e-003
1.374997e+003, 7.481215e-003
1.376925e+003, 7.562350e-003
1.378854e+003, 7.582034e-003
1.380782e+003, 7.556302e-003
1.382711e+003, 7.960272e-003
1.384639e+003, 8.271717e-003
1.386568e+003, 8.428491e-003
1.388496e+003, 8.783952e-003
1.390424e+003, 8.947694e-003
1.392353e+003, 9.368759e-003
1.394281e+003, 9.846894e-003
1.396210e+003, 1.013025e-002
1.398138e+003, 1.050987e-002
1.400067e+003, 1.090252e-002
1.401995e+003, 1.104130e-002
1.403924e+003, 1.163356e-002
1.405852e+003, 1.238652e-002
1.407781e+003, 1.286269e-002
1.409709e+003, 1.338878e-002
1.411638e+003, 1.393620e-002
1.413566e+003, 1.460639e-002
1.415495e+003, 1.533191e-002
1.417423e+003, 1.588693e-002
1.419351e+003, 1.634470e-002
1.421280e+003, 1.687547e-002
1.423208e+003, 1.727656e-002
1.425137e+003, 1.755686e-002
1.427065e+003, 1.782809e-002
1.428994e+003, 1.814566e-002
1.430922e+003, 1.871176e-002
1.432851e+003, 1.921802e-002
1.434779e+003, 1.963128e-002
1.436708e+003, 1.989984e-002
1.438636e+003, 2.011074e-002
1.440565e+003, 2.039888e-002
1.442493e+003, 2.064061e-002
1.444422e+003, 2.085792e-002
1.446350e+003, 2.123350e-002
1.448278e+003, 2.153153e-002
1.450207e+003, 2.173509e-002
1.452135e+003, 2.203399e-002
1.454064e+003, 2.218999e-002
1.455992e+003, 2.225296e-002
1.457921e+003, 2.243277e-002
1.459849e+003, 2.226588e-002
1.461778e+003, 2.203069e-002
1.463706e+003, 2.193559e-002
1.465635e+003, 2.183582e-002
1.467563e+003, 2.151960e-002
1.469492e+003, 2.115242e-002
1.471420e+003, 2.081665e-002
1.473349e+003, 2.061945e-002
1.475277e+003, 1.999032e-002
1.477205e+003, 1.962574e-002
1.479134e+003, 1.938091e-002
1.481062e+003, 1.906169e-002
1.482991e+003, 1.845588e-002
1.484919e+003, 1.780527e-002
1.486848e+003, 1.735791e-002
1.488776e+003, 1.716063e-002
1.490705e+003, 1.697496e-002
1.492633e+003, 1.647020e-002
1.494562e+003, 1.601461e-002
1.496490e+003, 1.568799e-002
1.498419e+003, 1.516959e-002
1.500347e+003, 1.467859e-002
1.502276e+003, 1.409695e-002
1.504204e+003, 1.364777e-002
1.506132e+003, 1.347000e-002
1.508061e+003, 1.322034e-002
1.509989e+003, 1.271437e-002
1.511918e+003, 1.230522e-002
1.513846e+003, 1.193438e-002
1.515775e+003, 1.166805e-002
1.517703e+003, 1.155980e-002
1.519632e+003, 1.119899e-002
1.521560e+003, 1.109443e-002
1.523489e+003, 1.092968e-002
1.525417e+003, 1.075098e-002
1.527346e+003, 1.069667e-002
1.529274e+003, 1.057770e-002
1.531203e+003, 1.035020e-002
1.533131e+003, 1.026593e-002
1.535059e+003, 1.030937e-002
1.536988e+003, 1.009901e-002
1.538916e+003, 1.025391e-002
1.540845e+003, 1.049092e-002
1.542773e+003, 1.057701e-002
1.544702e+003, 1.062897e-002
1.546630e+003, 1.078318e-002
1.548559e+003, 1.090277e-002
1.550487e+003, 1.098145e-002
1.552416e+003, 1.070854e-002
1.554344e+003, 1.084668e-002
1.556273e+003, 1.108478e-002
1.558201e+003, 1.153430e-002
1.560130e+003, 1.194753e-002
1.562058e+003, 1.180054e-002
1.563986e+003, 1.182715e-002
1.565915e+003, 1.204639e-002
1.567843e+003, 1.212769e-002
1.569772e+003, 1.253538e-002
1.571700e+003, 1.257012e-002
1.573629e+003, 1.277846e-002
1.575557e+003, 1.330549e-002
1.577486e+003, 1.358521e-002
1.579414e+003, 1.362477e-002
1.581343e+003, 1.423398e-002
1.583271e+003, 1.478695e-002
1.585200e+003, 1.539534e-002
1.587128e+003, 1.615232e-002
1.589057e+003, 1.690104e-002
1.590985e+003, 1.757526e-002
1.592913e+003, 1.834757e-002
1.594842e+003, 1.939440e-002
1.596770e+003, 2.042016e-002
1.598699e+003, 2.147620e-002
1.600627e+003, 2.259730e-002
1.602556e+003, 2.411420e-002
1.604484e+003, 2.565900e-002
1.606413e+003, 2.729981e-002
1.608341e+003, 2.898652e-002
1.610270e+003, 3.083781e-002
1.612198e+003, 3.237358e-002
1.614127e+003, 3.384617e-002
1.616055e+003, 3.550622e-002
1.617984e+003, 3.696078e-002
1.619912e+003, 3.797094e-002
1.621840e+003, 3.870733e-002
1.623769e+003, 3.919150e-002
1.625697e+003, 3.947452e-002
1.627626e+003, 3.956810e-002
1.629554e+003, 3.917549e-002
1.631483e+003, 3.845050e-002
1.633411e+003, 3.752306e-002
1.635340e+003, 3.635587e-002
1.637268e+003, 3.522375e-002
1.639197e+003, 3.412269e-002
1.641125e+003, 3.281713e-002
1.643054e+003, 3.109493e-002
1.644982e+003, 2.941674e-002
1.646911e+003, 2.829190e-002
1.648839e+003, 2.671113e-002
1.650767e+003, 2.502627e-002
1.652696e+003, 2.379542e-002
1.654624e+003, 2.263537e-002
1.656553e+003, 2.097647e-002
1.658481e+003, 1.982866e-002
1.660410e+003, 1.888337e-002
1.662338e+003, 1.809248e-002
1.664267e+003, 1.741198e-002
1.666195e+003, 1.647379e-002
1.668124e+003, 1.559324e-002
1.670052e+003, 1.514618e-002
1.671981e+003, 1.417266e-002
1.673909e+003, 1.316962e-002
1.675838e+003, 1.289890e-002
1.677766e+003, 1.245972e-002
1.679694e+003, 1.214229e-002
1.681623e+003, 1.165883e-002
1.683551e+003, 1.092700e-002
1.685480e+003, 1.046083e-002
1.687408e+003, 9.774143e-003
1.689337e+003, 9.708250e-003
1.691265e+003, 9.403679e-003
1.693194e+003, 9.020859e-003
1.695122e+003, 8.778627e-003
1.697051e+003, 8.749649e-003
1.698979e+003, 8.157906e-003
1.700908e+003, 8.222454e-003
1.702836e+003, 7.790264e-003
1.704765e+003, 7.678628e-003
1.706693e+003, 7.606149e-003
1.708621e+003, 7.446648e-003
1.710550e+003, 7.231398e-003
1.712478e+003, 6.856972e-003
1.714407e+003, 6.365740e-003
1.716335e+003, 6.112462e-003
1.718264e+003, 6.407131e-003
1.720192e+003, 6.321877e-003
1.722121e+003, 6.171327e-003
1.724049e+003, 6.300707e-003
1.725978e+003, 6.062359e-003
1.727906e+003, 5.815259e-003
1.729835e+003, 5.932615e-003
1.731763e+003, 5.730526e-003
1.733692e+003, 5.224068e-003
1.735620e+003, 5.210071e-003
1.737548e+003, 5.131180e-003
1.739477e+003, 4.992723e-003
1.741405e+003, 4.974056e-003
1.743334e+003, 4.996911e-003
1.745262e+003, 5.015225e-003
1.747191e+003, 4.924626e-003
1.749119e+003, 4.915103e-003
1.751048e+003, 4.889659e-003
1.752976e+003, 5.035365e-003
1.754905e+003, 5.098537e-003
1.756833e+003, 4.907496e-003
1.758762e+003, 4.712982e-003
1.760690e+003, 4.920962e-003
1.762619e+003, 5.212079e-003
1.764547e+003, 4.960341e-003
1.766475e+003, 4.851963e-003
1.768404e+003, 4.863373e-003
1.770332e+003, 4.814642e-003
1.772261e+003, 4.908253e-003
1.774189e+003, 4.775836e-003
1.776118e+003, 4.863869e-003
1.778046e+003, 4.953616e-003
1.779975e+003, 4.962472e-003
1.781903e+003, 5.057121e-003
1.783832e+003, 5.200321e-003
1.785760e+003, 5.097150e-003
1.787689e+003, 4.919364e-003
1.789617e+003, 4.958148e-003
1.791546e+003, 5.129603e-003
1.793474e+003, 4.940732e-003
1.795402e+003, 4.589046e-003
1.797331e+003, 5.088643e-003
1.799259e+003, 5.334212e-003
1.801188e+003, 5.112568e-003
1.803116e+003, 4.761677e-003
1.805045e+003, 4.764804e-003
1.806973e+003, 4.494104e-003
1.808902e+003, 3.968661e-003
1.810830e+003, 3.863431e-003
1.812759e+003, 3.859233e-003
1.814687e+003, 3.790509e-003
1.816616e+003, 4.194489e-003
1.818544e+003, 4.507963e-003
1.820473e+003, 4.394397e-003
1.822401e+003, 4.210916e-003
1.824329e+003, 4.208980e-003
1.826258e+003, 4.443066e-003
1.828186e+003, 3.897093e-003
1.830115e+003, 3.577234e-003
1.832043e+003, 3.557494e-003
1.833972e+003, 3.721716e-003
1.835900e+003, 4.389656e-003
1.837829e+003, 4.340347e-003
1.839757e+003, 3.522909e-003
1.841686e+003, 3.052738e-003
1.843614e+003, 3.330417e-003
1.845543e+003, 3.622248e-003
1.847471e+003, 3.693334e-003
1.849400e+003, 3.815577e-003
1.851328e+003, 3.744534e-003
1.853256e+003, 3.547163e-003
1.855185e+003, 3.349830e-003
1.857113e+003, 3.273209e-003
1.859042e+003, 3.446840e-003
1.860970e+003, 3.482209e-003
1.862899e+003, 3.448600e-003
1.864827e+003, 3.347057e-003
1.866756e+003, 3.309322e-003
1.868684e+003, 3.465846e-003
1.870613e+003, 2.667926e-003
1.872541e+003, 2.390657e-003
1.874470e+003, 3.197850e-003
1.876398e+003, 3.102561e-003
1.878327e+003, 2.954840e-003
1.880255e+003, 3.276443e-003
1.882183e+003, 3.108280e-003
1.884112e+003, 2.840571e-003
1.886040e+003, 2.587116e-003
1.887969e+003, 2.000879e-003
1.889897e+003, 1.713251e-003
1.891826e+003, 1.698450e-003
1.893754e+003, 2.365934e-003
1.895683e+003, 2.373365e-003
1.897611e+003, 2.257442e-003
1.899540e+003, 2.279245e-003
1.901468e+003, 2.033366e-003
1.903397e+003, 1.857859e-003
1.905325e+003, 1.941451e-003
1.907254e+003, 1.700316e-003
1.909182e+003, 1.279906e-003
1.911110e+003, 1.313026e-003
1.913039e+003, 1.460549e-003
1.914967e+003, 1.264965e-003
1.916896e+003, 5.402284e-004
1.918824e+003, 2.545012e-004
1.920753e+003, 8.532255e-004
1.922681e+003, 7.447267e-004
1.924610e+003, -4.777764e-005
1.926538e+003, -3.271715e-004
1.928467e+003, -2.385834e-004
1.930395e+003, -5.354154e-005
1.932324e+003, -7.926100e-004
1.934252e+003, -1.666409e-003
1.936181e+003, -1.946621e-003
1.938109e+003, -1.334421e-003
1.940037e+003, -1.131530e-003
1.941966e+003, -1.375451e-003
1.943894e+003, -1.934799e-003
1.945823e+003, -1.681580e-003
1.947751e+003, -1.455717e-003
1.949680e+003, -1.479504e-003
1.951608e+003, -2.903787e-003
1.953537e+003, -3.738515e-003
1.955465e+003, -3.368253e-003
1.957394e+003, -2.911122e-003
1.959322e+003, -3.228777e-003
1.961251e+003, -4.003000e-003
1.963179e+003, -4.500526e-003
1.965108e+003, -4.720847e-003
1.967036e+003, -4.512182e-003
1.968964e+003, -5.765356e-003
1.970893e+003, -6.361640e-003
1.972821e+003, -4.704227e-003
1.974750e+003, -4.565420e-003
1.976678e+003, -4.917092e-003
1.978607e+003, -3.412329e-003
1.980535e+003, -2.275263e-003
1.982464e+003, -2.796571e-003
1.984392e+003, -2.329832e-003
1.986321e+003, -2.566639e-003
1.988249e+003, -3.714106e-003
1.990178e+003, -4.000901e-003
1.992106e+003, -4.084201e-003
1.994035e+003, -3.976812e-003
1.995963e+003, -3.966576e-003
1.997891e+003, -4.882114e-003
1.999820e+003, -5.182613e-003
2.001748e+003, -5.028346e-003
2.003677e+003, -5.412579e-003
2.005605e+003, -6.637648e-003
2.007534e+003, -7.799003e-003
2.009462e+003, -8.309632e-003
2.011391e+003, -6.563653e-003
2.013319e+003, -6.000264e-003
2.015248e+003, -6.909553e-003
2.017176e+003, -6.657424e-003
2.019105e+003, -6.107090e-003
2.021033e+003, -5.717462e-003
2.022962e+003, -6.309768e-003
2.024890e+003, -6.128126e-003
2.026818e+003, -5.424359e-003
2.028747e+003, -5.323668e-003
2.030675e+003, -5.763460e-003
2.032604e+003, -5.551489e-003
2.034532e+003, -5.211105e-003
2.036461e+003, -5.184713e-003
2.038389e+003, -4.019823e-003
2.040318e+003, -4.628057e-003
2.042246e+003, -4.443147e-003
2.044175e+003, -4.029523e-003
2.046103e+003, -4.307568e-003
2.048032e+003, -3.766220e-003
2.049960e+003, -2.763907e-003
2.051889e+003, -3.217149e-003
2.053817e+003, -3.133574e-003
2.055746e+003, -2.448704e-003
2.057674e+003, -2.119359e-003
2.059603e+003, -1.155616e-003
2.061531e+003, -1.392651e-003
2.063459e+003, -1.926250e-003
2.065388e+003, -1.749374e-003
2.067316e+003, -1.138987e-003
2.069245e+003, -5.702813e-004
2.071173e+003, -3.137565e-004
2.073102e+003, -1.059870e-003
2.075030e+003, -1.404346e-003
2.076959e+003, -9.316460e-004
2.078887e+003, -5.638072e-004
2.080816e+003, -7.786158e-004
2.082744e+003, -8.520082e-004
2.084673e+003, -8.188295e-004
2.086601e+003, -3.659217e-004
2.088530e+003, -4.088281e-004
2.090458e+003, 3.571499e-005
2.092386e+003, -4.413373e-004
2.094315e+003, -1.081770e-003
2.096243e+003, -9.340543e-004
2.098172e+003, -4.764782e-004
2.100100e+003, -6.100922e-004
2.102029e+003, -1.415059e-003
2.103957e+003, -8.901620e-004
2.105886e+003, -7.775913e-004
2.107814e+003, -5.645070e-004
2.109743e+003, 1.331188e-004
2.111671e+003, -2.966628e-004
2.113600e+003, -1.008890e-003
2.115528e+003, -6.758075e-004
2.117457e+003, -6.557190e-004
2.119385e+003, -8.033960e-004
2.121313e+003, -1.265618e-003
2.123242e+003, -1.408626e-003
2.125170e+003, -1.910140e-003
2.127099e+003, -3.089576e-003
2.129027e+003, -3.746835e-003
2.130956e+003, -4.228387e-003
2.132884e+003, -4.677703e-003
2.134813e+003, -3.838947e-003
2.136741e+003, -3.139886e-003
2.138670e+003, -3.744071e-003
2.140598e+003, -4.519799e-003
2.142527e+003, -5.180024e-003
2.144455e+003, -5.916902e-003
2.146384e+003, -6.850260e-003
2.148312e+003, -6.457727e-003
2.150240e+003, -6.626530e-003
2.152169e+003, -9.861240e-003
2.154097e+003, -1.077438e-002
2.156026e+003, -9.828581e-003
2.157954e+003, -8.036202e-003
2.159883e+003, -5.398320e-003
2.161811e+003, -3.280890e-003
2.163740e+003, -1.283520e-003
2.165668e+003, -3.763045e-004
2.167597e+003, -1.182923e-003
2.169525e+003, -3.675334e-003
2.171454e+003, -2.503206e-003
2.173382e+003, -1.671296e-003
2.175311e+003, -2.390357e-003
2.177239e+003, -3.230063e-003
2.179167e+003, -3.483157e-003
2.181096e+003, -1.713206e-003
2.183024e+003, 3.599871e-004
2.184953e+003, 8.553326e-004
2.186881e+003, -1.109958e-004
2.188810e+003, 1.098008e-004
2.190738e+003, 7.218893e-004
2.192667e+003, 7.667317e-006
2.194595e+003, -6.242904e-004
2.196524e+003, -9.071314e-004
2.198452e+003, -8.625613e-004
2.200381e+003, -3.333721e-004
2.202309e+003, 5.712439e-004
2.204238e+003, 6.765937e-004
2.206166e+003, 5.671278e-005
2.208094e+003, -8.708736e-005
2.210023e+003, 6.216199e-004
2.211951e+003, 9.946479e-004
2.213880e+003, 8.111977e-004
2.215808e+003, -1.811121e-004
2.217737e+003, 5.855736e-004
2.219665e+003, 1.209942e-003
2.221594e+003, 1.917152e-003
2.223522e+003, 2.714497e-003
2.225451e+003, 1.721022e-003
2.227379e+003, 2.401027e-004
2.229308e+003, 3.447472e-004
2.231236e+003, 8.101983e-004
2.233165e+003, 1.150812e-003
2.235093e+003, 6.262079e-004
2.237021e+003, 1.022594e-003
2.238950e+003, 2.136115e-003
2.240878e+003, 2.599963e-003
2.242807e+003, 1.561981e-003
2.244735e+003, 1.349822e-003
2.246664e+003, 2.479345e-003
2.248592e+003, 3.089082e-003
2.250521e+003, 1.486773e-003
2.252449e+003, 8.698978e-004
2.254378e+003, 1.802831e-003
2.256306e+003, 2.385779e-003
2.258235e+003, 2.369595e-003
2.260163e+003, 2.332627e-003
2.262092e+003, 2.417891e-003
2.264020e+003, 3.720555e-003
2.265948e+003, 4.603030e-003
2.267877e+003, 4.439115e-003
2.269805e+003, 3.585549e-003
2.271734e+003, 3.515507e-003
2.273662e+003, 2.991293e-003
2.275591e+003, 3.004278e-003
2.277519e+003, 3.693643e-003
2.279448e+003, 4.019346e-003
2.281376e+003, 4.070194e-003
2.283305e+003, 4.803808e-003
2.285233e+003, 4.920796e-003
2.287162e+003, 5.140729e-003
2.289090e+003, 5.188858e-003
2.291019e+003, 4.532271e-003
2.292947e+003, 4.440743e-003
2.294875e+003, 4.554531e-003
2.296804e+003, 4.213855e-003
2.298732e+003, 4.314743e-003
2.300661e+003, 4.578012e-003
2.302589e+003, 3.877887e-003
2.304518e+003, 3.911672e-003
2.306446e+003, 4.437177e-003
2.308375e+003, 4.589958e-003
2.310303e+003, 4.766505e-003
2.312232e+003, 4.823843e-003
2.314160e+003, 4.642326e-003
2.316089e+003, 4.481621e-003
2.318017e+003, 4.334120e-003
2.319946e+003, 4.905751e-003
2.321874e+003, 5.703123e-003
2.323802e+003, 6.104107e-003
2.325731e+003, 5.289244e-003
2.327659e+003, 4.370539e-003
2.329588e+003, 4.286760e-003
2.331516e+003, 4.152696e-003
2.333445e+003, 3.599184e-003
2.335373e+003, 3.678494e-003
2.337302e+003, 3.900942e-003
2.339230e+003, 4.094580e-003
2.341159e+003, 4.216199e-003
2.343087e+003, 3.951548e-003
2.345016e+003, 4.015677e-003
2.346944e+003, 4.046338e-003
2.348873e+003, 3.873389e-003
2.350801e+003, 3.450196e-003
2.352729e+003, 3.237631e-003
2.354658e+003, 3.580001e-003
2.356586e+003, 3.802211e-003
2.358515e+003, 3.647090e-003
2.360443e+003, 3.474061e-003
2.362372e+003, 3.102863e-003
2.364300e+003, 2.790245e-003
2.366229e+003, 3.027880e-003
2.368157e+003, 3.120328e-003
2.370086e+003, 2.774095e-003
2.372014e+003, 2.977756e-003
2.373942e+003, 3.187999e-003
2.375871e+003, 3.134045e-003
2.377799e+003, 3.377634e-003
2.379728e+003, 3.765115e-003
2.381656e+003, 4.260458e-003
2.383585e+003, 4.302494e-003
2.385513e+003, 3.828572e-003
2.387442e+003, 2.788233e-003
2.389370e+003, 2.978126e-003
2.391299e+003, 3.271227e-003
2.393227e+003, 3.209156e-003
2.395156e+003, 3.235152e-003
2.397084e+003, 3.282179e-003
2.399012e+003, 3.859964e-003
2.400941e+003, 3.841493e-003
2.402869e+003, 4.040669e-003
2.404798e+003, 4.054898e-003
2.406726e+003, 4.082729e-003
2.408655e+003, 4.219679e-003
2.410583e+003, 4.583301e-003
2.412512e+003, 4.824861e-003
2.414440e+003, 5.210811e-003
2.416369e+003, 5.362623e-003
2.418297e+003, 4.851747e-003
2.420226e+003, 3.894236e-003
2.422154e+003, 3.841599e-003
2.424083e+003, 4.600393e-003
2.426011e+003, 4.434740e-003
2.427939e+003, 4.594178e-003
2.429868e+003, 5.485581e-003
2.431796e+003, 5.850886e-003
2.433725e+003, 5.054082e-003
2.435653e+003, 4.951753e-003
2.437582e+003, 5.453342e-003
2.439510e+003, 5.465340e-003
2.441439e+003, 5.168989e-003
2.443367e+003, 5.130578e-003
2.445296e+003, 5.477709e-003
2.447224e+003, 5.671340e-003
2.449153e+003, 5.668254e-003
2.451081e+003, 5.694630e-003
2.453010e+003, 5.731797e-003
2.454938e+003, 5.884863e-003
2.456866e+003, 5.737000e-003
2.458795e+003, 5.751156e-003
2.460723e+003, 5.309735e-003
2.462652e+003, 4.570833e-003
2.464580e+003, 4.027435e-003
2.466509e+003, 4.785436e-003
2.468437e+003, 5.828761e-003
2.470366e+003, 5.901581e-003
2.472294e+003, 5.661283e-003
2.474223e+003, 4.852240e-003
2.476151e+003, 4.353851e-003
2.478080e+003, 4.180663e-003
2.480008e+003, 4.762727e-003
2.481937e+003, 5.255580e-003
2.483865e+003, 5.458919e-003
2.485793e+003, 5.644986e-003
2.487722e+003, 5.661626e-003
2.489650e+003, 5.724921e-003
2.491579e+003, 5.300450e-003
2.493507e+003, 5.035857e-003
2.495436e+003, 5.646977e-003
2.497364e+003, 6.129090e-003
2.499293e+003, 5.617719e-003
2.501221e+003, 4.973986e-003
2.503150e+003, 5.247802e-003
2.505078e+003, 5.450514e-003
2.507007e+003, 5.478916e-003
2.508935e+003, 5.074015e-003
2.510864e+003, 4.880947e-003
2.512792e+003, 4.905676e-003
2.514720e+003, 4.611856e-003
2.516649e+003, 4.555251e-003
2.518577e+003, 5.265185e-003
2.520506e+003, 5.489118e-003
2.522434e+003, 5.562361e-003
2.524363e+003, 5.870290e-003
2.526291e+003, 5.767132e-003
2.528220e+003, 5.410608e-003
2.530148e+003, 5.442405e-003
2.532077e+003, 5.631309e-003
2.534005e+003, 5.364042e-003
2.535934e+003, 5.076940e-003
2.537862e+003, 4.874845e-003
2.539791e+003, 4.764238e-003
2.541719e+003, 5.099676e-003
2.543647e+003, 5.149942e-003
2.545576e+003, 4.714637e-003
2.547504e+003, 4.098159e-003
2.549433e+003, 5.363784e-003
2.551361e+003, 6.693333e-003
2.553290e+003, 6.575401e-003
2.555218e+003, 6.010860e-003
2.557147e+003, 5.452761e-003
2.559075e+003, 5.995764e-003
2.561004e+003, 6.590811e-003
2.562932e+003, 6.244300e-003
2.564861e+003, 6.518279e-003
2.566789e+003, 6.609421e-003
2.568718e+003, 6.239534e-003
2.570646e+003, 6.483482e-003
2.572574e+003, 6.300905e-003
2.574503e+003, 5.641598e-003
2.576431e+003, 6.238063e-003
2.578360e+003, 6.764696e-003
2.580288e+003, 6.766332e-003
2.582217e+003, 6.375911e-003
2.584145e+003, 6.017985e-003
2.586074e+003, 6.179261e-003
2.588002e+003, 6.237981e-003
2.589931e+003, 6.619038e-003
2.591859e+003, 7.284358e-003
2.593788e+003, 7.036132e-003
2.595716e+003, 6.544988e-003
2.597645e+003, 6.422506e-003
2.599573e+003, 6.776962e-003
2.601501e+003, 7.098552e-003
2.603430e+003, 6.904211e-003
2.605358e+003, 6.604717e-003
2.607287e+003, 6.450948e-003
2.609215e+003, 6.136215e-003
2.611144e+003, 5.777129e-003
2.613072e+003, 5.979146e-003
2.615001e+003, 6.411083e-003
2.616929e+003, 6.344785e-003
2.618858e+003, 6.602293e-003
2.620786e+003, 7.024000e-003
2.622715e+003, 6.875825e-003
2.624643e+003, 6.784682e-003
2.626572e+003, 6.637010e-003
2.628500e+003, 6.967135e-003
2.630428e+003, 7.363106e-003
2.632357e+003, 7.624202e-003
2.634285e+003, 7.472505e-003
2.636214e+003, 7.104461e-003
2.638142e+003, 7.250802e-003
2.640071e+003, 7.680379e-003
2.641999e+003, 7.681503e-003
2.643928e+003, 6.967437e-003
2.645856e+003, 6.979142e-003
2.647785e+003, 7.090013e-003
2.649713e+003, 6.992203e-003
2.651642e+003, 6.926726e-003
2.653570e+003, 6.490522e-003
2.655499e+003, 6.630737e-003
2.657427e+003, 6.697483e-003
2.659355e+003, 6.101065e-003
2.661284e+003, 6.137755e-003
2.663212e+003, 6.523743e-003
2.665141e+003, 6.815542e-003
2.667069e+003, 6.990654e-003
2.668998e+003, 6.854591e-003
2.670926e+003, 6.520556e-003
2.672855e+003, 6.320382e-003
2.674783e+003, 6.256750e-003
2.676712e+003, 6.275258e-003
2.678640e+003, 6.289456e-003
2.680569e+003, 6.545587e-003
2.682497e+003, 7.038651e-003
2.684426e+003, 6.853926e-003
2.686354e+003, 5.833793e-003
2.688282e+003, 5.835712e-003
2.690211e+003, 6.240023e-003
2.692139e+003, 6.480208e-003
2.694068e+003, 6.480619e-003
2.695996e+003, 6.522865e-003
2.697925e+003, 6.068405e-003
2.699853e+003, 5.620980e-003
2.701782e+003, 6.248445e-003
2.703710e+003, 6.937808e-003
2.705639e+003, 6.574012e-003
2.707567e+003, 6.531390e-003
2.709496e+003, 6.883042e-003
2.711424e+003, 7.050928e-003
2.713353e+003, 6.696240e-003
2.715281e+003, 6.804731e-003
2.717209e+003, 7.118892e-003
2.719138e+003, 6.915261e-003
2.721066e+003, 6.704101e-003
2.722995e+003, 6.158491e-003
2.724923e+003, 6.219412e-003
2.726852e+003, 7.018430e-003
2.728780e+003, 6.770200e-003
2.730709e+003, 6.344764e-003
2.732637e+003, 6.119044e-003
2.734566e+003, 6.716372e-003
2.736494e+003, 6.906202e-003
2.738423e+003, 6.898320e-003
2.740351e+003, 6.954113e-003
2.742280e+003, 7.037926e-003
2.744208e+003, 7.349800e-003
2.746136e+003, 7.784498e-003
2.748065e+003, 7.684991e-003
2.749993e+003, 6.936467e-003
2.751922e+003, 6.447210e-003
2.753850e+003, 6.596532e-003
2.755779e+003, 6.842230e-003
2.757707e+003, 6.812810e-003
2.759636e+003, 6.878053e-003
2.761564e+003, 7.773393e-003
2.763493e+003, 8.255323e-003
2.765421e+003, 8.129059e-003
2.767350e+003, 7.706202e-003
2.769278e+003, 7.524159e-003
2.771207e+003, 7.354530e-003
2.773135e+003, 7.217542e-003
2.775063e+003, 7.663027e-003
2.776992e+003, 7.755257e-003
2.778920e+003, 7.473892e-003
2.780849e+003, 7.656554e-003
2.782777e+003, 7.892546e-003
2.784706e+003, 7.840580e-003
2.786634e+003, 7.642373e-003
2.788563e+003, 7.229043e-003
2.790491e+003, 7.288463e-003
2.792420e+003, 7.081690e-003
2.794348e+003, 7.455047e-003
2.796277e+003, 8.358069e-003
2.798205e+003, 8.649453e-003
2.800134e+003, 8.551318e-003
2.802062e+003, 8.440796e-003
2.803990e+003, 8.258848e-003
2.805919e+003, 8.424612e-003
2.807847e+003, 8.418835e-003
2.809776e+003, 7.929431e-003
2.811704e+003, 7.972238e-003
2.813633e+003, 8.275365e-003
2.815561e+003, 8.273088e-003
2.817490e+003, 8.289344e-003
2.819418e+003, 8.387916e-003
2.821347e+003, 8.545677e-003
2.823275e+003, 8.951621e-003
2.825204e+003, 9.143824e-003
2.827132e+003, 8.361576e-003
2.829061e+003, 8.115552e-003
2.830989e+003, 8.546783e-003
2.832917e+003, 8.644267e-003
2.834846e+003, 8.554363e-003
2.836774e+003, 8.653367e-003
2.838703e+003, 7.963510e-003
2.840631e+003, 7.461348e-003
2.842560e+003, 8.234588e-003
2.844488e+003, 9.132161e-003
2.846417e+003, 9.200896e-003
2.848345e+003, 9.060620e-003
2.850274e+003, 9.274139e-003
2.852202e+003, 9.529591e-003
2.854131e+003, 9.675239e-003
2.856059e+003, 9.400350e-003
2.857988e+003, 9.181142e-003
2.859916e+003, 8.867346e-003
2.861844e+003, 9.321841e-003
2.863773e+003, 9.801850e-003
2.865701e+003, 9.784842e-003
2.867630e+003, 9.906458e-003
2.869558e+003, 9.652023e-003
2.871487e+003, 9.028191e-003
2.873415e+003, 8.622406e-003
2.875344e+003, 8.819710e-003
2.877272e+003, 9.029898e-003
2.879201e+003, 9.801392e-003
2.881129e+003, 1.011633e-002
2.883058e+003, 9.515246e-003
2.884986e+003, 9.326648e-003
2.886915e+003, 9.929928e-003
2.888843e+003, 1.025188e-002
2.890771e+003, 1.013016e-002
2.892700e+003, 9.612872e-003
2.894628e+003, 1.015474e-002
2.896557e+003, 1.037596e-002
2.898485e+003, 1.044710e-002
2.900414e+003, 1.068640e-002
2.902342e+003, 1.068361e-002
2.904271e+003, 1.056521e-002
2.906199e+003, 1.074475e-002
2.908128e+003, 1.047561e-002
2.910056e+003, 1.053983e-002
2.911985e+003, 1.110061e-002
2.913913e+003, 1.068871e-002
2.915842e+003, 1.051581e-002
2.917770e+003, 1.063971e-002
2.919698e+003, 1.034522e-002
2.921627e+003, 1.083523e-002
2.923555e+003, 1.172738e-002
2.925484e+003, 1.136471e-002
2.927412e+003, 1.094294e-002
2.929341e+003, 1.139475e-002
2.931269e+003, 1.159440e-002
2.933198e+003, 1.157057e-002
2.935126e+003, 1.163338e-002
2.937055e+003, 1.142725e-002
2.938983e+003, 1.146656e-002
2.940912e+003, 1.180222e-002
2.942840e+003, 1.132439e-002
2.944769e+003, 1.145073e-002
2.946697e+003, 1.239683e-002
2.948625e+003, 1.219630e-002
2.950554e+003, 1.205087e-002
2.952482e+003, 1.201372e-002
2.954411e+003, 1.157406e-002
2.956339e+003, 1.198634e-002
2.958268e+003, 1.305873e-002
2.960196e+003, 1.286837e-002
2.962125e+003, 1.190863e-002
2.964053e+003, 1.179034e-002
2.965982e+003, 1.240205e-002
2.967910e+003, 1.246506e-002
2.969839e+003, 1.291749e-002
2.971767e+003, 1.368688e-002
2.973696e+003, 1.317253e-002
2.975624e+003, 1.272297e-002
2.977552e+003, 1.297936e-002
2.979481e+003, 1.273949e-002
2.981409e+003, 1.291405e-002
2.983338e+003, 1.331673e-002
2.985266e+003, 1.316607e-002
2.987195e+003, 1.350827e-002
2.989123e+003, 1.452407e-002
2.991052e+003, 1.422327e-002
2.992980e+003, 1.287003e-002
2.994909e+003, 1.344594e-002
2.996837e+003, 1.401052e-002
2.998766e+003, 1.399259e-002
3.000694e+003, 1.426190e-002
3.002623e+003, 1.509481e-002
3.004551e+003, 1.490905e-002
3.006479e+003, 1.458098e-002
3.008408e+003, 1.435698e-002
3.010336e+003, 1.414876e-002
3.012265e+003, 1.430906e-002
3.014193e+003, 1.496438e-002
3.016122e+003, 1.556455e-002
3.018050e+003, 1.589633e-002
3.019979e+003, 1.600289e-002
3.021907e+003, 1.602469e-002
3.023836e+003, 1.618376e-002
3.025764e+003, 1.540828e-002
3.027693e+003, 1.524166e-002
3.029621e+003, 1.624439e-002
3.031550e+003, 1.683865e-002
3.033478e+003, 1.723030e-002
3.035406e+003, 1.734576e-002
3.037335e+003, 1.696243e-002
3.039263e+003, 1.650985e-002
3.041192e+003, 1.670950e-002
3.043120e+003, 1.744588e-002
3.045049e+003, 1.714267e-002
3.046977e+003, 1.756030e-002
3.048906e+003, 1.809532e-002
3.050834e+003, 1.697362e-002
3.052763e+003, 1.630963e-002
3.054691e+003, 1.717539e-002
3.056620e+003, 1.789659e-002
3.058548e+003, 1.795909e-002
3.060477e+003, 1.793404e-002
3.062405e+003, 1.795037e-002
3.064333e+003, 1.839873e-002
3.066262e+003, 1.916156e-002
3.068190e+003, 1.957244e-002
3.070119e+003, 1.965162e-002
3.072047e+003, 1.924841e-002
3.073976e+003, 1.905946e-002
3.075904e+003, 1.957234e-002
3.077833e+003, 2.015522e-002
3.079761e+003, 1.977665e-002
3.081690e+003, 1.963166e-002
3.083618e+003, 2.026737e-002
3.085547e+003, 2.084941e-002
3.087475e+003, 2.107793e-002
3.089404e+003, 2.082121e-002
3.091332e+003, 2.135338e-002
3.093260e+003, 2.144279e-002
3.095189e+003, 2.141397e-002
3.097117e+003, 2.217403e-002
3.099046e+003, 2.200307e-002
3.100974e+003, 2.231925e-002
3.102903e+003, 2.304224e-002
3.104831e+003, 2.335268e-002
3.106760e+003, 2.316215e-002
3.108688e+003, 2.405464e-002
3.110617e+003, 2.384342e-002
3.112545e+003, 2.287051e-002
3.114474e+003, 2.368084e-002
3.116402e+003, 2.403392e-002
3.118331e+003, 2.466461e-002
3.120259e+003, 2.513371e-002
3.122188e+003, 2.557634e-002
3.124116e+003, 2.540276e-002
3.126044e+003, 2.543674e-002
3.127973e+003, 2.575286e-002
3.129901e+003, 2.606094e-002
3.131830e+003, 2.638471e-002
3.133758e+003, 2.554269e-002
3.135687e+003, 2.509990e-002
3.137615e+003, 2.528972e-002
3.139544e+003, 2.617997e-002
3.141472e+003, 2.751742e-002
3.143401e+003, 2.801896e-002
3.145329e+003, 2.811871e-002
3.147258e+003, 2.856547e-002
3.149186e+003, 2.915929e-002
3.151115e+003, 2.901326e-002
3.153043e+003, 2.922723e-002
3.154971e+003, 2.936842e-002
3.156900e+003, 2.848608e-002
3.158828e+003, 2.907848e-002
3.160757e+003, 2.926163e-002
3.162685e+003, 2.980664e-002
3.164614e+003, 3.122149e-002
3.166542e+003, 3.178755e-002
3.168471e+003, 3.123704e-002
3.170399e+003, 3.135707e-002
3.172328e+003, 3.250409e-002
3.174256e+003, 3.319637e-002
3.176185e+003, 3.366933e-002
3.178113e+003, 3.439448e-002
3.180042e+003, 3.412898e-002
3.181970e+003, 3.404688e-002
3.183898e+003, 3.434955e-002
3.185827e+003, 3.393139e-002
3.187755e+003, 3.320424e-002
3.189684e+003, 3.402670e-002
3.191612e+003, 3.550180e-002
3.193541e+003, 3.587399e-002
3.195469e+003, 3.553436e-002
3.197398e+003, 3.532425e-002
3.199326e+003, 3.615518e-002
3.201255e+003, 3.639793e-002
3.203183e+003, 3.569221e-002
3.205112e+003, 3.545881e-002
3.207040e+003, 3.505506e-002
3.208969e+003, 3.515640e-002
3.210897e+003, 3.660579e-002
3.212825e+003, 3.712713e-002
3.214754e+003, 3.702594e-002
3.216682e+003, 3.732707e-002
3.218611e+003, 3.735004e-002
3.220539e+003, 3.712061e-002
3.222468e+003, 3.685075e-002
3.224396e+003, 3.645017e-002
3.226325e+003, 3.645642e-002
3.228253e+003, 3.722501e-002
3.230182e+003, 3.727319e-002
3.232110e+003, 3.708353e-002
3.234039e+003, 3.777089e-002
3.235967e+003, 3.911986e-002
3.237896e+003, 3.945572e-002
3.239824e+003, 3.848636e-002
3.241752e+003, 3.895442e-002
3.243681e+003, 4.020120e-002
3.245609e+003, 4.045425e-002
3.247538e+003, 3.993008e-002
3.249466e+003, 3.964679e-002
3.251395e+003, 3.921828e-002
3.253323e+003, 3.890994e-002
3.255252e+003, 3.852084e-002
3.257180e+003, 3.921993e-002
3.259109e+003, 4.120265e-002
3.261037e+003, 4.065181e-002
3.262966e+003, 4.000125e-002
3.264894e+003, 4.096162e-002
3.266823e+003, 4.107934e-002
3.268751e+003, 4.060663e-002
3.270679e+003, 3.982153e-002
3.272608e+003, 4.050729e-002
3.274536e+003, 4.134991e-002
3.276465e+003, 4.060589e-002
3.278393e+003, 4.077870e-002
3.280322e+003, 4.262336e-002
3.282250e+003, 4.265113e-002
3.284179e+003, 4.241978e-002
3.286107e+003, 4.276723e-002
3.288036e+003, 4.263514e-002
3.289964e+003, 4.333968e-002
3.291893e+003, 4.331493e-002
3.293821e+003, 4.300787e-002
3.295750e+003, 4.337897e-002
3.297678e+003, 4.315466e-002
3.299606e+003, 4.345919e-002
3.301535e+003, 4.419155e-002
3.303463e+003, 4.428641e-002
3.305392e+003, 4.520031e-002
3.307320e+003, 4.529995e-002
3.309249e+003, 4.486297e-002
3.311177e+003, 4.392743e-002
3.313106e+003, 4.412009e-002
3.315034e+003, 4.430380e-002
3.316963e+003, 4.435586e-002
3.318891e+003, 4.494257e-002
3.320820e+003, 4.563702e-002
3.322748e+003, 4.590344e-002
3.324677e+003, 4.661101e-002
3.326605e+003, 4.785937e-002
3.328533e+003, 4.783927e-002
3.330462e+003, 4.712509e-002
3.332390e+003, 4.760353e-002
3.334319e+003, 4.712809e-002
3.336247e+003, 4.626414e-002
3.338176e+003, 4.665254e-002
3.340104e+003, 4.787508e-002
3.342033e+003, 4.847715e-002
3.343961e+003, 4.803349e-002
3.345890e+003, 4.857437e-002
3.347818e+003, 4.933447e-002
3.349747e+003, 4.980243e-002
3.351675e+003, 5.063557e-002
3.353604e+003, 5.014412e-002
3.355532e+003, 4.927398e-002
3.357460e+003, 4.890987e-002
3.359389e+003, 4.980605e-002
3.361317e+003, 5.160933e-002
3.363246e+003, 5.099330e-002
3.365174e+003, 5.039506e-002
3.367103e+003, 5.160537e-002
3.369031e+003, 5.210888e-002
3.370960e+003, 5.091133e-002
3.372888e+003, 5.051405e-002
3.374817e+003, 5.122579e-002
3.376745e+003, 5.150102e-002
3.378674e+003, 5.149332e-002
3.380602e+003, 5.196499e-002
3.382531e+003, 5.245968e-002
3.384459e+003, 5.305396e-002
3.386387e+003, 5.264133e-002
3.388316e+003, 5.147574e-002
3.390244e+003, 5.154738e-002
3.392173e+003, 5.240221e-002
3.394101e+003, 5.245352e-002
3.396030e+003, 5.180728e-002
3.397958e+003, 5.216539e-002
3.399887e+003, 5.159193e-002
3.401815e+003, 5.157449e-002
3.403744e+003, 5.178092e-002
3.405672e+003, 5.085452e-002
3.407601e+003, 5.110033e-002
3.409529e+003, 5.239579e-002
3.411458e+003, 5.265615e-002
3.413386e+003, 5.136734e-002
3.415314e+003, 5.152109e-002
3.417243e+003, 5.235805e-002
3.419171e+003, 5.186759e-002
3.421100e+003, 5.159663e-002
3.423028e+003, 5.128679e-002
3.424957e+003, 5.107259e-002
3.426885e+003, 5.154567e-002
3.428814e+003, 5.216617e-002
3.430742e+003, 5.235636e-002
3.432671e+003, 5.297832e-002
3.434599e+003, 5.358762e-002
3.436528e+003, 5.292484e-002
3.438456e+003, 5.348650e-002
3.440385e+003, 5.270654e-002
3.442313e+003, 5.083014e-002
3.444241e+003, 5.088522e-002
3.446170e+003, 5.134439e-002
3.448098e+003, 5.049043e-002
3.450027e+003, 4.999592e-002
3.451955e+003, 5.091417e-002
3.453884e+003, 5.173384e-002
3.455812e+003, 5.120726e-002
3.457741e+003, 5.080687e-002
3.459669e+003, 5.126886e-002
3.461598e+003, 5.025435e-002
3.463526e+003, 4.982560e-002
3.465455e+003, 5.011251e-002
3.467383e+003, 4.974554e-002
3.469312e+003, 4.907159e-002
3.471240e+003, 4.938308e-002
3.473168e+003, 4.981523e-002
3.475097e+003, 5.071687e-002
3.477025e+003, 5.057925e-002
3.478954e+003, 5.139549e-002
3.480882e+003, 5.200537e-002
3.482811e+003, 5.028020e-002
3.484739e+003, 4.970175e-002
3.486668e+003, 5.045069e-002
3.488596e+003, 5.160139e-002
3.490525e+003, 5.112168e-002
3.492453e+003, 5.098128e-002
3.494382e+003, 5.077272e-002
3.496310e+003, 5.031121e-002
3.498239e+003, 5.165721e-002
3.500167e+003, 5.206806e-002
3.502095e+003, 5.081442e-002
3.504024e+003, 5.084603e-002
3.505952e+003, 5.079043e-002
3.507881e+003, 5.049258e-002
3.509809e+003, 5.029305e-002
3.511738e+003, 4.942999e-002
3.513666e+003, 4.908512e-002
3.515595e+003, 4.895798e-002
3.517523e+003, 5.017302e-002
3.519452e+003, 5.025851e-002
3.521380e+003, 4.994484e-002
3.523309e+003, 5.064466e-002
3.525237e+003, 4.931215e-002
3.527166e+003, 4.822217e-002
3.529094e+003, 5.000022e-002
3.531022e+003, 5.084870e-002
3.532951e+003, 5.020209e-002
3.534879e+003, 5.034922e-002
3.536808e+003, 4.874795e-002
3.538736e+003, 4.776597e-002
3.540665e+003, 4.804492e-002
3.542593e+003, 4.845942e-002
3.544522e+003, 4.956121e-002
3.546450e+003, 5.044220e-002
3.548379e+003, 4.915029e-002
3.550307e+003, 4.855205e-002
3.552236e+003, 4.909746e-002
3.554164e+003, 4.689655e-002
3.556093e+003, 4.761760e-002
3.558021e+003, 5.046887e-002
3.559949e+003, 5.061365e-002
3.561878e+003, 4.986675e-002
3.563806e+003, 4.980183e-002
3.565735e+003, 5.006397e-002
3.567663e+003, 4.960736e-002
3.569592e+003, 4.877855e-002
3.571520e+003, 4.905845e-002
3.573449e+003, 4.854307e-002
3.575377e+003, 4.800382e-002
3.577306e+003, 4.673445e-002
3.579234e+003, 4.477086e-002
3.581163e+003, 4.623440e-002
3.583091e+003, 4.871652e-002
3.585020e+003, 4.946344e-002
3.586948e+003, 5.003845e-002
3.588876e+003, 5.018470e-002
3.590805e+003, 5.000547e-002
3.592733e+003, 4.818837e-002
3.594662e+003, 4.632341e-002
3.596590e+003, 4.801568e-002
3.598519e+003, 4.965669e-002
3.600447e+003, 4.983348e-002
3.602376e+003, 4.793549e-002
3.604304e+003, 4.715918e-002
3.606233e+003, 4.634803e-002
3.608161e+003, 4.532493e-002
3.610090e+003, 4.386161e-002
3.612018e+003, 4.366457e-002
3.613947e+003, 4.393814e-002
3.615875e+003, 4.352103e-002
3.617803e+003, 4.240337e-002
3.619732e+003, 4.038254e-002
3.621660e+003, 3.871725e-002
3.623589e+003, 3.756865e-002
3.625517e+003, 3.570339e-002
3.627446e+003, 3.463053e-002
3.629374e+003, 3.451377e-002
3.631303e+003, 3.487019e-002
3.633231e+003, 3.291802e-002
3.635160e+003, 3.053701e-002
3.637088e+003, 3.011760e-002
3.639017e+003, 3.019360e-002
3.640945e+003, 2.764039e-002
3.642874e+003, 2.567616e-002
3.644802e+003, 2.490107e-002
3.646730e+003, 2.422172e-002
3.648659e+003, 2.298012e-002
3.650587e+003, 2.143965e-002
3.652516e+003, 2.055477e-002
3.654444e+003, 1.947212e-002
3.656373e+003, 1.745958e-002
3.658301e+003, 1.587053e-002
3.660230e+003, 1.476209e-002
3.662158e+003, 1.363882e-002
3.664087e+003, 1.378483e-002
3.666015e+003, 1.227389e-002
3.667944e+003, 9.791951e-003
3.669872e+003, 9.492548e-003
3.671801e+003, 9.592867e-003
3.673729e+003, 9.811101e-003
3.675657e+003, 1.066034e-002
3.677586e+003, 1.033456e-002
3.679514e+003, 1.163025e-002
3.681443e+003, 1.006361e-002
3.683371e+003, 7.737829e-003
3.685300e+003, 1.064120e-002
3.687228e+003, 1.177790e-002
3.689157e+003, 8.671824e-003
3.691085e+003, 7.401089e-003
3.693014e+003, 7.509563e-003
3.694942e+003, 7.020065e-003
3.696871e+003, 8.463217e-003
3.698799e+003, 8.203040e-003
3.700728e+003, 6.339123e-003
3.702656e+003, 7.488896e-003
3.704584e+003, 8.856377e-003
3.706513e+003, 8.357613e-003
3.708441e+003, 7.730403e-003
3.710370e+003, 7.990895e-003
3.712298e+003, 8.474539e-003
3.714227e+003, 7.378863e-003
3.716155e+003, 6.793326e-003
3.718084e+003, 7.286114e-003
3.720012e+003, 6.699719e-003
3.721941e+003, 6.750721e-003
3.723869e+003, 6.587497e-003
3.725798e+003, 7.133997e-003
3.727726e+003, 8.062826e-003
3.729655e+003, 6.615806e-003
3.731583e+003, 5.252743e-003
3.733511e+003, 6.189382e-003
3.735440e+003, 6.557554e-003
3.737368e+003, 7.343178e-003
3.739297e+003, 6.812302e-003
3.741225e+003, 6.210456e-003
3.743154e+003, 7.555209e-003
3.745082e+003, 6.477569e-003
3.747011e+003, 3.801737e-003
3.748939e+003, 4.040370e-003
3.750868e+003, 6.034481e-003
3.752796e+003, 7.728195e-003
3.754725e+003, 8.597962e-003
3.756653e+003, 7.126005e-003
3.758582e+003, 7.057990e-003
3.760510e+003, 7.271824e-003
3.762438e+003, 6.470355e-003
3.764367e+003, 5.448933e-003
3.766295e+003, 7.334073e-003
3.768224e+003, 8.385533e-003
3.770152e+003, 8.717920e-003
3.772081e+003, 8.997129e-003
3.774009e+003, 7.951879e-003
3.775938e+003, 6.929911e-003
3.777866e+003, 9.301646e-003
3.779795e+003, 1.093253e-002
3.781723e+003, 1.035310e-002
3.783652e+003, 9.002862e-003
3.785580e+003, 8.551403e-003
3.787509e+003, 7.456715e-003
3.789437e+003, 6.829440e-003
3.791365e+003, 8.307303e-003
3.793294e+003, 9.321159e-003
3.795222e+003, 9.785896e-003
3.797151e+003, 8.748313e-003
3.799079e+003, 8.813128e-003
3.801008e+003, 8.932336e-003
3.802936e+003, 6.883667e-003
3.804865e+003, 8.036504e-003
3.806793e+003, 8.038943e-003
3.808722e+003, 8.052261e-003
3.810650e+003, 8.382323e-003
3.812579e+003, 7.675676e-003
3.814507e+003, 7.498090e-003
3.816436e+003, 8.614733e-003
3.818364e+003, 1.052113e-002
3.820292e+003, 1.008884e-002
3.822221e+003, 9.150451e-003
3.824149e+003, 8.344625e-003
3.826078e+003, 6.996361e-003
3.828006e+003, 6.206404e-003
3.829935e+003, 6.216521e-003
3.831863e+003, 7.527061e-003
3.833792e+003, 7.002375e-003
3.835720e+003, 6.676883e-003
3.837649e+003, 6.596937e-003
3.839577e+003, 6.789156e-003
3.841506e+003, 7.987686e-003
3.843434e+003, 6.966241e-003
3.845363e+003, 7.423228e-003
3.847291e+003, 8.052486e-003
3.849219e+003, 7.295151e-003
3.851148e+003, 7.513436e-003
3.853076e+003, 5.686747e-003
3.855005e+003, 7.095078e-003
3.856933e+003, 8.471670e-003
3.858862e+003, 8.179209e-003
3.860790e+003, 7.727700e-003
3.862719e+003, 6.761592e-003
3.864647e+003, 5.609257e-003
3.866576e+003, 5.021486e-003
3.868504e+003, 6.992989e-003
3.870433e+003, 7.948630e-003
3.872361e+003, 6.747623e-003
3.874290e+003, 7.678684e-003
3.876218e+003, 9.283097e-003
3.878146e+003, 8.519433e-003
3.880075e+003, 7.981461e-003
3.882003e+003, 8.394867e-003
3.883932e+003, 7.924200e-003
3.885860e+003, 8.831491e-003
3.887789e+003, 9.337772e-003
3.889717e+003, 1.099888e-002
3.891646e+003, 1.197906e-002
3.893574e+003, 1.068951e-002
3.895503e+003, 8.549395e-003
3.897431e+003, 8.857877e-003
3.899360e+003, 1.017415e-002
3.901288e+003, 1.083724e-002
3.903217e+003, 1.020380e-002
3.905145e+003, 8.589103e-003
3.907073e+003, 9.061817e-003
3.909002e+003, 1.018187e-002
3.910930e+003, 1.076746e-002
3.912859e+003, 8.420827e-003
3.914787e+003, 8.936096e-003
3.916716e+003, 8.485692e-003
3.918644e+003, 6.821979e-003
3.920573e+003, 7.673029e-003
3.922501e+003, 1.064262e-002
3.924430e+003, 1.030211e-002
3.926358e+003, 9.222518e-003
3.928287e+003, 8.329273e-003
3.930215e+003, 6.034064e-003
3.932144e+003, 7.290495e-003
3.934072e+003, 7.890675e-003
3.936000e+003, 7.113261e-003
3.937929e+003, 8.227284e-003
3.939857e+003, 8.155177e-003
3.941786e+003, 6.767977e-003
3.943714e+003, 9.032730e-003
3.945643e+003, 1.207581e-002
3.947571e+003, 1.116874e-002
3.949500e+003, 9.706895e-003
3.951428e+003, 1.085521e-002
3.953357e+003, 9.883584e-003
3.955285e+003, 1.006199e-002
3.957214e+003, 1.079890e-002
3.959142e+003, 8.868144e-003
3.961071e+003, 7.840334e-003
3.962999e+003, 7.897452e-003
3.964927e+003, 7.065888e-003
3.966856e+003, 8.077796e-003
3.968784e+003, 9.917429e-003
3.970713e+003, 1.183263e-002
3.972641e+003, 1.010549e-002
3.974570e+003, 6.180648e-003
3.976498e+003, 6.226695e-003
3.978427e+003, 6.792161e-003
3.980355e+003, 8.387658e-003
3.982284e+003, 1.149145e-002
3.984212e+003, 1.031344e-002
3.986141e+003, 9.002434e-003
3.988069e+003, 1.038269e-002
3.989998e+003, 9.984680e-003
3.991926e+003, 6.934251e-003
3.993854e+003, 9.097936e-003
3.995783e+003, 1.118076e-002
3.997711e+003, 8.854901e-003
3.999640e+003, 8.858930e-003
##END=



