##NAMES=Humite
##RRUFFID=R050665
##IDEAL CHEMISTRY=Mg_7_(SiO_4_)_3_(F,OH)_2_
##LOCALITY=Tilly Foster mine, Brewster, Putnam County, New York, USA
##OWNER=RRUFF
##SOURCE=University of Arizona Mineral Museum
##DESCRIPTION=Granular aggregate of reddish-orange crystals
##STATUS=The identification of this mineral has been confirmed by X-ray diffraction and chemical analysis
##URL=rruff.info/R050665
##MEASURED CHEMISTRY=(Mg_0.91_Fe^2+^_0.09_)_7_(Si_1.00_O_4_)_3_(F_0.56_(OH)_0.44_)_2_
3.991926e+002, 2.339445e-001
4.011211e+002, 2.387383e-001
4.030495e+002, 2.429349e-001
4.049780e+002, 2.401825e-001
4.069065e+002, 2.303139e-001
4.088349e+002, 2.295188e-001
4.107634e+002, 2.351915e-001
4.126919e+002, 2.281722e-001
4.146203e+002, 2.185663e-001
4.165488e+002, 2.166492e-001
4.184773e+002, 2.116821e-001
4.204057e+002, 2.075910e-001
4.223342e+002, 2.147207e-001
4.242627e+002, 2.166812e-001
4.261911e+002, 2.041495e-001
4.281196e+002, 2.050593e-001
4.300481e+002, 2.110580e-001
4.319765e+002, 2.071865e-001
4.339050e+002, 2.027879e-001
4.358335e+002, 1.990140e-001
4.377619e+002, 1.956592e-001
4.396904e+002, 1.919447e-001
4.416189e+002, 1.911937e-001
4.435473e+002, 1.916186e-001
4.454758e+002, 1.882247e-001
4.474043e+002, 1.844624e-001
4.493327e+002, 1.831209e-001
4.512612e+002, 1.813107e-001
4.531897e+002, 1.763853e-001
4.551181e+002, 1.722236e-001
4.570466e+002, 1.673561e-001
4.589751e+002, 1.670691e-001
4.609035e+002, 1.772915e-001
4.628320e+002, 1.827112e-001
4.647605e+002, 1.833226e-001
4.666889e+002, 1.844377e-001
4.686174e+002, 1.868893e-001
4.705459e+002, 1.932556e-001
4.724743e+002, 1.958205e-001
4.744028e+002, 1.931280e-001
4.763313e+002, 1.901402e-001
4.782597e+002, 1.862898e-001
4.801882e+002, 1.852781e-001
4.821167e+002, 1.834496e-001
4.840451e+002, 1.775223e-001
4.859736e+002, 1.695794e-001
4.879021e+002, 1.636577e-001
4.898305e+002, 1.570207e-001
4.917590e+002, 1.498530e-001
4.936875e+002, 1.434432e-001
4.956159e+002, 1.361569e-001
4.975444e+002, 1.314896e-001
4.994729e+002, 1.273822e-001
5.014013e+002, 1.222610e-001
5.033298e+002, 1.171770e-001
5.052583e+002, 1.133254e-001
5.071867e+002, 1.099337e-001
5.091152e+002, 1.066423e-001
5.110437e+002, 1.055265e-001
5.129721e+002, 1.074267e-001
5.149006e+002, 1.108003e-001
5.168290e+002, 1.159923e-001
5.187575e+002, 1.232251e-001
5.206860e+002, 1.309721e-001
5.226144e+002, 1.381093e-001
5.245429e+002, 1.464255e-001
5.264714e+002, 1.520055e-001
5.283998e+002, 1.537884e-001
5.303283e+002, 1.543955e-001
5.322568e+002, 1.540105e-001
5.341852e+002, 1.516737e-001
5.361137e+002, 1.478114e-001
5.380422e+002, 1.420258e-001
5.399706e+002, 1.356464e-001
5.418991e+002, 1.300121e-001
5.438276e+002, 1.246980e-001
5.457560e+002, 1.184938e-001
5.476845e+002, 1.127942e-001
5.496130e+002, 1.087864e-001
5.515414e+002, 1.058935e-001
5.534699e+002, 1.018296e-001
5.553984e+002, 9.658328e-002
5.573268e+002, 9.164905e-002
5.592553e+002, 8.657955e-002
5.611838e+002, 8.132304e-002
5.631122e+002, 7.588462e-002
5.650407e+002, 7.190914e-002
5.669692e+002, 6.892857e-002
5.688976e+002, 6.563649e-002
5.708261e+002, 6.307948e-002
5.727546e+002, 6.120594e-002
5.746830e+002, 6.010441e-002
5.766115e+002, 5.926858e-002
5.785400e+002, 5.903861e-002
5.804684e+002, 5.859028e-002
5.823969e+002, 6.094886e-002
5.843254e+002, 6.438018e-002
5.862538e+002, 6.761980e-002
5.881823e+002, 7.221115e-002
5.901108e+002, 7.697885e-002
5.920392e+002, 8.279362e-002
5.939677e+002, 9.071317e-002
5.958962e+002, 9.836128e-002
5.978246e+002, 1.054526e-001
5.997531e+002, 1.124028e-001
6.016816e+002, 1.183598e-001
6.036100e+002, 1.222670e-001
6.055385e+002, 1.233884e-001
6.074670e+002, 1.238123e-001
6.093954e+002, 1.237325e-001
6.113239e+002, 1.221350e-001
6.132524e+002, 1.193939e-001
6.151808e+002, 1.168567e-001
6.171093e+002, 1.141414e-001
6.190378e+002, 1.102242e-001
6.209662e+002, 1.052168e-001
6.228947e+002, 1.001953e-001
6.248232e+002, 9.485962e-002
6.267516e+002, 8.948968e-002
6.286801e+002, 8.424121e-002
6.306086e+002, 7.948399e-002
6.325370e+002, 7.420582e-002
6.344655e+002, 6.875300e-002
6.363940e+002, 6.416474e-002
6.383224e+002, 6.027260e-002
6.402509e+002, 5.661435e-002
6.421794e+002, 5.272703e-002
6.441078e+002, 4.932565e-002
6.460363e+002, 4.652939e-002
6.479648e+002, 4.412528e-002
6.498932e+002, 4.220124e-002
6.518217e+002, 4.069537e-002
6.537502e+002, 3.948260e-002
6.556786e+002, 3.819508e-002
6.576071e+002, 3.692342e-002
6.595356e+002, 3.602074e-002
6.614641e+002, 3.503376e-002
6.633925e+002, 3.416143e-002
6.653210e+002, 3.381013e-002
6.672495e+002, 3.298611e-002
6.691779e+002, 3.271981e-002
6.711064e+002, 3.260969e-002
6.730349e+002, 3.187741e-002
6.749633e+002, 3.097151e-002
6.768918e+002, 3.048860e-002
6.788203e+002, 3.035796e-002
6.807487e+002, 3.058028e-002
6.826772e+002, 3.049235e-002
6.846057e+002, 3.018194e-002
6.865341e+002, 3.028391e-002
6.884626e+002, 3.044238e-002
6.903911e+002, 3.059040e-002
6.923195e+002, 3.079673e-002
6.942480e+002, 3.059346e-002
6.961765e+002, 3.070509e-002
6.981049e+002, 3.108708e-002
7.000334e+002, 3.158928e-002
7.019619e+002, 3.186417e-002
7.038903e+002, 3.232218e-002
7.058188e+002, 3.299018e-002
7.077473e+002, 3.348283e-002
7.096757e+002, 3.425656e-002
7.116042e+002, 3.554605e-002
7.135327e+002, 3.722332e-002
7.154611e+002, 3.816685e-002
7.173896e+002, 3.938249e-002
7.193181e+002, 4.111657e-002
7.212465e+002, 4.314850e-002
7.231750e+002, 4.519303e-002
7.251035e+002, 4.793549e-002
7.270319e+002, 5.123226e-002
7.289604e+002, 5.501616e-002
7.308889e+002, 5.930701e-002
7.328173e+002, 6.394822e-002
7.347458e+002, 6.888213e-002
7.366743e+002, 7.448463e-002
7.386027e+002, 8.023804e-002
7.405312e+002, 8.570474e-002
7.424597e+002, 9.046911e-002
7.443881e+002, 9.258205e-002
7.463166e+002, 9.319820e-002
7.482451e+002, 9.294104e-002
7.501735e+002, 9.212518e-002
7.521020e+002, 9.153437e-002
7.540305e+002, 9.086347e-002
7.559589e+002, 9.002422e-002
7.578874e+002, 8.912272e-002
7.598159e+002, 8.826852e-002
7.617443e+002, 8.622906e-002
7.636728e+002, 8.306003e-002
7.656013e+002, 7.940701e-002
7.675297e+002, 7.563651e-002
7.694582e+002, 7.174919e-002
7.713867e+002, 6.731420e-002
7.733151e+002, 6.235481e-002
7.752436e+002, 5.721324e-002
7.771721e+002, 5.225924e-002
7.791005e+002, 4.866752e-002
7.810290e+002, 4.634520e-002
7.829575e+002, 4.539261e-002
7.848859e+002, 4.525848e-002
7.868144e+002, 4.570799e-002
7.887429e+002, 4.691996e-002
7.906713e+002, 4.848181e-002
7.925998e+002, 5.017267e-002
7.945283e+002, 5.240664e-002
7.964567e+002, 5.516148e-002
7.983852e+002, 5.877288e-002
8.003137e+002, 6.272104e-002
8.022421e+002, 6.724077e-002
8.041706e+002, 7.190122e-002
8.060991e+002, 7.671946e-002
8.080275e+002, 8.205792e-002
8.099560e+002, 8.816092e-002
8.118845e+002, 9.451391e-002
8.138129e+002, 1.009509e-001
8.157414e+002, 1.079588e-001
8.176699e+002, 1.152976e-001
8.195983e+002, 1.230536e-001
8.215268e+002, 1.310929e-001
8.234553e+002, 1.396462e-001
8.253837e+002, 1.480284e-001
8.273122e+002, 1.576429e-001
8.292407e+002, 1.690099e-001
8.311691e+002, 1.806114e-001
8.330976e+002, 1.922623e-001
8.350261e+002, 2.042517e-001
8.369545e+002, 2.161256e-001
8.388830e+002, 2.285376e-001
8.408115e+002, 2.403171e-001
8.427399e+002, 2.481877e-001
8.446684e+002, 2.499532e-001
8.465969e+002, 2.455173e-001
8.485253e+002, 2.367531e-001
8.504538e+002, 2.275235e-001
8.523823e+002, 2.217188e-001
8.543107e+002, 2.221763e-001
8.562392e+002, 2.279024e-001
8.581677e+002, 2.371302e-001
8.600961e+002, 2.483373e-001
8.620246e+002, 2.589142e-001
8.639531e+002, 2.666775e-001
8.658815e+002, 2.732330e-001
8.678100e+002, 2.806441e-001
8.697385e+002, 2.894840e-001
8.716669e+002, 3.010060e-001
8.735954e+002, 3.142217e-001
8.755239e+002, 3.263092e-001
8.774523e+002, 3.355662e-001
8.793808e+002, 3.409883e-001
8.813093e+002, 3.428887e-001
8.832377e+002, 3.408174e-001
8.851662e+002, 3.341098e-001
8.870947e+002, 3.244472e-001
8.890231e+002, 3.133791e-001
8.909516e+002, 3.016281e-001
8.928801e+002, 2.898315e-001
8.948085e+002, 2.782941e-001
8.967370e+002, 2.679704e-001
8.986655e+002, 2.583036e-001
9.005939e+002, 2.486343e-001
9.025224e+002, 2.399207e-001
9.044509e+002, 2.317158e-001
9.063793e+002, 2.229233e-001
9.083078e+002, 2.151628e-001
9.102363e+002, 2.084868e-001
9.121647e+002, 2.017496e-001
9.140932e+002, 1.950965e-001
9.160217e+002, 1.889633e-001
9.179501e+002, 1.830505e-001
9.198786e+002, 1.769557e-001
9.218071e+002, 1.708772e-001
9.237355e+002, 1.652999e-001
9.256640e+002, 1.600601e-001
9.275925e+002, 1.550355e-001
9.295209e+002, 1.512476e-001
9.314494e+002, 1.500294e-001
9.333779e+002, 1.521164e-001
9.353063e+002, 1.569036e-001
9.372348e+002, 1.629020e-001
9.391633e+002, 1.692856e-001
9.410917e+002, 1.766844e-001
9.430202e+002, 1.846198e-001
9.449487e+002, 1.912742e-001
9.468771e+002, 1.955915e-001
9.488056e+002, 1.972487e-001
9.507341e+002, 1.977451e-001
9.526625e+002, 1.971197e-001
9.545910e+002, 1.958497e-001
9.565195e+002, 1.938337e-001
9.584479e+002, 1.908231e-001
9.603764e+002, 1.869425e-001
9.623049e+002, 1.820034e-001
9.642333e+002, 1.760509e-001
9.661618e+002, 1.696103e-001
9.680903e+002, 1.634839e-001
9.700187e+002, 1.580958e-001
9.719472e+002, 1.530048e-001
9.738757e+002, 1.493731e-001
9.758041e+002, 1.470139e-001
9.777326e+002, 1.449161e-001
9.796611e+002, 1.431612e-001
9.815895e+002, 1.409527e-001
9.835180e+002, 1.377133e-001
9.854465e+002, 1.341633e-001
9.873749e+002, 1.309919e-001
9.893034e+002, 1.284369e-001
9.912319e+002, 1.267960e-001
9.931603e+002, 1.252441e-001
9.950888e+002, 1.235977e-001
9.970173e+002, 1.214750e-001
9.989457e+002, 1.190754e-001
1.000874e+003, 1.169291e-001
1.002803e+003, 1.146100e-001
1.004731e+003, 1.121788e-001
1.006660e+003, 1.093118e-001
1.008588e+003, 1.059310e-001
1.010517e+003, 1.023662e-001
1.012445e+003, 9.900923e-002
1.014373e+003, 9.549443e-002
1.016302e+003, 9.187336e-002
1.018230e+003, 8.816966e-002
1.020159e+003, 8.433319e-002
1.022087e+003, 8.029154e-002
1.024016e+003, 7.599574e-002
1.025944e+003, 7.245412e-002
1.027873e+003, 6.929432e-002
1.029801e+003, 6.538719e-002
1.031730e+003, 6.111755e-002
1.033658e+003, 5.713798e-002
1.035587e+003, 5.350929e-002
1.037515e+003, 5.002276e-002
1.039443e+003, 4.658967e-002
1.041372e+003, 4.325111e-002
1.043300e+003, 3.991804e-002
1.045229e+003, 3.675657e-002
1.047157e+003, 3.406532e-002
1.049086e+003, 3.180110e-002
1.051014e+003, 2.967135e-002
1.052943e+003, 2.754552e-002
1.054871e+003, 2.552692e-002
1.056800e+003, 2.385459e-002
1.058728e+003, 2.261340e-002
1.060657e+003, 2.133804e-002
1.062585e+003, 2.050163e-002
1.064514e+003, 2.001157e-002
1.066442e+003, 1.970706e-002
1.068370e+003, 1.939838e-002
1.070299e+003, 1.910069e-002
1.072227e+003, 1.929834e-002
1.074156e+003, 1.977458e-002
1.076084e+003, 1.972213e-002
1.078013e+003, 1.954370e-002
1.079941e+003, 1.939615e-002
1.081870e+003, 1.910826e-002
1.083798e+003, 1.862806e-002
1.085727e+003, 1.793214e-002
1.087655e+003, 1.730571e-002
1.089584e+003, 1.665602e-002
1.091512e+003, 1.600973e-002
1.093441e+003, 1.509716e-002
1.095369e+003, 1.426425e-002
1.097297e+003, 1.335919e-002
1.099226e+003, 1.178563e-002
1.101154e+003, 1.057182e-002
1.103083e+003, 9.523175e-003
1.105011e+003, 8.500980e-003
1.106940e+003, 7.783580e-003
1.108868e+003, 7.459972e-003
1.110797e+003, 7.011697e-003
1.112725e+003, 6.234420e-003
1.114654e+003, 5.556810e-003
1.116582e+003, 5.227042e-003
1.118511e+003, 5.159010e-003
1.120439e+003, 5.210666e-003
1.122368e+003, 5.155656e-003
1.124296e+003, 4.838033e-003
1.126224e+003, 4.609943e-003
1.128153e+003, 4.556292e-003
1.130081e+003, 4.236831e-003
1.132010e+003, 4.049757e-003
1.133938e+003, 3.949611e-003
1.135867e+003, 3.892283e-003
1.137795e+003, 4.022459e-003
1.139724e+003, 3.858135e-003
1.141652e+003, 3.570150e-003
1.143581e+003, 3.671621e-003
1.145509e+003, 3.619051e-003
1.147438e+003, 3.471407e-003
1.149366e+003, 3.474892e-003
1.151295e+003, 3.698976e-003
1.153223e+003, 3.727455e-003
1.155151e+003, 3.839884e-003
1.157080e+003, 3.826818e-003
1.159008e+003, 3.725058e-003
1.160937e+003, 3.895384e-003
1.162865e+003, 4.190371e-003
1.164794e+003, 4.301578e-003
1.166722e+003, 4.141169e-003
1.168651e+003, 4.058199e-003
1.170579e+003, 4.482004e-003
1.172508e+003, 4.547513e-003
1.174436e+003, 4.364385e-003
1.176365e+003, 4.191778e-003
1.178293e+003, 3.744558e-003
1.180222e+003, 3.639584e-003
1.182150e+003, 3.811983e-003
1.184078e+003, 3.704349e-003
1.186007e+003, 3.877983e-003
1.187935e+003, 4.024535e-003
1.189864e+003, 3.693032e-003
1.191792e+003, 3.365594e-003
1.193721e+003, 3.484068e-003
1.195649e+003, 3.345395e-003
1.197578e+003, 3.139984e-003
1.199506e+003, 3.261690e-003
1.201435e+003, 3.582034e-003
1.203363e+003, 3.575023e-003
1.205292e+003, 3.417023e-003
1.207220e+003, 3.346980e-003
1.209149e+003, 3.450636e-003
1.211077e+003, 3.257513e-003
1.213005e+003, 3.008374e-003
1.214934e+003, 3.098596e-003
1.216862e+003, 3.317935e-003
1.218791e+003, 3.353887e-003
1.220719e+003, 2.926482e-003
1.222648e+003, 2.761734e-003
1.224576e+003, 3.032246e-003
1.226505e+003, 3.001646e-003
1.228433e+003, 2.550327e-003
1.230362e+003, 2.563189e-003
1.232290e+003, 3.012851e-003
1.234219e+003, 3.056358e-003
1.236147e+003, 2.737943e-003
1.238076e+003, 2.703567e-003
1.240004e+003, 3.212977e-003
1.241932e+003, 3.217740e-003
1.243861e+003, 2.777722e-003
1.245789e+003, 2.625739e-003
1.247718e+003, 2.944209e-003
1.249646e+003, 3.280199e-003
1.251575e+003, 3.433279e-003
1.253503e+003, 3.556463e-003
1.255432e+003, 3.763587e-003
1.257360e+003, 3.962760e-003
1.259289e+003, 4.280278e-003
1.261217e+003, 4.500168e-003
1.263146e+003, 5.011286e-003
1.265074e+003, 5.285469e-003
1.267003e+003, 5.158364e-003
1.268931e+003, 5.261566e-003
1.270859e+003, 5.130721e-003
1.272788e+003, 4.731136e-003
1.274716e+003, 4.483875e-003
1.276645e+003, 4.333617e-003
1.278573e+003, 4.329001e-003
1.280502e+003, 4.336965e-003
1.282430e+003, 4.139645e-003
1.284359e+003, 3.891949e-003
1.286287e+003, 3.763728e-003
1.288216e+003, 3.637709e-003
1.290144e+003, 3.511677e-003
1.292073e+003, 3.465348e-003
1.294001e+003, 3.651073e-003
1.295930e+003, 3.880535e-003
1.297858e+003, 3.911716e-003
1.299786e+003, 3.641571e-003
1.301715e+003, 3.490849e-003
1.303643e+003, 3.308427e-003
1.305572e+003, 3.297078e-003
1.307500e+003, 3.716295e-003
1.309429e+003, 3.669886e-003
1.311357e+003, 3.415154e-003
1.313286e+003, 3.409489e-003
1.315214e+003, 3.561231e-003
1.317143e+003, 3.563549e-003
1.319071e+003, 3.603630e-003
1.321000e+003, 3.567538e-003
1.322928e+003, 3.315711e-003
1.324857e+003, 3.156278e-003
1.326785e+003, 3.180930e-003
1.328714e+003, 3.232259e-003
1.330642e+003, 3.464739e-003
1.332570e+003, 3.491384e-003
1.334499e+003, 3.286376e-003
1.336427e+003, 3.400411e-003
1.338356e+003, 3.266656e-003
1.340284e+003, 2.929881e-003
1.342213e+003, 3.058584e-003
1.344141e+003, 3.080478e-003
1.346070e+003, 2.986135e-003
1.347998e+003, 3.144859e-003
1.349927e+003, 2.935130e-003
1.351855e+003, 3.017649e-003
1.353784e+003, 3.380582e-003
1.355712e+003, 3.571236e-003
1.357641e+003, 3.419257e-003
1.359569e+003, 3.520313e-003
1.361497e+003, 3.616347e-003
1.363426e+003, 3.810714e-003
1.365354e+003, 3.767524e-003
1.367283e+003, 3.764735e-003
1.369211e+003, 3.930863e-003
1.371140e+003, 4.031252e-003
1.373068e+003, 3.810937e-003
1.374997e+003, 3.876865e-003
1.376925e+003, 4.092282e-003
1.378854e+003, 4.128697e-003
1.380782e+003, 4.380049e-003
1.382711e+003, 4.327984e-003
1.384639e+003, 4.298536e-003
1.386568e+003, 4.255117e-003
1.388496e+003, 4.364230e-003
1.390424e+003, 4.582299e-003
1.392353e+003, 4.554826e-003
1.394281e+003, 4.613184e-003
1.396210e+003, 4.870735e-003
1.398138e+003, 5.020050e-003
1.400067e+003, 4.848433e-003
1.401995e+003, 4.738497e-003
1.403924e+003, 4.867950e-003
1.405852e+003, 5.033652e-003
1.407781e+003, 5.044143e-003
1.409709e+003, 5.109277e-003
1.411638e+003, 5.232636e-003
1.413566e+003, 5.176457e-003
1.415495e+003, 5.298994e-003
1.417423e+003, 5.314275e-003
1.419351e+003, 5.008626e-003
1.421280e+003, 5.184812e-003
1.423208e+003, 5.612415e-003
1.425137e+003, 5.663680e-003
1.427065e+003, 5.543724e-003
1.428994e+003, 5.629105e-003
1.430922e+003, 5.884823e-003
1.432851e+003, 5.739189e-003
1.434779e+003, 5.417312e-003
1.436708e+003, 5.337273e-003
1.438636e+003, 5.468352e-003
1.440565e+003, 5.540898e-003
1.442493e+003, 5.698891e-003
1.444422e+003, 5.878479e-003
1.446350e+003, 5.904535e-003
1.448278e+003, 5.999430e-003
1.450207e+003, 5.743741e-003
1.452135e+003, 5.479944e-003
1.454064e+003, 5.401183e-003
1.455992e+003, 5.381803e-003
1.457921e+003, 5.626979e-003
1.459849e+003, 5.643374e-003
1.461778e+003, 5.326564e-003
1.463706e+003, 5.405651e-003
1.465635e+003, 5.843238e-003
1.467563e+003, 5.800407e-003
1.469492e+003, 5.378183e-003
1.471420e+003, 5.198952e-003
1.473349e+003, 5.390761e-003
1.475277e+003, 5.870057e-003
1.477205e+003, 5.960140e-003
1.479134e+003, 6.039280e-003
1.481062e+003, 5.784549e-003
1.482991e+003, 5.595603e-003
1.484919e+003, 5.830391e-003
1.486848e+003, 6.175814e-003
1.488776e+003, 6.230667e-003
1.490705e+003, 6.117339e-003
1.492633e+003, 6.063328e-003
1.494562e+003, 6.253209e-003
1.496490e+003, 6.428640e-003
1.498419e+003, 6.627710e-003
1.500347e+003, 6.615981e-003
1.502276e+003, 6.376619e-003
1.504204e+003, 6.261744e-003
1.506132e+003, 6.420869e-003
1.508061e+003, 6.476898e-003
1.509989e+003, 6.176056e-003
1.511918e+003, 6.042602e-003
1.513846e+003, 6.273014e-003
1.515775e+003, 6.587105e-003
1.517703e+003, 6.625944e-003
1.519632e+003, 6.268876e-003
1.521560e+003, 6.136603e-003
1.523489e+003, 6.174526e-003
1.525417e+003, 5.970850e-003
1.527346e+003, 5.759406e-003
1.529274e+003, 5.955852e-003
1.531203e+003, 6.143612e-003
1.533131e+003, 6.205936e-003
1.535059e+003, 5.987203e-003
1.536988e+003, 5.942301e-003
1.538916e+003, 6.146444e-003
1.540845e+003, 5.880696e-003
1.542773e+003, 5.610138e-003
1.544702e+003, 5.676297e-003
1.546630e+003, 6.032909e-003
1.548559e+003, 5.963945e-003
1.550487e+003, 5.757336e-003
1.552416e+003, 5.679409e-003
1.554344e+003, 5.685465e-003
1.556273e+003, 5.689232e-003
1.558201e+003, 5.335196e-003
1.560130e+003, 5.224559e-003
1.562058e+003, 5.579186e-003
1.563986e+003, 5.898941e-003
1.565915e+003, 6.112491e-003
1.567843e+003, 6.184327e-003
1.569772e+003, 6.047393e-003
1.571700e+003, 5.673694e-003
1.573629e+003, 5.640522e-003
1.575557e+003, 5.584158e-003
1.577486e+003, 5.303751e-003
1.579414e+003, 5.236503e-003
1.581343e+003, 5.563806e-003
1.583271e+003, 5.854741e-003
1.585200e+003, 6.014651e-003
1.587128e+003, 5.752743e-003
1.589057e+003, 5.402022e-003
1.590985e+003, 5.428547e-003
1.592913e+003, 5.611694e-003
1.594842e+003, 5.807199e-003
1.596770e+003, 5.717869e-003
1.598699e+003, 5.784801e-003
1.600627e+003, 6.366359e-003
1.602556e+003, 6.625806e-003
1.604484e+003, 6.524564e-003
1.606413e+003, 6.657434e-003
1.608341e+003, 6.483115e-003
1.610270e+003, 6.040621e-003
1.612198e+003, 6.195391e-003
1.614127e+003, 6.350168e-003
1.616055e+003, 6.263082e-003
1.617984e+003, 6.391075e-003
1.619912e+003, 6.473601e-003
1.621840e+003, 6.257084e-003
1.623769e+003, 6.060184e-003
1.625697e+003, 6.105519e-003
1.627626e+003, 6.184665e-003
1.629554e+003, 6.011729e-003
1.631483e+003, 5.377734e-003
1.633411e+003, 5.256931e-003
1.635340e+003, 5.528697e-003
1.637268e+003, 5.690502e-003
1.639197e+003, 5.805613e-003
1.641125e+003, 5.880687e-003
1.643054e+003, 5.748013e-003
1.644982e+003, 5.739264e-003
1.646911e+003, 5.308323e-003
1.648839e+003, 5.124241e-003
1.650767e+003, 5.483381e-003
1.652696e+003, 5.468379e-003
1.654624e+003, 5.819103e-003
1.656553e+003, 6.061369e-003
1.658481e+003, 6.046649e-003
1.660410e+003, 5.781888e-003
1.662338e+003, 5.227883e-003
1.664267e+003, 5.253390e-003
1.666195e+003, 5.400687e-003
1.668124e+003, 5.279201e-003
1.670052e+003, 5.400808e-003
1.671981e+003, 5.631281e-003
1.673909e+003, 5.916241e-003
1.675838e+003, 5.831540e-003
1.677766e+003, 5.816064e-003
1.679694e+003, 5.817650e-003
1.681623e+003, 5.571291e-003
1.683551e+003, 5.290234e-003
1.685480e+003, 5.504908e-003
1.687408e+003, 5.962510e-003
1.689337e+003, 6.209088e-003
1.691265e+003, 6.056040e-003
1.693194e+003, 5.539848e-003
1.695122e+003, 5.510672e-003
1.697051e+003, 5.511906e-003
1.698979e+003, 5.233578e-003
1.700908e+003, 5.583900e-003
1.702836e+003, 6.196325e-003
1.704765e+003, 6.512992e-003
1.706693e+003, 6.500972e-003
1.708621e+003, 6.216706e-003
1.710550e+003, 6.275628e-003
1.712478e+003, 6.380796e-003
1.714407e+003, 6.227758e-003
1.716335e+003, 5.891752e-003
1.718264e+003, 5.734742e-003
1.720192e+003, 5.889041e-003
1.722121e+003, 6.078091e-003
1.724049e+003, 6.349638e-003
1.725978e+003, 6.517853e-003
1.727906e+003, 6.444992e-003
1.729835e+003, 6.323697e-003
1.731763e+003, 5.707701e-003
1.733692e+003, 5.432011e-003
1.735620e+003, 5.547768e-003
1.737548e+003, 5.173805e-003
1.739477e+003, 5.031710e-003
1.741405e+003, 4.939261e-003
1.743334e+003, 4.516655e-003
1.745262e+003, 4.675720e-003
1.747191e+003, 4.898316e-003
1.749119e+003, 5.073192e-003
1.751048e+003, 4.991836e-003
1.752976e+003, 5.130425e-003
1.754905e+003, 5.615847e-003
1.756833e+003, 5.682024e-003
1.758762e+003, 5.117657e-003
1.760690e+003, 4.733298e-003
1.762619e+003, 4.886528e-003
1.764547e+003, 5.472567e-003
1.766475e+003, 5.650360e-003
1.768404e+003, 5.756306e-003
1.770332e+003, 5.949080e-003
1.772261e+003, 5.695476e-003
1.774189e+003, 5.499771e-003
1.776118e+003, 5.610196e-003
1.778046e+003, 6.028909e-003
1.779975e+003, 5.596870e-003
1.781903e+003, 4.835278e-003
1.783832e+003, 5.374801e-003
1.785760e+003, 6.127116e-003
1.787689e+003, 6.717371e-003
1.789617e+003, 6.826024e-003
1.791546e+003, 6.041417e-003
1.793474e+003, 5.554862e-003
1.795402e+003, 5.588115e-003
1.797331e+003, 5.875736e-003
1.799259e+003, 6.197353e-003
1.801188e+003, 6.230533e-003
1.803116e+003, 6.158097e-003
1.805045e+003, 6.017273e-003
1.806973e+003, 6.094919e-003
1.808902e+003, 5.722871e-003
1.810830e+003, 5.318604e-003
1.812759e+003, 5.256142e-003
1.814687e+003, 4.643008e-003
1.816616e+003, 4.595532e-003
1.818544e+003, 5.295598e-003
1.820473e+003, 5.616886e-003
1.822401e+003, 5.237700e-003
1.824329e+003, 4.883005e-003
1.826258e+003, 4.993284e-003
1.828186e+003, 5.460818e-003
1.830115e+003, 6.175729e-003
1.832043e+003, 5.968602e-003
1.833972e+003, 5.525458e-003
1.835900e+003, 5.345226e-003
1.837829e+003, 5.163788e-003
1.839757e+003, 5.157084e-003
1.841686e+003, 4.895077e-003
1.843614e+003, 5.856698e-003
1.845543e+003, 6.224023e-003
1.847471e+003, 5.801730e-003
1.849400e+003, 5.465636e-003
1.851328e+003, 4.796173e-003
1.853256e+003, 4.419468e-003
1.855185e+003, 4.872437e-003
1.857113e+003, 5.130579e-003
1.859042e+003, 5.545172e-003
1.860970e+003, 5.512399e-003
1.862899e+003, 5.204603e-003
1.864827e+003, 5.267109e-003
1.866756e+003, 5.307883e-003
1.868684e+003, 5.256983e-003
1.870613e+003, 4.784598e-003
1.872541e+003, 4.970195e-003
1.874470e+003, 5.671394e-003
1.876398e+003, 4.851742e-003
1.878327e+003, 4.773581e-003
1.880255e+003, 4.490846e-003
1.882183e+003, 4.181497e-003
1.884112e+003, 5.520740e-003
1.886040e+003, 5.119948e-003
1.887969e+003, 3.053311e-003
1.889897e+003, 4.164318e-003
1.891826e+003, 6.043364e-003
1.893754e+003, 5.048843e-003
1.895683e+003, 4.343453e-003
1.897611e+003, 5.434488e-003
1.899540e+003, 6.714521e-003
1.901468e+003, 5.277100e-003
1.903397e+003, 5.055944e-003
1.905325e+003, 5.880463e-003
1.907254e+003, 5.235302e-003
1.909182e+003, 4.791574e-003
1.911110e+003, 5.940877e-003
1.913039e+003, 5.546275e-003
1.914967e+003, 4.736166e-003
1.916896e+003, 3.807368e-003
1.918824e+003, 3.333808e-003
1.920753e+003, 4.593008e-003
1.922681e+003, 5.007361e-003
1.924610e+003, 4.678210e-003
1.926538e+003, 4.983599e-003
1.928467e+003, 5.130691e-003
1.930395e+003, 5.381447e-003
1.932324e+003, 5.909045e-003
1.934252e+003, 6.191987e-003
1.936181e+003, 4.716944e-003
1.938109e+003, 4.642207e-003
1.940037e+003, 3.890924e-003
1.941966e+003, 1.541884e-003
1.943894e+003, 2.673751e-003
1.945823e+003, 4.679829e-003
1.947751e+003, 5.450622e-003
1.949680e+003, 6.262902e-003
1.951608e+003, 5.523770e-003
1.953537e+003, 3.505247e-003
1.955465e+003, 2.054843e-003
1.957394e+003, 2.746266e-003
1.959322e+003, 3.659891e-003
1.961251e+003, 3.331179e-003
1.963179e+003, 3.041798e-003
1.965108e+003, 2.182185e-003
1.967036e+003, 2.204070e-003
1.968964e+003, 4.584587e-004
1.970893e+003, 8.152081e-004
1.972821e+003, 3.644453e-003
1.974750e+003, 1.616972e-003
1.976678e+003, 4.335267e-004
1.978607e+003, 3.763105e-003
1.980535e+003, 5.738690e-003
1.982464e+003, 5.674601e-003
1.984392e+003, 6.980357e-003
1.986321e+003, 5.985694e-003
1.988249e+003, 3.131560e-003
1.990178e+003, 3.457247e-003
1.992106e+003, 6.919581e-003
1.994035e+003, 8.278966e-003
1.995963e+003, 6.676777e-003
1.997891e+003, 6.628615e-003
1.999820e+003, 6.276315e-003
2.001748e+003, 3.723509e-003
2.003677e+003, 3.614985e-003
2.005605e+003, 5.378824e-003
2.007534e+003, 4.419494e-003
2.009462e+003, 2.622405e-003
2.011391e+003, 4.075795e-003
2.013319e+003, 4.386879e-003
2.015248e+003, 7.945048e-003
2.017176e+003, 1.242617e-002
2.019105e+003, 9.676525e-003
2.021033e+003, 4.465585e-003
2.022962e+003, 4.713165e-003
2.024890e+003, 8.649961e-003
2.026818e+003, 8.159090e-003
2.028747e+003, 5.500075e-003
2.030675e+003, 5.723603e-003
2.032604e+003, 6.716684e-003
2.034532e+003, 9.465149e-003
2.036461e+003, 9.403989e-003
2.038389e+003, 8.089538e-003
2.040318e+003, 7.050308e-003
2.042246e+003, 7.684465e-003
2.044175e+003, 9.818384e-003
2.046103e+003, 9.748464e-003
2.048031e+003, 8.945725e-003
2.049960e+003, 9.153574e-003
2.051888e+003, 7.893407e-003
2.053817e+003, 6.342081e-003
2.055745e+003, 6.491780e-003
2.057674e+003, 9.810073e-003
2.059602e+003, 1.167913e-002
2.061531e+003, 9.767329e-003
2.063459e+003, 7.531434e-003
2.065388e+003, 6.812100e-003
2.067316e+003, 7.634311e-003
2.069245e+003, 8.086769e-003
2.071173e+003, 7.155884e-003
2.073102e+003, 7.575247e-003
2.075030e+003, 1.083824e-002
2.076958e+003, 1.251355e-002
2.078887e+003, 1.130857e-002
2.080815e+003, 1.028396e-002
2.082744e+003, 9.537682e-003
2.084672e+003, 9.873863e-003
2.086601e+003, 8.587194e-003
2.088529e+003, 6.409350e-003
2.090458e+003, 6.216532e-003
2.092386e+003, 7.611470e-003
2.094315e+003, 8.091319e-003
2.096243e+003, 9.756924e-003
2.098172e+003, 1.205626e-002
2.100100e+003, 1.060430e-002
2.102029e+003, 8.891802e-003
2.103957e+003, 8.746749e-003
2.105885e+003, 9.653781e-003
2.107814e+003, 1.049289e-002
2.109742e+003, 9.013615e-003
2.111671e+003, 7.936990e-003
2.113599e+003, 1.032896e-002
2.115528e+003, 1.114030e-002
2.117456e+003, 1.061514e-002
2.119385e+003, 1.052775e-002
2.121313e+003, 9.708659e-003
2.123242e+003, 9.896742e-003
2.125170e+003, 1.117296e-002
2.127099e+003, 1.062900e-002
2.129027e+003, 1.027748e-002
2.130956e+003, 8.355958e-003
2.132884e+003, 6.298464e-003
2.134813e+003, 6.920685e-003
2.136741e+003, 8.600511e-003
2.138669e+003, 7.020278e-003
2.140598e+003, 7.084845e-003
2.142526e+003, 1.040232e-002
2.144455e+003, 1.157871e-002
2.146383e+003, 1.124110e-002
2.148312e+003, 8.782443e-003
2.150240e+003, 9.389888e-003
2.152169e+003, 1.033135e-002
2.154097e+003, 1.110800e-002
2.156026e+003, 1.260293e-002
2.157954e+003, 1.416898e-002
2.159883e+003, 1.417160e-002
2.161811e+003, 1.420749e-002
2.163740e+003, 1.441467e-002
2.165668e+003, 1.526641e-002
2.167596e+003, 1.773627e-002
2.169525e+003, 1.612659e-002
2.171453e+003, 1.115976e-002
2.173382e+003, 9.738877e-003
2.175310e+003, 1.251003e-002
2.177239e+003, 1.421509e-002
2.179167e+003, 1.308884e-002
2.181096e+003, 1.203421e-002
2.183024e+003, 1.270963e-002
2.184953e+003, 1.058758e-002
2.186881e+003, 1.219652e-002
2.188810e+003, 1.287227e-002
2.190738e+003, 1.184205e-002
2.192667e+003, 1.355123e-002
2.194595e+003, 1.393474e-002
2.196523e+003, 1.403381e-002
2.198452e+003, 1.184584e-002
2.200380e+003, 1.077539e-002
2.202309e+003, 1.334531e-002
2.204237e+003, 1.438601e-002
2.206166e+003, 1.315085e-002
2.208094e+003, 1.194168e-002
2.210023e+003, 1.150992e-002
2.211951e+003, 1.045130e-002
2.213880e+003, 1.196249e-002
2.215808e+003, 1.404681e-002
2.217737e+003, 1.421033e-002
2.219665e+003, 1.182874e-002
2.221594e+003, 9.812058e-003
2.223522e+003, 8.907706e-003
2.225450e+003, 1.248803e-002
2.227379e+003, 1.755286e-002
2.229307e+003, 1.558004e-002
2.231236e+003, 1.253675e-002
2.233164e+003, 1.293369e-002
2.235093e+003, 1.309127e-002
2.237021e+003, 1.242049e-002
2.238950e+003, 1.185706e-002
2.240878e+003, 1.239290e-002
2.242807e+003, 1.350061e-002
2.244735e+003, 1.383273e-002
2.246664e+003, 1.329318e-002
2.248592e+003, 1.409927e-002
2.250521e+003, 1.527018e-002
2.252449e+003, 1.396514e-002
2.254377e+003, 1.339024e-002
2.256306e+003, 1.376305e-002
2.258234e+003, 1.344688e-002
2.260163e+003, 1.284389e-002
2.262091e+003, 1.348196e-002
2.264020e+003, 1.382978e-002
2.265948e+003, 1.496362e-002
2.267877e+003, 1.280183e-002
2.269805e+003, 1.206681e-002
2.271734e+003, 1.398776e-002
2.273662e+003, 1.412142e-002
2.275591e+003, 1.392191e-002
2.277519e+003, 1.502428e-002
2.279448e+003, 1.518034e-002
2.281376e+003, 1.561100e-002
2.283304e+003, 1.524401e-002
2.285233e+003, 1.392167e-002
2.287161e+003, 1.410580e-002
2.289090e+003, 1.462486e-002
2.291018e+003, 1.380202e-002
2.292947e+003, 1.266650e-002
2.294875e+003, 1.269247e-002
2.296804e+003, 1.333601e-002
2.298732e+003, 1.354936e-002
2.300661e+003, 1.333632e-002
2.302589e+003, 1.324140e-002
2.304518e+003, 1.360661e-002
2.306446e+003, 1.386479e-002
2.308375e+003, 1.374068e-002
2.310303e+003, 1.240745e-002
2.312231e+003, 1.249464e-002
2.314160e+003, 1.286491e-002
2.316088e+003, 1.300440e-002
2.318017e+003, 1.341332e-002
2.319945e+003, 1.401717e-002
2.321874e+003, 1.512980e-002
2.323802e+003, 1.572162e-002
2.325731e+003, 1.461835e-002
2.327659e+003, 1.324816e-002
2.329588e+003, 1.223881e-002
2.331516e+003, 1.222579e-002
2.333445e+003, 1.298685e-002
2.335373e+003, 1.338748e-002
2.337302e+003, 1.242490e-002
2.339230e+003, 1.215394e-002
2.341158e+003, 1.213951e-002
2.343087e+003, 1.301595e-002
2.345015e+003, 1.297025e-002
2.346944e+003, 1.244904e-002
2.348872e+003, 1.261389e-002
2.350801e+003, 1.373985e-002
2.352729e+003, 1.360908e-002
2.354658e+003, 1.245551e-002
2.356586e+003, 1.237671e-002
2.358515e+003, 1.223805e-002
2.360443e+003, 1.212036e-002
2.362372e+003, 1.250549e-002
2.364300e+003, 1.275833e-002
2.366229e+003, 1.241864e-002
2.368157e+003, 1.176261e-002
2.370085e+003, 1.121276e-002
2.372014e+003, 1.235895e-002
2.373942e+003, 1.339170e-002
2.375871e+003, 1.269889e-002
2.377799e+003, 1.233212e-002
2.379728e+003, 1.248837e-002
2.381656e+003, 1.256339e-002
2.383585e+003, 1.236706e-002
2.385513e+003, 1.291663e-002
2.387442e+003, 1.300020e-002
2.389370e+003, 1.270595e-002
2.391299e+003, 1.259396e-002
2.393227e+003, 1.217540e-002
2.395156e+003, 1.139500e-002
2.397084e+003, 1.213072e-002
2.399012e+003, 1.270751e-002
2.400941e+003, 1.285193e-002
2.402869e+003, 1.248679e-002
2.404798e+003, 1.145168e-002
2.406726e+003, 1.264759e-002
2.408655e+003, 1.353292e-002
2.410583e+003, 1.347733e-002
2.412512e+003, 1.335833e-002
2.414440e+003, 1.289278e-002
2.416369e+003, 1.257365e-002
2.418297e+003, 1.173633e-002
2.420226e+003, 1.132463e-002
2.422154e+003, 1.291474e-002
2.424083e+003, 1.495612e-002
2.426011e+003, 1.405134e-002
2.427939e+003, 1.275139e-002
2.429868e+003, 1.350576e-002
2.431796e+003, 1.402096e-002
2.433725e+003, 1.428096e-002
2.435653e+003, 1.361187e-002
2.437582e+003, 1.297724e-002
2.439510e+003, 1.375499e-002
2.441439e+003, 1.422481e-002
2.443367e+003, 1.381130e-002
2.445296e+003, 1.502620e-002
2.447224e+003, 1.556272e-002
2.449153e+003, 1.456661e-002
2.451081e+003, 1.396844e-002
2.453010e+003, 1.336540e-002
2.454938e+003, 1.389066e-002
2.456866e+003, 1.364243e-002
2.458795e+003, 1.255223e-002
2.460723e+003, 1.293917e-002
2.462652e+003, 1.398079e-002
2.464580e+003, 1.307737e-002
2.466509e+003, 1.325665e-002
2.468437e+003, 1.417478e-002
2.470366e+003, 1.417924e-002
2.472294e+003, 1.413206e-002
2.474223e+003, 1.369375e-002
2.476151e+003, 1.399880e-002
2.478080e+003, 1.393719e-002
2.480008e+003, 1.402872e-002
2.481937e+003, 1.332832e-002
2.483865e+003, 1.428139e-002
2.485793e+003, 1.443455e-002
2.487722e+003, 1.420247e-002
2.489650e+003, 1.522013e-002
2.491579e+003, 1.578732e-002
2.493507e+003, 1.465488e-002
2.495436e+003, 1.363321e-002
2.497364e+003, 1.467910e-002
2.499293e+003, 1.612184e-002
2.501221e+003, 1.531570e-002
2.503150e+003, 1.469846e-002
2.505078e+003, 1.356968e-002
2.507007e+003, 1.333998e-002
2.508935e+003, 1.374500e-002
2.510864e+003, 1.414346e-002
2.512792e+003, 1.461604e-002
2.514720e+003, 1.474662e-002
2.516649e+003, 1.518848e-002
2.518577e+003, 1.561602e-002
2.520506e+003, 1.505042e-002
2.522434e+003, 1.408340e-002
2.524363e+003, 1.391883e-002
2.526291e+003, 1.418671e-002
2.528220e+003, 1.288774e-002
2.530148e+003, 1.263646e-002
2.532077e+003, 1.407260e-002
2.534005e+003, 1.435381e-002
2.535934e+003, 1.420047e-002
2.537862e+003, 1.485492e-002
2.539791e+003, 1.604210e-002
2.541719e+003, 1.523013e-002
2.543647e+003, 1.424651e-002
2.545576e+003, 1.454444e-002
2.547504e+003, 1.473134e-002
2.549433e+003, 1.523629e-002
2.551361e+003, 1.498741e-002
2.553290e+003, 1.457207e-002
2.555218e+003, 1.531772e-002
2.557147e+003, 1.625538e-002
2.559075e+003, 1.648373e-002
2.561004e+003, 1.535369e-002
2.562932e+003, 1.407688e-002
2.564861e+003, 1.419836e-002
2.566789e+003, 1.516489e-002
2.568718e+003, 1.601254e-002
2.570646e+003, 1.566192e-002
2.572574e+003, 1.486379e-002
2.574503e+003, 1.478142e-002
2.576431e+003, 1.543792e-002
2.578360e+003, 1.604098e-002
2.580288e+003, 1.575349e-002
2.582217e+003, 1.592947e-002
2.584145e+003, 1.725882e-002
2.586074e+003, 1.707458e-002
2.588002e+003, 1.577401e-002
2.589931e+003, 1.463070e-002
2.591859e+003, 1.452279e-002
2.593788e+003, 1.643224e-002
2.595716e+003, 1.793014e-002
2.597645e+003, 1.679668e-002
2.599573e+003, 1.613797e-002
2.601501e+003, 1.671162e-002
2.603430e+003, 1.711342e-002
2.605358e+003, 1.779606e-002
2.607287e+003, 1.779390e-002
2.609215e+003, 1.778172e-002
2.611144e+003, 1.697963e-002
2.613072e+003, 1.700047e-002
2.615001e+003, 1.677226e-002
2.616929e+003, 1.637018e-002
2.618858e+003, 1.614340e-002
2.620786e+003, 1.672820e-002
2.622715e+003, 1.828977e-002
2.624643e+003, 1.865580e-002
2.626572e+003, 1.798099e-002
2.628500e+003, 1.797963e-002
2.630428e+003, 1.782534e-002
2.632357e+003, 1.842160e-002
2.634285e+003, 1.849339e-002
2.636214e+003, 1.761155e-002
2.638142e+003, 1.675518e-002
2.640071e+003, 1.622943e-002
2.641999e+003, 1.609954e-002
2.643928e+003, 1.647801e-002
2.645856e+003, 1.723857e-002
2.647785e+003, 1.767034e-002
2.649713e+003, 1.739701e-002
2.651642e+003, 1.813766e-002
2.653570e+003, 1.814589e-002
2.655499e+003, 1.779118e-002
2.657427e+003, 1.752913e-002
2.659355e+003, 1.671154e-002
2.661284e+003, 1.703451e-002
2.663212e+003, 1.726211e-002
2.665141e+003, 1.668501e-002
2.667069e+003, 1.648629e-002
2.668998e+003, 1.667217e-002
2.670926e+003, 1.681749e-002
2.672855e+003, 1.695116e-002
2.674783e+003, 1.724015e-002
2.676712e+003, 1.706289e-002
2.678640e+003, 1.699794e-002
2.680569e+003, 1.702977e-002
2.682497e+003, 1.750002e-002
2.684426e+003, 1.783700e-002
2.686354e+003, 1.726850e-002
2.688282e+003, 1.609325e-002
2.690211e+003, 1.616087e-002
2.692139e+003, 1.752281e-002
2.694068e+003, 1.728516e-002
2.695996e+003, 1.731678e-002
2.697925e+003, 1.719495e-002
2.699853e+003, 1.695268e-002
2.701782e+003, 1.691632e-002
2.703710e+003, 1.672623e-002
2.705639e+003, 1.651043e-002
2.707567e+003, 1.638368e-002
2.709496e+003, 1.702368e-002
2.711424e+003, 1.718049e-002
2.713353e+003, 1.714896e-002
2.715281e+003, 1.732789e-002
2.717209e+003, 1.744138e-002
2.719138e+003, 1.772254e-002
2.721066e+003, 1.742063e-002
2.722995e+003, 1.667669e-002
2.724923e+003, 1.686857e-002
2.726852e+003, 1.773682e-002
2.728780e+003, 1.734822e-002
2.730709e+003, 1.692643e-002
2.732637e+003, 1.773963e-002
2.734566e+003, 1.813153e-002
2.736494e+003, 1.777910e-002
2.738423e+003, 1.730751e-002
2.740351e+003, 1.729330e-002
2.742280e+003, 1.791679e-002
2.744208e+003, 1.851052e-002
2.746136e+003, 1.851912e-002
2.748065e+003, 1.808097e-002
2.749993e+003, 1.793755e-002
2.751922e+003, 1.829361e-002
2.753850e+003, 1.820029e-002
2.755779e+003, 1.786436e-002
2.757707e+003, 1.846951e-002
2.759636e+003, 1.846110e-002
2.761564e+003, 1.786009e-002
2.763493e+003, 1.812764e-002
2.765421e+003, 1.880126e-002
2.767350e+003, 1.859191e-002
2.769278e+003, 1.856447e-002
2.771207e+003, 1.959762e-002
2.773135e+003, 1.977352e-002
2.775063e+003, 1.948713e-002
2.776992e+003, 1.959571e-002
2.778920e+003, 1.950951e-002
2.780849e+003, 1.882708e-002
2.782777e+003, 1.818939e-002
2.784706e+003, 1.844203e-002
2.786634e+003, 1.899710e-002
2.788563e+003, 1.928907e-002
2.790491e+003, 1.931326e-002
2.792420e+003, 1.889645e-002
2.794348e+003, 1.831122e-002
2.796277e+003, 1.767066e-002
2.798205e+003, 1.846308e-002
2.800134e+003, 1.893383e-002
2.802062e+003, 1.908403e-002
2.803990e+003, 1.849694e-002
2.805919e+003, 1.802699e-002
2.807847e+003, 1.872159e-002
2.809776e+003, 1.978420e-002
2.811704e+003, 2.043065e-002
2.813633e+003, 2.048983e-002
2.815561e+003, 1.942426e-002
2.817490e+003, 1.878401e-002
2.819418e+003, 1.948371e-002
2.821347e+003, 1.936448e-002
2.823275e+003, 1.800226e-002
2.825204e+003, 1.716339e-002
2.827132e+003, 1.810944e-002
2.829061e+003, 1.979447e-002
2.830989e+003, 2.016666e-002
2.832917e+003, 1.995480e-002
2.834846e+003, 1.877505e-002
2.836774e+003, 1.855283e-002
2.838703e+003, 2.007101e-002
2.840631e+003, 2.042290e-002
2.842560e+003, 1.883837e-002
2.844488e+003, 1.803183e-002
2.846417e+003, 1.815281e-002
2.848345e+003, 1.792776e-002
2.850274e+003, 1.826279e-002
2.852202e+003, 1.798952e-002
2.854131e+003, 1.773904e-002
2.856059e+003, 1.821375e-002
2.857988e+003, 1.738871e-002
2.859916e+003, 1.819747e-002
2.861844e+003, 1.963158e-002
2.863773e+003, 2.016917e-002
2.865701e+003, 2.069329e-002
2.867630e+003, 2.054083e-002
2.869558e+003, 2.034390e-002
2.871487e+003, 2.015879e-002
2.873415e+003, 1.896486e-002
2.875344e+003, 1.903431e-002
2.877272e+003, 1.996374e-002
2.879201e+003, 2.006896e-002
2.881129e+003, 1.988312e-002
2.883058e+003, 2.036961e-002
2.884986e+003, 1.928492e-002
2.886915e+003, 1.869023e-002
2.888843e+003, 1.917306e-002
2.890771e+003, 1.978086e-002
2.892700e+003, 2.102706e-002
2.894628e+003, 2.028242e-002
2.896557e+003, 2.007011e-002
2.898485e+003, 2.108616e-002
2.900414e+003, 2.057372e-002
2.902342e+003, 1.996201e-002
2.904271e+003, 2.065887e-002
2.906199e+003, 2.084119e-002
2.908128e+003, 1.977162e-002
2.910056e+003, 1.933600e-002
2.911985e+003, 1.944604e-002
2.913913e+003, 1.890015e-002
2.915842e+003, 1.878042e-002
2.917770e+003, 1.863523e-002
2.919698e+003, 1.797823e-002
2.921627e+003, 1.862331e-002
2.923555e+003, 1.866288e-002
2.925484e+003, 1.830769e-002
2.927412e+003, 1.834796e-002
2.929341e+003, 1.996564e-002
2.931269e+003, 2.045969e-002
2.933198e+003, 2.030383e-002
2.935126e+003, 2.172460e-002
2.937055e+003, 2.275065e-002
2.938983e+003, 2.193413e-002
2.940912e+003, 2.126713e-002
2.942840e+003, 2.104558e-002
2.944769e+003, 2.058301e-002
2.946697e+003, 2.127525e-002
2.948625e+003, 2.202352e-002
2.950554e+003, 2.137396e-002
2.952482e+003, 2.158267e-002
2.954411e+003, 2.257188e-002
2.956339e+003, 2.234921e-002
2.958268e+003, 2.153350e-002
2.960196e+003, 2.168064e-002
2.962125e+003, 2.301912e-002
2.964053e+003, 2.358676e-002
2.965982e+003, 2.409851e-002
2.967910e+003, 2.398379e-002
2.969839e+003, 2.294083e-002
2.971767e+003, 2.295167e-002
2.973696e+003, 2.364087e-002
2.975624e+003, 2.335816e-002
2.977552e+003, 2.362621e-002
2.979481e+003, 2.328530e-002
2.981409e+003, 2.166266e-002
2.983338e+003, 2.248994e-002
2.985266e+003, 2.395732e-002
2.987195e+003, 2.409958e-002
2.989123e+003, 2.254620e-002
2.991052e+003, 2.277127e-002
2.992980e+003, 2.273140e-002
2.994909e+003, 2.303868e-002
2.996837e+003, 2.392790e-002
2.998766e+003, 2.488213e-002
3.000694e+003, 2.465347e-002
3.002623e+003, 2.304485e-002
3.004551e+003, 2.223387e-002
3.006479e+003, 2.261250e-002
3.008408e+003, 2.270433e-002
3.010336e+003, 2.264759e-002
3.012265e+003, 2.268003e-002
3.014193e+003, 2.225355e-002
3.016122e+003, 2.200035e-002
3.018050e+003, 2.227197e-002
3.019979e+003, 2.330920e-002
3.021907e+003, 2.429303e-002
3.023836e+003, 2.385572e-002
3.025764e+003, 2.330125e-002
3.027693e+003, 2.425182e-002
3.029621e+003, 2.455171e-002
3.031550e+003, 2.385184e-002
3.033478e+003, 2.434091e-002
3.035406e+003, 2.479355e-002
3.037335e+003, 2.526094e-002
3.039263e+003, 2.426697e-002
3.041192e+003, 2.334754e-002
3.043120e+003, 2.368069e-002
3.045049e+003, 2.271127e-002
3.046977e+003, 2.275303e-002
3.048906e+003, 2.487990e-002
3.050834e+003, 2.511746e-002
3.052763e+003, 2.394960e-002
3.054691e+003, 2.356415e-002
3.056620e+003, 2.369661e-002
3.058548e+003, 2.414549e-002
3.060477e+003, 2.438239e-002
3.062405e+003, 2.400216e-002
3.064333e+003, 2.398486e-002
3.066262e+003, 2.549467e-002
3.068190e+003, 2.628702e-002
3.070119e+003, 2.519841e-002
3.072047e+003, 2.467366e-002
3.073976e+003, 2.375027e-002
3.075904e+003, 2.431757e-002
3.077833e+003, 2.579673e-002
3.079761e+003, 2.657758e-002
3.081690e+003, 2.665573e-002
3.083618e+003, 2.470728e-002
3.085547e+003, 2.499357e-002
3.087475e+003, 2.614817e-002
3.089404e+003, 2.421265e-002
3.091332e+003, 2.294775e-002
3.093260e+003, 2.499489e-002
3.095189e+003, 2.636086e-002
3.097117e+003, 2.537298e-002
3.099046e+003, 2.525271e-002
3.100974e+003, 2.413944e-002
3.102903e+003, 2.434753e-002
3.104831e+003, 2.433349e-002
3.106760e+003, 2.436868e-002
3.108688e+003, 2.581830e-002
3.110617e+003, 2.674887e-002
3.112545e+003, 2.572136e-002
3.114474e+003, 2.607901e-002
3.116402e+003, 2.531467e-002
3.118331e+003, 2.463275e-002
3.120259e+003, 2.402334e-002
3.122188e+003, 2.484158e-002
3.124116e+003, 2.537346e-002
3.126044e+003, 2.494602e-002
3.127973e+003, 2.544334e-002
3.129901e+003, 2.633922e-002
3.131830e+003, 2.648057e-002
3.133758e+003, 2.674227e-002
3.135687e+003, 2.703238e-002
3.137615e+003, 2.731802e-002
3.139544e+003, 2.705917e-002
3.141472e+003, 2.738612e-002
3.143401e+003, 2.698980e-002
3.145329e+003, 2.628561e-002
3.147258e+003, 2.462766e-002
3.149186e+003, 2.405522e-002
3.151115e+003, 2.501880e-002
3.153043e+003, 2.573955e-002
3.154971e+003, 2.649298e-002
3.156900e+003, 2.687014e-002
3.158828e+003, 2.746428e-002
3.160757e+003, 2.702217e-002
3.162685e+003, 2.714485e-002
3.164614e+003, 2.702095e-002
3.166542e+003, 2.664301e-002
3.168471e+003, 2.765928e-002
3.170399e+003, 2.769974e-002
3.172328e+003, 2.662640e-002
3.174256e+003, 2.711376e-002
3.176185e+003, 2.778902e-002
3.178113e+003, 2.846721e-002
3.180042e+003, 2.895122e-002
3.181970e+003, 2.859670e-002
3.183898e+003, 2.811682e-002
3.185827e+003, 2.813661e-002
3.187755e+003, 2.692446e-002
3.189684e+003, 2.823399e-002
3.191612e+003, 2.877779e-002
3.193541e+003, 2.702777e-002
3.195469e+003, 2.789710e-002
3.197398e+003, 2.939119e-002
3.199326e+003, 2.856602e-002
3.201255e+003, 2.852677e-002
3.203183e+003, 2.958386e-002
3.205112e+003, 2.960173e-002
3.207040e+003, 2.896968e-002
3.208969e+003, 2.943037e-002
3.210897e+003, 2.875288e-002
3.212825e+003, 2.816354e-002
3.214754e+003, 2.904473e-002
3.216682e+003, 2.682656e-002
3.218611e+003, 2.584445e-002
3.220539e+003, 2.745801e-002
3.222468e+003, 2.923198e-002
3.224396e+003, 2.851195e-002
3.226325e+003, 2.736788e-002
3.228253e+003, 2.874377e-002
3.230182e+003, 2.947455e-002
3.232110e+003, 2.930773e-002
3.234039e+003, 2.996418e-002
3.235967e+003, 2.892609e-002
3.237896e+003, 2.822319e-002
3.239824e+003, 2.840634e-002
3.241752e+003, 2.845399e-002
3.243681e+003, 2.746866e-002
3.245609e+003, 2.673686e-002
3.247538e+003, 2.833885e-002
3.249466e+003, 3.185652e-002
3.251395e+003, 3.100218e-002
3.253323e+003, 2.665125e-002
3.255252e+003, 2.555546e-002
3.257180e+003, 2.624698e-002
3.259109e+003, 2.709449e-002
3.261037e+003, 2.870108e-002
3.262966e+003, 2.937228e-002
3.264894e+003, 2.894744e-002
3.266823e+003, 2.939796e-002
3.268751e+003, 2.796696e-002
3.270679e+003, 2.699711e-002
3.272608e+003, 2.753746e-002
3.274536e+003, 2.870387e-002
3.276465e+003, 2.885289e-002
3.278393e+003, 2.943049e-002
3.280322e+003, 3.015929e-002
3.282250e+003, 2.864214e-002
3.284179e+003, 2.924558e-002
3.286107e+003, 3.146644e-002
3.288036e+003, 3.200394e-002
3.289964e+003, 2.982469e-002
3.291893e+003, 2.757271e-002
3.293821e+003, 2.823195e-002
3.295750e+003, 3.092963e-002
3.297678e+003, 3.123197e-002
3.299606e+003, 3.050275e-002
3.301535e+003, 3.068771e-002
3.303463e+003, 3.016179e-002
3.305392e+003, 2.946539e-002
3.307320e+003, 2.985898e-002
3.309249e+003, 2.708669e-002
3.311177e+003, 2.661039e-002
3.313106e+003, 2.972121e-002
3.315034e+003, 3.044540e-002
3.316963e+003, 2.971927e-002
3.318891e+003, 3.024253e-002
3.320820e+003, 3.207328e-002
3.322748e+003, 3.229461e-002
3.324677e+003, 3.158262e-002
3.326605e+003, 3.123963e-002
3.328533e+003, 2.979283e-002
3.330462e+003, 2.913692e-002
3.332390e+003, 2.998563e-002
3.334319e+003, 3.177562e-002
3.336247e+003, 3.172908e-002
3.338176e+003, 3.165920e-002
3.340104e+003, 3.238536e-002
3.342033e+003, 3.215707e-002
3.343961e+003, 3.290087e-002
3.345890e+003, 3.208722e-002
3.347818e+003, 3.048517e-002
3.349747e+003, 2.989236e-002
3.351675e+003, 3.046044e-002
3.353604e+003, 3.131723e-002
3.355532e+003, 3.159161e-002
3.357460e+003, 3.181698e-002
3.359389e+003, 3.235974e-002
3.361317e+003, 3.195839e-002
3.363246e+003, 3.228902e-002
3.365174e+003, 3.142592e-002
3.367103e+003, 2.864655e-002
3.369031e+003, 2.919850e-002
3.370960e+003, 2.992658e-002
3.372888e+003, 2.855605e-002
3.374817e+003, 2.895926e-002
3.376745e+003, 3.032590e-002
3.378674e+003, 3.203272e-002
3.380602e+003, 3.202302e-002
3.382531e+003, 3.411003e-002
3.384459e+003, 3.458709e-002
3.386387e+003, 3.193538e-002
3.388316e+003, 3.072963e-002
3.390244e+003, 3.061896e-002
3.392173e+003, 3.131882e-002
3.394101e+003, 3.213253e-002
3.396030e+003, 3.161563e-002
3.397958e+003, 3.121169e-002
3.399887e+003, 3.339022e-002
3.401815e+003, 3.378318e-002
3.403744e+003, 3.349619e-002
3.405672e+003, 3.268394e-002
3.407601e+003, 3.077612e-002
3.409529e+003, 3.105442e-002
3.411458e+003, 3.112793e-002
3.413386e+003, 3.121628e-002
3.415314e+003, 3.290941e-002
3.417243e+003, 3.296638e-002
3.419171e+003, 3.218197e-002
3.421100e+003, 3.330870e-002
3.423028e+003, 3.345850e-002
3.424957e+003, 3.105552e-002
3.426885e+003, 3.088389e-002
3.428814e+003, 3.258810e-002
3.430742e+003, 3.204588e-002
3.432671e+003, 3.047334e-002
3.434599e+003, 3.129659e-002
3.436528e+003, 3.133715e-002
3.438456e+003, 3.078842e-002
3.440385e+003, 3.094658e-002
3.442313e+003, 3.015739e-002
3.444241e+003, 2.971737e-002
3.446170e+003, 2.865465e-002
3.448098e+003, 2.972283e-002
3.450027e+003, 3.095526e-002
3.451955e+003, 2.986368e-002
3.453884e+003, 2.958418e-002
3.455812e+003, 2.966570e-002
3.457741e+003, 2.777870e-002
3.459669e+003, 2.835207e-002
3.461598e+003, 2.921777e-002
3.463526e+003, 2.796569e-002
3.465455e+003, 2.930281e-002
3.467383e+003, 3.130130e-002
3.469312e+003, 3.212424e-002
3.471240e+003, 3.347112e-002
3.473168e+003, 3.136104e-002
3.475097e+003, 3.078025e-002
3.477025e+003, 3.127910e-002
3.478954e+003, 3.005736e-002
3.480882e+003, 3.083678e-002
3.482811e+003, 3.411417e-002
3.484739e+003, 3.501675e-002
3.486668e+003, 3.394534e-002
3.488596e+003, 3.260621e-002
3.490525e+003, 2.980117e-002
3.492453e+003, 2.967007e-002
3.494382e+003, 3.191553e-002
3.496310e+003, 3.065179e-002
3.498239e+003, 3.055914e-002
3.500167e+003, 3.228913e-002
3.502095e+003, 3.348964e-002
3.504024e+003, 3.165235e-002
3.505952e+003, 3.064756e-002
3.507881e+003, 3.113692e-002
3.509809e+003, 3.069152e-002
3.511738e+003, 3.080901e-002
3.513666e+003, 3.186904e-002
3.515595e+003, 3.387302e-002
3.517523e+003, 3.438712e-002
3.519452e+003, 3.283874e-002
3.521380e+003, 3.208824e-002
3.523309e+003, 3.190120e-002
3.525237e+003, 3.139002e-002
3.527166e+003, 3.537072e-002
3.529094e+003, 3.722373e-002
3.531022e+003, 3.607561e-002
3.532951e+003, 3.546142e-002
3.534879e+003, 3.557063e-002
3.536808e+003, 3.592464e-002
3.538736e+003, 3.829680e-002
3.540665e+003, 4.140782e-002
3.542593e+003, 3.993968e-002
3.544522e+003, 3.675620e-002
3.546450e+003, 3.870637e-002
3.548379e+003, 4.401127e-002
3.550307e+003, 4.738387e-002
3.552236e+003, 5.119224e-002
3.554164e+003, 6.020210e-002
3.556093e+003, 6.612220e-002
3.558021e+003, 6.500821e-002
3.559949e+003, 6.183415e-002
3.561878e+003, 5.916666e-002
3.563806e+003, 5.793514e-002
3.565735e+003, 5.592810e-002
3.567663e+003, 5.293156e-002
3.569592e+003, 5.021017e-002
3.571520e+003, 4.656816e-002
3.573449e+003, 4.230338e-002
3.575377e+003, 4.028925e-002
3.577306e+003, 3.825699e-002
3.579234e+003, 3.421041e-002
3.581163e+003, 3.115310e-002
3.583091e+003, 3.148574e-002
3.585020e+003, 3.214205e-002
3.586948e+003, 2.988183e-002
3.588876e+003, 2.957522e-002
3.590805e+003, 2.899558e-002
3.592733e+003, 2.785398e-002
3.594662e+003, 2.951315e-002
3.596590e+003, 3.053603e-002
3.598519e+003, 3.020832e-002
3.600447e+003, 2.916159e-002
3.602376e+003, 2.938975e-002
3.604304e+003, 3.120940e-002
3.606233e+003, 3.061952e-002
3.608161e+003, 3.025601e-002
3.610090e+003, 3.112564e-002
3.612018e+003, 2.961468e-002
3.613947e+003, 2.916206e-002
3.615875e+003, 3.100162e-002
3.617803e+003, 2.988724e-002
3.619732e+003, 2.787616e-002
3.621660e+003, 3.006701e-002
3.623589e+003, 3.276600e-002
3.625517e+003, 3.162916e-002
3.627446e+003, 3.194395e-002
3.629374e+003, 3.402057e-002
3.631303e+003, 3.358624e-002
3.633231e+003, 3.434487e-002
3.635160e+003, 3.416057e-002
3.637088e+003, 3.422545e-002
3.639017e+003, 3.300661e-002
3.640945e+003, 3.290789e-002
3.642874e+003, 3.384985e-002
3.644802e+003, 3.118630e-002
3.646730e+003, 2.935154e-002
3.648659e+003, 3.147386e-002
3.650587e+003, 3.080769e-002
3.652516e+003, 3.110158e-002
3.654444e+003, 3.329038e-002
3.656373e+003, 3.522704e-002
3.658301e+003, 3.672438e-002
3.660230e+003, 3.786322e-002
3.662158e+003, 3.849300e-002
3.664087e+003, 3.677041e-002
3.666015e+003, 3.564440e-002
3.667944e+003, 3.807776e-002
3.669872e+003, 4.036980e-002
3.671801e+003, 4.015477e-002
3.673729e+003, 3.963530e-002
3.675657e+003, 3.629837e-002
3.677586e+003, 3.554159e-002
3.679514e+003, 3.954138e-002
3.681443e+003, 4.541036e-002
3.683371e+003, 4.898433e-002
3.685300e+003, 4.844208e-002
3.687228e+003, 4.823092e-002
3.689157e+003, 5.034848e-002
3.691085e+003, 5.013209e-002
3.693014e+003, 4.338263e-002
3.694942e+003, 3.915036e-002
3.696871e+003, 3.903270e-002
3.698799e+003, 4.037280e-002
3.700728e+003, 4.131826e-002
3.702656e+003, 4.002449e-002
3.704584e+003, 3.590260e-002
3.706513e+003, 3.166666e-002
3.708441e+003, 2.821562e-002
3.710370e+003, 2.936252e-002
3.712298e+003, 2.996082e-002
3.714227e+003, 2.806904e-002
3.716155e+003, 2.571906e-002
3.718084e+003, 2.519109e-002
3.720012e+003, 2.673360e-002
3.721941e+003, 2.515088e-002
3.723869e+003, 2.456108e-002
3.725798e+003, 2.905049e-002
3.727726e+003, 2.839613e-002
3.729655e+003, 2.546306e-002
3.731583e+003, 2.374710e-002
3.733511e+003, 2.496198e-002
3.735440e+003, 2.896493e-002
3.737368e+003, 2.958698e-002
3.739297e+003, 2.650165e-002
3.741225e+003, 2.696493e-002
3.743154e+003, 2.968702e-002
3.745082e+003, 3.121419e-002
3.747011e+003, 3.022240e-002
3.748939e+003, 2.996070e-002
3.750868e+003, 2.990267e-002
3.752796e+003, 2.732460e-002
3.754725e+003, 2.613292e-002
3.756653e+003, 2.736555e-002
3.758582e+003, 2.858313e-002
3.760510e+003, 2.945326e-002
3.762438e+003, 2.922492e-002
3.764367e+003, 2.845141e-002
3.766295e+003, 2.979105e-002
3.768224e+003, 2.858840e-002
3.770152e+003, 2.555915e-002
3.772081e+003, 2.717763e-002
3.774009e+003, 2.690636e-002
3.775938e+003, 2.458442e-002
3.777866e+003, 2.399212e-002
3.779795e+003, 2.574313e-002
3.781723e+003, 2.726258e-002
3.783652e+003, 2.653771e-002
3.785580e+003, 2.632551e-002
3.787509e+003, 2.678847e-002
3.789437e+003, 2.891684e-002
3.791365e+003, 2.883030e-002
3.793294e+003, 2.706469e-002
3.795222e+003, 2.780482e-002
3.797151e+003, 2.926852e-002
3.799079e+003, 2.689417e-002
3.801008e+003, 2.600622e-002
3.802936e+003, 2.633177e-002
3.804865e+003, 2.726292e-002
3.806793e+003, 2.843378e-002
3.808722e+003, 3.033513e-002
3.810650e+003, 2.914505e-002
3.812579e+003, 2.607084e-002
3.814507e+003, 2.754656e-002
3.816436e+003, 2.882935e-002
3.818364e+003, 2.835699e-002
3.820292e+003, 2.768834e-002
3.822221e+003, 2.786665e-002
3.824149e+003, 2.782478e-002
3.826078e+003, 2.929979e-002
3.828006e+003, 2.855488e-002
3.829935e+003, 2.497388e-002
3.831863e+003, 2.635242e-002
3.833792e+003, 2.813972e-002
3.835720e+003, 2.642362e-002
3.837649e+003, 2.488360e-002
3.839577e+003, 2.675719e-002
3.841506e+003, 2.862410e-002
3.843434e+003, 2.863899e-002
3.845363e+003, 2.920808e-002
3.847291e+003, 2.676495e-002
3.849219e+003, 2.509107e-002
3.851148e+003, 2.291247e-002
3.853076e+003, 2.368451e-002
3.855005e+003, 2.716768e-002
3.856933e+003, 2.778341e-002
3.858862e+003, 2.770916e-002
3.860790e+003, 2.648807e-002
3.862719e+003, 2.616939e-002
3.864647e+003, 2.705281e-002
3.866576e+003, 2.852632e-002
3.868504e+003, 2.743898e-002
3.870433e+003, 2.828975e-002
3.872361e+003, 2.821082e-002
3.874290e+003, 2.615366e-002
3.876218e+003, 2.614595e-002
3.878146e+003, 2.890844e-002
3.880075e+003, 2.821449e-002
3.882003e+003, 2.607342e-002
3.883932e+003, 2.668691e-002
3.885860e+003, 2.645322e-002
3.887789e+003, 2.651360e-002
3.889717e+003, 2.567298e-002
3.891646e+003, 2.471090e-002
3.893574e+003, 2.476504e-002
3.895503e+003, 2.432078e-002
3.897431e+003, 2.492837e-002
3.899360e+003, 2.629873e-002
3.901288e+003, 2.487999e-002
3.903217e+003, 2.289544e-002
3.905145e+003, 2.355229e-002
3.907073e+003, 2.736709e-002
3.909002e+003, 2.807271e-002
3.910930e+003, 2.823624e-002
3.912859e+003, 2.797482e-002
3.914787e+003, 2.851393e-002
3.916716e+003, 2.820271e-002
3.918644e+003, 2.851803e-002
3.920573e+003, 2.938778e-002
3.922501e+003, 2.994157e-002
3.924430e+003, 2.771240e-002
3.926358e+003, 2.725430e-002
3.928287e+003, 2.772750e-002
3.930215e+003, 3.018821e-002
3.932144e+003, 3.194872e-002
3.934072e+003, 2.815079e-002
3.936000e+003, 2.674152e-002
3.937929e+003, 3.106064e-002
3.939857e+003, 3.110312e-002
3.941786e+003, 2.662978e-002
3.943714e+003, 2.681166e-002
3.945643e+003, 3.089685e-002
3.947571e+003, 2.909556e-002
3.949500e+003, 2.552572e-002
3.951428e+003, 2.637046e-002
3.953357e+003, 2.719469e-002
3.955285e+003, 2.873494e-002
3.957214e+003, 2.950965e-002
3.959142e+003, 3.017091e-002
3.961071e+003, 3.131655e-002
3.962999e+003, 2.916725e-002
3.964927e+003, 2.751643e-002
3.966856e+003, 2.956858e-002
3.968784e+003, 3.084672e-002
3.970713e+003, 2.812183e-002
3.972641e+003, 2.533865e-002
3.974570e+003, 2.473099e-002
3.976498e+003, 2.391785e-002
3.978427e+003, 2.359442e-002
3.980355e+003, 2.258818e-002
3.982284e+003, 2.317023e-002
3.984212e+003, 2.437427e-002
3.986141e+003, 2.644577e-002
3.988069e+003, 2.682373e-002
3.989998e+003, 2.683766e-002
3.991926e+003, 2.812625e-002
3.993854e+003, 2.988814e-002
3.995783e+003, 3.213871e-002
3.997711e+003, 3.077613e-002
3.999640e+003, 2.924673e-002
4.001568e+003, 0.000000e+000
##END=



