##NAMES=Inesite
##RRUFFID=R090030
##IDEAL CHEMISTRY=Ca_2_Mn^2+^_7_Si_10_O_28_(OH)_2_&#183;5H_2_O
##LOCALITY=Hale Creek Mine, Mad River Ridge, Hale Creek, Trinity County, California, USA
##OWNER=RRUFF
##SOURCE=James Shigley
##DESCRIPTION=Clusters of pink slender chisel-shaped laths
##STATUS=The identification of this mineral has been confirmed by X-ray diffraction.
##URL=rruff.info/R090030
3.741225e+002, 1.441788e-001
3.760510e+002, 1.316306e-001
3.779795e+002, 1.292927e-001
3.799079e+002, 1.390842e-001
3.818364e+002, 1.507583e-001
3.837649e+002, 1.558044e-001
3.856933e+002, 1.576093e-001
3.876218e+002, 1.620442e-001
3.895503e+002, 1.605300e-001
3.914787e+002, 1.543455e-001
3.934072e+002, 1.582523e-001
3.953357e+002, 1.611592e-001
3.972641e+002, 1.693144e-001
3.991926e+002, 1.692986e-001
4.011211e+002, 1.690552e-001
4.030495e+002, 1.723866e-001
4.049780e+002, 1.758555e-001
4.069065e+002, 1.811872e-001
4.088349e+002, 1.875968e-001
4.107634e+002, 1.959030e-001
4.126919e+002, 2.072385e-001
4.146203e+002, 2.163421e-001
4.165488e+002, 2.260727e-001
4.184773e+002, 2.336773e-001
4.204057e+002, 2.374141e-001
4.223342e+002, 2.379054e-001
4.242627e+002, 2.388778e-001
4.261911e+002, 2.403692e-001
4.281196e+002, 2.434485e-001
4.300481e+002, 2.483634e-001
4.319765e+002, 2.499276e-001
4.339050e+002, 2.470316e-001
4.358335e+002, 2.448213e-001
4.377619e+002, 2.502014e-001
4.396904e+002, 2.611138e-001
4.416189e+002, 2.699236e-001
4.435473e+002, 2.830076e-001
4.454758e+002, 2.953302e-001
4.474043e+002, 2.958685e-001
4.493327e+002, 2.911190e-001
4.512612e+002, 2.856182e-001
4.531897e+002, 2.782891e-001
4.551181e+002, 2.704517e-001
4.570466e+002, 2.620167e-001
4.589751e+002, 2.551740e-001
4.609035e+002, 2.492643e-001
4.628320e+002, 2.411602e-001
4.647605e+002, 2.320034e-001
4.666889e+002, 2.239601e-001
4.686174e+002, 2.148451e-001
4.705459e+002, 2.049697e-001
4.724743e+002, 1.964394e-001
4.744028e+002, 1.886362e-001
4.763313e+002, 1.811009e-001
4.782597e+002, 1.743130e-001
4.801882e+002, 1.679952e-001
4.821167e+002, 1.622871e-001
4.840451e+002, 1.582841e-001
4.859736e+002, 1.560710e-001
4.879021e+002, 1.559056e-001
4.898305e+002, 1.582669e-001
4.917590e+002, 1.622541e-001
4.936875e+002, 1.652702e-001
4.956159e+002, 1.642089e-001
4.975444e+002, 1.588700e-001
4.994729e+002, 1.508951e-001
5.014013e+002, 1.430067e-001
5.033298e+002, 1.354352e-001
5.052583e+002, 1.290102e-001
5.071867e+002, 1.246741e-001
5.091152e+002, 1.214324e-001
5.110437e+002, 1.187403e-001
5.129721e+002, 1.162867e-001
5.149006e+002, 1.141545e-001
5.168290e+002, 1.118699e-001
5.187575e+002, 1.098712e-001
5.206860e+002, 1.091971e-001
5.226144e+002, 1.102477e-001
5.245429e+002, 1.114824e-001
5.264714e+002, 1.126683e-001
5.283998e+002, 1.146224e-001
5.303283e+002, 1.168532e-001
5.322568e+002, 1.193552e-001
5.341852e+002, 1.223555e-001
5.361137e+002, 1.251497e-001
5.380422e+002, 1.276047e-001
5.399706e+002, 1.294616e-001
5.418991e+002, 1.306307e-001
5.438276e+002, 1.319666e-001
5.457560e+002, 1.323158e-001
5.476845e+002, 1.314555e-001
5.496130e+002, 1.305069e-001
5.515414e+002, 1.287360e-001
5.534699e+002, 1.261374e-001
5.553984e+002, 1.224337e-001
5.573268e+002, 1.165808e-001
5.592553e+002, 1.089036e-001
5.611838e+002, 1.006891e-001
5.631122e+002, 9.306577e-002
5.650407e+002, 8.671574e-002
5.669692e+002, 8.136303e-002
5.688976e+002, 7.703454e-002
5.708261e+002, 7.414044e-002
5.727546e+002, 7.232475e-002
5.746830e+002, 7.105007e-002
5.766115e+002, 7.060369e-002
5.785400e+002, 7.053689e-002
5.804684e+002, 7.105658e-002
5.823969e+002, 7.208396e-002
5.843254e+002, 7.270352e-002
5.862538e+002, 7.345700e-002
5.881823e+002, 7.507925e-002
5.901108e+002, 7.700681e-002
5.920392e+002, 7.924767e-002
5.939677e+002, 8.179045e-002
5.958962e+002, 8.441311e-002
5.978246e+002, 8.737178e-002
5.997531e+002, 9.089649e-002
6.016816e+002, 9.458237e-002
6.036100e+002, 9.823669e-002
6.055385e+002, 1.020527e-001
6.074670e+002, 1.050398e-001
6.093954e+002, 1.064205e-001
6.113239e+002, 1.058596e-001
6.132524e+002, 1.036653e-001
6.151808e+002, 1.002806e-001
6.171093e+002, 9.650332e-002
6.190378e+002, 9.376186e-002
6.209662e+002, 9.219021e-002
6.228947e+002, 9.178367e-002
6.248232e+002, 9.199870e-002
6.267516e+002, 9.206368e-002
6.286801e+002, 9.094087e-002
6.306086e+002, 8.829843e-002
6.325370e+002, 8.494092e-002
6.344655e+002, 8.087816e-002
6.363940e+002, 7.724239e-002
6.383224e+002, 7.437526e-002
6.402509e+002, 7.216621e-002
6.421794e+002, 7.123446e-002
6.441078e+002, 7.167089e-002
6.460363e+002, 7.252862e-002
6.479648e+002, 7.364173e-002
6.498932e+002, 7.519681e-002
6.518217e+002, 7.705675e-002
6.537502e+002, 7.887881e-002
6.556786e+002, 8.048062e-002
6.576071e+002, 8.129612e-002
6.595356e+002, 8.138547e-002
6.614641e+002, 8.097159e-002
6.633925e+002, 8.048427e-002
6.653210e+002, 8.023708e-002
6.672495e+002, 8.008489e-002
6.691779e+002, 7.946695e-002
6.711064e+002, 7.835032e-002
6.730349e+002, 7.635195e-002
6.749633e+002, 7.347320e-002
6.768918e+002, 7.052562e-002
6.788203e+002, 6.768615e-002
6.807487e+002, 6.505308e-002
6.826772e+002, 6.289664e-002
6.846057e+002, 6.101238e-002
6.865341e+002, 5.899643e-002
6.884626e+002, 5.679992e-002
6.903911e+002, 5.428129e-002
6.923195e+002, 5.160883e-002
6.942480e+002, 4.913378e-002
6.961765e+002, 4.716640e-002
6.981049e+002, 4.556141e-002
7.000334e+002, 4.430557e-002
7.019619e+002, 4.331690e-002
7.038903e+002, 4.258383e-002
7.058188e+002, 4.237378e-002
7.077473e+002, 4.275320e-002
7.096757e+002, 4.344892e-002
7.116042e+002, 4.478147e-002
7.135327e+002, 4.662470e-002
7.154611e+002, 4.878359e-002
7.173896e+002, 5.127921e-002
7.193181e+002, 5.346352e-002
7.212465e+002, 5.495280e-002
7.231750e+002, 5.559232e-002
7.251035e+002, 5.533458e-002
7.270319e+002, 5.417187e-002
7.289604e+002, 5.246454e-002
7.308889e+002, 5.092357e-002
7.328173e+002, 4.946375e-002
7.347458e+002, 4.811351e-002
7.366743e+002, 4.708542e-002
7.386027e+002, 4.637564e-002
7.405312e+002, 4.579793e-002
7.424597e+002, 4.530559e-002
7.443881e+002, 4.501905e-002
7.463166e+002, 4.486768e-002
7.482451e+002, 4.473269e-002
7.501735e+002, 4.465724e-002
7.521020e+002, 4.473434e-002
7.540305e+002, 4.503756e-002
7.559589e+002, 4.540352e-002
7.578874e+002, 4.591811e-002
7.598159e+002, 4.673433e-002
7.617443e+002, 4.788659e-002
7.636728e+002, 4.945226e-002
7.656013e+002, 5.120139e-002
7.675297e+002, 5.304382e-002
7.694582e+002, 5.490660e-002
7.713867e+002, 5.652052e-002
7.733151e+002, 5.758574e-002
7.752436e+002, 5.782388e-002
7.771721e+002, 5.719016e-002
7.791005e+002, 5.575477e-002
7.810290e+002, 5.378685e-002
7.829575e+002, 5.160508e-002
7.848859e+002, 4.968423e-002
7.868144e+002, 4.810329e-002
7.887429e+002, 4.679792e-002
7.906713e+002, 4.582871e-002
7.925998e+002, 4.524767e-002
7.945283e+002, 4.498102e-002
7.964567e+002, 4.512254e-002
7.983852e+002, 4.535120e-002
8.003137e+002, 4.562674e-002
8.022421e+002, 4.624986e-002
8.041706e+002, 4.706148e-002
8.060991e+002, 4.776879e-002
8.080275e+002, 4.844144e-002
8.099560e+002, 4.917610e-002
8.118845e+002, 5.003485e-002
8.138129e+002, 5.098958e-002
8.157414e+002, 5.193261e-002
8.176699e+002, 5.294008e-002
8.195983e+002, 5.414778e-002
8.215268e+002, 5.542365e-002
8.234553e+002, 5.678838e-002
8.253837e+002, 5.813227e-002
8.273122e+002, 5.961787e-002
8.292407e+002, 6.136011e-002
8.311691e+002, 6.300993e-002
8.330976e+002, 6.486514e-002
8.350261e+002, 6.682002e-002
8.369545e+002, 6.880587e-002
8.388830e+002, 7.107413e-002
8.408115e+002, 7.365429e-002
8.427399e+002, 7.624321e-002
8.446684e+002, 7.906830e-002
8.465969e+002, 8.208533e-002
8.485253e+002, 8.525898e-002
8.504538e+002, 8.873837e-002
8.523823e+002, 9.260146e-002
8.543107e+002, 9.676021e-002
8.562392e+002, 1.012158e-001
8.581677e+002, 1.061558e-001
8.600961e+002, 1.112919e-001
8.620246e+002, 1.168438e-001
8.639531e+002, 1.231780e-001
8.658815e+002, 1.301359e-001
8.678100e+002, 1.376166e-001
8.697385e+002, 1.458632e-001
8.716669e+002, 1.550814e-001
8.735954e+002, 1.650170e-001
8.755239e+002, 1.755451e-001
8.774523e+002, 1.865128e-001
8.793808e+002, 1.978377e-001
8.813093e+002, 2.102889e-001
8.832377e+002, 2.237402e-001
8.851662e+002, 2.382534e-001
8.870947e+002, 2.540528e-001
8.890231e+002, 2.708089e-001
8.909516e+002, 2.884518e-001
8.928801e+002, 3.061348e-001
8.948085e+002, 3.223072e-001
8.967370e+002, 3.359334e-001
8.986655e+002, 3.459700e-001
9.005939e+002, 3.539623e-001
9.025224e+002, 3.615265e-001
9.044509e+002, 3.696758e-001
9.063793e+002, 3.791760e-001
9.083078e+002, 3.912532e-001
9.102363e+002, 4.075022e-001
9.121647e+002, 4.278183e-001
9.140932e+002, 4.496207e-001
9.160217e+002, 4.706551e-001
9.179501e+002, 4.901901e-001
9.198786e+002, 5.075527e-001
9.218071e+002, 5.212199e-001
9.237355e+002, 5.305090e-001
9.256640e+002, 5.351209e-001
9.275925e+002, 5.343204e-001
9.295209e+002, 5.277300e-001
9.314494e+002, 5.153124e-001
9.333779e+002, 4.980719e-001
9.353063e+002, 4.776785e-001
9.372348e+002, 4.558442e-001
9.391633e+002, 4.352466e-001
9.410917e+002, 4.178942e-001
9.430202e+002, 4.037675e-001
9.449487e+002, 3.920060e-001
9.468771e+002, 3.822449e-001
9.488056e+002, 3.733821e-001
9.507341e+002, 3.653471e-001
9.526625e+002, 3.585299e-001
9.545910e+002, 3.524472e-001
9.565195e+002, 3.463315e-001
9.584479e+002, 3.397210e-001
9.603764e+002, 3.321202e-001
9.623049e+002, 3.234453e-001
9.642333e+002, 3.142886e-001
9.661618e+002, 3.050236e-001
9.680903e+002, 2.955727e-001
9.700187e+002, 2.857397e-001
9.719472e+002, 2.759114e-001
9.738757e+002, 2.671269e-001
9.758041e+002, 2.604072e-001
9.777326e+002, 2.564287e-001
9.796611e+002, 2.554233e-001
9.815895e+002, 2.571633e-001
9.835180e+002, 2.608439e-001
9.854465e+002, 2.657191e-001
9.873749e+002, 2.713476e-001
9.893034e+002, 2.766180e-001
9.912319e+002, 2.800529e-001
9.931603e+002, 2.802988e-001
9.950888e+002, 2.762609e-001
9.970173e+002, 2.685584e-001
9.989457e+002, 2.580638e-001
1.000874e+003, 2.456144e-001
1.002803e+003, 2.324744e-001
1.004731e+003, 2.196497e-001
1.006660e+003, 2.078770e-001
1.008588e+003, 1.975990e-001
1.010517e+003, 1.884942e-001
1.012445e+003, 1.803723e-001
1.014373e+003, 1.731961e-001
1.016302e+003, 1.668654e-001
1.018230e+003, 1.612634e-001
1.020159e+003, 1.560631e-001
1.022087e+003, 1.506966e-001
1.024016e+003, 1.450635e-001
1.025944e+003, 1.397781e-001
1.027873e+003, 1.361865e-001
1.029801e+003, 1.356258e-001
1.031730e+003, 1.383887e-001
1.033658e+003, 1.439967e-001
1.035587e+003, 1.518881e-001
1.037515e+003, 1.605711e-001
1.039443e+003, 1.682553e-001
1.041372e+003, 1.734025e-001
1.043300e+003, 1.750951e-001
1.045229e+003, 1.737206e-001
1.047157e+003, 1.701922e-001
1.049086e+003, 1.657197e-001
1.051014e+003, 1.611684e-001
1.052943e+003, 1.565536e-001
1.054871e+003, 1.521212e-001
1.056800e+003, 1.479954e-001
1.058728e+003, 1.439241e-001
1.060657e+003, 1.399381e-001
1.062585e+003, 1.361519e-001
1.064514e+003, 1.325700e-001
1.066442e+003, 1.296115e-001
1.068370e+003, 1.273439e-001
1.070299e+003, 1.264281e-001
1.072227e+003, 1.276082e-001
1.074156e+003, 1.312845e-001
1.076084e+003, 1.370923e-001
1.078013e+003, 1.434387e-001
1.079941e+003, 1.485750e-001
1.081870e+003, 1.509904e-001
1.083798e+003, 1.499362e-001
1.085727e+003, 1.456049e-001
1.087655e+003, 1.386603e-001
1.089584e+003, 1.302153e-001
1.091512e+003, 1.214885e-001
1.093441e+003, 1.130318e-001
1.095369e+003, 1.047025e-001
1.097297e+003, 9.664299e-002
1.099226e+003, 8.876561e-002
1.101154e+003, 8.098415e-002
1.103083e+003, 7.337264e-002
1.105011e+003, 6.606318e-002
1.106940e+003, 5.897079e-002
1.108868e+003, 5.251052e-002
1.110797e+003, 4.681676e-002
1.112725e+003, 4.189086e-002
1.114654e+003, 3.769444e-002
1.116582e+003, 3.410532e-002
1.118511e+003, 3.112748e-002
1.120439e+003, 2.863883e-002
1.122368e+003, 2.652707e-002
1.124296e+003, 2.492552e-002
1.126224e+003, 2.357756e-002
1.128153e+003, 2.233757e-002
1.130081e+003, 2.132547e-002
1.132010e+003, 2.058421e-002
1.133938e+003, 1.981376e-002
1.135867e+003, 1.916598e-002
1.137795e+003, 1.866942e-002
1.139724e+003, 1.830199e-002
1.141652e+003, 1.784399e-002
1.143581e+003, 1.739900e-002
1.145509e+003, 1.696491e-002
1.147438e+003, 1.656923e-002
1.149366e+003, 1.629952e-002
1.151295e+003, 1.614127e-002
1.153223e+003, 1.583238e-002
1.155151e+003, 1.550072e-002
1.157080e+003, 1.525972e-002
1.159008e+003, 1.495721e-002
1.160937e+003, 1.459034e-002
1.162865e+003, 1.427538e-002
1.164794e+003, 1.415655e-002
1.166722e+003, 1.400017e-002
1.168651e+003, 1.369628e-002
1.170579e+003, 1.341351e-002
1.172508e+003, 1.318461e-002
1.174436e+003, 1.300319e-002
1.176365e+003, 1.285252e-002
1.178293e+003, 1.263731e-002
1.180222e+003, 1.239775e-002
1.182150e+003, 1.227128e-002
1.184078e+003, 1.208963e-002
1.186007e+003, 1.184936e-002
1.187935e+003, 1.155778e-002
1.189864e+003, 1.129701e-002
1.191792e+003, 1.113800e-002
1.193721e+003, 1.097493e-002
1.195649e+003, 1.079503e-002
1.197578e+003, 1.066551e-002
1.199506e+003, 1.051189e-002
1.201435e+003, 1.017231e-002
1.203363e+003, 9.994410e-003
1.205292e+003, 9.973140e-003
1.207220e+003, 9.841166e-003
1.209149e+003, 9.707781e-003
1.211077e+003, 9.560028e-003
1.213005e+003, 9.333990e-003
1.214934e+003, 9.157386e-003
1.216862e+003, 9.045127e-003
1.218791e+003, 8.950568e-003
1.220719e+003, 8.790337e-003
1.222648e+003, 8.533602e-003
1.224576e+003, 8.373707e-003
1.226505e+003, 8.252201e-003
1.228433e+003, 8.113692e-003
1.230362e+003, 8.036659e-003
1.232290e+003, 8.023972e-003
1.234219e+003, 7.953386e-003
1.236147e+003, 7.752681e-003
1.238076e+003, 7.561421e-003
1.240004e+003, 7.389474e-003
1.241932e+003, 7.248589e-003
1.243861e+003, 7.144025e-003
1.245789e+003, 6.956246e-003
1.247718e+003, 6.790197e-003
1.249646e+003, 6.612300e-003
1.251575e+003, 6.616754e-003
1.253503e+003, 6.605298e-003
1.255432e+003, 6.422020e-003
1.257360e+003, 6.304339e-003
1.259289e+003, 6.244619e-003
1.261217e+003, 6.203969e-003
1.263146e+003, 6.197454e-003
1.265074e+003, 6.140913e-003
1.267003e+003, 5.999163e-003
1.268931e+003, 5.817222e-003
1.270859e+003, 5.741001e-003
1.272788e+003, 5.802088e-003
1.274716e+003, 5.812330e-003
1.276645e+003, 5.708582e-003
1.278573e+003, 5.615943e-003
1.280502e+003, 5.658188e-003
1.282430e+003, 5.745700e-003
1.284359e+003, 5.711001e-003
1.286287e+003, 5.672429e-003
1.288216e+003, 5.634883e-003
1.290144e+003, 5.471617e-003
1.292073e+003, 5.490517e-003
1.294001e+003, 5.567861e-003
1.295930e+003, 5.453357e-003
1.297858e+003, 5.393999e-003
1.299786e+003, 5.491722e-003
1.301715e+003, 5.613816e-003
1.303643e+003, 5.619646e-003
1.305572e+003, 5.514594e-003
1.307500e+003, 5.538750e-003
1.309429e+003, 5.557610e-003
1.311357e+003, 5.608885e-003
1.313286e+003, 5.789908e-003
1.315214e+003, 5.873738e-003
1.317143e+003, 6.000313e-003
1.319071e+003, 6.050483e-003
1.321000e+003, 5.893340e-003
1.322928e+003, 5.716679e-003
1.324857e+003, 5.794935e-003
1.326785e+003, 5.932120e-003
1.328714e+003, 5.980555e-003
1.330642e+003, 6.030933e-003
1.332570e+003, 6.070639e-003
1.334499e+003, 6.079603e-003
1.336427e+003, 6.199822e-003
1.338356e+003, 6.333071e-003
1.340284e+003, 6.326303e-003
1.342213e+003, 6.343363e-003
1.344141e+003, 6.439110e-003
1.346070e+003, 6.400099e-003
1.347998e+003, 6.418210e-003
1.349927e+003, 6.527114e-003
1.351855e+003, 6.438974e-003
1.353784e+003, 6.449746e-003
1.355712e+003, 6.648757e-003
1.357641e+003, 6.731831e-003
1.359569e+003, 6.862471e-003
1.361497e+003, 6.918486e-003
1.363426e+003, 6.919510e-003
1.365354e+003, 6.975299e-003
1.367283e+003, 6.963561e-003
1.369211e+003, 7.004184e-003
1.371140e+003, 7.234929e-003
1.373068e+003, 7.334865e-003
1.374997e+003, 7.400471e-003
1.376925e+003, 7.450392e-003
1.378854e+003, 7.462399e-003
1.380782e+003, 7.508970e-003
1.382711e+003, 7.714103e-003
1.384639e+003, 7.855185e-003
1.386568e+003, 8.018026e-003
1.388496e+003, 8.132503e-003
1.390424e+003, 8.269377e-003
1.392353e+003, 8.430062e-003
1.394281e+003, 8.620766e-003
1.396210e+003, 8.730208e-003
1.398138e+003, 8.778503e-003
1.400067e+003, 8.969439e-003
1.401995e+003, 9.242839e-003
1.403924e+003, 9.423476e-003
1.405852e+003, 9.598847e-003
1.407781e+003, 9.730535e-003
1.409709e+003, 9.931355e-003
1.411638e+003, 1.015162e-002
1.413566e+003, 1.034714e-002
1.415495e+003, 1.053170e-002
1.417423e+003, 1.079573e-002
1.419351e+003, 1.114444e-002
1.421280e+003, 1.119909e-002
1.423208e+003, 1.127264e-002
1.425137e+003, 1.146019e-002
1.427065e+003, 1.155268e-002
1.428994e+003, 1.164369e-002
1.430922e+003, 1.189037e-002
1.432851e+003, 1.204511e-002
1.434779e+003, 1.220548e-002
1.436708e+003, 1.244014e-002
1.438636e+003, 1.234471e-002
1.440565e+003, 1.221917e-002
1.442493e+003, 1.221471e-002
1.444422e+003, 1.238747e-002
1.446350e+003, 1.254944e-002
1.448278e+003, 1.259814e-002
1.450207e+003, 1.268365e-002
1.452135e+003, 1.285155e-002
1.454064e+003, 1.297720e-002
1.455992e+003, 1.332236e-002
1.457921e+003, 1.339162e-002
1.459849e+003, 1.305959e-002
1.461778e+003, 1.286769e-002
1.463706e+003, 1.296064e-002
1.465635e+003, 1.310337e-002
1.467563e+003, 1.290432e-002
1.469492e+003, 1.285530e-002
1.471420e+003, 1.305054e-002
1.473349e+003, 1.311482e-002
1.475277e+003, 1.295649e-002
1.477205e+003, 1.272569e-002
1.479134e+003, 1.248150e-002
1.481062e+003, 1.238791e-002
1.482991e+003, 1.220294e-002
1.484919e+003, 1.207557e-002
1.486848e+003, 1.216871e-002
1.488776e+003, 1.228413e-002
1.490705e+003, 1.216127e-002
1.492633e+003, 1.190387e-002
1.494562e+003, 1.190296e-002
1.496490e+003, 1.204625e-002
1.498419e+003, 1.177042e-002
1.500347e+003, 1.141027e-002
1.502276e+003, 1.125066e-002
1.504204e+003, 1.139670e-002
1.506132e+003, 1.176211e-002
1.508061e+003, 1.157604e-002
1.509989e+003, 1.121050e-002
1.511918e+003, 1.100527e-002
1.513846e+003, 1.083998e-002
1.515775e+003, 1.084368e-002
1.517703e+003, 1.080196e-002
1.519632e+003, 1.078544e-002
1.521560e+003, 1.082839e-002
1.523489e+003, 1.061037e-002
1.525417e+003, 1.060973e-002
1.527346e+003, 1.050771e-002
1.529274e+003, 1.037978e-002
1.531203e+003, 1.042508e-002
1.533131e+003, 1.052852e-002
1.535059e+003, 1.035452e-002
1.536988e+003, 1.045319e-002
1.538916e+003, 1.099208e-002
1.540845e+003, 1.102443e-002
1.542773e+003, 1.076006e-002
1.544702e+003, 1.059742e-002
1.546630e+003, 1.043408e-002
1.548559e+003, 1.044975e-002
1.550487e+003, 1.051677e-002
1.552416e+003, 1.054354e-002
1.554344e+003, 1.072746e-002
1.556273e+003, 1.105221e-002
1.558201e+003, 1.179977e-002
1.560130e+003, 1.181069e-002
1.562058e+003, 1.117474e-002
1.563986e+003, 1.112295e-002
1.565915e+003, 1.129174e-002
1.567843e+003, 1.151394e-002
1.569772e+003, 1.185923e-002
1.571700e+003, 1.196797e-002
1.573629e+003, 1.219993e-002
1.575557e+003, 1.278462e-002
1.577486e+003, 1.295009e-002
1.579414e+003, 1.299701e-002
1.581343e+003, 1.330210e-002
1.583271e+003, 1.341144e-002
1.585200e+003, 1.362131e-002
1.587128e+003, 1.384067e-002
1.589057e+003, 1.433355e-002
1.590985e+003, 1.496318e-002
1.592913e+003, 1.545972e-002
1.594842e+003, 1.605905e-002
1.596770e+003, 1.682341e-002
1.598699e+003, 1.748443e-002
1.600627e+003, 1.814727e-002
1.602556e+003, 1.883800e-002
1.604484e+003, 1.939583e-002
1.606413e+003, 1.993138e-002
1.608341e+003, 2.036642e-002
1.610270e+003, 2.068452e-002
1.612198e+003, 2.104584e-002
1.614127e+003, 2.159810e-002
1.616055e+003, 2.235841e-002
1.617984e+003, 2.270218e-002
1.619912e+003, 2.323029e-002
1.621840e+003, 2.436332e-002
1.623769e+003, 2.565158e-002
1.625697e+003, 2.714154e-002
1.627626e+003, 2.890304e-002
1.629554e+003, 3.075591e-002
1.631483e+003, 3.263514e-002
1.633411e+003, 3.446104e-002
1.635340e+003, 3.592909e-002
1.637268e+003, 3.648265e-002
1.639197e+003, 3.640334e-002
1.641125e+003, 3.615968e-002
1.643054e+003, 3.562193e-002
1.644982e+003, 3.496903e-002
1.646911e+003, 3.369268e-002
1.648839e+003, 3.184856e-002
1.650767e+003, 3.056424e-002
1.652696e+003, 2.972472e-002
1.654624e+003, 2.800909e-002
1.656553e+003, 2.663224e-002
1.658481e+003, 2.601539e-002
1.660410e+003, 2.560897e-002
1.662338e+003, 2.548264e-002
1.664267e+003, 2.509199e-002
1.666195e+003, 2.467920e-002
1.668124e+003, 2.441353e-002
1.670052e+003, 2.383975e-002
1.671981e+003, 2.295882e-002
1.673909e+003, 2.203222e-002
1.675838e+003, 2.084007e-002
1.677766e+003, 1.934271e-002
1.679694e+003, 1.803063e-002
1.681623e+003, 1.700365e-002
1.683551e+003, 1.645537e-002
1.685480e+003, 1.536104e-002
1.687408e+003, 1.386063e-002
1.689337e+003, 1.283520e-002
1.691265e+003, 1.188820e-002
1.693194e+003, 1.136330e-002
1.695122e+003, 1.154796e-002
1.697051e+003, 1.103082e-002
1.698979e+003, 1.052519e-002
1.700908e+003, 1.012382e-002
1.702836e+003, 9.193523e-003
1.704765e+003, 8.983719e-003
1.706693e+003, 8.694119e-003
1.708621e+003, 8.260659e-003
1.710550e+003, 8.001870e-003
1.712478e+003, 8.031711e-003
1.714407e+003, 8.066769e-003
1.716335e+003, 8.298011e-003
1.718264e+003, 8.088541e-003
1.720192e+003, 7.570715e-003
1.722121e+003, 7.537933e-003
1.724049e+003, 7.344728e-003
1.725978e+003, 7.030755e-003
1.727906e+003, 7.051267e-003
1.729835e+003, 6.984736e-003
1.731763e+003, 7.094461e-003
1.733692e+003, 7.327450e-003
1.735620e+003, 6.885050e-003
1.737548e+003, 6.390416e-003
1.739477e+003, 6.166143e-003
1.741405e+003, 5.927007e-003
1.743334e+003, 5.578640e-003
1.745262e+003, 5.243221e-003
1.747191e+003, 5.191015e-003
1.749119e+003, 5.354957e-003
1.751048e+003, 5.500345e-003
1.752976e+003, 5.313537e-003
1.754905e+003, 5.214636e-003
1.756833e+003, 5.302777e-003
1.758762e+003, 5.126297e-003
1.760690e+003, 5.051402e-003
1.762619e+003, 4.928019e-003
1.764547e+003, 4.981429e-003
1.766475e+003, 5.138352e-003
1.768404e+003, 5.115116e-003
1.770332e+003, 5.099496e-003
1.772261e+003, 5.324686e-003
1.774189e+003, 5.252407e-003
1.776118e+003, 5.121433e-003
1.778046e+003, 5.042309e-003
1.779975e+003, 5.069328e-003
1.781903e+003, 4.968388e-003
1.783832e+003, 5.041820e-003
1.785760e+003, 5.191587e-003
1.787689e+003, 5.033702e-003
1.789617e+003, 4.905753e-003
1.791546e+003, 4.991389e-003
1.793474e+003, 4.849171e-003
1.795402e+003, 4.795546e-003
1.797331e+003, 4.927798e-003
1.799259e+003, 4.977422e-003
1.801188e+003, 4.937111e-003
1.803116e+003, 4.719553e-003
1.805045e+003, 4.602585e-003
1.806973e+003, 4.549328e-003
1.808902e+003, 4.697252e-003
1.810830e+003, 4.740227e-003
1.812759e+003, 4.532962e-003
1.814687e+003, 4.327238e-003
1.816616e+003, 4.418995e-003
1.818544e+003, 4.510098e-003
1.820473e+003, 4.450579e-003
1.822401e+003, 4.220750e-003
1.824329e+003, 4.201090e-003
1.826258e+003, 4.369980e-003
1.828186e+003, 4.382452e-003
1.830115e+003, 4.337992e-003
1.832043e+003, 4.385472e-003
1.833972e+003, 4.169110e-003
1.835900e+003, 3.830761e-003
1.837829e+003, 4.003804e-003
1.839757e+003, 4.235821e-003
1.841686e+003, 4.159901e-003
1.843614e+003, 4.015610e-003
1.845543e+003, 4.027615e-003
1.847471e+003, 4.147371e-003
1.849400e+003, 4.051552e-003
1.851328e+003, 3.904558e-003
1.853256e+003, 3.867099e-003
1.855185e+003, 3.643486e-003
1.857113e+003, 3.587936e-003
1.859042e+003, 3.749266e-003
1.860970e+003, 4.012761e-003
1.862899e+003, 4.127965e-003
1.864827e+003, 3.930234e-003
1.866756e+003, 3.954624e-003
1.868684e+003, 4.125538e-003
1.870613e+003, 4.148983e-003
1.872541e+003, 3.810463e-003
1.874470e+003, 3.390612e-003
1.876398e+003, 3.635561e-003
1.878327e+003, 3.881140e-003
1.880255e+003, 3.693724e-003
1.882183e+003, 3.617266e-003
1.884112e+003, 3.678349e-003
1.886040e+003, 3.878305e-003
1.887969e+003, 3.986300e-003
1.889897e+003, 3.767520e-003
1.891826e+003, 3.537519e-003
1.893754e+003, 3.288838e-003
1.895683e+003, 3.187509e-003
1.897611e+003, 3.434239e-003
1.899540e+003, 3.265584e-003
1.901468e+003, 3.133169e-003
1.903397e+003, 2.945498e-003
1.905325e+003, 2.672611e-003
1.907254e+003, 2.727559e-003
1.909182e+003, 2.804197e-003
1.911110e+003, 2.460442e-003
1.913039e+003, 2.819529e-003
1.914967e+003, 3.063702e-003
1.916896e+003, 3.308749e-003
1.918824e+003, 3.614248e-003
1.920753e+003, 3.344416e-003
1.922681e+003, 2.911730e-003
1.924610e+003, 2.363917e-003
1.926538e+003, 1.938009e-003
1.928467e+003, 1.964414e-003
1.930395e+003, 2.132317e-003
1.932324e+003, 2.360936e-003
1.934252e+003, 2.404169e-003
1.936181e+003, 2.564078e-003
1.938109e+003, 2.425707e-003
1.940037e+003, 1.979938e-003
1.941966e+003, 2.171031e-003
1.943894e+003, 2.160208e-003
1.945823e+003, 2.482888e-003
1.947751e+003, 2.807943e-003
1.949680e+003, 2.192155e-003
1.951608e+003, 1.404321e-003
1.953537e+003, 1.237282e-003
1.955465e+003, 1.022392e-003
1.957394e+003, 4.049298e-004
1.959322e+003, 7.602961e-004
1.961251e+003, 1.381058e-003
1.963179e+003, 2.158879e-003
1.965108e+003, 1.673650e-003
1.967036e+003, 7.959723e-004
1.968964e+003, 3.909407e-004
1.970893e+003, 8.424397e-004
1.972821e+003, 1.554804e-003
1.974750e+003, 8.614448e-004
1.976678e+003, 5.445699e-004
1.978607e+003, 2.260240e-003
1.980535e+003, 4.307310e-003
1.982464e+003, 3.471389e-003
1.984392e+003, 2.333896e-003
1.986321e+003, 2.150018e-003
1.988249e+003, 2.226406e-003
1.990178e+003, 2.512634e-003
1.992106e+003, 3.024021e-003
1.994035e+003, 2.617963e-003
1.995963e+003, 2.737915e-003
1.997891e+003, 2.646665e-003
1.999820e+003, 1.561744e-003
2.001748e+003, 1.496474e-003
2.003677e+003, 1.530903e-003
2.005605e+003, 1.081609e-003
2.007534e+003, 2.149173e-003
2.009462e+003, 2.056063e-003
2.011391e+003, 1.688562e-003
2.013319e+003, 1.126914e-003
2.015248e+003, 1.363972e-003
2.017176e+003, 2.141874e-003
2.019105e+003, 2.343530e-003
2.021033e+003, 2.166713e-003
2.022962e+003, 2.514497e-003
2.024890e+003, 2.387044e-003
2.026818e+003, 2.471677e-003
2.028747e+003, 2.548924e-003
2.030675e+003, 2.210978e-003
2.032604e+003, 2.329824e-003
2.034532e+003, 2.698585e-003
2.036461e+003, 3.516824e-003
2.038389e+003, 3.899288e-003
2.040318e+003, 4.095366e-003
2.042246e+003, 4.478177e-003
2.044175e+003, 4.246695e-003
2.046103e+003, 3.799244e-003
2.048031e+003, 4.760306e-003
2.049960e+003, 6.666385e-003
2.051888e+003, 5.598906e-003
2.053817e+003, 4.149809e-003
2.055745e+003, 3.740398e-003
2.057674e+003, 3.570296e-003
2.059602e+003, 3.942540e-003
2.061531e+003, 4.180698e-003
2.063459e+003, 4.140648e-003
2.065388e+003, 4.615865e-003
2.067316e+003, 4.479796e-003
2.069245e+003, 4.360436e-003
2.071173e+003, 4.803055e-003
2.073102e+003, 4.676327e-003
2.075030e+003, 4.214083e-003
2.076958e+003, 4.364175e-003
2.078887e+003, 5.263773e-003
2.080815e+003, 5.036575e-003
2.082744e+003, 4.223926e-003
2.084672e+003, 4.471452e-003
2.086601e+003, 4.697466e-003
2.088529e+003, 4.623206e-003
2.090458e+003, 4.338810e-003
2.092386e+003, 3.990603e-003
2.094315e+003, 4.222852e-003
2.096243e+003, 4.491943e-003
2.098172e+003, 4.573280e-003
2.100100e+003, 4.890915e-003
2.102029e+003, 5.478746e-003
2.103957e+003, 5.575931e-003
2.105885e+003, 5.620567e-003
2.107814e+003, 5.648552e-003
2.109742e+003, 5.767884e-003
2.111671e+003, 5.719082e-003
2.113599e+003, 5.574781e-003
2.115528e+003, 5.423531e-003
2.117456e+003, 4.906931e-003
2.119385e+003, 5.096883e-003
2.121313e+003, 5.022153e-003
2.123242e+003, 4.272697e-003
2.125170e+003, 4.077388e-003
2.127099e+003, 4.149758e-003
2.129027e+003, 3.427340e-003
2.130956e+003, 2.999801e-003
2.132884e+003, 3.246658e-003
2.134813e+003, 3.494164e-003
2.136741e+003, 4.220203e-003
2.138669e+003, 4.975111e-003
2.140598e+003, 5.053189e-003
2.142526e+003, 4.309080e-003
2.144455e+003, 3.393982e-003
2.146383e+003, 3.355992e-003
2.148312e+003, 3.285643e-003
2.150240e+003, 2.723933e-003
2.152169e+003, 2.647924e-003
2.154097e+003, 1.870868e-003
2.156026e+003, 3.231691e-004
2.157954e+003, 2.284761e-003
2.159883e+003, 5.529611e-003
2.161811e+003, 6.656508e-003
2.163740e+003, 6.202189e-003
2.165668e+003, 5.967863e-003
2.167596e+003, 6.170518e-003
2.169525e+003, 5.673110e-003
2.171453e+003, 5.317029e-003
2.173382e+003, 4.604992e-003
2.175310e+003, 5.103827e-003
2.177239e+003, 6.659185e-003
2.179167e+003, 5.373821e-003
2.181096e+003, 4.964827e-003
2.183024e+003, 5.925578e-003
2.184953e+003, 6.281869e-003
2.186881e+003, 6.225051e-003
2.188810e+003, 5.905596e-003
2.190738e+003, 6.268837e-003
2.192667e+003, 6.857690e-003
2.194595e+003, 6.680415e-003
2.196523e+003, 6.956111e-003
2.198452e+003, 7.334384e-003
2.200380e+003, 7.490708e-003
2.202309e+003, 7.429834e-003
2.204237e+003, 7.768650e-003
2.206166e+003, 7.954909e-003
2.208094e+003, 8.182249e-003
2.210023e+003, 8.215466e-003
2.211951e+003, 7.587347e-003
2.213880e+003, 7.770168e-003
2.215808e+003, 8.303027e-003
2.217737e+003, 8.593950e-003
2.219665e+003, 8.272897e-003
2.221594e+003, 8.208960e-003
2.223522e+003, 8.934127e-003
2.225450e+003, 9.572226e-003
2.227379e+003, 9.368635e-003
2.229307e+003, 9.172034e-003
2.231236e+003, 9.268113e-003
2.233164e+003, 9.510950e-003
2.235093e+003, 9.422768e-003
2.237021e+003, 9.419071e-003
2.238950e+003, 9.575072e-003
2.240878e+003, 9.653057e-003
2.242807e+003, 9.478174e-003
2.244735e+003, 8.906090e-003
2.246664e+003, 8.604879e-003
2.248592e+003, 8.741182e-003
2.250521e+003, 8.757406e-003
2.252449e+003, 8.680498e-003
2.254377e+003, 8.798040e-003
2.256306e+003, 9.182137e-003
2.258234e+003, 9.877993e-003
2.260163e+003, 1.017801e-002
2.262091e+003, 9.804090e-003
2.264020e+003, 9.674482e-003
2.265948e+003, 9.910445e-003
2.267877e+003, 9.898080e-003
2.269805e+003, 9.535467e-003
2.271734e+003, 9.328730e-003
2.273662e+003, 9.798922e-003
2.275591e+003, 1.040597e-002
2.277519e+003, 1.015682e-002
2.279448e+003, 1.033308e-002
2.281376e+003, 1.076998e-002
2.283304e+003, 1.063140e-002
2.285233e+003, 1.034515e-002
2.287161e+003, 9.766024e-003
2.289090e+003, 9.589679e-003
2.291018e+003, 9.814306e-003
2.292947e+003, 1.009414e-002
2.294875e+003, 1.016693e-002
2.296804e+003, 9.906035e-003
2.298732e+003, 1.003475e-002
2.300661e+003, 9.987882e-003
2.302589e+003, 9.822268e-003
2.304518e+003, 9.744055e-003
2.306446e+003, 9.748352e-003
2.308375e+003, 1.006502e-002
2.310303e+003, 1.004614e-002
2.312231e+003, 9.825335e-003
2.314160e+003, 9.997077e-003
2.316088e+003, 1.033394e-002
2.318017e+003, 1.076112e-002
2.319945e+003, 1.095990e-002
2.321874e+003, 1.157171e-002
2.323802e+003, 1.206417e-002
2.325731e+003, 1.152515e-002
2.327659e+003, 1.072568e-002
2.329588e+003, 1.073955e-002
2.331516e+003, 1.105604e-002
2.333445e+003, 1.096490e-002
2.335373e+003, 1.071805e-002
2.337302e+003, 1.081918e-002
2.339230e+003, 1.078033e-002
2.341158e+003, 1.063556e-002
2.343087e+003, 1.061043e-002
2.345015e+003, 1.032423e-002
2.346944e+003, 9.629334e-003
2.348872e+003, 9.567796e-003
2.350801e+003, 1.009007e-002
2.352729e+003, 1.030598e-002
2.354658e+003, 1.054458e-002
2.356586e+003, 1.079623e-002
2.358515e+003, 1.101651e-002
2.360443e+003, 1.131949e-002
2.362372e+003, 1.138976e-002
2.364300e+003, 1.139407e-002
2.366229e+003, 1.118569e-002
2.368157e+003, 1.089714e-002
2.370085e+003, 1.068365e-002
2.372014e+003, 1.044833e-002
2.373942e+003, 9.779572e-003
2.375871e+003, 9.142243e-003
2.377799e+003, 8.929030e-003
2.379728e+003, 9.012867e-003
2.381656e+003, 8.977104e-003
2.383585e+003, 9.082766e-003
2.385513e+003, 9.055350e-003
2.387442e+003, 9.345120e-003
2.389370e+003, 9.247704e-003
2.391299e+003, 8.950951e-003
2.393227e+003, 8.996962e-003
2.395156e+003, 8.854767e-003
2.397084e+003, 8.823687e-003
2.399012e+003, 9.211081e-003
2.400941e+003, 9.287671e-003
2.402869e+003, 9.001410e-003
2.404798e+003, 9.103717e-003
2.406726e+003, 9.565859e-003
2.408655e+003, 9.862147e-003
2.410583e+003, 9.569016e-003
2.412512e+003, 9.153723e-003
2.414440e+003, 9.156036e-003
2.416369e+003, 9.059004e-003
2.418297e+003, 9.042635e-003
2.420226e+003, 9.548217e-003
2.422154e+003, 9.870430e-003
2.424083e+003, 9.725470e-003
2.426011e+003, 9.673011e-003
2.427939e+003, 1.000729e-002
2.429868e+003, 1.010839e-002
2.431796e+003, 1.019118e-002
2.433725e+003, 1.012712e-002
2.435653e+003, 9.743222e-003
2.437582e+003, 9.653041e-003
2.439510e+003, 9.547301e-003
2.441439e+003, 9.646928e-003
2.443367e+003, 9.844759e-003
2.445296e+003, 9.995323e-003
2.447224e+003, 9.914152e-003
2.449153e+003, 9.637118e-003
2.451081e+003, 9.663637e-003
2.453010e+003, 9.868598e-003
2.454938e+003, 9.768317e-003
2.456866e+003, 9.797845e-003
2.458795e+003, 9.901739e-003
2.460723e+003, 9.888602e-003
2.462652e+003, 1.008200e-002
2.464580e+003, 9.998478e-003
2.466509e+003, 9.992774e-003
2.468437e+003, 9.535567e-003
2.470366e+003, 9.472575e-003
2.472294e+003, 9.585924e-003
2.474223e+003, 9.887580e-003
2.476151e+003, 9.939422e-003
2.478080e+003, 9.557406e-003
2.480008e+003, 9.505901e-003
2.481937e+003, 9.656584e-003
2.483865e+003, 9.168943e-003
2.485793e+003, 9.039425e-003
2.487722e+003, 9.448321e-003
2.489650e+003, 9.825607e-003
2.491579e+003, 1.004018e-002
2.493507e+003, 1.003853e-002
2.495436e+003, 9.922285e-003
2.497364e+003, 9.727630e-003
2.499293e+003, 9.641728e-003
2.501221e+003, 9.678935e-003
2.503150e+003, 1.039282e-002
2.505078e+003, 1.052117e-002
2.507007e+003, 1.000308e-002
2.508935e+003, 1.002798e-002
2.510864e+003, 1.011058e-002
2.512792e+003, 9.661801e-003
2.514720e+003, 9.713098e-003
2.516649e+003, 1.040871e-002
2.518577e+003, 1.070637e-002
2.520506e+003, 1.067982e-002
2.522434e+003, 1.055229e-002
2.524363e+003, 1.032434e-002
2.526291e+003, 9.993442e-003
2.528220e+003, 9.937417e-003
2.530148e+003, 1.014762e-002
2.532077e+003, 1.010845e-002
2.534005e+003, 1.018521e-002
2.535934e+003, 1.051324e-002
2.537862e+003, 1.086580e-002
2.539791e+003, 1.058930e-002
2.541719e+003, 1.018375e-002
2.543647e+003, 1.026709e-002
2.545576e+003, 1.045316e-002
2.547504e+003, 1.063262e-002
2.549433e+003, 1.055377e-002
2.551361e+003, 1.042145e-002
2.553290e+003, 1.066087e-002
2.555218e+003, 1.075988e-002
2.557147e+003, 1.064703e-002
2.559075e+003, 1.044808e-002
2.561004e+003, 1.064039e-002
2.562932e+003, 1.079717e-002
2.564861e+003, 1.096105e-002
2.566789e+003, 1.098492e-002
2.568718e+003, 1.088281e-002
2.570646e+003, 1.078976e-002
2.572574e+003, 1.089528e-002
2.574503e+003, 1.096883e-002
2.576431e+003, 1.078654e-002
2.578360e+003, 1.082895e-002
2.580288e+003, 1.089316e-002
2.582217e+003, 1.107099e-002
2.584145e+003, 1.132202e-002
2.586074e+003, 1.098620e-002
2.588002e+003, 1.065378e-002
2.589931e+003, 1.075260e-002
2.591859e+003, 1.094634e-002
2.593788e+003, 1.094781e-002
2.595716e+003, 1.083862e-002
2.597645e+003, 1.091915e-002
2.599573e+003, 1.132218e-002
2.601501e+003, 1.138378e-002
2.603430e+003, 1.134717e-002
2.605358e+003, 1.136063e-002
2.607287e+003, 1.128519e-002
2.609215e+003, 1.137073e-002
2.611144e+003, 1.150524e-002
2.613072e+003, 1.183434e-002
2.615001e+003, 1.176069e-002
2.616929e+003, 1.152749e-002
2.618858e+003, 1.155413e-002
2.620786e+003, 1.171485e-002
2.622715e+003, 1.179451e-002
2.624643e+003, 1.167665e-002
2.626572e+003, 1.178310e-002
2.628500e+003, 1.186012e-002
2.630428e+003, 1.189771e-002
2.632357e+003, 1.189524e-002
2.634285e+003, 1.188623e-002
2.636214e+003, 1.172098e-002
2.638142e+003, 1.175057e-002
2.640071e+003, 1.188714e-002
2.641999e+003, 1.213529e-002
2.643928e+003, 1.222162e-002
2.645856e+003, 1.195695e-002
2.647785e+003, 1.170081e-002
2.649713e+003, 1.194555e-002
2.651642e+003, 1.197377e-002
2.653570e+003, 1.187081e-002
2.655499e+003, 1.201342e-002
2.657427e+003, 1.189759e-002
2.659355e+003, 1.174758e-002
2.661284e+003, 1.152086e-002
2.663212e+003, 1.133297e-002
2.665141e+003, 1.130355e-002
2.667069e+003, 1.108963e-002
2.668998e+003, 1.115346e-002
2.670926e+003, 1.140315e-002
2.672855e+003, 1.144520e-002
2.674783e+003, 1.140521e-002
2.676712e+003, 1.143377e-002
2.678640e+003, 1.175602e-002
2.680569e+003, 1.199491e-002
2.682497e+003, 1.173327e-002
2.684426e+003, 1.182302e-002
2.686354e+003, 1.188834e-002
2.688282e+003, 1.172933e-002
2.690211e+003, 1.163079e-002
2.692139e+003, 1.176715e-002
2.694068e+003, 1.179587e-002
2.695996e+003, 1.191711e-002
2.697925e+003, 1.169700e-002
2.699853e+003, 1.163696e-002
2.701782e+003, 1.195390e-002
2.703710e+003, 1.218898e-002
2.705639e+003, 1.229624e-002
2.707567e+003, 1.192521e-002
2.709496e+003, 1.177582e-002
2.711424e+003, 1.203858e-002
2.713353e+003, 1.196877e-002
2.715281e+003, 1.207571e-002
2.717209e+003, 1.219435e-002
2.719138e+003, 1.214520e-002
2.721066e+003, 1.200971e-002
2.722995e+003, 1.208112e-002
2.724923e+003, 1.214340e-002
2.726852e+003, 1.211758e-002
2.728780e+003, 1.221348e-002
2.730709e+003, 1.225548e-002
2.732637e+003, 1.233357e-002
2.734566e+003, 1.260543e-002
2.736494e+003, 1.270495e-002
2.738423e+003, 1.266851e-002
2.740351e+003, 1.257621e-002
2.742280e+003, 1.267038e-002
2.744208e+003, 1.287054e-002
2.746136e+003, 1.289385e-002
2.748065e+003, 1.275463e-002
2.749993e+003, 1.258953e-002
2.751922e+003, 1.263982e-002
2.753850e+003, 1.274643e-002
2.755779e+003, 1.280686e-002
2.757707e+003, 1.270989e-002
2.759636e+003, 1.235103e-002
2.761564e+003, 1.256029e-002
2.763493e+003, 1.286890e-002
2.765421e+003, 1.305210e-002
2.767350e+003, 1.303349e-002
2.769278e+003, 1.296800e-002
2.771207e+003, 1.281990e-002
2.773135e+003, 1.290080e-002
2.775063e+003, 1.299704e-002
2.776992e+003, 1.298040e-002
2.778920e+003, 1.310232e-002
2.780849e+003, 1.310489e-002
2.782777e+003, 1.314632e-002
2.784706e+003, 1.329508e-002
2.786634e+003, 1.327395e-002
2.788563e+003, 1.335927e-002
2.790491e+003, 1.382873e-002
2.792420e+003, 1.395163e-002
2.794348e+003, 1.348182e-002
2.796277e+003, 1.353282e-002
2.798205e+003, 1.362869e-002
2.800134e+003, 1.374383e-002
2.802062e+003, 1.397876e-002
2.803990e+003, 1.380279e-002
2.805919e+003, 1.350136e-002
2.807847e+003, 1.354563e-002
2.809776e+003, 1.390330e-002
2.811704e+003, 1.401434e-002
2.813633e+003, 1.417371e-002
2.815561e+003, 1.442138e-002
2.817490e+003, 1.440282e-002
2.819418e+003, 1.430672e-002
2.821347e+003, 1.399705e-002
2.823275e+003, 1.381285e-002
2.825204e+003, 1.393514e-002
2.827132e+003, 1.428891e-002
2.829061e+003, 1.454535e-002
2.830989e+003, 1.462342e-002
2.832917e+003, 1.477653e-002
2.834846e+003, 1.489963e-002
2.836774e+003, 1.521910e-002
2.838703e+003, 1.526382e-002
2.840631e+003, 1.523922e-002
2.842560e+003, 1.553214e-002
2.844488e+003, 1.551738e-002
2.846417e+003, 1.562628e-002
2.848345e+003, 1.565206e-002
2.850274e+003, 1.557036e-002
2.852202e+003, 1.578246e-002
2.854131e+003, 1.590051e-002
2.856059e+003, 1.590579e-002
2.857988e+003, 1.576710e-002
2.859916e+003, 1.574290e-002
2.861844e+003, 1.579769e-002
2.863773e+003, 1.573290e-002
2.865701e+003, 1.586062e-002
2.867630e+003, 1.638039e-002
2.869558e+003, 1.652185e-002
2.871487e+003, 1.615401e-002
2.873415e+003, 1.583794e-002
2.875344e+003, 1.592962e-002
2.877272e+003, 1.625368e-002
2.879201e+003, 1.686626e-002
2.881129e+003, 1.671675e-002
2.883058e+003, 1.619433e-002
2.884986e+003, 1.642326e-002
2.886915e+003, 1.666841e-002
2.888843e+003, 1.672591e-002
2.890771e+003, 1.717124e-002
2.892700e+003, 1.723468e-002
2.894628e+003, 1.712016e-002
2.896557e+003, 1.717282e-002
2.898485e+003, 1.734928e-002
2.900414e+003, 1.748721e-002
2.902342e+003, 1.774595e-002
2.904271e+003, 1.812583e-002
2.906199e+003, 1.822754e-002
2.908128e+003, 1.814716e-002
2.910056e+003, 1.790206e-002
2.911985e+003, 1.775334e-002
2.913913e+003, 1.816191e-002
2.915842e+003, 1.855172e-002
2.917770e+003, 1.865719e-002
2.919698e+003, 1.908114e-002
2.921627e+003, 1.924726e-002
2.923555e+003, 1.911480e-002
2.925484e+003, 1.919531e-002
2.927412e+003, 1.953928e-002
2.929341e+003, 1.960084e-002
2.931269e+003, 1.926660e-002
2.933198e+003, 1.955184e-002
2.935126e+003, 1.950593e-002
2.937055e+003, 1.898416e-002
2.938983e+003, 1.855320e-002
2.940912e+003, 1.818636e-002
2.942840e+003, 1.848970e-002
2.944769e+003, 1.876398e-002
2.946697e+003, 1.887674e-002
2.948625e+003, 1.872649e-002
2.950554e+003, 1.903331e-002
2.952482e+003, 1.953049e-002
2.954411e+003, 1.974344e-002
2.956339e+003, 1.981293e-002
2.958268e+003, 2.020676e-002
2.960196e+003, 2.032795e-002
2.962125e+003, 2.053464e-002
2.964053e+003, 2.046609e-002
2.965982e+003, 1.968953e-002
2.967910e+003, 1.901772e-002
2.969839e+003, 1.904566e-002
2.971767e+003, 1.917635e-002
2.973696e+003, 1.907109e-002
2.975624e+003, 1.905394e-002
2.977552e+003, 1.896337e-002
2.979481e+003, 1.874926e-002
2.981409e+003, 1.886223e-002
2.983338e+003, 1.902730e-002
2.985266e+003, 1.888563e-002
2.987195e+003, 1.872841e-002
2.989123e+003, 1.927678e-002
2.991052e+003, 1.983966e-002
2.992980e+003, 1.978851e-002
2.994909e+003, 1.960732e-002
2.996837e+003, 1.932563e-002
2.998766e+003, 1.939443e-002
3.000694e+003, 1.930024e-002
3.002623e+003, 1.942584e-002
3.004551e+003, 1.980356e-002
3.006479e+003, 2.014309e-002
3.008408e+003, 2.033702e-002
3.010336e+003, 2.028046e-002
3.012265e+003, 1.980434e-002
3.014193e+003, 1.957916e-002
3.016122e+003, 1.980180e-002
3.018050e+003, 1.980684e-002
3.019979e+003, 2.001812e-002
3.021907e+003, 2.055460e-002
3.023836e+003, 2.068924e-002
3.025764e+003, 2.083861e-002
3.027693e+003, 2.077729e-002
3.029621e+003, 2.071199e-002
3.031550e+003, 2.123538e-002
3.033478e+003, 2.130650e-002
3.035406e+003, 2.129061e-002
3.037335e+003, 2.152681e-002
3.039263e+003, 2.168502e-002
3.041192e+003, 2.161376e-002
3.043120e+003, 2.132555e-002
3.045049e+003, 2.163840e-002
3.046977e+003, 2.183889e-002
3.048906e+003, 2.194854e-002
3.050834e+003, 2.227007e-002
3.052763e+003, 2.240687e-002
3.054691e+003, 2.222926e-002
3.056620e+003, 2.229757e-002
3.058548e+003, 2.262106e-002
3.060477e+003, 2.264656e-002
3.062405e+003, 2.278676e-002
3.064333e+003, 2.291267e-002
3.066262e+003, 2.289463e-002
3.068190e+003, 2.324262e-002
3.070119e+003, 2.355735e-002
3.072047e+003, 2.400849e-002
3.073976e+003, 2.388430e-002
3.075904e+003, 2.337635e-002
3.077833e+003, 2.343345e-002
3.079761e+003, 2.424355e-002
3.081690e+003, 2.477133e-002
3.083618e+003, 2.448346e-002
3.085547e+003, 2.421736e-002
3.087475e+003, 2.446012e-002
3.089404e+003, 2.471592e-002
3.091332e+003, 2.483464e-002
3.093260e+003, 2.481934e-002
3.095189e+003, 2.513070e-002
3.097117e+003, 2.558326e-002
3.099046e+003, 2.561447e-002
3.100974e+003, 2.558266e-002
3.102903e+003, 2.555707e-002
3.104831e+003, 2.556646e-002
3.106760e+003, 2.586856e-002
3.108688e+003, 2.607216e-002
3.110617e+003, 2.634884e-002
3.112545e+003, 2.667765e-002
3.114474e+003, 2.640561e-002
3.116402e+003, 2.611391e-002
3.118331e+003, 2.611121e-002
3.120259e+003, 2.645340e-002
3.122188e+003, 2.646331e-002
3.124116e+003, 2.622835e-002
3.126044e+003, 2.659191e-002
3.127973e+003, 2.711267e-002
3.129901e+003, 2.742755e-002
3.131830e+003, 2.767975e-002
3.133758e+003, 2.817511e-002
3.135687e+003, 2.854073e-002
3.137615e+003, 2.856677e-002
3.139544e+003, 2.908221e-002
3.141472e+003, 2.903873e-002
3.143401e+003, 2.871124e-002
3.145329e+003, 2.902839e-002
3.147258e+003, 2.930250e-002
3.149186e+003, 2.905844e-002
3.151115e+003, 2.858210e-002
3.153043e+003, 2.877200e-002
3.154971e+003, 2.956230e-002
3.156900e+003, 2.994179e-002
3.158828e+003, 2.976679e-002
3.160757e+003, 2.977576e-002
3.162685e+003, 3.014587e-002
3.164614e+003, 3.034294e-002
3.166542e+003, 3.070106e-002
3.168471e+003, 3.116718e-002
3.170399e+003, 3.144514e-002
3.172328e+003, 3.208685e-002
3.174256e+003, 3.208461e-002
3.176185e+003, 3.170453e-002
3.178113e+003, 3.191052e-002
3.180042e+003, 3.189473e-002
3.181970e+003, 3.240616e-002
3.183898e+003, 3.292441e-002
3.185827e+003, 3.267142e-002
3.187755e+003, 3.265713e-002
3.189684e+003, 3.285642e-002
3.191612e+003, 3.329564e-002
3.193541e+003, 3.386116e-002
3.195469e+003, 3.360476e-002
3.197398e+003, 3.359161e-002
3.199326e+003, 3.394706e-002
3.201255e+003, 3.416960e-002
3.203183e+003, 3.427394e-002
3.205112e+003, 3.482869e-002
3.207040e+003, 3.523071e-002
3.208969e+003, 3.533717e-002
3.210897e+003, 3.497086e-002
3.212825e+003, 3.503029e-002
3.214754e+003, 3.572616e-002
3.216682e+003, 3.593010e-002
3.218611e+003, 3.616121e-002
3.220539e+003, 3.643925e-002
3.222468e+003, 3.645329e-002
3.224396e+003, 3.671878e-002
3.226325e+003, 3.713126e-002
3.228253e+003, 3.727549e-002
3.230182e+003, 3.711278e-002
3.232110e+003, 3.688755e-002
3.234039e+003, 3.718977e-002
3.235967e+003, 3.748172e-002
3.237896e+003, 3.789802e-002
3.239824e+003, 3.854172e-002
3.241752e+003, 3.812160e-002
3.243681e+003, 3.686966e-002
3.245609e+003, 3.737286e-002
3.247538e+003, 3.813757e-002
3.249466e+003, 3.828644e-002
3.251395e+003, 3.800655e-002
3.253323e+003, 3.798414e-002
3.255252e+003, 3.877115e-002
3.257180e+003, 3.873422e-002
3.259109e+003, 3.846573e-002
3.261037e+003, 3.866304e-002
3.262966e+003, 3.875768e-002
3.264894e+003, 3.903354e-002
3.266823e+003, 3.833434e-002
3.268751e+003, 3.804411e-002
3.270679e+003, 3.852892e-002
3.272608e+003, 3.880446e-002
3.274536e+003, 3.907521e-002
3.276465e+003, 3.930513e-002
3.278393e+003, 3.944664e-002
3.280322e+003, 3.937508e-002
3.282250e+003, 3.956326e-002
3.284179e+003, 4.018676e-002
3.286107e+003, 4.092976e-002
3.288036e+003, 4.091521e-002
3.289964e+003, 4.111198e-002
3.291893e+003, 4.169006e-002
3.293821e+003, 4.157291e-002
3.295750e+003, 4.162310e-002
3.297678e+003, 4.182070e-002
3.299606e+003, 4.183480e-002
3.301535e+003, 4.190341e-002
3.303463e+003, 4.240932e-002
3.305392e+003, 4.258457e-002
3.307320e+003, 4.306565e-002
3.309249e+003, 4.279296e-002
3.311177e+003, 4.247478e-002
3.313106e+003, 4.329653e-002
3.315034e+003, 4.374787e-002
3.316963e+003, 4.420923e-002
3.318891e+003, 4.465955e-002
3.320820e+003, 4.492306e-002
3.322748e+003, 4.545160e-002
3.324677e+003, 4.568615e-002
3.326605e+003, 4.642614e-002
3.328533e+003, 4.685321e-002
3.330462e+003, 4.700449e-002
3.332390e+003, 4.715114e-002
3.334319e+003, 4.732795e-002
3.336247e+003, 4.827346e-002
3.338176e+003, 4.923662e-002
3.340104e+003, 5.002024e-002
3.342033e+003, 5.102762e-002
3.343961e+003, 5.155809e-002
3.345890e+003, 5.208093e-002
3.347818e+003, 5.303195e-002
3.349747e+003, 5.398463e-002
3.351675e+003, 5.466956e-002
3.353604e+003, 5.573742e-002
3.355532e+003, 5.676340e-002
3.357460e+003, 5.722347e-002
3.359389e+003, 5.668838e-002
3.361317e+003, 5.727808e-002
3.363246e+003, 5.879843e-002
3.365174e+003, 5.896530e-002
3.367103e+003, 5.914418e-002
3.369031e+003, 5.939938e-002
3.370960e+003, 5.971817e-002
3.372888e+003, 6.054029e-002
3.374817e+003, 6.143464e-002
3.376745e+003, 6.167604e-002
3.378674e+003, 6.216646e-002
3.380602e+003, 6.253140e-002
3.382531e+003, 6.243434e-002
3.384459e+003, 6.229653e-002
3.386387e+003, 6.266957e-002
3.388316e+003, 6.340531e-002
3.390244e+003, 6.361416e-002
3.392173e+003, 6.390034e-002
3.394101e+003, 6.452706e-002
3.396030e+003, 6.500770e-002
3.397958e+003, 6.481131e-002
3.399887e+003, 6.479807e-002
3.401815e+003, 6.503328e-002
3.403744e+003, 6.505047e-002
3.405672e+003, 6.493498e-002
3.407601e+003, 6.482134e-002
3.409529e+003, 6.489863e-002
3.411458e+003, 6.464329e-002
3.413386e+003, 6.471836e-002
3.415314e+003, 6.539388e-002
3.417243e+003, 6.449676e-002
3.419171e+003, 6.410288e-002
3.421100e+003, 6.531394e-002
3.423028e+003, 6.535906e-002
3.424957e+003, 6.524137e-002
3.426885e+003, 6.515545e-002
3.428814e+003, 6.494465e-002
3.430742e+003, 6.481756e-002
3.432671e+003, 6.466916e-002
3.434599e+003, 6.457773e-002
3.436528e+003, 6.523350e-002
3.438456e+003, 6.509979e-002
3.440385e+003, 6.496080e-002
3.442313e+003, 6.533699e-002
3.444241e+003, 6.565773e-002
3.446170e+003, 6.566789e-002
3.448098e+003, 6.593122e-002
3.450027e+003, 6.577017e-002
3.451955e+003, 6.502625e-002
3.453884e+003, 6.490304e-002
3.455812e+003, 6.447686e-002
3.457741e+003, 6.407780e-002
3.459669e+003, 6.399164e-002
3.461598e+003, 6.358717e-002
3.463526e+003, 6.344698e-002
3.465455e+003, 6.317201e-002
3.467383e+003, 6.273542e-002
3.469312e+003, 6.203261e-002
3.471240e+003, 6.112225e-002
3.473168e+003, 6.058539e-002
3.475097e+003, 5.985127e-002
3.477025e+003, 5.952192e-002
3.478954e+003, 5.989718e-002
3.480882e+003, 5.982647e-002
3.482811e+003, 5.904152e-002
3.484739e+003, 5.842687e-002
3.486668e+003, 5.744107e-002
3.488596e+003, 5.704092e-002
3.490525e+003, 5.677118e-002
3.492453e+003, 5.646716e-002
3.494382e+003, 5.590083e-002
3.496310e+003, 5.573434e-002
3.498239e+003, 5.536868e-002
3.500167e+003, 5.378015e-002
3.502095e+003, 5.215336e-002
3.504024e+003, 5.160462e-002
3.505952e+003, 5.049564e-002
3.507881e+003, 4.940776e-002
3.509809e+003, 4.885638e-002
3.511738e+003, 4.762711e-002
3.513666e+003, 4.592087e-002
3.515595e+003, 4.509999e-002
3.517523e+003, 4.456255e-002
3.519452e+003, 4.362496e-002
3.521380e+003, 4.191384e-002
3.523309e+003, 4.058624e-002
3.525237e+003, 4.026977e-002
3.527166e+003, 3.967988e-002
3.529094e+003, 3.862362e-002
3.531022e+003, 3.773588e-002
3.532951e+003, 3.694482e-002
3.534879e+003, 3.694567e-002
3.536808e+003, 3.646725e-002
3.538736e+003, 3.584645e-002
3.540665e+003, 3.563292e-002
3.542593e+003, 3.581415e-002
3.544522e+003, 3.532765e-002
3.546450e+003, 3.450701e-002
3.548379e+003, 3.380813e-002
3.550307e+003, 3.280740e-002
3.552236e+003, 3.186524e-002
3.554164e+003, 3.063022e-002
3.556093e+003, 2.944865e-002
3.558021e+003, 2.836986e-002
3.559949e+003, 2.773817e-002
3.561878e+003, 2.712996e-002
3.563806e+003, 2.673479e-002
3.565735e+003, 2.669601e-002
3.567663e+003, 2.669589e-002
3.569592e+003, 2.671646e-002
3.571520e+003, 2.684215e-002
3.573449e+003, 2.664294e-002
3.575377e+003, 2.647643e-002
3.577306e+003, 2.670739e-002
3.579234e+003, 2.704408e-002
3.581163e+003, 2.756307e-002
3.583091e+003, 2.843687e-002
3.585020e+003, 2.932660e-002
3.586948e+003, 3.069746e-002
3.588876e+003, 3.159095e-002
3.590805e+003, 3.149343e-002
3.592733e+003, 3.162040e-002
3.594662e+003, 3.115735e-002
3.596590e+003, 3.096121e-002
3.598519e+003, 3.192393e-002
3.600447e+003, 3.165055e-002
3.602376e+003, 3.110257e-002
3.604304e+003, 3.134108e-002
3.606233e+003, 3.185517e-002
3.608161e+003, 3.194030e-002
3.610090e+003, 3.149658e-002
3.612018e+003, 3.115701e-002
3.613947e+003, 3.165192e-002
3.615875e+003, 3.191614e-002
3.617803e+003, 3.264751e-002
3.619732e+003, 3.340055e-002
3.621660e+003, 3.340118e-002
3.623589e+003, 3.342915e-002
3.625517e+003, 3.331638e-002
3.627446e+003, 3.417193e-002
3.629374e+003, 3.573168e-002
3.631303e+003, 3.577430e-002
3.633231e+003, 3.537564e-002
3.635160e+003, 3.479712e-002
3.637088e+003, 3.383548e-002
3.639017e+003, 3.225552e-002
3.640945e+003, 2.824326e-002
3.642874e+003, 2.419334e-002
3.644802e+003, 2.065491e-002
3.646730e+003, 1.784050e-002
3.648659e+003, 1.546782e-002
3.650587e+003, 1.305765e-002
3.652516e+003, 1.089804e-002
3.654444e+003, 1.016707e-002
3.656373e+003, 9.713076e-003
3.658301e+003, 8.655813e-003
3.660230e+003, 8.489302e-003
3.662158e+003, 7.803938e-003
3.664087e+003, 7.816711e-003
3.666015e+003, 8.162651e-003
3.667944e+003, 8.747304e-003
3.669872e+003, 9.064448e-003
3.671801e+003, 8.476877e-003
3.673729e+003, 8.279301e-003
3.675657e+003, 8.308499e-003
3.677586e+003, 7.311701e-003
3.679514e+003, 7.512122e-003
3.681443e+003, 8.552973e-003
3.683371e+003, 8.169892e-003
3.685300e+003, 7.186097e-003
3.687228e+003, 8.235550e-003
3.689157e+003, 8.898436e-003
3.691085e+003, 8.573900e-003
3.693014e+003, 8.292135e-003
3.694942e+003, 7.817945e-003
3.696871e+003, 7.657093e-003
3.698799e+003, 7.617618e-003
3.700728e+003, 7.500856e-003
3.702656e+003, 7.372884e-003
3.704584e+003, 7.758296e-003
3.706513e+003, 8.761241e-003
3.708441e+003, 9.385133e-003
3.710370e+003, 9.653055e-003
3.712298e+003, 9.567990e-003
3.714227e+003, 8.357828e-003
3.716155e+003, 7.931254e-003
3.718084e+003, 8.076264e-003
3.720012e+003, 7.674558e-003
3.721941e+003, 7.718808e-003
3.723869e+003, 7.272955e-003
3.725798e+003, 7.219679e-003
3.727726e+003, 7.601369e-003
3.729655e+003, 8.717661e-003
3.731583e+003, 9.598042e-003
3.733511e+003, 9.466745e-003
3.735440e+003, 9.499772e-003
3.737368e+003, 9.053577e-003
3.739297e+003, 8.751659e-003
3.741225e+003, 8.798298e-003
3.743154e+003, 9.221503e-003
3.745082e+003, 9.659353e-003
3.747011e+003, 9.569786e-003
3.748939e+003, 1.027558e-002
3.750868e+003, 1.103558e-002
3.752796e+003, 1.017566e-002
3.754725e+003, 8.597779e-003
3.756653e+003, 7.778164e-003
3.758582e+003, 8.400052e-003
3.760510e+003, 9.251605e-003
3.762438e+003, 8.849940e-003
3.764367e+003, 8.016979e-003
3.766295e+003, 7.524929e-003
3.768224e+003, 7.896716e-003
3.770152e+003, 8.224015e-003
3.772081e+003, 8.183379e-003
3.774009e+003, 7.973428e-003
3.775938e+003, 6.837095e-003
3.777866e+003, 7.098793e-003
3.779795e+003, 8.422787e-003
3.781723e+003, 8.315499e-003
3.783652e+003, 8.003499e-003
3.785580e+003, 7.853813e-003
3.787509e+003, 7.635520e-003
3.789437e+003, 7.465086e-003
3.791365e+003, 8.128762e-003
3.793294e+003, 8.285485e-003
3.795222e+003, 7.887463e-003
3.797151e+003, 7.785535e-003
3.799079e+003, 7.922798e-003
3.801008e+003, 8.982576e-003
3.802936e+003, 8.854111e-003
3.804865e+003, 8.461419e-003
3.806793e+003, 9.291898e-003
3.808722e+003, 8.771918e-003
3.810650e+003, 8.434817e-003
3.812579e+003, 8.319355e-003
3.814507e+003, 9.032016e-003
3.816436e+003, 9.542697e-003
3.818364e+003, 8.914452e-003
3.820292e+003, 8.932062e-003
3.822221e+003, 8.880547e-003
3.824149e+003, 8.454254e-003
3.826078e+003, 7.931717e-003
3.828006e+003, 7.657527e-003
3.829935e+003, 8.195769e-003
3.831863e+003, 9.071962e-003
3.833792e+003, 9.074229e-003
3.835720e+003, 9.565480e-003
3.837649e+003, 1.007297e-002
3.839577e+003, 8.996849e-003
3.841506e+003, 8.191111e-003
3.843434e+003, 8.348031e-003
3.845363e+003, 8.558139e-003
3.847291e+003, 7.904991e-003
3.849219e+003, 7.657039e-003
3.851148e+003, 8.469822e-003
3.853076e+003, 9.786995e-003
3.855005e+003, 9.431029e-003
3.856933e+003, 8.271138e-003
3.858862e+003, 8.167216e-003
3.860790e+003, 7.912806e-003
3.862719e+003, 7.741109e-003
3.864647e+003, 8.484581e-003
3.866576e+003, 8.526028e-003
3.868504e+003, 8.244298e-003
3.870433e+003, 8.240032e-003
3.872361e+003, 8.368051e-003
3.874290e+003, 8.744199e-003
3.876218e+003, 8.399748e-003
3.878146e+003, 7.359755e-003
3.880075e+003, 7.112285e-003
3.882003e+003, 8.215548e-003
3.883932e+003, 9.391407e-003
3.885860e+003, 1.005146e-002
3.887789e+003, 9.228976e-003
3.889717e+003, 8.699734e-003
3.891646e+003, 8.696400e-003
3.893574e+003, 8.589840e-003
3.895503e+003, 8.319218e-003
3.897431e+003, 7.387273e-003
3.899360e+003, 7.408058e-003
3.901288e+003, 8.048409e-003
3.903217e+003, 8.058494e-003
3.905145e+003, 8.218494e-003
3.907073e+003, 8.332740e-003
3.909002e+003, 8.379155e-003
3.910930e+003, 8.337319e-003
3.912859e+003, 8.688941e-003
3.914787e+003, 8.139730e-003
3.916716e+003, 7.470229e-003
3.918644e+003, 7.565198e-003
3.920573e+003, 8.026326e-003
3.922501e+003, 8.818130e-003
3.924430e+003, 8.683398e-003
3.926358e+003, 8.680604e-003
3.928287e+003, 8.625606e-003
3.930215e+003, 8.034683e-003
3.932144e+003, 7.889796e-003
3.934072e+003, 7.962287e-003
3.936000e+003, 8.348432e-003
3.937929e+003, 8.149695e-003
3.939857e+003, 7.501910e-003
3.941786e+003, 7.175825e-003
3.943714e+003, 8.016462e-003
3.945643e+003, 8.883033e-003
3.947571e+003, 8.011948e-003
3.949500e+003, 7.209054e-003
3.951428e+003, 6.971591e-003
3.953357e+003, 6.957106e-003
3.955285e+003, 7.281602e-003
3.957214e+003, 7.966180e-003
3.959142e+003, 7.816401e-003
3.961071e+003, 8.036314e-003
3.962999e+003, 8.944150e-003
3.964927e+003, 8.966330e-003
3.966856e+003, 7.717289e-003
3.968784e+003, 8.058438e-003
3.970713e+003, 8.871632e-003
3.972641e+003, 8.576948e-003
3.974570e+003, 7.536394e-003
3.976498e+003, 7.611115e-003
3.978427e+003, 8.400138e-003
3.980355e+003, 8.487174e-003
3.982284e+003, 7.879054e-003
3.984212e+003, 7.831416e-003
3.986141e+003, 7.875010e-003
3.988069e+003, 8.268731e-003
3.989998e+003, 8.915382e-003
3.991926e+003, 8.739952e-003
3.993854e+003, 8.285247e-003
3.995783e+003, 8.262908e-003
3.997711e+003, 7.834398e-003
3.999640e+003, 7.531887e-003
##END=



