##NAMES=Inyoite
##RRUFFID=R050157
##IDEAL CHEMISTRY=CaB_3_O_3_(OH)_5_&#183;4H_2_O
##LOCALITY=Sijes, Salta, Argentina
##OWNER=RRUFF
##SOURCE=Jim McGlasson
##DESCRIPTION=Group of colorless tabular crystals
##STATUS=The identification of this mineral has been confirmed by X-ray diffraction and chemical analysis
##URL=rruff.info/R050157
##MEASURED CHEMISTRY=(Ca_0.986_H_0.014_)(B_0.995_Si_0.005_)_3_O_3_(OH)_5_ Â·4H_2_O
3.741225e+002, 1.057753e-001
3.760510e+002, 1.018185e-001
3.779795e+002, 9.053573e-002
3.799079e+002, 7.730013e-002
3.818364e+002, 7.697581e-002
3.837649e+002, 8.385933e-002
3.856933e+002, 8.730841e-002
3.876218e+002, 8.253852e-002
3.895503e+002, 8.014619e-002
3.914787e+002, 7.752652e-002
3.934072e+002, 7.935376e-002
3.953357e+002, 8.384238e-002
3.972641e+002, 8.698902e-002
3.991926e+002, 8.914258e-002
4.011211e+002, 9.256450e-002
4.030495e+002, 9.186675e-002
4.049780e+002, 9.567786e-002
4.069065e+002, 9.907199e-002
4.088349e+002, 9.643332e-002
4.107634e+002, 9.494406e-002
4.126919e+002, 9.506245e-002
4.146203e+002, 9.536392e-002
4.165488e+002, 9.373098e-002
4.184773e+002, 9.033342e-002
4.204057e+002, 8.930431e-002
4.223342e+002, 8.974157e-002
4.242627e+002, 9.040471e-002
4.261911e+002, 9.196796e-002
4.281196e+002, 9.379531e-002
4.300481e+002, 9.638608e-002
4.319765e+002, 9.923320e-002
4.339050e+002, 1.010398e-001
4.358335e+002, 1.037950e-001
4.377619e+002, 1.070095e-001
4.396904e+002, 1.104793e-001
4.416189e+002, 1.140494e-001
4.435473e+002, 1.178415e-001
4.454758e+002, 1.223399e-001
4.474043e+002, 1.275432e-001
4.493327e+002, 1.319714e-001
4.512612e+002, 1.362856e-001
4.531897e+002, 1.410117e-001
4.551181e+002, 1.467603e-001
4.570466e+002, 1.513090e-001
4.589751e+002, 1.545655e-001
4.609035e+002, 1.571054e-001
4.628320e+002, 1.577732e-001
4.647605e+002, 1.557203e-001
4.666889e+002, 1.519348e-001
4.686174e+002, 1.459796e-001
4.705459e+002, 1.399717e-001
4.724743e+002, 1.352813e-001
4.744028e+002, 1.326016e-001
4.763313e+002, 1.315459e-001
4.782597e+002, 1.320386e-001
4.801882e+002, 1.329514e-001
4.821167e+002, 1.332630e-001
4.840451e+002, 1.339374e-001
4.859736e+002, 1.345551e-001
4.879021e+002, 1.342795e-001
4.898305e+002, 1.340192e-001
4.917590e+002, 1.320540e-001
4.936875e+002, 1.287130e-001
4.956159e+002, 1.241326e-001
4.975444e+002, 1.192575e-001
4.994729e+002, 1.136269e-001
5.014013e+002, 1.093081e-001
5.033298e+002, 1.065127e-001
5.052583e+002, 1.047780e-001
5.071867e+002, 1.041270e-001
5.091152e+002, 1.036019e-001
5.110437e+002, 1.036367e-001
5.129721e+002, 1.045828e-001
5.149006e+002, 1.061289e-001
5.168290e+002, 1.085793e-001
5.187575e+002, 1.120636e-001
5.206860e+002, 1.158721e-001
5.226144e+002, 1.203372e-001
5.245429e+002, 1.263888e-001
5.264714e+002, 1.331159e-001
5.283998e+002, 1.409192e-001
5.303283e+002, 1.504953e-001
5.322568e+002, 1.602522e-001
5.341852e+002, 1.693373e-001
5.361137e+002, 1.762915e-001
5.380422e+002, 1.802157e-001
5.399706e+002, 1.815886e-001
5.418991e+002, 1.800712e-001
5.438276e+002, 1.762472e-001
5.457560e+002, 1.713533e-001
5.476845e+002, 1.661887e-001
5.496130e+002, 1.617114e-001
5.515414e+002, 1.577079e-001
5.534699e+002, 1.538963e-001
5.553984e+002, 1.499199e-001
5.573268e+002, 1.462465e-001
5.592553e+002, 1.433151e-001
5.611838e+002, 1.411926e-001
5.631122e+002, 1.396047e-001
5.650407e+002, 1.384555e-001
5.669692e+002, 1.370689e-001
5.688976e+002, 1.353935e-001
5.708261e+002, 1.336410e-001
5.727546e+002, 1.312379e-001
5.746830e+002, 1.288606e-001
5.766115e+002, 1.272540e-001
5.785400e+002, 1.263439e-001
5.804684e+002, 1.250658e-001
5.823969e+002, 1.232191e-001
5.843254e+002, 1.209264e-001
5.862538e+002, 1.188640e-001
5.881823e+002, 1.159374e-001
5.901108e+002, 1.123644e-001
5.920392e+002, 1.090396e-001
5.939677e+002, 1.057519e-001
5.958962e+002, 1.026090e-001
5.978246e+002, 9.961065e-002
5.997531e+002, 9.744287e-002
6.016816e+002, 9.627662e-002
6.036100e+002, 9.572949e-002
6.055385e+002, 9.589207e-002
6.074670e+002, 9.642090e-002
6.093954e+002, 9.633783e-002
6.113239e+002, 9.567477e-002
6.132524e+002, 9.429409e-002
6.151808e+002, 9.246152e-002
6.171093e+002, 9.102833e-002
6.190378e+002, 9.024701e-002
6.209662e+002, 8.991117e-002
6.228947e+002, 9.048334e-002
6.248232e+002, 9.106611e-002
6.267516e+002, 9.192942e-002
6.286801e+002, 9.338250e-002
6.306086e+002, 9.501726e-002
6.325370e+002, 9.664530e-002
6.344655e+002, 9.846932e-002
6.363940e+002, 1.001361e-001
6.383224e+002, 1.018411e-001
6.402509e+002, 1.035994e-001
6.421794e+002, 1.049709e-001
6.441078e+002, 1.064371e-001
6.460363e+002, 1.079509e-001
6.479648e+002, 1.096198e-001
6.498932e+002, 1.113615e-001
6.518217e+002, 1.132829e-001
6.537502e+002, 1.153578e-001
6.556786e+002, 1.175271e-001
6.576071e+002, 1.199839e-001
6.595356e+002, 1.227890e-001
6.614641e+002, 1.259516e-001
6.633925e+002, 1.292329e-001
6.653210e+002, 1.328929e-001
6.672495e+002, 1.368503e-001
6.691779e+002, 1.408559e-001
6.711064e+002, 1.448379e-001
6.730349e+002, 1.492205e-001
6.749633e+002, 1.536050e-001
6.768918e+002, 1.574430e-001
6.788203e+002, 1.607057e-001
6.807487e+002, 1.637225e-001
6.826772e+002, 1.658499e-001
6.846057e+002, 1.673985e-001
6.865341e+002, 1.685445e-001
6.884626e+002, 1.694007e-001
6.903911e+002, 1.704604e-001
6.923195e+002, 1.716385e-001
6.942480e+002, 1.724221e-001
6.961765e+002, 1.730942e-001
6.981049e+002, 1.735884e-001
7.000334e+002, 1.738497e-001
7.019619e+002, 1.738285e-001
7.038903e+002, 1.741986e-001
7.058188e+002, 1.740982e-001
7.077473e+002, 1.736489e-001
7.096757e+002, 1.729464e-001
7.116042e+002, 1.721474e-001
7.135327e+002, 1.709097e-001
7.154611e+002, 1.692059e-001
7.173896e+002, 1.675838e-001
7.193181e+002, 1.658317e-001
7.212465e+002, 1.638808e-001
7.231750e+002, 1.623908e-001
7.251035e+002, 1.616964e-001
7.270319e+002, 1.610229e-001
7.289604e+002, 1.592605e-001
7.308889e+002, 1.545863e-001
7.328173e+002, 1.462089e-001
7.347458e+002, 1.372814e-001
7.366743e+002, 1.304029e-001
7.386027e+002, 1.259246e-001
7.405312e+002, 1.231078e-001
7.424597e+002, 1.212944e-001
7.443881e+002, 1.200058e-001
7.463166e+002, 1.189954e-001
7.482451e+002, 1.178010e-001
7.501735e+002, 1.161652e-001
7.521020e+002, 1.140137e-001
7.540305e+002, 1.117623e-001
7.559589e+002, 1.095553e-001
7.578874e+002, 1.072812e-001
7.598159e+002, 1.052074e-001
7.617443e+002, 1.035629e-001
7.636728e+002, 1.023198e-001
7.656013e+002, 1.017046e-001
7.675297e+002, 1.018912e-001
7.694582e+002, 1.027069e-001
7.713867e+002, 1.038965e-001
7.733151e+002, 1.055316e-001
7.752436e+002, 1.084096e-001
7.771721e+002, 1.124628e-001
7.791005e+002, 1.172544e-001
7.810290e+002, 1.228097e-001
7.829575e+002, 1.291731e-001
7.848859e+002, 1.364589e-001
7.868144e+002, 1.450398e-001
7.887429e+002, 1.550783e-001
7.906713e+002, 1.665020e-001
7.925998e+002, 1.790915e-001
7.945283e+002, 1.930360e-001
7.964567e+002, 2.079915e-001
7.983852e+002, 2.223444e-001
8.003137e+002, 2.338717e-001
8.022421e+002, 2.393589e-001
8.041706e+002, 2.365033e-001
8.060991e+002, 2.250878e-001
8.080275e+002, 2.074993e-001
8.099560e+002, 1.871837e-001
8.118845e+002, 1.663356e-001
8.138129e+002, 1.464897e-001
8.157414e+002, 1.289968e-001
8.176699e+002, 1.144349e-001
8.195983e+002, 1.031718e-001
8.215268e+002, 9.521142e-002
8.234553e+002, 9.002467e-002
8.253837e+002, 8.695838e-002
8.273122e+002, 8.566470e-002
8.292407e+002, 8.570612e-002
8.311691e+002, 8.692548e-002
8.330976e+002, 8.881227e-002
8.350261e+002, 9.159388e-002
8.369545e+002, 9.503406e-002
8.388830e+002, 9.912949e-002
8.408115e+002, 1.037393e-001
8.427399e+002, 1.087957e-001
8.446684e+002, 1.145577e-001
8.465969e+002, 1.206744e-001
8.485253e+002, 1.270346e-001
8.504538e+002, 1.339565e-001
8.523823e+002, 1.411463e-001
8.543107e+002, 1.484942e-001
8.562392e+002, 1.557962e-001
8.581677e+002, 1.635355e-001
8.600961e+002, 1.709984e-001
8.620246e+002, 1.781360e-001
8.639531e+002, 1.847087e-001
8.658815e+002, 1.908264e-001
8.678100e+002, 1.963513e-001
8.697385e+002, 2.011138e-001
8.716669e+002, 2.054449e-001
8.735954e+002, 2.094877e-001
8.755239e+002, 2.132034e-001
8.774523e+002, 2.170396e-001
8.793808e+002, 2.214149e-001
8.813093e+002, 2.264033e-001
8.832377e+002, 2.315709e-001
8.851662e+002, 2.369213e-001
8.870947e+002, 2.414984e-001
8.890231e+002, 2.444838e-001
8.909516e+002, 2.448269e-001
8.928801e+002, 2.415707e-001
8.948085e+002, 2.346796e-001
8.967370e+002, 2.244508e-001
8.986655e+002, 2.118638e-001
9.005939e+002, 1.984282e-001
9.025224e+002, 1.851659e-001
9.044509e+002, 1.735385e-001
9.063793e+002, 1.643920e-001
9.083078e+002, 1.578738e-001
9.102363e+002, 1.538909e-001
9.121647e+002, 1.521361e-001
9.140932e+002, 1.518895e-001
9.160217e+002, 1.527512e-001
9.179501e+002, 1.543359e-001
9.198786e+002, 1.562922e-001
9.218071e+002, 1.581346e-001
9.237355e+002, 1.598546e-001
9.256640e+002, 1.613123e-001
9.275925e+002, 1.622984e-001
9.295209e+002, 1.627585e-001
9.314494e+002, 1.630754e-001
9.333779e+002, 1.637371e-001
9.353063e+002, 1.646706e-001
9.372348e+002, 1.665339e-001
9.391633e+002, 1.697450e-001
9.410917e+002, 1.738474e-001
9.430202e+002, 1.792580e-001
9.449487e+002, 1.865852e-001
9.468771e+002, 1.956198e-001
9.488056e+002, 2.059609e-001
9.507341e+002, 2.167955e-001
9.526625e+002, 2.261327e-001
9.545910e+002, 2.328954e-001
9.565195e+002, 2.361383e-001
9.584479e+002, 2.359531e-001
9.603764e+002, 2.332265e-001
9.623049e+002, 2.287365e-001
9.642333e+002, 2.232927e-001
9.661618e+002, 2.177180e-001
9.680903e+002, 2.127122e-001
9.700187e+002, 2.085513e-001
9.719472e+002, 2.049847e-001
9.738757e+002, 2.021118e-001
9.758041e+002, 1.996182e-001
9.777326e+002, 1.975477e-001
9.796611e+002, 1.953181e-001
9.815895e+002, 1.929380e-001
9.835180e+002, 1.905077e-001
9.854465e+002, 1.879337e-001
9.873749e+002, 1.852299e-001
9.893034e+002, 1.828461e-001
9.912319e+002, 1.813579e-001
9.931603e+002, 1.812398e-001
9.950888e+002, 1.825793e-001
9.970173e+002, 1.855858e-001
9.989457e+002, 1.899080e-001
1.000874e+003, 1.946894e-001
1.002803e+003, 1.984880e-001
1.004731e+003, 2.004881e-001
1.006660e+003, 1.996902e-001
1.008588e+003, 1.957281e-001
1.010517e+003, 1.893558e-001
1.012445e+003, 1.814496e-001
1.014373e+003, 1.726581e-001
1.016302e+003, 1.635746e-001
1.018230e+003, 1.546429e-001
1.020159e+003, 1.465087e-001
1.022087e+003, 1.393920e-001
1.024016e+003, 1.338394e-001
1.025944e+003, 1.301041e-001
1.027873e+003, 1.277366e-001
1.029801e+003, 1.265313e-001
1.031730e+003, 1.263675e-001
1.033658e+003, 1.272576e-001
1.035587e+003, 1.290348e-001
1.037515e+003, 1.313976e-001
1.039443e+003, 1.343385e-001
1.041372e+003, 1.380995e-001
1.043300e+003, 1.429655e-001
1.045229e+003, 1.487527e-001
1.047157e+003, 1.554422e-001
1.049086e+003, 1.631335e-001
1.051014e+003, 1.713126e-001
1.052943e+003, 1.793686e-001
1.054871e+003, 1.868584e-001
1.056800e+003, 1.929677e-001
1.058728e+003, 1.970311e-001
1.060657e+003, 1.985678e-001
1.062585e+003, 1.977298e-001
1.064514e+003, 1.948630e-001
1.066442e+003, 1.900975e-001
1.068370e+003, 1.839660e-001
1.070299e+003, 1.775162e-001
1.072227e+003, 1.710111e-001
1.074156e+003, 1.649161e-001
1.076084e+003, 1.599984e-001
1.078013e+003, 1.564944e-001
1.079941e+003, 1.540769e-001
1.081870e+003, 1.530314e-001
1.083798e+003, 1.532747e-001
1.085727e+003, 1.546655e-001
1.087655e+003, 1.566358e-001
1.089584e+003, 1.589304e-001
1.091512e+003, 1.614448e-001
1.093441e+003, 1.641774e-001
1.095369e+003, 1.665185e-001
1.097297e+003, 1.684624e-001
1.099226e+003, 1.699965e-001
1.101154e+003, 1.708699e-001
1.103083e+003, 1.709254e-001
1.105011e+003, 1.704066e-001
1.106940e+003, 1.690448e-001
1.108868e+003, 1.671433e-001
1.110797e+003, 1.647888e-001
1.112725e+003, 1.619947e-001
1.114654e+003, 1.585223e-001
1.116582e+003, 1.546895e-001
1.118511e+003, 1.507999e-001
1.120439e+003, 1.469164e-001
1.122368e+003, 1.430734e-001
1.124296e+003, 1.393964e-001
1.126224e+003, 1.358583e-001
1.128153e+003, 1.326334e-001
1.130081e+003, 1.298349e-001
1.132010e+003, 1.275826e-001
1.133938e+003, 1.256971e-001
1.135867e+003, 1.243156e-001
1.137795e+003, 1.237920e-001
1.139724e+003, 1.241023e-001
1.141652e+003, 1.250573e-001
1.143581e+003, 1.267174e-001
1.145509e+003, 1.291695e-001
1.147438e+003, 1.322675e-001
1.149366e+003, 1.359825e-001
1.151295e+003, 1.403429e-001
1.153223e+003, 1.451425e-001
1.155151e+003, 1.505851e-001
1.157080e+003, 1.561513e-001
1.159008e+003, 1.615315e-001
1.160937e+003, 1.664163e-001
1.162865e+003, 1.705800e-001
1.164794e+003, 1.736482e-001
1.166722e+003, 1.754540e-001
1.168651e+003, 1.757082e-001
1.170579e+003, 1.742784e-001
1.172508e+003, 1.710510e-001
1.174436e+003, 1.660806e-001
1.176365e+003, 1.600038e-001
1.178293e+003, 1.530153e-001
1.180222e+003, 1.452403e-001
1.182150e+003, 1.371336e-001
1.184078e+003, 1.291313e-001
1.186007e+003, 1.213999e-001
1.187935e+003, 1.142247e-001
1.189864e+003, 1.078670e-001
1.191792e+003, 1.024846e-001
1.193721e+003, 9.815934e-002
1.195649e+003, 9.495684e-002
1.197578e+003, 9.270202e-002
1.199506e+003, 9.124420e-002
1.201435e+003, 9.022773e-002
1.203363e+003, 8.931983e-002
1.205292e+003, 8.874449e-002
1.207220e+003, 8.835177e-002
1.209149e+003, 8.801026e-002
1.211077e+003, 8.761883e-002
1.213005e+003, 8.739065e-002
1.214934e+003, 8.719129e-002
1.216862e+003, 8.682755e-002
1.218791e+003, 8.638319e-002
1.220719e+003, 8.557545e-002
1.222648e+003, 8.402150e-002
1.224576e+003, 8.202768e-002
1.226505e+003, 7.980292e-002
1.228433e+003, 7.748424e-002
1.230362e+003, 7.503289e-002
1.232290e+003, 7.266911e-002
1.234219e+003, 7.040303e-002
1.236147e+003, 6.844265e-002
1.238076e+003, 6.656566e-002
1.240004e+003, 6.470755e-002
1.241932e+003, 6.305593e-002
1.243861e+003, 6.143556e-002
1.245789e+003, 5.979170e-002
1.247718e+003, 5.809867e-002
1.249646e+003, 5.636192e-002
1.251575e+003, 5.452153e-002
1.253503e+003, 5.246378e-002
1.255432e+003, 5.043249e-002
1.257360e+003, 4.864116e-002
1.259289e+003, 4.692503e-002
1.261217e+003, 4.521667e-002
1.263146e+003, 4.379209e-002
1.265074e+003, 4.260144e-002
1.267003e+003, 4.156786e-002
1.268931e+003, 4.068065e-002
1.270859e+003, 3.996618e-002
1.272788e+003, 3.948968e-002
1.274716e+003, 3.924164e-002
1.276645e+003, 3.911615e-002
1.278573e+003, 3.912168e-002
1.280502e+003, 3.931297e-002
1.282430e+003, 3.952903e-002
1.284359e+003, 3.996511e-002
1.286287e+003, 4.071663e-002
1.288216e+003, 4.164005e-002
1.290144e+003, 4.276312e-002
1.292073e+003, 4.404656e-002
1.294001e+003, 4.551535e-002
1.295930e+003, 4.720705e-002
1.297858e+003, 4.936723e-002
1.299786e+003, 5.195441e-002
1.301715e+003, 5.482982e-002
1.303643e+003, 5.813190e-002
1.305572e+003, 6.212072e-002
1.307500e+003, 6.696380e-002
1.309429e+003, 7.259250e-002
1.311357e+003, 7.901447e-002
1.313286e+003, 8.658007e-002
1.315214e+003, 9.503838e-002
1.317143e+003, 1.043092e-001
1.319071e+003, 1.142530e-001
1.321000e+003, 1.244644e-001
1.322928e+003, 1.343360e-001
1.324857e+003, 1.431800e-001
1.326785e+003, 1.499276e-001
1.328714e+003, 1.542898e-001
1.330642e+003, 1.560705e-001
1.332570e+003, 1.554211e-001
1.334499e+003, 1.528408e-001
1.336427e+003, 1.488115e-001
1.338356e+003, 1.434620e-001
1.340284e+003, 1.372581e-001
1.342213e+003, 1.306893e-001
1.344141e+003, 1.240942e-001
1.346070e+003, 1.175209e-001
1.347998e+003, 1.112126e-001
1.349927e+003, 1.054558e-001
1.351855e+003, 1.002467e-001
1.353784e+003, 9.572084e-002
1.355712e+003, 9.191854e-002
1.357641e+003, 8.893424e-002
1.359569e+003, 8.676372e-002
1.361497e+003, 8.522098e-002
1.363426e+003, 8.436620e-002
1.365354e+003, 8.399642e-002
1.367283e+003, 8.443763e-002
1.369211e+003, 8.545563e-002
1.371140e+003, 8.705994e-002
1.373068e+003, 8.935905e-002
1.374997e+003, 9.224151e-002
1.376925e+003, 9.531111e-002
1.378854e+003, 9.803972e-002
1.380782e+003, 9.995001e-002
1.382711e+003, 1.009734e-001
1.384639e+003, 1.009889e-001
1.386568e+003, 1.002290e-001
1.388496e+003, 9.882573e-002
1.390424e+003, 9.725433e-002
1.392353e+003, 9.594090e-002
1.394281e+003, 9.541652e-002
1.396210e+003, 9.565578e-002
1.398138e+003, 9.680044e-002
1.400067e+003, 9.906838e-002
1.401995e+003, 1.024709e-001
1.403924e+003, 1.071269e-001
1.405852e+003, 1.129807e-001
1.407781e+003, 1.199579e-001
1.409709e+003, 1.278186e-001
1.411638e+003, 1.358351e-001
1.413566e+003, 1.433857e-001
1.415495e+003, 1.499035e-001
1.417423e+003, 1.546596e-001
1.419351e+003, 1.567345e-001
1.421280e+003, 1.560443e-001
1.423208e+003, 1.531082e-001
1.425137e+003, 1.484091e-001
1.427065e+003, 1.425908e-001
1.428994e+003, 1.366677e-001
1.430922e+003, 1.305265e-001
1.432851e+003, 1.241372e-001
1.434779e+003, 1.174789e-001
1.436708e+003, 1.100466e-001
1.438636e+003, 1.014789e-001
1.440565e+003, 9.271116e-002
1.442493e+003, 8.408751e-002
1.444422e+003, 7.590683e-002
1.446350e+003, 6.868168e-002
1.448278e+003, 6.270783e-002
1.450207e+003, 5.782013e-002
1.452135e+003, 5.408181e-002
1.454064e+003, 5.151240e-002
1.455992e+003, 5.008403e-002
1.457921e+003, 4.921425e-002
1.459849e+003, 4.905375e-002
1.461778e+003, 5.003128e-002
1.463706e+003, 5.195363e-002
1.465635e+003, 5.420794e-002
1.467563e+003, 5.654110e-002
1.469492e+003, 5.863557e-002
1.471420e+003, 6.007671e-002
1.473349e+003, 6.033023e-002
1.475277e+003, 5.918027e-002
1.477205e+003, 5.659710e-002
1.479134e+003, 5.279881e-002
1.481062e+003, 4.833283e-002
1.482991e+003, 4.357778e-002
1.484919e+003, 3.908919e-002
1.486848e+003, 3.516840e-002
1.488776e+003, 3.177429e-002
1.490705e+003, 2.891076e-002
1.492633e+003, 2.651028e-002
1.494562e+003, 2.483883e-002
1.496490e+003, 2.362337e-002
1.498419e+003, 2.247758e-002
1.500347e+003, 2.150889e-002
1.502276e+003, 2.083228e-002
1.504204e+003, 2.052223e-002
1.506132e+003, 2.037431e-002
1.508061e+003, 1.983572e-002
1.509989e+003, 1.911357e-002
1.511918e+003, 1.864820e-002
1.513846e+003, 1.840288e-002
1.515775e+003, 1.835650e-002
1.517703e+003, 1.820816e-002
1.519632e+003, 1.820976e-002
1.521560e+003, 1.830267e-002
1.523489e+003, 1.807744e-002
1.525417e+003, 1.800377e-002
1.527346e+003, 1.789551e-002
1.529274e+003, 1.789781e-002
1.531203e+003, 1.787045e-002
1.533131e+003, 1.787767e-002
1.535059e+003, 1.787471e-002
1.536988e+003, 1.804459e-002
1.538916e+003, 1.849725e-002
1.540845e+003, 1.855276e-002
1.542773e+003, 1.834310e-002
1.544702e+003, 1.826028e-002
1.546630e+003, 1.821372e-002
1.548559e+003, 1.815950e-002
1.550487e+003, 1.817463e-002
1.552416e+003, 1.826948e-002
1.554344e+003, 1.848900e-002
1.556273e+003, 1.880556e-002
1.558201e+003, 1.929627e-002
1.560130e+003, 1.925149e-002
1.562058e+003, 1.880571e-002
1.563986e+003, 1.879873e-002
1.565915e+003, 1.878021e-002
1.567843e+003, 1.892506e-002
1.569772e+003, 1.928598e-002
1.571700e+003, 1.943580e-002
1.573629e+003, 1.966390e-002
1.575557e+003, 1.999985e-002
1.577486e+003, 1.984107e-002
1.579414e+003, 1.965033e-002
1.581343e+003, 1.990363e-002
1.583271e+003, 2.014530e-002
1.585200e+003, 2.018235e-002
1.587128e+003, 2.027320e-002
1.589057e+003, 2.061749e-002
1.590985e+003, 2.106406e-002
1.592913e+003, 2.128089e-002
1.594842e+003, 2.141152e-002
1.596770e+003, 2.184544e-002
1.598699e+003, 2.214089e-002
1.600627e+003, 2.227445e-002
1.602556e+003, 2.259203e-002
1.604484e+003, 2.296073e-002
1.606413e+003, 2.333300e-002
1.608341e+003, 2.381880e-002
1.610270e+003, 2.413201e-002
1.612198e+003, 2.458017e-002
1.614127e+003, 2.525726e-002
1.616055e+003, 2.608639e-002
1.617984e+003, 2.657181e-002
1.619912e+003, 2.706290e-002
1.621840e+003, 2.820149e-002
1.623769e+003, 2.930873e-002
1.625697e+003, 3.022887e-002
1.627626e+003, 3.151970e-002
1.629554e+003, 3.304219e-002
1.631483e+003, 3.489145e-002
1.633411e+003, 3.714798e-002
1.635340e+003, 3.979178e-002
1.637268e+003, 4.257815e-002
1.639197e+003, 4.581470e-002
1.641125e+003, 4.963828e-002
1.643054e+003, 5.384540e-002
1.644982e+003, 5.821795e-002
1.646911e+003, 6.162444e-002
1.648839e+003, 6.301519e-002
1.650767e+003, 6.274386e-002
1.652696e+003, 6.081956e-002
1.654624e+003, 5.658500e-002
1.656553e+003, 5.181760e-002
1.658481e+003, 4.763959e-002
1.660410e+003, 4.412797e-002
1.662338e+003, 4.151895e-002
1.664267e+003, 3.932333e-002
1.666195e+003, 3.748421e-002
1.668124e+003, 3.633405e-002
1.670052e+003, 3.543470e-002
1.671981e+003, 3.455498e-002
1.673909e+003, 3.400897e-002
1.675838e+003, 3.374203e-002
1.677766e+003, 3.326645e-002
1.679694e+003, 3.312800e-002
1.681623e+003, 3.311009e-002
1.683551e+003, 3.314314e-002
1.685480e+003, 3.269559e-002
1.687408e+003, 3.195939e-002
1.689337e+003, 3.141910e-002
1.691265e+003, 3.084142e-002
1.693194e+003, 3.017259e-002
1.695122e+003, 2.979777e-002
1.697051e+003, 2.890068e-002
1.698979e+003, 2.798816e-002
1.700908e+003, 2.692312e-002
1.702836e+003, 2.545839e-002
1.704765e+003, 2.446867e-002
1.706693e+003, 2.346835e-002
1.708621e+003, 2.229611e-002
1.710550e+003, 2.126832e-002
1.712478e+003, 2.037662e-002
1.714407e+003, 1.954550e-002
1.716335e+003, 1.911755e-002
1.718264e+003, 1.857591e-002
1.720192e+003, 1.764140e-002
1.722121e+003, 1.687845e-002
1.724049e+003, 1.638971e-002
1.725978e+003, 1.603630e-002
1.727906e+003, 1.567043e-002
1.729835e+003, 1.516376e-002
1.731763e+003, 1.486484e-002
1.733692e+003, 1.490979e-002
1.735620e+003, 1.442869e-002
1.737548e+003, 1.386811e-002
1.739477e+003, 1.356409e-002
1.741405e+003, 1.311324e-002
1.743334e+003, 1.283235e-002
1.745262e+003, 1.258702e-002
1.747191e+003, 1.236980e-002
1.749119e+003, 1.219931e-002
1.751048e+003, 1.200996e-002
1.752976e+003, 1.169740e-002
1.754905e+003, 1.123620e-002
1.756833e+003, 1.119336e-002
1.758762e+003, 1.123715e-002
1.760690e+003, 1.127042e-002
1.762619e+003, 1.116035e-002
1.764547e+003, 1.077773e-002
1.766475e+003, 1.061334e-002
1.768404e+003, 1.045276e-002
1.770332e+003, 1.028097e-002
1.772261e+003, 1.032298e-002
1.774189e+003, 1.027790e-002
1.776118e+003, 9.994484e-003
1.778046e+003, 9.804225e-003
1.779975e+003, 1.004962e-002
1.781903e+003, 1.019718e-002
1.783832e+003, 1.021551e-002
1.785760e+003, 1.022654e-002
1.787689e+003, 9.975325e-003
1.789617e+003, 9.869563e-003
1.791546e+003, 9.985583e-003
1.793474e+003, 9.797653e-003
1.795402e+003, 9.618022e-003
1.797331e+003, 9.687370e-003
1.799259e+003, 9.851868e-003
1.801188e+003, 9.871711e-003
1.803116e+003, 9.761277e-003
1.805045e+003, 9.723444e-003
1.806973e+003, 9.609262e-003
1.808902e+003, 9.700209e-003
1.810830e+003, 9.586331e-003
1.812759e+003, 9.303104e-003
1.814687e+003, 9.242711e-003
1.816616e+003, 9.127567e-003
1.818544e+003, 9.134627e-003
1.820473e+003, 9.046681e-003
1.822401e+003, 9.053937e-003
1.824329e+003, 9.020712e-003
1.826258e+003, 8.985871e-003
1.828186e+003, 8.930402e-003
1.830115e+003, 8.855132e-003
1.832043e+003, 8.947020e-003
1.833972e+003, 9.094333e-003
1.835900e+003, 8.734929e-003
1.837829e+003, 8.534992e-003
1.839757e+003, 8.740267e-003
1.841686e+003, 9.009796e-003
1.843614e+003, 9.201739e-003
1.845543e+003, 9.023587e-003
1.847471e+003, 8.816369e-003
1.849400e+003, 8.804381e-003
1.851328e+003, 8.540234e-003
1.853256e+003, 8.173374e-003
1.855185e+003, 8.072827e-003
1.857113e+003, 8.254207e-003
1.859042e+003, 8.413201e-003
1.860970e+003, 8.640154e-003
1.862899e+003, 8.674188e-003
1.864827e+003, 8.521986e-003
1.866756e+003, 8.417107e-003
1.868684e+003, 8.534278e-003
1.870613e+003, 8.523607e-003
1.872541e+003, 8.190697e-003
1.874470e+003, 8.301336e-003
1.876398e+003, 8.077267e-003
1.878327e+003, 7.683270e-003
1.880255e+003, 7.792391e-003
1.882183e+003, 7.771487e-003
1.884112e+003, 7.573023e-003
1.886040e+003, 7.615190e-003
1.887969e+003, 7.902479e-003
1.889897e+003, 7.967130e-003
1.891826e+003, 8.135169e-003
1.893754e+003, 8.222257e-003
1.895683e+003, 7.719632e-003
1.897611e+003, 7.642556e-003
1.899540e+003, 7.482040e-003
1.901468e+003, 7.036017e-003
1.903397e+003, 6.936021e-003
1.905325e+003, 7.296524e-003
1.907254e+003, 7.842157e-003
1.909182e+003, 7.481696e-003
1.911110e+003, 7.220048e-003
1.913039e+003, 7.229798e-003
1.914967e+003, 6.978374e-003
1.916896e+003, 7.131623e-003
1.918824e+003, 7.353882e-003
1.920753e+003, 7.142043e-003
1.922681e+003, 6.994183e-003
1.924610e+003, 7.003393e-003
1.926538e+003, 7.348091e-003
1.928467e+003, 7.457266e-003
1.930395e+003, 7.439110e-003
1.932324e+003, 7.438236e-003
1.934252e+003, 7.405782e-003
1.936181e+003, 7.496646e-003
1.938109e+003, 7.513904e-003
1.940037e+003, 6.893719e-003
1.941966e+003, 6.753162e-003
1.943894e+003, 6.591034e-003
1.945823e+003, 6.707760e-003
1.947751e+003, 7.229019e-003
1.949680e+003, 7.625082e-003
1.951608e+003, 7.720632e-003
1.953537e+003, 7.338908e-003
1.955465e+003, 6.155073e-003
1.957394e+003, 6.145401e-003
1.959322e+003, 6.945574e-003
1.961251e+003, 7.444705e-003
1.963179e+003, 7.650763e-003
1.965108e+003, 7.286316e-003
1.967036e+003, 6.849933e-003
1.968964e+003, 6.682008e-003
1.970893e+003, 7.067764e-003
1.972821e+003, 7.107909e-003
1.974750e+003, 5.907869e-003
1.976678e+003, 5.553333e-003
1.978607e+003, 7.755641e-003
1.980535e+003, 9.231506e-003
1.982464e+003, 9.336397e-003
1.984392e+003, 8.980954e-003
1.986321e+003, 7.524720e-003
1.988249e+003, 6.699014e-003
1.990178e+003, 7.421220e-003
1.992106e+003, 8.577349e-003
1.994035e+003, 8.140721e-003
1.995963e+003, 8.543638e-003
1.997891e+003, 8.942829e-003
1.999820e+003, 8.143948e-003
2.001748e+003, 7.468095e-003
2.003677e+003, 7.170191e-003
2.005605e+003, 7.396919e-003
2.007534e+003, 8.661389e-003
2.009462e+003, 8.675861e-003
2.011391e+003, 8.325330e-003
2.013319e+003, 7.733905e-003
2.015248e+003, 7.808920e-003
2.017176e+003, 7.922949e-003
2.019105e+003, 7.569615e-003
2.021033e+003, 8.215697e-003
2.022962e+003, 8.392403e-003
2.024890e+003, 8.268699e-003
2.026818e+003, 8.271616e-003
2.028747e+003, 8.834474e-003
2.030675e+003, 8.870023e-003
2.032604e+003, 8.264676e-003
2.034532e+003, 8.581192e-003
2.036461e+003, 9.086170e-003
2.038389e+003, 1.032187e-002
2.040318e+003, 1.005416e-002
2.042246e+003, 9.460234e-003
2.044175e+003, 9.867731e-003
2.046103e+003, 1.017277e-002
2.048031e+003, 1.022758e-002
2.049960e+003, 1.103157e-002
2.051888e+003, 1.088188e-002
2.053817e+003, 1.032699e-002
2.055745e+003, 1.060604e-002
2.057674e+003, 1.093252e-002
2.059602e+003, 1.061373e-002
2.061531e+003, 1.006513e-002
2.063459e+003, 9.329646e-003
2.065388e+003, 9.267912e-003
2.067316e+003, 9.558406e-003
2.069245e+003, 1.049470e-002
2.071173e+003, 1.147091e-002
2.073102e+003, 1.153065e-002
2.075030e+003, 1.125190e-002
2.076958e+003, 1.048602e-002
2.078887e+003, 1.072228e-002
2.080815e+003, 1.173966e-002
2.082744e+003, 1.163083e-002
2.084672e+003, 1.114307e-002
2.086601e+003, 1.130542e-002
2.088529e+003, 1.178085e-002
2.090458e+003, 1.153017e-002
2.092386e+003, 1.160717e-002
2.094315e+003, 1.153300e-002
2.096243e+003, 1.181198e-002
2.098172e+003, 1.220285e-002
2.100100e+003, 1.211050e-002
2.102029e+003, 1.224934e-002
2.103957e+003, 1.287492e-002
2.105885e+003, 1.303175e-002
2.107814e+003, 1.269029e-002
2.109742e+003, 1.236930e-002
2.111671e+003, 1.261608e-002
2.113599e+003, 1.273583e-002
2.115528e+003, 1.278629e-002
2.117456e+003, 1.218631e-002
2.119385e+003, 1.187403e-002
2.121313e+003, 1.189423e-002
2.123242e+003, 1.264457e-002
2.125170e+003, 1.307366e-002
2.127099e+003, 1.208603e-002
2.129027e+003, 1.113509e-002
2.130956e+003, 1.117449e-002
2.132884e+003, 1.122537e-002
2.134813e+003, 1.149725e-002
2.136741e+003, 1.161490e-002
2.138669e+003, 1.158687e-002
2.140598e+003, 1.184443e-002
2.142526e+003, 1.195902e-002
2.144455e+003, 1.151262e-002
2.146383e+003, 1.140116e-002
2.148312e+003, 1.171002e-002
2.150240e+003, 1.203587e-002
2.152169e+003, 1.232753e-002
2.154097e+003, 1.225734e-002
2.156026e+003, 1.195727e-002
2.157954e+003, 1.216535e-002
2.159883e+003, 1.394264e-002
2.161811e+003, 1.449819e-002
2.163740e+003, 1.399236e-002
2.165668e+003, 1.505263e-002
2.167596e+003, 1.614067e-002
2.169525e+003, 1.441571e-002
2.171453e+003, 1.286536e-002
2.173382e+003, 1.373522e-002
2.175310e+003, 1.378123e-002
2.177239e+003, 1.293032e-002
2.179167e+003, 1.282433e-002
2.181096e+003, 1.402262e-002
2.183024e+003, 1.386698e-002
2.184953e+003, 1.346655e-002
2.186881e+003, 1.334831e-002
2.188810e+003, 1.341762e-002
2.190738e+003, 1.318219e-002
2.192667e+003, 1.343674e-002
2.194595e+003, 1.380567e-002
2.196523e+003, 1.415946e-002
2.198452e+003, 1.457751e-002
2.200380e+003, 1.510343e-002
2.202309e+003, 1.453476e-002
2.204237e+003, 1.425368e-002
2.206166e+003, 1.297233e-002
2.208094e+003, 1.214213e-002
2.210023e+003, 1.349696e-002
2.211951e+003, 1.434525e-002
2.213880e+003, 1.378176e-002
2.215808e+003, 1.336432e-002
2.217737e+003, 1.347055e-002
2.219665e+003, 1.408506e-002
2.221594e+003, 1.422533e-002
2.223522e+003, 1.453710e-002
2.225450e+003, 1.446603e-002
2.227379e+003, 1.471445e-002
2.229307e+003, 1.486825e-002
2.231236e+003, 1.410838e-002
2.233164e+003, 1.450459e-002
2.235093e+003, 1.464752e-002
2.237021e+003, 1.415044e-002
2.238950e+003, 1.438631e-002
2.240878e+003, 1.448194e-002
2.242807e+003, 1.414120e-002
2.244735e+003, 1.390570e-002
2.246664e+003, 1.402383e-002
2.248592e+003, 1.468354e-002
2.250521e+003, 1.514625e-002
2.252449e+003, 1.489621e-002
2.254377e+003, 1.476748e-002
2.256306e+003, 1.472527e-002
2.258234e+003, 1.415078e-002
2.260163e+003, 1.402036e-002
2.262091e+003, 1.423878e-002
2.264020e+003, 1.425048e-002
2.265948e+003, 1.466317e-002
2.267877e+003, 1.437794e-002
2.269805e+003, 1.449317e-002
2.271734e+003, 1.487492e-002
2.273662e+003, 1.482712e-002
2.275591e+003, 1.515005e-002
2.277519e+003, 1.536931e-002
2.279448e+003, 1.492679e-002
2.281376e+003, 1.482254e-002
2.283304e+003, 1.489361e-002
2.285233e+003, 1.492075e-002
2.287161e+003, 1.512448e-002
2.289090e+003, 1.497537e-002
2.291018e+003, 1.488385e-002
2.292947e+003, 1.447079e-002
2.294875e+003, 1.420828e-002
2.296804e+003, 1.409038e-002
2.298732e+003, 1.433993e-002
2.300661e+003, 1.470514e-002
2.302589e+003, 1.467241e-002
2.304518e+003, 1.468729e-002
2.306446e+003, 1.432281e-002
2.308375e+003, 1.437411e-002
2.310303e+003, 1.445682e-002
2.312231e+003, 1.432046e-002
2.314160e+003, 1.437398e-002
2.316088e+003, 1.443340e-002
2.318017e+003, 1.461152e-002
2.319945e+003, 1.523233e-002
2.321874e+003, 1.597695e-002
2.323802e+003, 1.614239e-002
2.325731e+003, 1.519661e-002
2.327659e+003, 1.468230e-002
2.329588e+003, 1.500738e-002
2.331516e+003, 1.524193e-002
2.333445e+003, 1.507910e-002
2.335373e+003, 1.509571e-002
2.337302e+003, 1.521452e-002
2.339230e+003, 1.511391e-002
2.341158e+003, 1.501561e-002
2.343087e+003, 1.512978e-002
2.345015e+003, 1.505534e-002
2.346944e+003, 1.505829e-002
2.348872e+003, 1.500697e-002
2.350801e+003, 1.499366e-002
2.352729e+003, 1.495616e-002
2.354658e+003, 1.485596e-002
2.356586e+003, 1.486003e-002
2.358515e+003, 1.506775e-002
2.360443e+003, 1.534195e-002
2.362372e+003, 1.539335e-002
2.364300e+003, 1.535470e-002
2.366229e+003, 1.522489e-002
2.368157e+003, 1.522828e-002
2.370085e+003, 1.534390e-002
2.372014e+003, 1.527619e-002
2.373942e+003, 1.496833e-002
2.375871e+003, 1.488587e-002
2.377799e+003, 1.500741e-002
2.379728e+003, 1.502453e-002
2.381656e+003, 1.482898e-002
2.383585e+003, 1.464993e-002
2.385513e+003, 1.472212e-002
2.387442e+003, 1.496976e-002
2.389370e+003, 1.513478e-002
2.391299e+003, 1.495322e-002
2.393227e+003, 1.497859e-002
2.395156e+003, 1.512823e-002
2.397084e+003, 1.508765e-002
2.399012e+003, 1.497241e-002
2.400941e+003, 1.517576e-002
2.402869e+003, 1.508252e-002
2.404798e+003, 1.479527e-002
2.406726e+003, 1.479418e-002
2.408655e+003, 1.477322e-002
2.410583e+003, 1.494662e-002
2.412512e+003, 1.528174e-002
2.414440e+003, 1.509358e-002
2.416369e+003, 1.508740e-002
2.418297e+003, 1.536184e-002
2.420226e+003, 1.522755e-002
2.422154e+003, 1.507275e-002
2.424083e+003, 1.505244e-002
2.426011e+003, 1.510958e-002
2.427939e+003, 1.508092e-002
2.429868e+003, 1.502638e-002
2.431796e+003, 1.496930e-002
2.433725e+003, 1.480181e-002
2.435653e+003, 1.500767e-002
2.437582e+003, 1.518956e-002
2.439510e+003, 1.536378e-002
2.441439e+003, 1.535688e-002
2.443367e+003, 1.522126e-002
2.445296e+003, 1.540021e-002
2.447224e+003, 1.541499e-002
2.449153e+003, 1.538047e-002
2.451081e+003, 1.573546e-002
2.453010e+003, 1.550381e-002
2.454938e+003, 1.560281e-002
2.456866e+003, 1.580318e-002
2.458795e+003, 1.538696e-002
2.460723e+003, 1.523999e-002
2.462652e+003, 1.573980e-002
2.464580e+003, 1.597133e-002
2.466509e+003, 1.595546e-002
2.468437e+003, 1.576084e-002
2.470366e+003, 1.573005e-002
2.472294e+003, 1.576419e-002
2.474223e+003, 1.571543e-002
2.476151e+003, 1.594682e-002
2.478080e+003, 1.611049e-002
2.480008e+003, 1.610819e-002
2.481937e+003, 1.612355e-002
2.483865e+003, 1.584116e-002
2.485793e+003, 1.542813e-002
2.487722e+003, 1.519332e-002
2.489650e+003, 1.577279e-002
2.491579e+003, 1.604311e-002
2.493507e+003, 1.552884e-002
2.495436e+003, 1.515291e-002
2.497364e+003, 1.501764e-002
2.499293e+003, 1.498322e-002
2.501221e+003, 1.513680e-002
2.503150e+003, 1.539113e-002
2.505078e+003, 1.553996e-002
2.507007e+003, 1.533314e-002
2.508935e+003, 1.519766e-002
2.510864e+003, 1.518683e-002
2.512792e+003, 1.529617e-002
2.514720e+003, 1.518120e-002
2.516649e+003, 1.486635e-002
2.518577e+003, 1.467476e-002
2.520506e+003, 1.433558e-002
2.522434e+003, 1.428169e-002
2.524363e+003, 1.482819e-002
2.526291e+003, 1.523936e-002
2.528220e+003, 1.496557e-002
2.530148e+003, 1.449882e-002
2.532077e+003, 1.477828e-002
2.534005e+003, 1.506631e-002
2.535934e+003, 1.494269e-002
2.537862e+003, 1.511560e-002
2.539791e+003, 1.536966e-002
2.541719e+003, 1.535615e-002
2.543647e+003, 1.518186e-002
2.545576e+003, 1.509181e-002
2.547504e+003, 1.535330e-002
2.549433e+003, 1.551122e-002
2.551361e+003, 1.523368e-002
2.553290e+003, 1.522393e-002
2.555218e+003, 1.546995e-002
2.557147e+003, 1.548283e-002
2.559075e+003, 1.553381e-002
2.561004e+003, 1.565336e-002
2.562932e+003, 1.547406e-002
2.564861e+003, 1.555474e-002
2.566789e+003, 1.561250e-002
2.568718e+003, 1.550040e-002
2.570646e+003, 1.560445e-002
2.572574e+003, 1.570521e-002
2.574503e+003, 1.569163e-002
2.576431e+003, 1.560099e-002
2.578360e+003, 1.547453e-002
2.580288e+003, 1.575302e-002
2.582217e+003, 1.616826e-002
2.584145e+003, 1.607715e-002
2.586074e+003, 1.574328e-002
2.588002e+003, 1.567834e-002
2.589931e+003, 1.557666e-002
2.591859e+003, 1.572273e-002
2.593788e+003, 1.631890e-002
2.595716e+003, 1.619092e-002
2.597645e+003, 1.581728e-002
2.599573e+003, 1.591079e-002
2.601501e+003, 1.614116e-002
2.603430e+003, 1.634400e-002
2.605358e+003, 1.680496e-002
2.607287e+003, 1.675366e-002
2.609215e+003, 1.643973e-002
2.611144e+003, 1.662580e-002
2.613072e+003, 1.695513e-002
2.615001e+003, 1.683063e-002
2.616929e+003, 1.670658e-002
2.618858e+003, 1.689222e-002
2.620786e+003, 1.692493e-002
2.622715e+003, 1.688413e-002
2.624643e+003, 1.696848e-002
2.626572e+003, 1.708697e-002
2.628500e+003, 1.696482e-002
2.630428e+003, 1.682522e-002
2.632357e+003, 1.689865e-002
2.634285e+003, 1.678277e-002
2.636214e+003, 1.673339e-002
2.638142e+003, 1.690389e-002
2.640071e+003, 1.709134e-002
2.641999e+003, 1.728209e-002
2.643928e+003, 1.733544e-002
2.645856e+003, 1.706859e-002
2.647785e+003, 1.685811e-002
2.649713e+003, 1.703612e-002
2.651642e+003, 1.739847e-002
2.653570e+003, 1.758253e-002
2.655499e+003, 1.758343e-002
2.657427e+003, 1.755206e-002
2.659355e+003, 1.758521e-002
2.661284e+003, 1.746646e-002
2.663212e+003, 1.740991e-002
2.665141e+003, 1.745049e-002
2.667069e+003, 1.736034e-002
2.668998e+003, 1.739911e-002
2.670926e+003, 1.734936e-002
2.672855e+003, 1.730078e-002
2.674783e+003, 1.720038e-002
2.676712e+003, 1.717455e-002
2.678640e+003, 1.731034e-002
2.680569e+003, 1.745408e-002
2.682497e+003, 1.783543e-002
2.684426e+003, 1.810371e-002
2.686354e+003, 1.837413e-002
2.688282e+003, 1.826601e-002
2.690211e+003, 1.829082e-002
2.692139e+003, 1.859989e-002
2.694068e+003, 1.877251e-002
2.695996e+003, 1.871098e-002
2.697925e+003, 1.872556e-002
2.699853e+003, 1.882596e-002
2.701782e+003, 1.913045e-002
2.703710e+003, 1.937169e-002
2.705639e+003, 1.947702e-002
2.707567e+003, 1.937957e-002
2.709496e+003, 1.950154e-002
2.711424e+003, 1.989382e-002
2.713353e+003, 2.004899e-002
2.715281e+003, 1.990972e-002
2.717209e+003, 2.023670e-002
2.719138e+003, 2.067760e-002
2.721066e+003, 2.065504e-002
2.722995e+003, 2.051270e-002
2.724923e+003, 2.040352e-002
2.726852e+003, 2.045970e-002
2.728780e+003, 2.052599e-002
2.730709e+003, 2.056639e-002
2.732637e+003, 2.096025e-002
2.734566e+003, 2.107596e-002
2.736494e+003, 2.124386e-002
2.738423e+003, 2.142799e-002
2.740351e+003, 2.158724e-002
2.742280e+003, 2.168286e-002
2.744208e+003, 2.170249e-002
2.746136e+003, 2.172609e-002
2.748065e+003, 2.171569e-002
2.749993e+003, 2.186215e-002
2.751922e+003, 2.216578e-002
2.753850e+003, 2.212584e-002
2.755779e+003, 2.212369e-002
2.757707e+003, 2.230665e-002
2.759636e+003, 2.224802e-002
2.761564e+003, 2.236212e-002
2.763493e+003, 2.291109e-002
2.765421e+003, 2.290228e-002
2.767350e+003, 2.289331e-002
2.769278e+003, 2.298747e-002
2.771207e+003, 2.284619e-002
2.773135e+003, 2.277671e-002
2.775063e+003, 2.314110e-002
2.776992e+003, 2.346299e-002
2.778920e+003, 2.355809e-002
2.780849e+003, 2.334616e-002
2.782777e+003, 2.350705e-002
2.784706e+003, 2.418030e-002
2.786634e+003, 2.478704e-002
2.788563e+003, 2.470087e-002
2.790491e+003, 2.453607e-002
2.792420e+003, 2.481120e-002
2.794348e+003, 2.499771e-002
2.796277e+003, 2.517474e-002
2.798205e+003, 2.527531e-002
2.800134e+003, 2.548905e-002
2.802062e+003, 2.553384e-002
2.803990e+003, 2.567402e-002
2.805919e+003, 2.590137e-002
2.807847e+003, 2.622351e-002
2.809776e+003, 2.627674e-002
2.811704e+003, 2.624140e-002
2.813633e+003, 2.650690e-002
2.815561e+003, 2.681456e-002
2.817490e+003, 2.705846e-002
2.819418e+003, 2.719821e-002
2.821347e+003, 2.736174e-002
2.823275e+003, 2.751095e-002
2.825204e+003, 2.751388e-002
2.827132e+003, 2.764496e-002
2.829061e+003, 2.809197e-002
2.830989e+003, 2.850563e-002
2.832917e+003, 2.871242e-002
2.834846e+003, 2.841138e-002
2.836774e+003, 2.824079e-002
2.838703e+003, 2.867043e-002
2.840631e+003, 2.894620e-002
2.842560e+003, 2.932829e-002
2.844488e+003, 2.948661e-002
2.846417e+003, 2.918146e-002
2.848345e+003, 2.928107e-002
2.850274e+003, 2.973073e-002
2.852202e+003, 2.970490e-002
2.854131e+003, 2.964345e-002
2.856059e+003, 3.010099e-002
2.857988e+003, 3.088306e-002
2.859916e+003, 3.132542e-002
2.861844e+003, 3.185592e-002
2.863773e+003, 3.259333e-002
2.865701e+003, 3.293192e-002
2.867630e+003, 3.306164e-002
2.869558e+003, 3.331132e-002
2.871487e+003, 3.396641e-002
2.873415e+003, 3.448077e-002
2.875344e+003, 3.491004e-002
2.877272e+003, 3.513409e-002
2.879201e+003, 3.527893e-002
2.881129e+003, 3.576762e-002
2.883058e+003, 3.664114e-002
2.884986e+003, 3.684068e-002
2.886915e+003, 3.700040e-002
2.888843e+003, 3.775101e-002
2.890771e+003, 3.844525e-002
2.892700e+003, 3.862786e-002
2.894628e+003, 3.880707e-002
2.896557e+003, 3.897381e-002
2.898485e+003, 3.929530e-002
2.900414e+003, 3.970563e-002
2.902342e+003, 4.049248e-002
2.904271e+003, 4.120157e-002
2.906199e+003, 4.166199e-002
2.908128e+003, 4.162633e-002
2.910056e+003, 4.145948e-002
2.911985e+003, 4.161629e-002
2.913913e+003, 4.196970e-002
2.915842e+003, 4.220733e-002
2.917770e+003, 4.192249e-002
2.919698e+003, 4.203312e-002
2.921627e+003, 4.250739e-002
2.923555e+003, 4.286718e-002
2.925484e+003, 4.315116e-002
2.927412e+003, 4.371378e-002
2.929341e+003, 4.482112e-002
2.931269e+003, 4.534462e-002
2.933198e+003, 4.574906e-002
2.935126e+003, 4.672135e-002
2.937055e+003, 4.725720e-002
2.938983e+003, 4.726010e-002
2.940912e+003, 4.807716e-002
2.942840e+003, 4.884253e-002
2.944769e+003, 4.900607e-002
2.946697e+003, 4.910960e-002
2.948625e+003, 4.973570e-002
2.950554e+003, 5.046208e-002
2.952482e+003, 5.111706e-002
2.954411e+003, 5.197916e-002
2.956339e+003, 5.255087e-002
2.958268e+003, 5.312006e-002
2.960196e+003, 5.388701e-002
2.962125e+003, 5.447208e-002
2.964053e+003, 5.539442e-002
2.965982e+003, 5.607465e-002
2.967910e+003, 5.635244e-002
2.969839e+003, 5.705558e-002
2.971767e+003, 5.797383e-002
2.973696e+003, 5.865582e-002
2.975624e+003, 5.940712e-002
2.977552e+003, 6.012748e-002
2.979481e+003, 6.064848e-002
2.981409e+003, 6.164561e-002
2.983338e+003, 6.234905e-002
2.985266e+003, 6.294341e-002
2.987195e+003, 6.349652e-002
2.989123e+003, 6.403968e-002
2.991052e+003, 6.509572e-002
2.992980e+003, 6.620675e-002
2.994909e+003, 6.698851e-002
2.996837e+003, 6.763595e-002
2.998766e+003, 6.834479e-002
3.000694e+003, 6.945846e-002
3.002623e+003, 7.063838e-002
3.004551e+003, 7.155970e-002
3.006479e+003, 7.244870e-002
3.008408e+003, 7.317593e-002
3.010336e+003, 7.408013e-002
3.012265e+003, 7.473184e-002
3.014193e+003, 7.506419e-002
3.016122e+003, 7.535042e-002
3.018050e+003, 7.677828e-002
3.019979e+003, 7.902405e-002
3.021907e+003, 8.045325e-002
3.023836e+003, 8.118923e-002
3.025764e+003, 8.230506e-002
3.027693e+003, 8.353586e-002
3.029621e+003, 8.505684e-002
3.031550e+003, 8.624485e-002
3.033478e+003, 8.726045e-002
3.035406e+003, 8.872142e-002
3.037335e+003, 8.988860e-002
3.039263e+003, 9.092189e-002
3.041192e+003, 9.238154e-002
3.043120e+003, 9.345409e-002
3.045049e+003, 9.461690e-002
3.046977e+003, 9.614915e-002
3.048906e+003, 9.798781e-002
3.050834e+003, 9.967732e-002
3.052763e+003, 1.014908e-001
3.054691e+003, 1.031662e-001
3.056620e+003, 1.043433e-001
3.058548e+003, 1.058798e-001
3.060477e+003, 1.077883e-001
3.062405e+003, 1.095622e-001
3.064333e+003, 1.111487e-001
3.066262e+003, 1.124700e-001
3.068190e+003, 1.143566e-001
3.070119e+003, 1.165983e-001
3.072047e+003, 1.182844e-001
3.073976e+003, 1.198969e-001
3.075904e+003, 1.217080e-001
3.077833e+003, 1.235410e-001
3.079761e+003, 1.253556e-001
3.081690e+003, 1.272753e-001
3.083618e+003, 1.292191e-001
3.085547e+003, 1.304600e-001
3.087475e+003, 1.321852e-001
3.089404e+003, 1.339927e-001
3.091332e+003, 1.355940e-001
3.093260e+003, 1.368448e-001
3.095189e+003, 1.382788e-001
3.097117e+003, 1.401237e-001
3.099046e+003, 1.416130e-001
3.100974e+003, 1.425707e-001
3.102903e+003, 1.437230e-001
3.104831e+003, 1.444565e-001
3.106760e+003, 1.451308e-001
3.108688e+003, 1.460711e-001
3.110617e+003, 1.468697e-001
3.112545e+003, 1.474022e-001
3.114474e+003, 1.479789e-001
3.116402e+003, 1.483081e-001
3.118331e+003, 1.484631e-001
3.120259e+003, 1.488255e-001
3.122188e+003, 1.492096e-001
3.124116e+003, 1.494548e-001
3.126044e+003, 1.495600e-001
3.127973e+003, 1.493832e-001
3.129901e+003, 1.492881e-001
3.131830e+003, 1.496766e-001
3.133758e+003, 1.498118e-001
3.135687e+003, 1.498304e-001
3.137615e+003, 1.502636e-001
3.139544e+003, 1.502111e-001
3.141472e+003, 1.501738e-001
3.143401e+003, 1.500474e-001
3.145329e+003, 1.503752e-001
3.147258e+003, 1.507121e-001
3.149186e+003, 1.511851e-001
3.151115e+003, 1.518342e-001
3.153043e+003, 1.524807e-001
3.154971e+003, 1.527898e-001
3.156900e+003, 1.535577e-001
3.158828e+003, 1.541600e-001
3.160757e+003, 1.547281e-001
3.162685e+003, 1.556341e-001
3.164614e+003, 1.569842e-001
3.166542e+003, 1.579180e-001
3.168471e+003, 1.585954e-001
3.170399e+003, 1.595669e-001
3.172328e+003, 1.606489e-001
3.174256e+003, 1.620325e-001
3.176185e+003, 1.634132e-001
3.178113e+003, 1.642462e-001
3.180042e+003, 1.655241e-001
3.181970e+003, 1.662333e-001
3.183898e+003, 1.669490e-001
3.185827e+003, 1.691067e-001
3.187755e+003, 1.710674e-001
3.189684e+003, 1.725385e-001
3.191612e+003, 1.740630e-001
3.193541e+003, 1.752523e-001
3.195469e+003, 1.762303e-001
3.197398e+003, 1.775756e-001
3.199326e+003, 1.795463e-001
3.201255e+003, 1.809877e-001
3.203183e+003, 1.823508e-001
3.205112e+003, 1.841740e-001
3.207040e+003, 1.857174e-001
3.208969e+003, 1.869191e-001
3.210897e+003, 1.884628e-001
3.212825e+003, 1.898218e-001
3.214754e+003, 1.913577e-001
3.216682e+003, 1.925856e-001
3.218611e+003, 1.934886e-001
3.220539e+003, 1.948389e-001
3.222468e+003, 1.962917e-001
3.224396e+003, 1.972021e-001
3.226325e+003, 1.978140e-001
3.228253e+003, 1.984451e-001
3.230182e+003, 1.996573e-001
3.232110e+003, 2.002920e-001
3.234039e+003, 2.004808e-001
3.235967e+003, 2.010229e-001
3.237896e+003, 2.013066e-001
3.239824e+003, 2.016643e-001
3.241752e+003, 2.018754e-001
3.243681e+003, 2.022085e-001
3.245609e+003, 2.028066e-001
3.247538e+003, 2.028407e-001
3.249466e+003, 2.029733e-001
3.251395e+003, 2.026055e-001
3.253323e+003, 2.018043e-001
3.255252e+003, 2.007388e-001
3.257180e+003, 2.001405e-001
3.259109e+003, 2.001878e-001
3.261037e+003, 1.998174e-001
3.262966e+003, 1.987959e-001
3.264894e+003, 1.980560e-001
3.266823e+003, 1.980733e-001
3.268751e+003, 1.974773e-001
3.270679e+003, 1.964247e-001
3.272608e+003, 1.958380e-001
3.274536e+003, 1.956343e-001
3.276465e+003, 1.951880e-001
3.278393e+003, 1.944596e-001
3.280322e+003, 1.937924e-001
3.282250e+003, 1.934926e-001
3.284179e+003, 1.936654e-001
3.286107e+003, 1.938300e-001
3.288036e+003, 1.940872e-001
3.289964e+003, 1.944722e-001
3.291893e+003, 1.949526e-001
3.293821e+003, 1.955025e-001
3.295750e+003, 1.965975e-001
3.297678e+003, 1.970805e-001
3.299606e+003, 1.984893e-001
3.301535e+003, 2.001072e-001
3.303463e+003, 2.009431e-001
3.305392e+003, 2.015418e-001
3.307320e+003, 2.030553e-001
3.309249e+003, 2.045752e-001
3.311177e+003, 2.058034e-001
3.313106e+003, 2.070040e-001
3.315034e+003, 2.086167e-001
3.316963e+003, 2.096706e-001
3.318891e+003, 2.103064e-001
3.320820e+003, 2.114124e-001
3.322748e+003, 2.127068e-001
3.324677e+003, 2.129885e-001
3.326605e+003, 2.133703e-001
3.328533e+003, 2.137352e-001
3.330462e+003, 2.137281e-001
3.332390e+003, 2.133326e-001
3.334319e+003, 2.125534e-001
3.336247e+003, 2.113740e-001
3.338176e+003, 2.100130e-001
3.340104e+003, 2.089690e-001
3.342033e+003, 2.074948e-001
3.343961e+003, 2.050879e-001
3.345890e+003, 2.025156e-001
3.347818e+003, 2.003531e-001
3.349747e+003, 1.981578e-001
3.351675e+003, 1.963611e-001
3.353604e+003, 1.952142e-001
3.355532e+003, 1.926875e-001
3.357460e+003, 1.904522e-001
3.359389e+003, 1.891069e-001
3.361317e+003, 1.873659e-001
3.363246e+003, 1.851819e-001
3.365174e+003, 1.838550e-001
3.367103e+003, 1.829609e-001
3.369031e+003, 1.825307e-001
3.370960e+003, 1.818865e-001
3.372888e+003, 1.805764e-001
3.374817e+003, 1.797045e-001
3.376745e+003, 1.798445e-001
3.378674e+003, 1.799104e-001
3.380602e+003, 1.796502e-001
3.382531e+003, 1.800186e-001
3.384459e+003, 1.805645e-001
3.386387e+003, 1.804950e-001
3.388316e+003, 1.811139e-001
3.390244e+003, 1.818213e-001
3.392173e+003, 1.824986e-001
3.394101e+003, 1.832981e-001
3.396030e+003, 1.840612e-001
3.397958e+003, 1.842935e-001
3.399887e+003, 1.852989e-001
3.401815e+003, 1.866668e-001
3.403744e+003, 1.880629e-001
3.405672e+003, 1.896906e-001
3.407601e+003, 1.914705e-001
3.409529e+003, 1.932762e-001
3.411458e+003, 1.950557e-001
3.413386e+003, 1.981182e-001
3.415314e+003, 2.014252e-001
3.417243e+003, 2.041726e-001
3.419171e+003, 2.077165e-001
3.421100e+003, 2.121932e-001
3.423028e+003, 2.164911e-001
3.424957e+003, 2.212140e-001
3.426885e+003, 2.272225e-001
3.428814e+003, 2.333922e-001
3.430742e+003, 2.383298e-001
3.432671e+003, 2.442724e-001
3.434599e+003, 2.506616e-001
3.436528e+003, 2.570361e-001
3.438456e+003, 2.627199e-001
3.440385e+003, 2.675736e-001
3.442313e+003, 2.716773e-001
3.444241e+003, 2.733451e-001
3.446170e+003, 2.731024e-001
3.448098e+003, 2.704377e-001
3.450027e+003, 2.651114e-001
3.451955e+003, 2.576850e-001
3.453884e+003, 2.477774e-001
3.455812e+003, 2.364873e-001
3.457741e+003, 2.247295e-001
3.459669e+003, 2.127970e-001
3.461598e+003, 2.024607e-001
3.463526e+003, 1.935576e-001
3.465455e+003, 1.856748e-001
3.467383e+003, 1.782857e-001
3.469312e+003, 1.717924e-001
3.471240e+003, 1.668465e-001
3.473168e+003, 1.625455e-001
3.475097e+003, 1.594632e-001
3.477025e+003, 1.570588e-001
3.478954e+003, 1.537467e-001
3.480882e+003, 1.509992e-001
3.482811e+003, 1.498177e-001
3.484739e+003, 1.495279e-001
3.486668e+003, 1.490298e-001
3.488596e+003, 1.486774e-001
3.490525e+003, 1.488177e-001
3.492453e+003, 1.492904e-001
3.494382e+003, 1.493708e-001
3.496310e+003, 1.501277e-001
3.498239e+003, 1.516296e-001
3.500167e+003, 1.528475e-001
3.502095e+003, 1.543772e-001
3.504024e+003, 1.558230e-001
3.505952e+003, 1.564973e-001
3.507881e+003, 1.558338e-001
3.509809e+003, 1.548173e-001
3.511738e+003, 1.541945e-001
3.513666e+003, 1.545255e-001
3.515595e+003, 1.548588e-001
3.517523e+003, 1.557102e-001
3.519452e+003, 1.582441e-001
3.521380e+003, 1.629456e-001
3.523309e+003, 1.706835e-001
3.525237e+003, 1.831172e-001
3.527166e+003, 1.979722e-001
3.529094e+003, 2.129036e-001
3.531022e+003, 2.259606e-001
3.532951e+003, 2.328295e-001
3.534879e+003, 2.325013e-001
3.536808e+003, 2.250917e-001
3.538736e+003, 2.116924e-001
3.540665e+003, 1.944240e-001
3.542593e+003, 1.756215e-001
3.544522e+003, 1.570978e-001
3.546450e+003, 1.401671e-001
3.548379e+003, 1.253345e-001
3.550307e+003, 1.125614e-001
3.552236e+003, 1.021179e-001
3.554164e+003, 9.347615e-002
3.556093e+003, 8.537581e-002
3.558021e+003, 7.943210e-002
3.559949e+003, 7.412796e-002
3.561878e+003, 6.911461e-002
3.563806e+003, 6.482058e-002
3.565735e+003, 6.171910e-002
3.567663e+003, 5.912031e-002
3.569592e+003, 5.556714e-002
3.571520e+003, 5.256438e-002
3.573449e+003, 4.988616e-002
3.575377e+003, 4.746852e-002
3.577306e+003, 4.508662e-002
3.579234e+003, 4.290675e-002
3.581163e+003, 4.096993e-002
3.583091e+003, 3.970300e-002
3.585020e+003, 3.794993e-002
3.586948e+003, 3.640888e-002
3.588876e+003, 3.473384e-002
3.590805e+003, 3.356797e-002
3.592733e+003, 3.321259e-002
3.594662e+003, 3.212420e-002
3.596590e+003, 3.110422e-002
3.598519e+003, 2.951291e-002
3.600447e+003, 2.820497e-002
3.602376e+003, 2.792826e-002
3.604304e+003, 2.706612e-002
3.606233e+003, 2.620549e-002
3.608161e+003, 2.496829e-002
3.610090e+003, 2.375747e-002
3.612018e+003, 2.275187e-002
3.613947e+003, 2.236175e-002
3.615875e+003, 2.283112e-002
3.617803e+003, 2.200254e-002
3.619732e+003, 2.104018e-002
3.621660e+003, 1.961183e-002
3.623589e+003, 1.863129e-002
3.625517e+003, 1.847694e-002
3.627446e+003, 1.837702e-002
3.629374e+003, 1.707417e-002
3.631303e+003, 1.543805e-002
3.633231e+003, 1.490326e-002
3.635160e+003, 1.501313e-002
3.637088e+003, 1.476509e-002
3.639017e+003, 1.411276e-002
3.640945e+003, 1.374253e-002
3.642874e+003, 1.316362e-002
3.644802e+003, 1.229814e-002
3.646730e+003, 1.244184e-002
3.648659e+003, 1.254292e-002
3.650587e+003, 1.144934e-002
3.652516e+003, 1.033185e-002
3.654444e+003, 9.964106e-003
3.656373e+003, 9.945542e-003
3.658301e+003, 1.038940e-002
3.660230e+003, 9.667207e-003
3.662158e+003, 8.629655e-003
3.664087e+003, 8.134988e-003
3.666015e+003, 8.408084e-003
3.667944e+003, 8.346594e-003
3.669872e+003, 8.061633e-003
3.671801e+003, 7.926173e-003
3.673729e+003, 8.751587e-003
3.675657e+003, 8.855800e-003
3.677586e+003, 7.223156e-003
3.679514e+003, 6.033043e-003
3.681443e+003, 5.188228e-003
3.683371e+003, 5.496411e-003
3.685300e+003, 5.001356e-003
3.687228e+003, 4.697941e-003
3.689157e+003, 5.466970e-003
3.691085e+003, 6.036704e-003
3.693014e+003, 5.656155e-003
3.694942e+003, 5.816312e-003
3.696871e+003, 6.120271e-003
3.698799e+003, 5.995724e-003
3.700728e+003, 6.149454e-003
3.702656e+003, 6.806786e-003
3.704584e+003, 7.047094e-003
3.706513e+003, 6.616820e-003
3.708441e+003, 6.196217e-003
3.710370e+003, 6.394145e-003
3.712298e+003, 6.443961e-003
3.714227e+003, 5.695343e-003
3.716155e+003, 4.710151e-003
3.718084e+003, 4.489304e-003
3.720012e+003, 4.961330e-003
3.721941e+003, 5.144699e-003
3.723869e+003, 5.369156e-003
3.725798e+003, 4.728804e-003
3.727726e+003, 4.354796e-003
3.729655e+003, 5.245655e-003
3.731583e+003, 5.849906e-003
3.733511e+003, 5.958150e-003
3.735440e+003, 6.388936e-003
3.737368e+003, 5.911916e-003
3.739297e+003, 4.997634e-003
3.741225e+003, 5.036752e-003
3.743154e+003, 5.673674e-003
3.745082e+003, 5.883300e-003
3.747011e+003, 5.590400e-003
3.748939e+003, 6.679759e-003
3.750868e+003, 6.477791e-003
3.752796e+003, 6.023016e-003
3.754725e+003, 5.431838e-003
3.756653e+003, 5.341562e-003
3.758582e+003, 6.114999e-003
3.760510e+003, 6.335491e-003
3.762438e+003, 6.204702e-003
3.764367e+003, 6.420978e-003
3.766295e+003, 5.804594e-003
3.768224e+003, 5.182187e-003
3.770152e+003, 5.389717e-003
3.772081e+003, 4.921051e-003
3.774009e+003, 4.628201e-003
3.775938e+003, 5.388662e-003
3.777866e+003, 6.105017e-003
3.779795e+003, 6.305733e-003
3.781723e+003, 5.476339e-003
3.783652e+003, 5.276737e-003
3.785580e+003, 5.765980e-003
3.787509e+003, 6.163877e-003
3.789437e+003, 6.361360e-003
3.791365e+003, 5.802753e-003
3.793294e+003, 5.169362e-003
3.795222e+003, 5.802832e-003
3.797151e+003, 6.814236e-003
3.799079e+003, 7.305035e-003
3.801008e+003, 6.594917e-003
3.802936e+003, 5.675253e-003
3.804865e+003, 5.644103e-003
3.806793e+003, 5.897440e-003
3.808722e+003, 5.663868e-003
3.810650e+003, 5.691176e-003
3.812579e+003, 5.863419e-003
3.814507e+003, 6.567298e-003
3.816436e+003, 7.168180e-003
3.818364e+003, 6.640012e-003
3.820292e+003, 6.644881e-003
3.822221e+003, 6.568137e-003
3.824149e+003, 6.086077e-003
3.826078e+003, 6.374825e-003
3.828006e+003, 5.903435e-003
3.829935e+003, 5.700246e-003
3.831863e+003, 5.878437e-003
3.833792e+003, 5.898216e-003
3.835720e+003, 6.564804e-003
3.837649e+003, 7.001683e-003
3.839577e+003, 6.207441e-003
3.841506e+003, 6.394921e-003
3.843434e+003, 6.700248e-003
3.845363e+003, 6.394315e-003
3.847291e+003, 6.648364e-003
3.849219e+003, 6.869021e-003
3.851148e+003, 6.991384e-003
3.853076e+003, 7.470084e-003
3.855005e+003, 6.841921e-003
3.856933e+003, 6.045867e-003
3.858862e+003, 6.326730e-003
3.860790e+003, 6.459475e-003
3.862719e+003, 7.290856e-003
3.864647e+003, 7.917982e-003
3.866576e+003, 7.479852e-003
3.868504e+003, 7.190702e-003
3.870433e+003, 7.231784e-003
3.872361e+003, 7.339385e-003
3.874290e+003, 7.317145e-003
3.876218e+003, 7.065288e-003
3.878146e+003, 7.333619e-003
3.880075e+003, 7.160137e-003
3.882003e+003, 7.102864e-003
3.883932e+003, 7.510318e-003
3.885860e+003, 7.383323e-003
3.887789e+003, 6.437733e-003
3.889717e+003, 7.481832e-003
3.891646e+003, 7.833215e-003
3.893574e+003, 7.062104e-003
3.895503e+003, 7.018563e-003
3.897431e+003, 7.174827e-003
3.899360e+003, 7.694745e-003
3.901288e+003, 8.104553e-003
3.903217e+003, 8.214498e-003
3.905145e+003, 7.156880e-003
3.907073e+003, 6.803615e-003
3.909002e+003, 7.494269e-003
3.910930e+003, 7.450357e-003
3.912859e+003, 7.248312e-003
3.914787e+003, 8.108252e-003
3.916716e+003, 8.293539e-003
3.918644e+003, 7.830483e-003
3.920573e+003, 7.106831e-003
3.922501e+003, 7.190873e-003
3.924430e+003, 7.757870e-003
3.926358e+003, 7.586062e-003
3.928287e+003, 7.668138e-003
3.930215e+003, 8.189113e-003
3.932144e+003, 8.070750e-003
3.934072e+003, 7.558536e-003
3.936000e+003, 6.985719e-003
3.937929e+003, 7.032676e-003
3.939857e+003, 7.728004e-003
3.941786e+003, 8.051720e-003
3.943714e+003, 7.947386e-003
3.945643e+003, 7.389890e-003
3.947571e+003, 7.341389e-003
3.949500e+003, 7.711192e-003
3.951428e+003, 7.197828e-003
3.953357e+003, 6.674223e-003
3.955285e+003, 6.596082e-003
3.957214e+003, 7.026762e-003
3.959142e+003, 6.706356e-003
3.961071e+003, 6.398077e-003
3.962999e+003, 6.371565e-003
3.964927e+003, 6.272913e-003
3.966856e+003, 7.200997e-003
3.968784e+003, 8.103143e-003
3.970713e+003, 8.207840e-003
3.972641e+003, 8.236736e-003
3.974570e+003, 8.158609e-003
3.976498e+003, 7.134548e-003
3.978427e+003, 6.530719e-003
3.980355e+003, 6.900933e-003
3.982284e+003, 6.783241e-003
3.984212e+003, 7.301545e-003
3.986141e+003, 8.226011e-003
3.988069e+003, 8.854317e-003
3.989998e+003, 8.707417e-003
3.991926e+003, 8.431068e-003
3.993854e+003, 8.852785e-003
3.995783e+003, 8.670681e-003
3.997711e+003, 8.216077e-003
3.999640e+003, 8.740675e-003
##END=



