##NAMES=Krohnkite
##RRUFFID=R050604
##IDEAL CHEMISTRY=Na_2_Cu^2+^(S^6+^O_4_)_2_&#183;2H_2_O
##LOCALITY=Chuquicamata, Chile
##OWNER=RRUFF
##SOURCE=University of Arizona Mineral Museum
##DESCRIPTION=Green elongated prismatic crystals with orange natrojarosite and minor colorless leightonite
##STATUS=The identification of this mineral has been confirmed by X-ray diffraction and chemical analysis
##URL=rruff.info/R050604
##MEASURED CHEMISTRY=Na_2.00_Cu_1.00_(S_1.00_O_4_)_2_Â·2H_2_O
3.991926e+002, 1.756623e-002
4.011211e+002, 1.572885e-002
4.030495e+002, 1.498150e-002
4.049780e+002, 1.717119e-002
4.069065e+002, 1.811024e-002
4.088349e+002, 1.883918e-002
4.107634e+002, 1.938665e-002
4.126919e+002, 2.012209e-002
4.146203e+002, 2.007855e-002
4.165488e+002, 2.111117e-002
4.184773e+002, 2.164303e-002
4.204057e+002, 2.153357e-002
4.223342e+002, 2.256305e-002
4.242627e+002, 2.396760e-002
4.261911e+002, 2.575471e-002
4.281196e+002, 2.784264e-002
4.300481e+002, 3.042515e-002
4.319765e+002, 3.329947e-002
4.339050e+002, 3.531452e-002
4.358335e+002, 3.676025e-002
4.377619e+002, 3.903981e-002
4.396904e+002, 4.277465e-002
4.416189e+002, 4.782846e-002
4.435473e+002, 5.437797e-002
4.454758e+002, 6.427933e-002
4.474043e+002, 7.603250e-002
4.493327e+002, 8.218493e-002
4.512612e+002, 8.132339e-002
4.531897e+002, 7.744874e-002
4.551181e+002, 7.302312e-002
4.570466e+002, 6.979678e-002
4.589751e+002, 7.037900e-002
4.609035e+002, 7.398280e-002
4.628320e+002, 7.944645e-002
4.647605e+002, 8.665319e-002
4.666889e+002, 9.729066e-002
4.686174e+002, 1.114487e-001
4.705459e+002, 1.272200e-001
4.724743e+002, 1.387734e-001
4.744028e+002, 1.378362e-001
4.763313e+002, 1.217984e-001
4.782597e+002, 9.957816e-002
4.801882e+002, 8.223163e-002
4.821167e+002, 7.154997e-002
4.840451e+002, 6.515942e-002
4.859736e+002, 6.212081e-002
4.879021e+002, 6.115666e-002
4.898305e+002, 6.104166e-002
4.917590e+002, 6.246039e-002
4.936875e+002, 6.527561e-002
4.956159e+002, 6.784921e-002
4.975444e+002, 7.150196e-002
4.994729e+002, 7.588644e-002
5.014013e+002, 8.063114e-002
5.033298e+002, 8.587858e-002
5.052583e+002, 9.191330e-002
5.071867e+002, 9.786571e-002
5.091152e+002, 1.021967e-001
5.110437e+002, 1.055514e-001
5.129721e+002, 1.081821e-001
5.149006e+002, 1.096683e-001
5.168290e+002, 1.107219e-001
5.187575e+002, 1.120482e-001
5.206860e+002, 1.139967e-001
5.226144e+002, 1.160030e-001
5.245429e+002, 1.187561e-001
5.264714e+002, 1.215818e-001
5.283998e+002, 1.248786e-001
5.303283e+002, 1.290025e-001
5.322568e+002, 1.330954e-001
5.341852e+002, 1.372835e-001
5.361137e+002, 1.412873e-001
5.380422e+002, 1.457482e-001
5.399706e+002, 1.504686e-001
5.418991e+002, 1.556170e-001
5.438276e+002, 1.608047e-001
5.457560e+002, 1.659129e-001
5.476845e+002, 1.713944e-001
5.496130e+002, 1.765318e-001
5.515414e+002, 1.820215e-001
5.534699e+002, 1.880681e-001
5.553984e+002, 1.931658e-001
5.573268e+002, 1.977082e-001
5.592553e+002, 2.019449e-001
5.611838e+002, 2.055510e-001
5.631122e+002, 2.084902e-001
5.650407e+002, 2.106059e-001
5.669692e+002, 2.113183e-001
5.688976e+002, 2.114897e-001
5.708261e+002, 2.109896e-001
5.727546e+002, 2.085794e-001
5.746830e+002, 2.057265e-001
5.766115e+002, 2.013974e-001
5.785400e+002, 1.966428e-001
5.804684e+002, 1.920460e-001
5.823969e+002, 1.878895e-001
5.843254e+002, 1.842571e-001
5.862538e+002, 1.816096e-001
5.881823e+002, 1.802384e-001
5.901108e+002, 1.815177e-001
5.920392e+002, 1.855156e-001
5.939677e+002, 1.923343e-001
5.958962e+002, 2.009328e-001
5.978246e+002, 2.085904e-001
5.997531e+002, 2.103019e-001
6.016816e+002, 2.023873e-001
6.036100e+002, 1.855575e-001
6.055385e+002, 1.631559e-001
6.074670e+002, 1.368753e-001
6.093954e+002, 1.110208e-001
6.113239e+002, 9.159578e-002
6.132524e+002, 7.944088e-002
6.151808e+002, 7.253431e-002
6.171093e+002, 6.915746e-002
6.190378e+002, 6.770776e-002
6.209662e+002, 6.813005e-002
6.228947e+002, 7.040243e-002
6.248232e+002, 7.394447e-002
6.267516e+002, 7.934193e-002
6.286801e+002, 8.638683e-002
6.306086e+002, 9.518600e-002
6.325370e+002, 1.062719e-001
6.344655e+002, 1.204372e-001
6.363940e+002, 1.388449e-001
6.383224e+002, 1.611074e-001
6.402509e+002, 1.845040e-001
6.421794e+002, 2.035341e-001
6.441078e+002, 2.115353e-001
6.460363e+002, 2.069733e-001
6.479648e+002, 1.956898e-001
6.498932e+002, 1.800553e-001
6.518217e+002, 1.569829e-001
6.537502e+002, 1.275364e-001
6.556786e+002, 9.886702e-002
6.576071e+002, 7.723487e-002
6.595356e+002, 6.414076e-002
6.614641e+002, 5.719301e-002
6.633925e+002, 5.376510e-002
6.653210e+002, 5.214976e-002
6.672495e+002, 5.132141e-002
6.691779e+002, 5.128401e-002
6.711064e+002, 5.151302e-002
6.730349e+002, 5.211531e-002
6.749633e+002, 5.300341e-002
6.768918e+002, 5.387092e-002
6.788203e+002, 5.505749e-002
6.807487e+002, 5.637797e-002
6.826772e+002, 5.764374e-002
6.846057e+002, 5.898184e-002
6.865341e+002, 6.050831e-002
6.884626e+002, 6.215426e-002
6.903911e+002, 6.388786e-002
6.923195e+002, 6.601878e-002
6.942480e+002, 6.803390e-002
6.961765e+002, 7.014783e-002
6.981049e+002, 7.239445e-002
7.000334e+002, 7.489555e-002
7.019619e+002, 7.743061e-002
7.038903e+002, 8.031521e-002
7.058188e+002, 8.335543e-002
7.077473e+002, 8.655811e-002
7.096757e+002, 9.008732e-002
7.116042e+002, 9.415957e-002
7.135327e+002, 9.832908e-002
7.154611e+002, 1.026509e-001
7.173896e+002, 1.073237e-001
7.193181e+002, 1.122530e-001
7.212465e+002, 1.174314e-001
7.231750e+002, 1.229227e-001
7.251035e+002, 1.286526e-001
7.270319e+002, 1.341528e-001
7.289604e+002, 1.397871e-001
7.308889e+002, 1.456542e-001
7.328173e+002, 1.512867e-001
7.347458e+002, 1.569331e-001
7.366743e+002, 1.627575e-001
7.386027e+002, 1.683521e-001
7.405312e+002, 1.736288e-001
7.424597e+002, 1.788403e-001
7.443881e+002, 1.838752e-001
7.463166e+002, 1.890567e-001
7.482451e+002, 1.939561e-001
7.501735e+002, 1.984419e-001
7.521020e+002, 2.024357e-001
7.540305e+002, 2.058271e-001
7.559589e+002, 2.087171e-001
7.578874e+002, 2.110907e-001
7.598159e+002, 2.126989e-001
7.617443e+002, 2.135764e-001
7.636728e+002, 2.139104e-001
7.656013e+002, 2.133721e-001
7.675297e+002, 2.120753e-001
7.694582e+002, 2.099229e-001
7.713867e+002, 2.071436e-001
7.733151e+002, 2.033237e-001
7.752436e+002, 1.988419e-001
7.771721e+002, 1.939647e-001
7.791005e+002, 1.882824e-001
7.810290e+002, 1.819373e-001
7.829575e+002, 1.753207e-001
7.848859e+002, 1.679819e-001
7.868144e+002, 1.604264e-001
7.887429e+002, 1.530081e-001
7.906713e+002, 1.457209e-001
7.925998e+002, 1.383118e-001
7.945283e+002, 1.310183e-001
7.964567e+002, 1.242585e-001
7.983852e+002, 1.178025e-001
8.003137e+002, 1.118673e-001
8.022421e+002, 1.063470e-001
8.041706e+002, 1.013727e-001
8.060991e+002, 9.678192e-002
8.080275e+002, 9.266908e-002
8.099560e+002, 8.933575e-002
8.118845e+002, 8.623765e-002
8.138129e+002, 8.327647e-002
8.157414e+002, 8.079819e-002
8.176699e+002, 7.871213e-002
8.195983e+002, 7.692633e-002
8.215268e+002, 7.556937e-002
8.234553e+002, 7.449365e-002
8.253837e+002, 7.344857e-002
8.273122e+002, 7.269630e-002
8.292407e+002, 7.205184e-002
8.311691e+002, 7.114358e-002
8.330976e+002, 7.030068e-002
8.350261e+002, 7.006820e-002
8.369545e+002, 6.982435e-002
8.388830e+002, 6.939420e-002
8.408115e+002, 6.910960e-002
8.427399e+002, 6.895870e-002
8.446684e+002, 6.887867e-002
8.465969e+002, 6.850678e-002
8.485253e+002, 6.796622e-002
8.504538e+002, 6.770746e-002
8.523823e+002, 6.762031e-002
8.543107e+002, 6.742164e-002
8.562392e+002, 6.705012e-002
8.581677e+002, 6.703268e-002
8.600961e+002, 6.678549e-002
8.620246e+002, 6.629836e-002
8.639531e+002, 6.599508e-002
8.658815e+002, 6.589760e-002
8.678100e+002, 6.579887e-002
8.697385e+002, 6.565318e-002
8.716669e+002, 6.567640e-002
8.735954e+002, 6.598650e-002
8.755239e+002, 6.642009e-002
8.774523e+002, 6.675442e-002
8.793808e+002, 6.707197e-002
8.813093e+002, 6.765235e-002
8.832377e+002, 6.844918e-002
8.851662e+002, 6.956367e-002
8.870947e+002, 7.076439e-002
8.890231e+002, 7.189598e-002
8.909516e+002, 7.283685e-002
8.928801e+002, 7.332209e-002
8.948085e+002, 7.322731e-002
8.967370e+002, 7.238992e-002
8.986655e+002, 7.102849e-002
9.005939e+002, 6.909399e-002
9.025224e+002, 6.680025e-002
9.044509e+002, 6.441816e-002
9.063793e+002, 6.221689e-002
9.083078e+002, 6.033253e-002
9.102363e+002, 5.870755e-002
9.121647e+002, 5.737840e-002
9.140932e+002, 5.635978e-002
9.160217e+002, 5.567468e-002
9.179501e+002, 5.524895e-002
9.198786e+002, 5.505857e-002
9.218071e+002, 5.497127e-002
9.237355e+002, 5.519007e-002
9.256640e+002, 5.557542e-002
9.275925e+002, 5.592827e-002
9.295209e+002, 5.657485e-002
9.314494e+002, 5.749378e-002
9.333779e+002, 5.841234e-002
9.353063e+002, 5.938441e-002
9.372348e+002, 6.050210e-002
9.391633e+002, 6.177521e-002
9.410917e+002, 6.327260e-002
9.430202e+002, 6.488461e-002
9.449487e+002, 6.669034e-002
9.468771e+002, 6.867688e-002
9.488056e+002, 7.070149e-002
9.507341e+002, 7.275399e-002
9.526625e+002, 7.517536e-002
9.545910e+002, 7.793242e-002
9.565195e+002, 8.088895e-002
9.584479e+002, 8.411816e-002
9.603764e+002, 8.785703e-002
9.623049e+002, 9.206919e-002
9.642333e+002, 9.656737e-002
9.661618e+002, 1.011559e-001
9.680903e+002, 1.059592e-001
9.700187e+002, 1.117122e-001
9.719472e+002, 1.188671e-001
9.738757e+002, 1.275021e-001
9.758041e+002, 1.378929e-001
9.777326e+002, 1.502311e-001
9.796611e+002, 1.651460e-001
9.815895e+002, 1.838666e-001
9.835180e+002, 2.085036e-001
9.854465e+002, 2.412871e-001
9.873749e+002, 2.842846e-001
9.893034e+002, 3.270548e-001
9.912319e+002, 3.313871e-001
9.931603e+002, 2.889120e-001
9.950888e+002, 2.352940e-001
9.970173e+002, 1.727780e-001
9.989457e+002, 1.295891e-001
1.000874e+003, 1.208820e-001
1.002803e+003, 1.301042e-001
1.004731e+003, 1.456254e-001
1.006660e+003, 1.622244e-001
1.008588e+003, 1.791884e-001
1.010517e+003, 1.963932e-001
1.012445e+003, 2.142248e-001
1.014373e+003, 2.330998e-001
1.016302e+003, 2.532953e-001
1.018230e+003, 2.742667e-001
1.020159e+003, 2.959580e-001
1.022087e+003, 3.181033e-001
1.024016e+003, 3.410662e-001
1.025944e+003, 3.647505e-001
1.027873e+003, 3.897401e-001
1.029801e+003, 4.155377e-001
1.031730e+003, 4.424769e-001
1.033658e+003, 4.701607e-001
1.035587e+003, 4.977194e-001
1.037515e+003, 5.237327e-001
1.039443e+003, 5.451863e-001
1.041372e+003, 5.576779e-001
1.043300e+003, 5.626189e-001
1.045229e+003, 5.630874e-001
1.047157e+003, 5.591865e-001
1.049086e+003, 5.490639e-001
1.051014e+003, 5.324166e-001
1.052943e+003, 5.096829e-001
1.054871e+003, 4.825901e-001
1.056800e+003, 4.531252e-001
1.058728e+003, 4.253157e-001
1.060657e+003, 4.039378e-001
1.062585e+003, 3.933722e-001
1.064514e+003, 3.939819e-001
1.066442e+003, 4.024319e-001
1.068370e+003, 4.138593e-001
1.070299e+003, 4.240672e-001
1.072227e+003, 4.308106e-001
1.074156e+003, 4.341800e-001
1.076084e+003, 4.343951e-001
1.078013e+003, 4.317324e-001
1.079941e+003, 4.262381e-001
1.081870e+003, 4.183884e-001
1.083798e+003, 4.083674e-001
1.085727e+003, 3.971371e-001
1.087655e+003, 3.850732e-001
1.089584e+003, 3.729032e-001
1.091512e+003, 3.615583e-001
1.093441e+003, 3.511613e-001
1.095369e+003, 3.414025e-001
1.097297e+003, 3.325063e-001
1.099226e+003, 3.242114e-001
1.101154e+003, 3.165540e-001
1.103083e+003, 3.096642e-001
1.105011e+003, 3.029677e-001
1.106940e+003, 2.946489e-001
1.108868e+003, 2.832757e-001
1.110797e+003, 2.690386e-001
1.112725e+003, 2.536554e-001
1.114654e+003, 2.384717e-001
1.116582e+003, 2.245320e-001
1.118511e+003, 2.127459e-001
1.120439e+003, 2.043673e-001
1.122368e+003, 2.003333e-001
1.124296e+003, 2.011569e-001
1.126224e+003, 2.069159e-001
1.128153e+003, 2.181222e-001
1.130081e+003, 2.354441e-001
1.132010e+003, 2.591228e-001
1.133938e+003, 2.885261e-001
1.135867e+003, 3.218572e-001
1.137795e+003, 3.558185e-001
1.139724e+003, 3.857497e-001
1.141652e+003, 4.061181e-001
1.143581e+003, 4.125693e-001
1.145509e+003, 4.045224e-001
1.147438e+003, 3.861462e-001
1.149366e+003, 3.625798e-001
1.151295e+003, 3.379557e-001
1.153223e+003, 3.147107e-001
1.155151e+003, 2.943628e-001
1.157080e+003, 2.776979e-001
1.159008e+003, 2.644720e-001
1.160937e+003, 2.534933e-001
1.162865e+003, 2.441109e-001
1.164794e+003, 2.358277e-001
1.166722e+003, 2.280863e-001
1.168651e+003, 2.205873e-001
1.170579e+003, 2.135304e-001
1.172508e+003, 2.072136e-001
1.174436e+003, 2.016101e-001
1.176365e+003, 1.960941e-001
1.178293e+003, 1.903455e-001
1.180222e+003, 1.844137e-001
1.182150e+003, 1.790153e-001
1.184078e+003, 1.744138e-001
1.186007e+003, 1.705102e-001
1.187935e+003, 1.666867e-001
1.189864e+003, 1.623405e-001
1.191792e+003, 1.568491e-001
1.193721e+003, 1.500409e-001
1.195649e+003, 1.420075e-001
1.197578e+003, 1.331676e-001
1.199506e+003, 1.241126e-001
1.201435e+003, 1.148614e-001
1.203363e+003, 1.052845e-001
1.205292e+003, 9.576610e-002
1.207220e+003, 8.654982e-002
1.209149e+003, 7.763792e-002
1.211077e+003, 6.910586e-002
1.213005e+003, 6.113958e-002
1.214934e+003, 5.379530e-002
1.216862e+003, 4.710963e-002
1.218791e+003, 4.099503e-002
1.220719e+003, 3.531752e-002
1.222648e+003, 3.011617e-002
1.224576e+003, 2.563323e-002
1.226505e+003, 2.197693e-002
1.228433e+003, 1.895182e-002
1.230362e+003, 1.636457e-002
1.232290e+003, 1.439579e-002
1.234219e+003, 1.291183e-002
1.236147e+003, 1.176557e-002
1.238076e+003, 1.085690e-002
1.240004e+003, 1.005571e-002
1.241932e+003, 9.464457e-003
1.243861e+003, 9.015809e-003
1.245789e+003, 8.659418e-003
1.247718e+003, 8.315577e-003
1.249646e+003, 7.979597e-003
1.251575e+003, 7.732101e-003
1.253503e+003, 7.495423e-003
1.255432e+003, 7.300837e-003
1.257360e+003, 7.004378e-003
1.259289e+003, 6.720951e-003
1.261217e+003, 6.592187e-003
1.263146e+003, 6.429149e-003
1.265074e+003, 6.192737e-003
1.267003e+003, 6.069587e-003
1.268931e+003, 5.916490e-003
1.270859e+003, 5.736943e-003
1.272788e+003, 5.584330e-003
1.274716e+003, 5.512314e-003
1.276645e+003, 5.462961e-003
1.278573e+003, 5.381694e-003
1.280502e+003, 5.296701e-003
1.282430e+003, 5.258932e-003
1.284359e+003, 5.206557e-003
1.286287e+003, 5.098310e-003
1.288216e+003, 4.995200e-003
1.290144e+003, 4.872948e-003
1.292073e+003, 4.860297e-003
1.294001e+003, 4.984434e-003
1.295930e+003, 4.918980e-003
1.297858e+003, 4.818329e-003
1.299786e+003, 4.777872e-003
1.301715e+003, 4.735408e-003
1.303643e+003, 4.690756e-003
1.305572e+003, 4.745605e-003
1.307500e+003, 4.863522e-003
1.309429e+003, 4.946244e-003
1.311357e+003, 4.989631e-003
1.313286e+003, 4.978039e-003
1.315214e+003, 4.963229e-003
1.317143e+003, 4.985683e-003
1.319071e+003, 4.988863e-003
1.321000e+003, 4.962508e-003
1.322928e+003, 5.093636e-003
1.324857e+003, 5.250213e-003
1.326785e+003, 5.353755e-003
1.328714e+003, 5.315821e-003
1.330642e+003, 5.259686e-003
1.332570e+003, 5.378019e-003
1.334499e+003, 5.593114e-003
1.336427e+003, 5.675052e-003
1.338356e+003, 5.741800e-003
1.340284e+003, 5.796444e-003
1.342213e+003, 5.758927e-003
1.344141e+003, 5.808299e-003
1.346070e+003, 5.887985e-003
1.347998e+003, 5.939822e-003
1.349927e+003, 6.002042e-003
1.351855e+003, 6.088036e-003
1.353784e+003, 6.200470e-003
1.355712e+003, 6.404243e-003
1.357641e+003, 6.578945e-003
1.359569e+003, 6.670289e-003
1.361497e+003, 6.741256e-003
1.363426e+003, 6.893563e-003
1.365354e+003, 6.950268e-003
1.367283e+003, 6.995752e-003
1.369211e+003, 7.178516e-003
1.371140e+003, 7.444693e-003
1.373068e+003, 7.562834e-003
1.374997e+003, 7.537342e-003
1.376925e+003, 7.637418e-003
1.378854e+003, 7.894697e-003
1.380782e+003, 8.051634e-003
1.382711e+003, 8.166580e-003
1.384639e+003, 8.218202e-003
1.386568e+003, 8.466802e-003
1.388496e+003, 8.620997e-003
1.390424e+003, 8.695692e-003
1.392353e+003, 8.971308e-003
1.394281e+003, 9.254009e-003
1.396210e+003, 9.382010e-003
1.398138e+003, 9.569913e-003
1.400067e+003, 9.701942e-003
1.401995e+003, 9.757474e-003
1.403924e+003, 9.835427e-003
1.405852e+003, 9.997989e-003
1.407781e+003, 1.011727e-002
1.409709e+003, 1.034701e-002
1.411638e+003, 1.059659e-002
1.413566e+003, 1.071297e-002
1.415495e+003, 1.075596e-002
1.417423e+003, 1.090092e-002
1.419351e+003, 1.110095e-002
1.421280e+003, 1.123176e-002
1.423208e+003, 1.137559e-002
1.425137e+003, 1.149481e-002
1.427065e+003, 1.162605e-002
1.428994e+003, 1.189250e-002
1.430922e+003, 1.201664e-002
1.432851e+003, 1.218476e-002
1.434779e+003, 1.246428e-002
1.436708e+003, 1.268452e-002
1.438636e+003, 1.265084e-002
1.440565e+003, 1.267752e-002
1.442493e+003, 1.283198e-002
1.444422e+003, 1.298702e-002
1.446350e+003, 1.311575e-002
1.448278e+003, 1.324431e-002
1.450207e+003, 1.340184e-002
1.452135e+003, 1.360122e-002
1.454064e+003, 1.383364e-002
1.455992e+003, 1.434840e-002
1.457921e+003, 1.453863e-002
1.459849e+003, 1.445150e-002
1.461778e+003, 1.455368e-002
1.463706e+003, 1.479003e-002
1.465635e+003, 1.491922e-002
1.467563e+003, 1.495760e-002
1.469492e+003, 1.502465e-002
1.471420e+003, 1.534370e-002
1.473349e+003, 1.557078e-002
1.475277e+003, 1.558270e-002
1.477205e+003, 1.560410e-002
1.479134e+003, 1.570517e-002
1.481062e+003, 1.575390e-002
1.482991e+003, 1.571646e-002
1.484919e+003, 1.600736e-002
1.486848e+003, 1.639250e-002
1.488776e+003, 1.651415e-002
1.490705e+003, 1.658053e-002
1.492633e+003, 1.652791e-002
1.494562e+003, 1.677062e-002
1.496490e+003, 1.713558e-002
1.498419e+003, 1.714415e-002
1.500347e+003, 1.705650e-002
1.502276e+003, 1.714730e-002
1.504204e+003, 1.758716e-002
1.506132e+003, 1.799984e-002
1.508061e+003, 1.789746e-002
1.509989e+003, 1.784725e-002
1.511918e+003, 1.800019e-002
1.513846e+003, 1.803176e-002
1.515775e+003, 1.815147e-002
1.517703e+003, 1.819267e-002
1.519632e+003, 1.830451e-002
1.521560e+003, 1.857708e-002
1.523489e+003, 1.853149e-002
1.525417e+003, 1.859362e-002
1.527346e+003, 1.871098e-002
1.529274e+003, 1.874921e-002
1.531203e+003, 1.888346e-002
1.533131e+003, 1.914172e-002
1.535059e+003, 1.912544e-002
1.536988e+003, 1.940176e-002
1.538916e+003, 2.001218e-002
1.540845e+003, 2.018657e-002
1.542773e+003, 2.008683e-002
1.544702e+003, 2.024214e-002
1.546630e+003, 2.050379e-002
1.548559e+003, 2.089296e-002
1.550487e+003, 2.120315e-002
1.552416e+003, 2.159287e-002
1.554344e+003, 2.209882e-002
1.556273e+003, 2.267281e-002
1.558201e+003, 2.355080e-002
1.560130e+003, 2.411077e-002
1.562058e+003, 2.423510e-002
1.563986e+003, 2.463778e-002
1.565915e+003, 2.523907e-002
1.567843e+003, 2.591892e-002
1.569772e+003, 2.654333e-002
1.571700e+003, 2.709582e-002
1.573629e+003, 2.786976e-002
1.575557e+003, 2.882600e-002
1.577486e+003, 2.927776e-002
1.579414e+003, 2.962654e-002
1.581343e+003, 3.025043e-002
1.583271e+003, 3.085118e-002
1.585200e+003, 3.137417e-002
1.587128e+003, 3.185567e-002
1.589057e+003, 3.228875e-002
1.590985e+003, 3.276465e-002
1.592913e+003, 3.320014e-002
1.594842e+003, 3.349870e-002
1.596770e+003, 3.376494e-002
1.598699e+003, 3.397032e-002
1.600627e+003, 3.420283e-002
1.602556e+003, 3.453894e-002
1.604484e+003, 3.468445e-002
1.606413e+003, 3.482173e-002
1.608341e+003, 3.485186e-002
1.610270e+003, 3.483884e-002
1.612198e+003, 3.480403e-002
1.614127e+003, 3.493911e-002
1.616055e+003, 3.516162e-002
1.617984e+003, 3.486316e-002
1.619912e+003, 3.443744e-002
1.621840e+003, 3.434199e-002
1.623769e+003, 3.436366e-002
1.625697e+003, 3.426359e-002
1.627626e+003, 3.407537e-002
1.629554e+003, 3.382994e-002
1.631483e+003, 3.354565e-002
1.633411e+003, 3.363431e-002
1.635340e+003, 3.368645e-002
1.637268e+003, 3.336806e-002
1.639197e+003, 3.310238e-002
1.641125e+003, 3.288973e-002
1.643054e+003, 3.270622e-002
1.644982e+003, 3.272370e-002
1.646911e+003, 3.262332e-002
1.648839e+003, 3.228553e-002
1.650767e+003, 3.229913e-002
1.652696e+003, 3.269960e-002
1.654624e+003, 3.218172e-002
1.656553e+003, 3.136407e-002
1.658481e+003, 3.094652e-002
1.660410e+003, 3.070878e-002
1.662338e+003, 3.069162e-002
1.664267e+003, 3.059058e-002
1.666195e+003, 3.029142e-002
1.668124e+003, 3.018158e-002
1.670052e+003, 3.014903e-002
1.671981e+003, 2.995207e-002
1.673909e+003, 2.980556e-002
1.675838e+003, 2.977307e-002
1.677766e+003, 2.955077e-002
1.679694e+003, 2.946866e-002
1.681623e+003, 2.944938e-002
1.683551e+003, 2.969162e-002
1.685480e+003, 2.940437e-002
1.687408e+003, 2.890781e-002
1.689337e+003, 2.882313e-002
1.691265e+003, 2.867176e-002
1.693194e+003, 2.859864e-002
1.695122e+003, 2.891684e-002
1.697051e+003, 2.870386e-002
1.698979e+003, 2.855548e-002
1.700908e+003, 2.846904e-002
1.702836e+003, 2.790909e-002
1.704765e+003, 2.759880e-002
1.706693e+003, 2.723722e-002
1.708621e+003, 2.689137e-002
1.710550e+003, 2.643054e-002
1.712478e+003, 2.602297e-002
1.714407e+003, 2.567859e-002
1.716335e+003, 2.531067e-002
1.718264e+003, 2.449052e-002
1.720192e+003, 2.333447e-002
1.722121e+003, 2.241548e-002
1.724049e+003, 2.166907e-002
1.725978e+003, 2.075105e-002
1.727906e+003, 1.978184e-002
1.729835e+003, 1.896166e-002
1.731763e+003, 1.810000e-002
1.733692e+003, 1.744907e-002
1.735620e+003, 1.633213e-002
1.737548e+003, 1.513408e-002
1.739477e+003, 1.430554e-002
1.741405e+003, 1.329808e-002
1.743334e+003, 1.236317e-002
1.745262e+003, 1.151460e-002
1.747191e+003, 1.081012e-002
1.749119e+003, 1.015841e-002
1.751048e+003, 9.547365e-003
1.752976e+003, 9.035606e-003
1.754905e+003, 8.560278e-003
1.756833e+003, 8.140668e-003
1.758762e+003, 7.675095e-003
1.760690e+003, 7.345765e-003
1.762619e+003, 6.939092e-003
1.764547e+003, 6.477154e-003
1.766475e+003, 6.253070e-003
1.768404e+003, 6.110759e-003
1.770332e+003, 6.015741e-003
1.772261e+003, 5.981466e-003
1.774189e+003, 5.763187e-003
1.776118e+003, 5.479031e-003
1.778046e+003, 5.318045e-003
1.779975e+003, 5.380951e-003
1.781903e+003, 5.335187e-003
1.783832e+003, 5.219989e-003
1.785760e+003, 5.035465e-003
1.787689e+003, 4.715865e-003
1.789617e+003, 4.525013e-003
1.791546e+003, 4.693334e-003
1.793474e+003, 4.625585e-003
1.795402e+003, 4.511673e-003
1.797331e+003, 4.504971e-003
1.799259e+003, 4.516293e-003
1.801188e+003, 4.451741e-003
1.803116e+003, 4.354443e-003
1.805045e+003, 4.332532e-003
1.806973e+003, 4.312792e-003
1.808902e+003, 4.182848e-003
1.810830e+003, 4.212716e-003
1.812759e+003, 4.102916e-003
1.814687e+003, 3.828754e-003
1.816616e+003, 3.805923e-003
1.818544e+003, 3.843098e-003
1.820473e+003, 3.947995e-003
1.822401e+003, 3.956381e-003
1.824329e+003, 3.886656e-003
1.826258e+003, 3.950923e-003
1.828186e+003, 3.979993e-003
1.830115e+003, 3.916870e-003
1.832043e+003, 3.839644e-003
1.833972e+003, 3.752651e-003
1.835900e+003, 3.669284e-003
1.837829e+003, 3.824212e-003
1.839757e+003, 3.810360e-003
1.841686e+003, 3.976668e-003
1.843614e+003, 3.986254e-003
1.845543e+003, 3.558536e-003
1.847471e+003, 3.352637e-003
1.849400e+003, 3.315116e-003
1.851328e+003, 3.376434e-003
1.853256e+003, 3.283661e-003
1.855185e+003, 3.417445e-003
1.857113e+003, 3.725662e-003
1.859042e+003, 3.662354e-003
1.860970e+003, 3.475917e-003
1.862899e+003, 3.408567e-003
1.864827e+003, 3.452142e-003
1.866756e+003, 3.262143e-003
1.868684e+003, 3.155369e-003
1.870613e+003, 3.263688e-003
1.872541e+003, 3.183983e-003
1.874470e+003, 3.104053e-003
1.876398e+003, 3.285743e-003
1.878327e+003, 3.278297e-003
1.880255e+003, 3.079130e-003
1.882183e+003, 2.626745e-003
1.884112e+003, 2.185921e-003
1.886040e+003, 2.820505e-003
1.887969e+003, 3.295006e-003
1.889897e+003, 3.179842e-003
1.891826e+003, 2.945592e-003
1.893754e+003, 3.095645e-003
1.895683e+003, 3.313844e-003
1.897611e+003, 3.451575e-003
1.899540e+003, 3.549322e-003
1.901468e+003, 3.099047e-003
1.903397e+003, 2.557090e-003
1.905325e+003, 2.878041e-003
1.907254e+003, 3.438788e-003
1.909182e+003, 3.302036e-003
1.911110e+003, 3.031319e-003
1.913039e+003, 3.213499e-003
1.914967e+003, 3.401855e-003
1.916896e+003, 3.276882e-003
1.918824e+003, 3.034662e-003
1.920753e+003, 2.724120e-003
1.922681e+003, 2.424807e-003
1.924610e+003, 2.270611e-003
1.926538e+003, 2.771483e-003
1.928467e+003, 2.893874e-003
1.930395e+003, 2.685987e-003
1.932324e+003, 2.740189e-003
1.934252e+003, 3.243431e-003
1.936181e+003, 3.030642e-003
1.938109e+003, 2.790157e-003
1.940037e+003, 2.913269e-003
1.941966e+003, 2.748793e-003
1.943894e+003, 2.832914e-003
1.945823e+003, 2.679200e-003
1.947751e+003, 2.716364e-003
1.949680e+003, 2.908587e-003
1.951608e+003, 2.517663e-003
1.953537e+003, 2.045623e-003
1.955465e+003, 1.894905e-003
1.957394e+003, 2.098984e-003
1.959322e+003, 2.229218e-003
1.961251e+003, 2.700058e-003
1.963179e+003, 2.739827e-003
1.965108e+003, 2.673193e-003
1.967036e+003, 2.361570e-003
1.968964e+003, 1.578448e-003
1.970893e+003, 1.860467e-003
1.972821e+003, 2.390741e-003
1.974750e+003, 2.733110e-003
1.976678e+003, 2.898722e-003
1.978607e+003, 2.914156e-003
1.980535e+003, 2.614214e-003
1.982464e+003, 2.347076e-003
1.984392e+003, 2.256700e-003
1.986321e+003, 1.893901e-003
1.988249e+003, 1.668823e-003
1.990178e+003, 2.345217e-003
1.992106e+003, 3.449551e-003
1.994035e+003, 3.905297e-003
1.995963e+003, 3.953969e-003
1.997891e+003, 4.629284e-003
1.999820e+003, 4.997209e-003
2.001748e+003, 4.083882e-003
2.003677e+003, 3.505094e-003
2.005605e+003, 4.277856e-003
2.007534e+003, 5.322523e-003
2.009462e+003, 5.706654e-003
2.011391e+003, 4.989338e-003
2.013319e+003, 3.867392e-003
2.015248e+003, 3.541081e-003
2.017176e+003, 3.748711e-003
2.019105e+003, 4.307027e-003
2.021033e+003, 4.407872e-003
2.022962e+003, 4.061631e-003
2.024890e+003, 3.769265e-003
2.026818e+003, 3.911979e-003
2.028747e+003, 5.301685e-003
2.030675e+003, 5.823923e-003
2.032604e+003, 6.349046e-003
2.034532e+003, 6.620158e-003
2.036461e+003, 5.877901e-003
2.038389e+003, 5.902906e-003
2.040318e+003, 6.459342e-003
2.042246e+003, 6.399370e-003
2.044175e+003, 5.812667e-003
2.046103e+003, 4.142901e-003
2.048031e+003, 3.188508e-003
2.049960e+003, 3.987414e-003
2.051888e+003, 3.929782e-003
2.053817e+003, 3.017149e-003
2.055745e+003, 2.229991e-003
2.057674e+003, 2.551665e-003
2.059602e+003, 2.248826e-003
2.061531e+003, 1.542328e-003
2.063459e+003, 9.778794e-004
2.065388e+003, 1.045111e-003
2.067316e+003, 1.259047e-003
2.069245e+003, 1.516862e-003
2.071173e+003, 1.923367e-003
2.073102e+003, 1.496465e-003
2.075030e+003, 1.346134e-003
2.076958e+003, 9.305517e-004
2.078887e+003, 8.654323e-004
2.080815e+003, 1.325722e-003
2.082744e+003, 1.242039e-003
2.084672e+003, 1.226627e-003
2.086601e+003, 8.484502e-004
2.088529e+003, 3.014461e-004
2.090458e+003, 2.454133e-004
2.092386e+003, 3.352349e-004
2.094315e+003, 4.232458e-004
2.096243e+003, 1.289672e-003
2.098172e+003, 1.981496e-003
2.100100e+003, 2.328685e-003
2.102029e+003, 2.350608e-003
2.103957e+003, 2.441603e-003
2.105885e+003, 3.065543e-003
2.107814e+003, 3.418029e-003
2.109742e+003, 3.503653e-003
2.111671e+003, 3.762626e-003
2.113599e+003, 3.809260e-003
2.115528e+003, 4.193085e-003
2.117456e+003, 4.378056e-003
2.119385e+003, 3.771658e-003
2.121313e+003, 3.543004e-003
2.123242e+003, 4.384895e-003
2.125170e+003, 4.227581e-003
2.127099e+003, 3.403459e-003
2.129027e+003, 2.962333e-003
2.130956e+003, 2.165240e-003
2.132884e+003, 1.291362e-003
2.134813e+003, 1.613534e-003
2.136741e+003, 2.180696e-003
2.138669e+003, 1.459588e-003
2.140598e+003, 5.801409e-004
2.142526e+003, 5.251244e-004
2.144455e+003, 1.172930e-003
2.146383e+003, 1.566876e-003
2.148312e+003, 1.232922e-003
2.150240e+003, 6.542839e-004
2.152169e+003, 6.491644e-004
2.154097e+003, 1.192167e-003
2.156026e+003, -2.164170e-004
2.157954e+003, 3.372217e-004
2.159883e+003, 2.279866e-003
2.161811e+003, 2.018427e-003
2.163740e+003, 2.428415e-003
2.165668e+003, 3.592910e-003
2.167596e+003, 3.986883e-003
2.169525e+003, 4.673331e-003
2.171453e+003, 3.577915e-003
2.173382e+003, 3.426148e-003
2.175310e+003, 3.363911e-003
2.177239e+003, 3.461343e-003
2.179167e+003, 3.986850e-003
2.181096e+003, 4.299022e-003
2.183024e+003, 4.243625e-003
2.184953e+003, 4.530364e-003
2.186881e+003, 4.894747e-003
2.188810e+003, 4.283103e-003
2.190738e+003, 2.942730e-003
2.192667e+003, 2.653550e-003
2.194595e+003, 3.751217e-003
2.196523e+003, 5.245398e-003
2.198452e+003, 5.505489e-003
2.200380e+003, 5.191738e-003
2.202309e+003, 5.118597e-003
2.204237e+003, 4.796994e-003
2.206166e+003, 4.187547e-003
2.208094e+003, 4.171423e-003
2.210023e+003, 4.515556e-003
2.211951e+003, 4.966567e-003
2.213880e+003, 5.682341e-003
2.215808e+003, 5.775968e-003
2.217737e+003, 6.249192e-003
2.219665e+003, 6.463898e-003
2.221594e+003, 6.047263e-003
2.223522e+003, 6.269618e-003
2.225450e+003, 5.792484e-003
2.227379e+003, 5.335524e-003
2.229307e+003, 5.768763e-003
2.231236e+003, 5.986759e-003
2.233164e+003, 6.484599e-003
2.235093e+003, 7.441547e-003
2.237021e+003, 7.514682e-003
2.238950e+003, 8.119062e-003
2.240878e+003, 8.281661e-003
2.242807e+003, 8.056454e-003
2.244735e+003, 8.116188e-003
2.246664e+003, 8.699921e-003
2.248592e+003, 8.684464e-003
2.250521e+003, 8.493613e-003
2.252449e+003, 8.811805e-003
2.254377e+003, 8.944705e-003
2.256306e+003, 8.368339e-003
2.258234e+003, 8.298527e-003
2.260163e+003, 9.076396e-003
2.262091e+003, 9.177703e-003
2.264020e+003, 8.899483e-003
2.265948e+003, 8.821065e-003
2.267877e+003, 8.788038e-003
2.269805e+003, 9.094758e-003
2.271734e+003, 9.250454e-003
2.273662e+003, 9.130916e-003
2.275591e+003, 9.056069e-003
2.277519e+003, 9.000029e-003
2.279448e+003, 8.811457e-003
2.281376e+003, 9.198997e-003
2.283304e+003, 8.969309e-003
2.285233e+003, 8.575214e-003
2.287161e+003, 8.504248e-003
2.289090e+003, 8.441790e-003
2.291018e+003, 8.441359e-003
2.292947e+003, 8.551071e-003
2.294875e+003, 8.681177e-003
2.296804e+003, 8.809563e-003
2.298732e+003, 8.644361e-003
2.300661e+003, 8.745902e-003
2.302589e+003, 9.220162e-003
2.304518e+003, 9.401252e-003
2.306446e+003, 9.021776e-003
2.308375e+003, 8.983083e-003
2.310303e+003, 9.165096e-003
2.312231e+003, 9.351625e-003
2.314160e+003, 9.518255e-003
2.316088e+003, 9.720007e-003
2.318017e+003, 9.956663e-003
2.319945e+003, 1.028581e-002
2.321874e+003, 1.065013e-002
2.323802e+003, 1.062739e-002
2.325731e+003, 9.950576e-003
2.327659e+003, 9.820157e-003
2.329588e+003, 9.910198e-003
2.331516e+003, 9.647405e-003
2.333445e+003, 9.538942e-003
2.335373e+003, 9.818068e-003
2.337302e+003, 9.819653e-003
2.339230e+003, 9.572307e-003
2.341158e+003, 9.480692e-003
2.343087e+003, 9.746702e-003
2.345015e+003, 9.798379e-003
2.346944e+003, 1.003504e-002
2.348872e+003, 1.011418e-002
2.350801e+003, 9.977542e-003
2.352729e+003, 9.869367e-003
2.354658e+003, 9.949584e-003
2.356586e+003, 9.803563e-003
2.358515e+003, 9.509306e-003
2.360443e+003, 9.469968e-003
2.362372e+003, 9.657989e-003
2.364300e+003, 9.737861e-003
2.366229e+003, 9.300699e-003
2.368157e+003, 9.338425e-003
2.370085e+003, 9.595167e-003
2.372014e+003, 9.490008e-003
2.373942e+003, 9.647655e-003
2.375871e+003, 9.783637e-003
2.377799e+003, 9.620522e-003
2.379728e+003, 9.764204e-003
2.381656e+003, 9.824876e-003
2.383585e+003, 9.580940e-003
2.385513e+003, 9.598901e-003
2.387442e+003, 9.690030e-003
2.389370e+003, 9.909519e-003
2.391299e+003, 9.807167e-003
2.393227e+003, 9.848755e-003
2.395156e+003, 9.973090e-003
2.397084e+003, 9.922885e-003
2.399012e+003, 9.949675e-003
2.400941e+003, 9.964896e-003
2.402869e+003, 9.441365e-003
2.404798e+003, 9.324691e-003
2.406726e+003, 9.801854e-003
2.408655e+003, 1.032319e-002
2.410583e+003, 1.071575e-002
2.412512e+003, 1.079696e-002
2.414440e+003, 1.085129e-002
2.416369e+003, 1.115345e-002
2.418297e+003, 1.106512e-002
2.420226e+003, 1.085234e-002
2.422154e+003, 1.089990e-002
2.424083e+003, 1.133531e-002
2.426011e+003, 1.169073e-002
2.427939e+003, 1.184420e-002
2.429868e+003, 1.180550e-002
2.431796e+003, 1.205996e-002
2.433725e+003, 1.206704e-002
2.435653e+003, 1.211338e-002
2.437582e+003, 1.234421e-002
2.439510e+003, 1.222943e-002
2.441439e+003, 1.218318e-002
2.443367e+003, 1.248459e-002
2.445296e+003, 1.301099e-002
2.447224e+003, 1.311333e-002
2.449153e+003, 1.311280e-002
2.451081e+003, 1.322192e-002
2.453010e+003, 1.309334e-002
2.454938e+003, 1.292723e-002
2.456866e+003, 1.265415e-002
2.458795e+003, 1.267484e-002
2.460723e+003, 1.306385e-002
2.462652e+003, 1.321732e-002
2.464580e+003, 1.322458e-002
2.466509e+003, 1.316269e-002
2.468437e+003, 1.296714e-002
2.470366e+003, 1.325880e-002
2.472294e+003, 1.322243e-002
2.474223e+003, 1.301233e-002
2.476151e+003, 1.288113e-002
2.478080e+003, 1.291756e-002
2.480008e+003, 1.323974e-002
2.481937e+003, 1.358313e-002
2.483865e+003, 1.369268e-002
2.485793e+003, 1.328373e-002
2.487722e+003, 1.320490e-002
2.489650e+003, 1.331277e-002
2.491579e+003, 1.352573e-002
2.493507e+003, 1.370961e-002
2.495436e+003, 1.379680e-002
2.497364e+003, 1.377905e-002
2.499293e+003, 1.379268e-002
2.501221e+003, 1.395204e-002
2.503150e+003, 1.383603e-002
2.505078e+003, 1.384775e-002
2.507007e+003, 1.390568e-002
2.508935e+003, 1.400594e-002
2.510864e+003, 1.397456e-002
2.512792e+003, 1.411193e-002
2.514720e+003, 1.421722e-002
2.516649e+003, 1.407960e-002
2.518577e+003, 1.392024e-002
2.520506e+003, 1.404863e-002
2.522434e+003, 1.394617e-002
2.524363e+003, 1.392167e-002
2.526291e+003, 1.418382e-002
2.528220e+003, 1.455363e-002
2.530148e+003, 1.443458e-002
2.532077e+003, 1.436865e-002
2.534005e+003, 1.415666e-002
2.535934e+003, 1.413056e-002
2.537862e+003, 1.398519e-002
2.539791e+003, 1.430708e-002
2.541719e+003, 1.498118e-002
2.543647e+003, 1.492734e-002
2.545576e+003, 1.485479e-002
2.547504e+003, 1.495612e-002
2.549433e+003, 1.479114e-002
2.551361e+003, 1.482186e-002
2.553290e+003, 1.513040e-002
2.555218e+003, 1.556028e-002
2.557147e+003, 1.549811e-002
2.559075e+003, 1.554238e-002
2.561004e+003, 1.572808e-002
2.562932e+003, 1.572604e-002
2.564861e+003, 1.535362e-002
2.566789e+003, 1.542207e-002
2.568718e+003, 1.553711e-002
2.570646e+003, 1.589634e-002
2.572574e+003, 1.610004e-002
2.574503e+003, 1.603498e-002
2.576431e+003, 1.602144e-002
2.578360e+003, 1.625460e-002
2.580288e+003, 1.642418e-002
2.582217e+003, 1.653829e-002
2.584145e+003, 1.672528e-002
2.586074e+003, 1.667019e-002
2.588002e+003, 1.694468e-002
2.589931e+003, 1.739496e-002
2.591859e+003, 1.726376e-002
2.593788e+003, 1.717902e-002
2.595716e+003, 1.737597e-002
2.597645e+003, 1.754383e-002
2.599573e+003, 1.773191e-002
2.601501e+003, 1.792306e-002
2.603430e+003, 1.786676e-002
2.605358e+003, 1.773513e-002
2.607287e+003, 1.796060e-002
2.609215e+003, 1.834196e-002
2.611144e+003, 1.834285e-002
2.613072e+003, 1.801760e-002
2.615001e+003, 1.784410e-002
2.616929e+003, 1.807421e-002
2.618858e+003, 1.852435e-002
2.620786e+003, 1.879377e-002
2.622715e+003, 1.872438e-002
2.624643e+003, 1.852289e-002
2.626572e+003, 1.848989e-002
2.628500e+003, 1.852843e-002
2.630428e+003, 1.859710e-002
2.632357e+003, 1.887821e-002
2.634285e+003, 1.888989e-002
2.636214e+003, 1.884493e-002
2.638142e+003, 1.892945e-002
2.640071e+003, 1.879390e-002
2.641999e+003, 1.879606e-002
2.643928e+003, 1.895562e-002
2.645856e+003, 1.907505e-002
2.647785e+003, 1.919144e-002
2.649713e+003, 1.920033e-002
2.651642e+003, 1.909807e-002
2.653570e+003, 1.909069e-002
2.655499e+003, 1.930493e-002
2.657427e+003, 1.948030e-002
2.659355e+003, 1.959005e-002
2.661284e+003, 1.964271e-002
2.663212e+003, 1.964360e-002
2.665141e+003, 1.972499e-002
2.667069e+003, 1.977036e-002
2.668998e+003, 1.981720e-002
2.670926e+003, 2.006884e-002
2.672855e+003, 1.998908e-002
2.674783e+003, 2.001801e-002
2.676712e+003, 2.024377e-002
2.678640e+003, 2.048937e-002
2.680569e+003, 2.071132e-002
2.682497e+003, 2.095512e-002
2.684426e+003, 2.096656e-002
2.686354e+003, 2.096894e-002
2.688282e+003, 2.107631e-002
2.690211e+003, 2.135729e-002
2.692139e+003, 2.160725e-002
2.694068e+003, 2.184298e-002
2.695996e+003, 2.230334e-002
2.697925e+003, 2.250098e-002
2.699853e+003, 2.235285e-002
2.701782e+003, 2.255421e-002
2.703710e+003, 2.299877e-002
2.705639e+003, 2.317341e-002
2.707567e+003, 2.335829e-002
2.709496e+003, 2.371525e-002
2.711424e+003, 2.396691e-002
2.713353e+003, 2.403460e-002
2.715281e+003, 2.410724e-002
2.717209e+003, 2.454823e-002
2.719138e+003, 2.494780e-002
2.721066e+003, 2.508134e-002
2.722995e+003, 2.542472e-002
2.724923e+003, 2.585542e-002
2.726852e+003, 2.619889e-002
2.728780e+003, 2.642957e-002
2.730709e+003, 2.669752e-002
2.732637e+003, 2.691203e-002
2.734566e+003, 2.699573e-002
2.736494e+003, 2.739806e-002
2.738423e+003, 2.796130e-002
2.740351e+003, 2.846203e-002
2.742280e+003, 2.869100e-002
2.744208e+003, 2.901932e-002
2.746136e+003, 2.913089e-002
2.748065e+003, 2.900124e-002
2.749993e+003, 2.925452e-002
2.751922e+003, 2.992957e-002
2.753850e+003, 3.030974e-002
2.755779e+003, 3.054021e-002
2.757707e+003, 3.085678e-002
2.759636e+003, 3.126870e-002
2.761564e+003, 3.158540e-002
2.763493e+003, 3.203571e-002
2.765421e+003, 3.264299e-002
2.767350e+003, 3.291449e-002
2.769278e+003, 3.308823e-002
2.771207e+003, 3.355994e-002
2.773135e+003, 3.426655e-002
2.775063e+003, 3.453817e-002
2.776992e+003, 3.463053e-002
2.778920e+003, 3.513831e-002
2.780849e+003, 3.557463e-002
2.782777e+003, 3.593815e-002
2.784706e+003, 3.634370e-002
2.786634e+003, 3.669326e-002
2.788563e+003, 3.710147e-002
2.790491e+003, 3.767027e-002
2.792420e+003, 3.809666e-002
2.794348e+003, 3.852686e-002
2.796277e+003, 3.901777e-002
2.798205e+003, 3.934551e-002
2.800134e+003, 3.973502e-002
2.802062e+003, 4.009126e-002
2.803990e+003, 4.069286e-002
2.805919e+003, 4.150029e-002
2.807847e+003, 4.197378e-002
2.809776e+003, 4.227196e-002
2.811704e+003, 4.287377e-002
2.813633e+003, 4.352012e-002
2.815561e+003, 4.394830e-002
2.817490e+003, 4.437000e-002
2.819418e+003, 4.509702e-002
2.821347e+003, 4.595435e-002
2.823275e+003, 4.671417e-002
2.825204e+003, 4.741733e-002
2.827132e+003, 4.766469e-002
2.829061e+003, 4.819730e-002
2.830989e+003, 4.900972e-002
2.832917e+003, 4.981453e-002
2.834846e+003, 5.038717e-002
2.836774e+003, 5.102996e-002
2.838703e+003, 5.164857e-002
2.840631e+003, 5.223633e-002
2.842560e+003, 5.305112e-002
2.844488e+003, 5.375206e-002
2.846417e+003, 5.420752e-002
2.848345e+003, 5.496050e-002
2.850274e+003, 5.602026e-002
2.852202e+003, 5.689831e-002
2.854131e+003, 5.756783e-002
2.856059e+003, 5.832105e-002
2.857988e+003, 5.914317e-002
2.859916e+003, 6.037393e-002
2.861844e+003, 6.136733e-002
2.863773e+003, 6.181868e-002
2.865701e+003, 6.269319e-002
2.867630e+003, 6.398655e-002
2.869558e+003, 6.501014e-002
2.871487e+003, 6.583740e-002
2.873415e+003, 6.702189e-002
2.875344e+003, 6.822563e-002
2.877272e+003, 6.901830e-002
2.879201e+003, 6.999581e-002
2.881129e+003, 7.111511e-002
2.883058e+003, 7.214507e-002
2.884986e+003, 7.317377e-002
2.886915e+003, 7.428626e-002
2.888843e+003, 7.542840e-002
2.890771e+003, 7.660850e-002
2.892700e+003, 7.759463e-002
2.894628e+003, 7.869740e-002
2.896557e+003, 7.984395e-002
2.898485e+003, 8.097906e-002
2.900414e+003, 8.239918e-002
2.902342e+003, 8.372321e-002
2.904271e+003, 8.494934e-002
2.906199e+003, 8.617821e-002
2.908128e+003, 8.702052e-002
2.910056e+003, 8.818295e-002
2.911985e+003, 8.935575e-002
2.913913e+003, 9.082758e-002
2.915842e+003, 9.235425e-002
2.917770e+003, 9.391648e-002
2.919698e+003, 9.532963e-002
2.921627e+003, 9.680957e-002
2.923555e+003, 9.830257e-002
2.925484e+003, 9.949347e-002
2.927412e+003, 1.009702e-001
2.929341e+003, 1.025056e-001
2.931269e+003, 1.041899e-001
2.933198e+003, 1.061246e-001
2.935126e+003, 1.076329e-001
2.937055e+003, 1.090247e-001
2.938983e+003, 1.107672e-001
2.940912e+003, 1.127164e-001
2.942840e+003, 1.146682e-001
2.944769e+003, 1.165897e-001
2.946697e+003, 1.182379e-001
2.948625e+003, 1.199226e-001
2.950554e+003, 1.217013e-001
2.952482e+003, 1.235673e-001
2.954411e+003, 1.252870e-001
2.956339e+003, 1.272496e-001
2.958268e+003, 1.295273e-001
2.960196e+003, 1.314134e-001
2.962125e+003, 1.333219e-001
2.964053e+003, 1.355463e-001
2.965982e+003, 1.379213e-001
2.967910e+003, 1.394803e-001
2.969839e+003, 1.408815e-001
2.971767e+003, 1.427713e-001
2.973696e+003, 1.451455e-001
2.975624e+003, 1.473300e-001
2.977552e+003, 1.488199e-001
2.979481e+003, 1.504123e-001
2.981409e+003, 1.524409e-001
2.983338e+003, 1.548301e-001
2.985266e+003, 1.570301e-001
2.987195e+003, 1.587970e-001
2.989123e+003, 1.606441e-001
2.991052e+003, 1.627057e-001
2.992980e+003, 1.646625e-001
2.994909e+003, 1.668602e-001
2.996837e+003, 1.690194e-001
2.998766e+003, 1.708473e-001
3.000694e+003, 1.729226e-001
3.002623e+003, 1.754934e-001
3.004551e+003, 1.775619e-001
3.006479e+003, 1.797892e-001
3.008408e+003, 1.817143e-001
3.010336e+003, 1.835159e-001
3.012265e+003, 1.859377e-001
3.014193e+003, 1.883979e-001
3.016122e+003, 1.903760e-001
3.018050e+003, 1.926046e-001
3.019979e+003, 1.951317e-001
3.021907e+003, 1.972595e-001
3.023836e+003, 1.999232e-001
3.025764e+003, 2.030238e-001
3.027693e+003, 2.056290e-001
3.029621e+003, 2.084664e-001
3.031550e+003, 2.114096e-001
3.033478e+003, 2.142295e-001
3.035406e+003, 2.169255e-001
3.037335e+003, 2.195388e-001
3.039263e+003, 2.224352e-001
3.041192e+003, 2.257580e-001
3.043120e+003, 2.293073e-001
3.045049e+003, 2.331904e-001
3.046977e+003, 2.366557e-001
3.048906e+003, 2.402140e-001
3.050834e+003, 2.433534e-001
3.052763e+003, 2.463966e-001
3.054691e+003, 2.495636e-001
3.056620e+003, 2.525547e-001
3.058548e+003, 2.557445e-001
3.060477e+003, 2.589130e-001
3.062405e+003, 2.613932e-001
3.064333e+003, 2.634467e-001
3.066262e+003, 2.652463e-001
3.068190e+003, 2.665213e-001
3.070119e+003, 2.676612e-001
3.072047e+003, 2.686881e-001
3.073976e+003, 2.691464e-001
3.075904e+003, 2.695511e-001
3.077833e+003, 2.691216e-001
3.079761e+003, 2.680008e-001
3.081690e+003, 2.668032e-001
3.083618e+003, 2.651531e-001
3.085547e+003, 2.629203e-001
3.087475e+003, 2.609363e-001
3.089404e+003, 2.589216e-001
3.091332e+003, 2.562546e-001
3.093260e+003, 2.532459e-001
3.095189e+003, 2.505374e-001
3.097117e+003, 2.481358e-001
3.099046e+003, 2.456141e-001
3.100974e+003, 2.426877e-001
3.102903e+003, 2.402926e-001
3.104831e+003, 2.376514e-001
3.106760e+003, 2.351690e-001
3.108688e+003, 2.333607e-001
3.110617e+003, 2.311240e-001
3.112545e+003, 2.287061e-001
3.114474e+003, 2.267950e-001
3.116402e+003, 2.246533e-001
3.118331e+003, 2.221158e-001
3.120259e+003, 2.202355e-001
3.122188e+003, 2.191021e-001
3.124116e+003, 2.170033e-001
3.126044e+003, 2.145372e-001
3.127973e+003, 2.127933e-001
3.129901e+003, 2.107289e-001
3.131830e+003, 2.082174e-001
3.133758e+003, 2.061285e-001
3.135687e+003, 2.045941e-001
3.137615e+003, 2.029052e-001
3.139544e+003, 2.008396e-001
3.141472e+003, 1.989829e-001
3.143401e+003, 1.966417e-001
3.145329e+003, 1.941160e-001
3.147258e+003, 1.919983e-001
3.149186e+003, 1.897123e-001
3.151115e+003, 1.876068e-001
3.153043e+003, 1.856086e-001
3.154971e+003, 1.832865e-001
3.156900e+003, 1.815304e-001
3.158828e+003, 1.792736e-001
3.160757e+003, 1.764469e-001
3.162685e+003, 1.740943e-001
3.164614e+003, 1.721273e-001
3.166542e+003, 1.703054e-001
3.168471e+003, 1.684595e-001
3.170399e+003, 1.668099e-001
3.172328e+003, 1.647685e-001
3.174256e+003, 1.622406e-001
3.176185e+003, 1.606914e-001
3.178113e+003, 1.588650e-001
3.180042e+003, 1.566535e-001
3.181970e+003, 1.549182e-001
3.183898e+003, 1.533455e-001
3.185827e+003, 1.514455e-001
3.187755e+003, 1.491500e-001
3.189684e+003, 1.476991e-001
3.191612e+003, 1.462940e-001
3.193541e+003, 1.446516e-001
3.195469e+003, 1.431471e-001
3.197398e+003, 1.418901e-001
3.199326e+003, 1.403972e-001
3.201255e+003, 1.387239e-001
3.203183e+003, 1.371167e-001
3.205112e+003, 1.354900e-001
3.207040e+003, 1.343947e-001
3.208969e+003, 1.337875e-001
3.210897e+003, 1.327327e-001
3.212825e+003, 1.311237e-001
3.214754e+003, 1.302263e-001
3.216682e+003, 1.291342e-001
3.218611e+003, 1.277287e-001
3.220539e+003, 1.270107e-001
3.222468e+003, 1.266937e-001
3.224396e+003, 1.259255e-001
3.226325e+003, 1.251241e-001
3.228253e+003, 1.240178e-001
3.230182e+003, 1.230512e-001
3.232110e+003, 1.221329e-001
3.234039e+003, 1.208983e-001
3.235967e+003, 1.197998e-001
3.237896e+003, 1.192487e-001
3.239824e+003, 1.189946e-001
3.241752e+003, 1.178863e-001
3.243681e+003, 1.164621e-001
3.245609e+003, 1.158617e-001
3.247538e+003, 1.148956e-001
3.249466e+003, 1.137173e-001
3.251395e+003, 1.129833e-001
3.253323e+003, 1.119763e-001
3.255252e+003, 1.108229e-001
3.257180e+003, 1.098818e-001
3.259109e+003, 1.091042e-001
3.261037e+003, 1.078507e-001
3.262966e+003, 1.067947e-001
3.264894e+003, 1.054990e-001
3.266823e+003, 1.042361e-001
3.268751e+003, 1.035307e-001
3.270679e+003, 1.026538e-001
3.272608e+003, 1.016852e-001
3.274536e+003, 1.003173e-001
3.276465e+003, 9.913401e-002
3.278393e+003, 9.761430e-002
3.280322e+003, 9.661710e-002
3.282250e+003, 9.581694e-002
3.284179e+003, 9.531837e-002
3.286107e+003, 9.484623e-002
3.288036e+003, 9.348664e-002
3.289964e+003, 9.200171e-002
3.291893e+003, 9.095135e-002
3.293821e+003, 8.954087e-002
3.295750e+003, 8.842594e-002
3.297678e+003, 8.764289e-002
3.299606e+003, 8.660976e-002
3.301535e+003, 8.562402e-002
3.303463e+003, 8.436443e-002
3.305392e+003, 8.296175e-002
3.307320e+003, 8.158009e-002
3.309249e+003, 8.065017e-002
3.311177e+003, 8.006064e-002
3.313106e+003, 7.925046e-002
3.315034e+003, 7.801817e-002
3.316963e+003, 7.678921e-002
3.318891e+003, 7.598525e-002
3.320820e+003, 7.537024e-002
3.322748e+003, 7.419436e-002
3.324677e+003, 7.337655e-002
3.326605e+003, 7.248454e-002
3.328533e+003, 7.106025e-002
3.330462e+003, 6.964165e-002
3.332390e+003, 6.868539e-002
3.334319e+003, 6.786425e-002
3.336247e+003, 6.728645e-002
3.338176e+003, 6.675373e-002
3.340104e+003, 6.621812e-002
3.342033e+003, 6.515517e-002
3.343961e+003, 6.405634e-002
3.345890e+003, 6.291091e-002
3.347818e+003, 6.211590e-002
3.349747e+003, 6.151281e-002
3.351675e+003, 6.071835e-002
3.353604e+003, 5.988287e-002
3.355532e+003, 5.898093e-002
3.357460e+003, 5.827822e-002
3.359389e+003, 5.745426e-002
3.361317e+003, 5.658631e-002
3.363246e+003, 5.541435e-002
3.365174e+003, 5.454372e-002
3.367103e+003, 5.370129e-002
3.369031e+003, 5.316906e-002
3.370960e+003, 5.222582e-002
3.372888e+003, 5.102933e-002
3.374817e+003, 4.982623e-002
3.376745e+003, 4.900619e-002
3.378674e+003, 4.864107e-002
3.380602e+003, 4.807201e-002
3.382531e+003, 4.696632e-002
3.384459e+003, 4.587327e-002
3.386387e+003, 4.502829e-002
3.388316e+003, 4.431218e-002
3.390244e+003, 4.327615e-002
3.392173e+003, 4.197798e-002
3.394101e+003, 4.112670e-002
3.396030e+003, 3.996278e-002
3.397958e+003, 3.864266e-002
3.399887e+003, 3.723399e-002
3.401815e+003, 3.620643e-002
3.403744e+003, 3.596246e-002
3.405672e+003, 3.577074e-002
3.407601e+003, 3.502481e-002
3.409529e+003, 3.370198e-002
3.411458e+003, 3.261916e-002
3.413386e+003, 3.178350e-002
3.415314e+003, 3.090070e-002
3.417243e+003, 2.963446e-002
3.419171e+003, 2.884488e-002
3.421100e+003, 2.860198e-002
3.423028e+003, 2.785296e-002
3.424957e+003, 2.724998e-002
3.426885e+003, 2.653320e-002
3.428814e+003, 2.599766e-002
3.430742e+003, 2.534700e-002
3.432671e+003, 2.399510e-002
3.434599e+003, 2.299394e-002
3.436528e+003, 2.283855e-002
3.438456e+003, 2.211445e-002
3.440385e+003, 2.145339e-002
3.442313e+003, 2.087549e-002
3.444241e+003, 1.994924e-002
3.446170e+003, 1.920805e-002
3.448098e+003, 1.911041e-002
3.450027e+003, 1.884608e-002
3.451955e+003, 1.850644e-002
3.453884e+003, 1.831143e-002
3.455812e+003, 1.776105e-002
3.457741e+003, 1.731766e-002
3.459669e+003, 1.693003e-002
3.461598e+003, 1.601022e-002
3.463526e+003, 1.545329e-002
3.465455e+003, 1.495263e-002
3.467383e+003, 1.436529e-002
3.469312e+003, 1.419567e-002
3.471240e+003, 1.407904e-002
3.473168e+003, 1.339083e-002
3.475097e+003, 1.297551e-002
3.477025e+003, 1.264362e-002
3.478954e+003, 1.228665e-002
3.480882e+003, 1.201343e-002
3.482811e+003, 1.155783e-002
3.484739e+003, 1.094801e-002
3.486668e+003, 1.022226e-002
3.488596e+003, 1.023167e-002
3.490525e+003, 9.426163e-003
3.492453e+003, 9.128114e-003
3.494382e+003, 9.249104e-003
3.496310e+003, 8.944849e-003
3.498239e+003, 8.484819e-003
3.500167e+003, 8.165495e-003
3.502095e+003, 8.165009e-003
3.504024e+003, 8.098473e-003
3.505952e+003, 8.139632e-003
3.507881e+003, 7.844238e-003
3.509809e+003, 7.279801e-003
3.511738e+003, 6.864765e-003
3.513666e+003, 6.705576e-003
3.515595e+003, 6.739239e-003
3.517523e+003, 6.707167e-003
3.519452e+003, 6.486721e-003
3.521380e+003, 6.175074e-003
3.523309e+003, 5.670819e-003
3.525237e+003, 5.299103e-003
3.527166e+003, 5.376054e-003
3.529094e+003, 5.603163e-003
3.531022e+003, 5.357481e-003
3.532951e+003, 4.760185e-003
3.534879e+003, 4.301777e-003
3.536808e+003, 4.214732e-003
3.538736e+003, 3.470923e-003
3.540665e+003, 3.995002e-003
3.542593e+003, 4.740553e-003
3.544522e+003, 4.367558e-003
3.546450e+003, 3.587486e-003
3.548379e+003, 3.282913e-003
3.550307e+003, 3.402973e-003
3.552236e+003, 3.141736e-003
3.554164e+003, 2.680887e-003
3.556093e+003, 2.872177e-003
3.558021e+003, 3.153610e-003
3.559949e+003, 2.775884e-003
3.561878e+003, 2.584978e-003
3.563806e+003, 2.893017e-003
3.565735e+003, 3.260307e-003
3.567663e+003, 3.268877e-003
3.569592e+003, 2.917527e-003
3.571520e+003, 2.194581e-003
3.573449e+003, 2.215977e-003
3.575377e+003, 2.638072e-003
3.577306e+003, 2.643093e-003
3.579234e+003, 2.020679e-003
3.581163e+003, 1.958855e-003
3.583091e+003, 2.148482e-003
3.585020e+003, 1.955228e-003
3.586948e+003, 2.250263e-003
3.588876e+003, 2.108755e-003
3.590805e+003, 1.719210e-003
3.592733e+003, 1.833880e-003
3.594662e+003, 1.643291e-003
3.596590e+003, 1.770682e-003
3.598519e+003, 2.224761e-003
3.600447e+003, 1.955190e-003
3.602376e+003, 8.960284e-004
3.604304e+003, 1.118334e-003
3.606233e+003, 1.285918e-003
3.608161e+003, 1.230170e-003
3.610090e+003, 1.179051e-003
3.612018e+003, 1.506855e-003
3.613947e+003, 1.413733e-003
3.615875e+003, 1.049571e-003
3.617803e+003, 1.210429e-003
3.619732e+003, 8.129378e-004
3.621660e+003, 8.311775e-004
3.623589e+003, 1.401066e-003
3.625517e+003, 1.494810e-003
3.627446e+003, 2.135902e-003
3.629374e+003, 2.049796e-003
3.631303e+003, 1.397134e-003
3.633231e+003, 1.250103e-003
3.635160e+003, 5.918338e-004
3.637088e+003, 1.171327e-003
3.639017e+003, 1.772409e-003
3.640945e+003, 8.965916e-004
3.642874e+003, 1.009442e-003
3.644802e+003, 1.929516e-003
3.646730e+003, 2.538851e-003
3.648659e+003, 1.833152e-003
3.650587e+003, 1.156797e-003
3.652516e+003, 8.639289e-004
3.654444e+003, 1.127339e-003
3.656373e+003, 1.140237e-003
3.658301e+003, 2.828075e-004
3.660230e+003, 5.570468e-004
3.662158e+003, 1.170594e-003
3.664087e+003, 1.055978e-003
3.666015e+003, 1.582491e-003
3.667944e+003, 1.952618e-003
3.669872e+003, 2.084948e-003
3.671801e+003, 1.640783e-003
3.673729e+003, 1.911515e-003
3.675657e+003, 2.472568e-003
3.677586e+003, 1.705877e-003
3.679514e+003, 1.195671e-003
3.681443e+003, 9.071841e-004
3.683371e+003, 1.103841e-003
3.685300e+003, 1.449072e-003
3.687228e+003, 2.632528e-003
3.689157e+003, 2.941653e-003
3.691085e+003, 2.797702e-003
3.693014e+003, 2.194432e-003
3.694942e+003, 1.365639e-003
3.696871e+003, 1.138528e-003
3.698799e+003, 4.158952e-004
3.700728e+003, 8.771509e-004
3.702656e+003, 1.084861e-003
3.704584e+003, 7.386605e-004
3.706513e+003, 1.213169e-003
3.708441e+003, 1.422915e-003
3.710370e+003, 1.568423e-003
3.712298e+003, 1.912575e-003
3.714227e+003, 1.927060e-003
3.716155e+003, 1.482649e-003
3.718084e+003, 9.750513e-004
3.720012e+003, 1.132872e-003
3.721941e+003, 1.544373e-003
3.723869e+003, 1.398171e-003
3.725798e+003, 1.475791e-003
3.727726e+003, 2.162009e-003
3.729655e+003, 2.340500e-003
3.731583e+003, 2.280855e-003
3.733511e+003, 3.053023e-003
3.735440e+003, 3.142954e-003
3.737368e+003, 2.565476e-003
3.739297e+003, 1.266171e-003
3.741225e+003, 7.284729e-004
3.743154e+003, 2.468178e-003
3.745082e+003, 3.254770e-003
3.747011e+003, 1.963401e-003
3.748939e+003, 2.294221e-003
3.750868e+003, 3.101649e-003
3.752796e+003, 2.598989e-003
3.754725e+003, 1.670629e-003
3.756653e+003, 1.478941e-003
3.758582e+003, 2.138558e-003
3.760510e+003, 2.791611e-003
3.762438e+003, 2.100349e-003
3.764367e+003, 1.747378e-003
3.766295e+003, 2.174766e-003
3.768224e+003, 2.046958e-003
3.770152e+003, 1.479843e-003
3.772081e+003, 1.832500e-003
3.774009e+003, 1.927781e-003
3.775938e+003, 1.554888e-003
3.777866e+003, 1.601262e-003
3.779795e+003, 2.098282e-003
3.781723e+003, 1.898725e-003
3.783652e+003, 1.987006e-003
3.785580e+003, 2.258284e-003
3.787509e+003, 2.370987e-003
3.789437e+003, 2.907651e-003
3.791365e+003, 2.407070e-003
3.793294e+003, 1.742037e-003
3.795222e+003, 2.156727e-003
3.797151e+003, 2.014300e-003
3.799079e+003, 1.502563e-003
3.801008e+003, 1.999768e-003
3.802936e+003, 2.020318e-003
3.804865e+003, 2.065755e-003
3.806793e+003, 2.557350e-003
3.808722e+003, 2.456886e-003
3.810650e+003, 2.058566e-003
3.812579e+003, 2.180513e-003
3.814507e+003, 2.577240e-003
3.816436e+003, 2.238256e-003
3.818364e+003, 2.321741e-003
3.820292e+003, 3.166415e-003
3.822221e+003, 3.463038e-003
3.824149e+003, 3.260722e-003
3.826078e+003, 2.323043e-003
3.828006e+003, 1.468587e-003
3.829935e+003, 1.747623e-003
3.831863e+003, 2.888441e-003
3.833792e+003, 3.268857e-003
3.835720e+003, 3.545956e-003
3.837649e+003, 4.033790e-003
3.839577e+003, 3.129205e-003
3.841506e+003, 2.128213e-003
3.843434e+003, 2.190099e-003
3.845363e+003, 2.308040e-003
3.847291e+003, 2.084286e-003
3.849219e+003, 2.077282e-003
3.851148e+003, 2.986955e-003
3.853076e+003, 4.081162e-003
3.855005e+003, 3.872312e-003
3.856933e+003, 2.571042e-003
3.858862e+003, 2.067973e-003
3.860790e+003, 2.257040e-003
3.862719e+003, 2.488358e-003
3.864647e+003, 2.544215e-003
3.866576e+003, 1.923430e-003
3.868504e+003, 2.343538e-003
3.870433e+003, 2.758407e-003
3.872361e+003, 2.150447e-003
3.874290e+003, 2.158463e-003
3.876218e+003, 2.350010e-003
3.878146e+003, 2.854502e-003
3.880075e+003, 2.919805e-003
3.882003e+003, 2.796394e-003
3.883932e+003, 2.954288e-003
3.885860e+003, 2.806024e-003
3.887789e+003, 2.679817e-003
3.889717e+003, 2.827161e-003
3.891646e+003, 2.947775e-003
3.893574e+003, 2.861240e-003
3.895503e+003, 2.463441e-003
3.897431e+003, 2.143327e-003
3.899360e+003, 2.215793e-003
3.901288e+003, 2.928947e-003
3.903217e+003, 2.829749e-003
3.905145e+003, 2.092526e-003
3.907073e+003, 1.841487e-003
3.909002e+003, 2.674252e-003
3.910930e+003, 2.962319e-003
3.912859e+003, 3.114572e-003
3.914787e+003, 2.952264e-003
3.916716e+003, 2.667624e-003
3.918644e+003, 2.377030e-003
3.920573e+003, 2.121317e-003
3.922501e+003, 2.285685e-003
3.924430e+003, 1.866310e-003
3.926358e+003, 2.438949e-003
3.928287e+003, 2.923306e-003
3.930215e+003, 2.799408e-003
3.932144e+003, 2.236845e-003
3.934072e+003, 2.269423e-003
3.936000e+003, 2.318208e-003
3.937929e+003, 2.714003e-003
3.939857e+003, 2.920895e-003
3.941786e+003, 2.652074e-003
3.943714e+003, 2.730617e-003
3.945643e+003, 2.787615e-003
3.947571e+003, 3.210661e-003
3.949500e+003, 3.745023e-003
3.951428e+003, 3.368650e-003
3.953357e+003, 2.620769e-003
3.955285e+003, 2.583622e-003
3.957214e+003, 2.234049e-003
3.959142e+003, 2.251721e-003
3.961071e+003, 2.230115e-003
3.962999e+003, 2.506957e-003
3.964927e+003, 3.460764e-003
3.966856e+003, 3.673731e-003
3.968784e+003, 3.784675e-003
3.970713e+003, 4.174368e-003
3.972641e+003, 4.329635e-003
3.974570e+003, 3.615150e-003
3.976498e+003, 3.212808e-003
3.978427e+003, 3.539194e-003
3.980355e+003, 3.729003e-003
3.982284e+003, 3.620568e-003
3.984212e+003, 3.207014e-003
3.986141e+003, 3.125642e-003
3.988069e+003, 3.547430e-003
3.989998e+003, 3.551024e-003
3.991926e+003, 3.020043e-003
3.993854e+003, 2.319995e-003
3.995783e+003, 2.766808e-003
3.997711e+003, 2.781172e-003
3.999640e+003, 2.799550e-003
4.001568e+003, 0.000000e+000
##END=



