##NAMES=Kurnakovite
##RRUFFID=R050105
##IDEAL CHEMISTRY=MgB_3_O_3_(OH)_5_&#183;5H_2_O
##LOCALITY=Kramer deposit, Boron, Kern County, California, USA
##OWNER=RRUFF
##SOURCE=Rock Currier
##DESCRIPTION=Tabular single crystal
##STATUS=The identification of this mineral has been confirmed by X-ray diffraction and chemical analysis
##URL=rruff.info/R050105
##MEASURED CHEMISTRY=MgB_3_O_3_(OH)_5_Â·5H_2_O
3.991926e+002, 1.458580e-001
4.011211e+002, 1.408331e-001
4.030495e+002, 1.412525e-001
4.049780e+002, 1.437093e-001
4.069065e+002, 1.460110e-001
4.088349e+002, 1.499245e-001
4.107634e+002, 1.456855e-001
4.126919e+002, 1.377040e-001
4.146203e+002, 1.373630e-001
4.165488e+002, 1.355779e-001
4.184773e+002, 1.238872e-001
4.204057e+002, 1.127155e-001
4.223342e+002, 1.089352e-001
4.242627e+002, 1.079421e-001
4.261911e+002, 1.057666e-001
4.281196e+002, 1.065310e-001
4.300481e+002, 1.104822e-001
4.319765e+002, 1.133539e-001
4.339050e+002, 1.168145e-001
4.358335e+002, 1.226418e-001
4.377619e+002, 1.277047e-001
4.396904e+002, 1.340621e-001
4.416189e+002, 1.385545e-001
4.435473e+002, 1.443855e-001
4.454758e+002, 1.484215e-001
4.474043e+002, 1.543528e-001
4.493327e+002, 1.599363e-001
4.512612e+002, 1.643212e-001
4.531897e+002, 1.686656e-001
4.551181e+002, 1.736636e-001
4.570466e+002, 1.757616e-001
4.589751e+002, 1.799668e-001
4.609035e+002, 1.827890e-001
4.628320e+002, 1.850799e-001
4.647605e+002, 1.867987e-001
4.666889e+002, 1.868322e-001
4.686174e+002, 1.851351e-001
4.705459e+002, 1.817268e-001
4.724743e+002, 1.755023e-001
4.744028e+002, 1.684729e-001
4.763313e+002, 1.641465e-001
4.782597e+002, 1.617029e-001
4.801882e+002, 1.601107e-001
4.821167e+002, 1.589313e-001
4.840451e+002, 1.579487e-001
4.859736e+002, 1.586846e-001
4.879021e+002, 1.594979e-001
4.898305e+002, 1.589440e-001
4.917590e+002, 1.584144e-001
4.936875e+002, 1.579876e-001
4.956159e+002, 1.567765e-001
4.975444e+002, 1.564354e-001
4.994729e+002, 1.569353e-001
5.014013e+002, 1.580326e-001
5.033298e+002, 1.584263e-001
5.052583e+002, 1.586165e-001
5.071867e+002, 1.598227e-001
5.091152e+002, 1.601975e-001
5.110437e+002, 1.610096e-001
5.129721e+002, 1.611333e-001
5.149006e+002, 1.615601e-001
5.168290e+002, 1.639077e-001
5.187575e+002, 1.650821e-001
5.206860e+002, 1.658037e-001
5.226144e+002, 1.663405e-001
5.245429e+002, 1.658614e-001
5.264714e+002, 1.653834e-001
5.283998e+002, 1.645241e-001
5.303283e+002, 1.629077e-001
5.322568e+002, 1.612766e-001
5.341852e+002, 1.585798e-001
5.361137e+002, 1.558611e-001
5.380422e+002, 1.537515e-001
5.399706e+002, 1.528967e-001
5.418991e+002, 1.523321e-001
5.438276e+002, 1.517216e-001
5.457560e+002, 1.515773e-001
5.476845e+002, 1.513105e-001
5.496130e+002, 1.488696e-001
5.515414e+002, 1.449472e-001
5.534699e+002, 1.412751e-001
5.553984e+002, 1.384861e-001
5.573268e+002, 1.375304e-001
5.592553e+002, 1.379802e-001
5.611838e+002, 1.399521e-001
5.631122e+002, 1.426725e-001
5.650407e+002, 1.455127e-001
5.669692e+002, 1.484914e-001
5.688976e+002, 1.521635e-001
5.708261e+002, 1.560979e-001
5.727546e+002, 1.593203e-001
5.746830e+002, 1.627098e-001
5.766115e+002, 1.653051e-001
5.785400e+002, 1.669816e-001
5.804684e+002, 1.678519e-001
5.823969e+002, 1.687316e-001
5.843254e+002, 1.692008e-001
5.862538e+002, 1.703157e-001
5.881823e+002, 1.720481e-001
5.901108e+002, 1.734824e-001
5.920392e+002, 1.755402e-001
5.939677e+002, 1.780995e-001
5.958962e+002, 1.806275e-001
5.978246e+002, 1.827563e-001
5.997531e+002, 1.849574e-001
6.016816e+002, 1.866031e-001
6.036100e+002, 1.880923e-001
6.055385e+002, 1.900402e-001
6.074670e+002, 1.916343e-001
6.093954e+002, 1.925823e-001
6.113239e+002, 1.932913e-001
6.132524e+002, 1.940538e-001
6.151808e+002, 1.948222e-001
6.171093e+002, 1.956524e-001
6.190378e+002, 1.969340e-001
6.209662e+002, 1.975739e-001
6.228947e+002, 1.978285e-001
6.248232e+002, 1.980041e-001
6.267516e+002, 1.979733e-001
6.286801e+002, 1.977829e-001
6.306086e+002, 1.980618e-001
6.325370e+002, 1.981402e-001
6.344655e+002, 1.982778e-001
6.363940e+002, 1.990003e-001
6.383224e+002, 2.007423e-001
6.402509e+002, 2.031740e-001
6.421794e+002, 2.058630e-001
6.441078e+002, 2.085974e-001
6.460363e+002, 2.113928e-001
6.479648e+002, 2.134320e-001
6.498932e+002, 2.148520e-001
6.518217e+002, 2.150244e-001
6.537502e+002, 2.136384e-001
6.556786e+002, 2.111979e-001
6.576071e+002, 2.073742e-001
6.595356e+002, 2.016063e-001
6.614641e+002, 1.946187e-001
6.633925e+002, 1.875094e-001
6.653210e+002, 1.806278e-001
6.672495e+002, 1.741759e-001
6.691779e+002, 1.684874e-001
6.711064e+002, 1.643802e-001
6.730349e+002, 1.617031e-001
6.749633e+002, 1.602573e-001
6.768918e+002, 1.599883e-001
6.788203e+002, 1.602073e-001
6.807487e+002, 1.608252e-001
6.826772e+002, 1.620569e-001
6.846057e+002, 1.641051e-001
6.865341e+002, 1.657910e-001
6.884626e+002, 1.676008e-001
6.903911e+002, 1.698110e-001
6.923195e+002, 1.720377e-001
6.942480e+002, 1.738142e-001
6.961765e+002, 1.758228e-001
6.981049e+002, 1.777749e-001
7.000334e+002, 1.795194e-001
7.019619e+002, 1.805887e-001
7.038903e+002, 1.817209e-001
7.058188e+002, 1.825476e-001
7.077473e+002, 1.827826e-001
7.096757e+002, 1.828671e-001
7.116042e+002, 1.828185e-001
7.135327e+002, 1.822484e-001
7.154611e+002, 1.814568e-001
7.173896e+002, 1.810986e-001
7.193181e+002, 1.808066e-001
7.212465e+002, 1.801435e-001
7.231750e+002, 1.799205e-001
7.251035e+002, 1.800980e-001
7.270319e+002, 1.810485e-001
7.289604e+002, 1.824060e-001
7.308889e+002, 1.842750e-001
7.328173e+002, 1.861897e-001
7.347458e+002, 1.880195e-001
7.366743e+002, 1.888531e-001
7.386027e+002, 1.886675e-001
7.405312e+002, 1.880552e-001
7.424597e+002, 1.872404e-001
7.443881e+002, 1.863717e-001
7.463166e+002, 1.857615e-001
7.482451e+002, 1.840834e-001
7.501735e+002, 1.819463e-001
7.521020e+002, 1.794239e-001
7.540305e+002, 1.767573e-001
7.559589e+002, 1.743799e-001
7.578874e+002, 1.713119e-001
7.598159e+002, 1.679672e-001
7.617443e+002, 1.650920e-001
7.636728e+002, 1.620293e-001
7.656013e+002, 1.591476e-001
7.675297e+002, 1.568195e-001
7.694582e+002, 1.544956e-001
7.713867e+002, 1.520281e-001
7.733151e+002, 1.497919e-001
7.752436e+002, 1.479802e-001
7.771721e+002, 1.466132e-001
7.791005e+002, 1.452018e-001
7.810290e+002, 1.440730e-001
7.829575e+002, 1.434469e-001
7.848859e+002, 1.432526e-001
7.868144e+002, 1.432057e-001
7.887429e+002, 1.439134e-001
7.906713e+002, 1.450625e-001
7.925998e+002, 1.466308e-001
7.945283e+002, 1.489015e-001
7.964567e+002, 1.524000e-001
7.983852e+002, 1.567702e-001
8.003137e+002, 1.618076e-001
8.022421e+002, 1.676006e-001
8.041706e+002, 1.741875e-001
8.060991e+002, 1.805489e-001
8.080275e+002, 1.857921e-001
8.099560e+002, 1.895208e-001
8.118845e+002, 1.913353e-001
8.138129e+002, 1.911534e-001
8.157414e+002, 1.896488e-001
8.176699e+002, 1.872688e-001
8.195983e+002, 1.847438e-001
8.215268e+002, 1.823286e-001
8.234553e+002, 1.803050e-001
8.253837e+002, 1.784993e-001
8.273122e+002, 1.771576e-001
8.292407e+002, 1.763736e-001
8.311691e+002, 1.761834e-001
8.330976e+002, 1.765962e-001
8.350261e+002, 1.777847e-001
8.369545e+002, 1.790876e-001
8.388830e+002, 1.805967e-001
8.408115e+002, 1.819210e-001
8.427399e+002, 1.833317e-001
8.446684e+002, 1.847959e-001
8.465969e+002, 1.860936e-001
8.485253e+002, 1.868300e-001
8.504538e+002, 1.869382e-001
8.523823e+002, 1.866071e-001
8.543107e+002, 1.862361e-001
8.562392e+002, 1.854292e-001
8.581677e+002, 1.846922e-001
8.600961e+002, 1.837046e-001
8.620246e+002, 1.826938e-001
8.639531e+002, 1.817327e-001
8.658815e+002, 1.808779e-001
8.678100e+002, 1.799066e-001
8.697385e+002, 1.790791e-001
8.716669e+002, 1.781880e-001
8.735954e+002, 1.773425e-001
8.755239e+002, 1.763259e-001
8.774523e+002, 1.752557e-001
8.793808e+002, 1.736046e-001
8.813093e+002, 1.718665e-001
8.832377e+002, 1.700422e-001
8.851662e+002, 1.681989e-001
8.870947e+002, 1.663009e-001
8.890231e+002, 1.640991e-001
8.909516e+002, 1.612843e-001
8.928801e+002, 1.580123e-001
8.948085e+002, 1.543746e-001
8.967370e+002, 1.502842e-001
8.986655e+002, 1.458073e-001
9.005939e+002, 1.409767e-001
9.025224e+002, 1.358010e-001
9.044509e+002, 1.306281e-001
9.063793e+002, 1.254160e-001
9.083078e+002, 1.202817e-001
9.102363e+002, 1.154182e-001
9.121647e+002, 1.108186e-001
9.140932e+002, 1.065459e-001
9.160217e+002, 1.028798e-001
9.179501e+002, 9.961063e-002
9.198786e+002, 9.698564e-002
9.218071e+002, 9.526408e-002
9.237355e+002, 9.439003e-002
9.256640e+002, 9.441918e-002
9.275925e+002, 9.581283e-002
9.295209e+002, 9.789180e-002
9.314494e+002, 1.006053e-001
9.333779e+002, 1.034680e-001
9.353063e+002, 1.063454e-001
9.372348e+002, 1.085919e-001
9.391633e+002, 1.097917e-001
9.410917e+002, 1.101633e-001
9.430202e+002, 1.104411e-001
9.449487e+002, 1.111281e-001
9.468771e+002, 1.128100e-001
9.488056e+002, 1.156233e-001
9.507341e+002, 1.197425e-001
9.526625e+002, 1.251137e-001
9.545910e+002, 1.320529e-001
9.565195e+002, 1.403018e-001
9.584479e+002, 1.492447e-001
9.603764e+002, 1.586266e-001
9.623049e+002, 1.682252e-001
9.642333e+002, 1.775104e-001
9.661618e+002, 1.866230e-001
9.680903e+002, 1.951813e-001
9.700187e+002, 2.028767e-001
9.719472e+002, 2.094648e-001
9.738757e+002, 2.153813e-001
9.758041e+002, 2.209005e-001
9.777326e+002, 2.256029e-001
9.796611e+002, 2.288660e-001
9.815895e+002, 2.314722e-001
9.835180e+002, 2.335376e-001
9.854465e+002, 2.349651e-001
9.873749e+002, 2.361901e-001
9.893034e+002, 2.375588e-001
9.912319e+002, 2.387748e-001
9.931603e+002, 2.400122e-001
9.950888e+002, 2.409986e-001
9.970173e+002, 2.417247e-001
9.989457e+002, 2.426805e-001
1.000874e+003, 2.437957e-001
1.002803e+003, 2.447089e-001
1.004731e+003, 2.454035e-001
1.006660e+003, 2.457177e-001
1.008588e+003, 2.455283e-001
1.010517e+003, 2.441979e-001
1.012445e+003, 2.416316e-001
1.014373e+003, 2.380780e-001
1.016302e+003, 2.336576e-001
1.018230e+003, 2.285994e-001
1.020159e+003, 2.233495e-001
1.022087e+003, 2.175651e-001
1.024016e+003, 2.118779e-001
1.025944e+003, 2.064548e-001
1.027873e+003, 2.017500e-001
1.029801e+003, 1.976304e-001
1.031730e+003, 1.935560e-001
1.033658e+003, 1.898387e-001
1.035587e+003, 1.870157e-001
1.037515e+003, 1.845581e-001
1.039443e+003, 1.824716e-001
1.041372e+003, 1.805820e-001
1.043300e+003, 1.787004e-001
1.045229e+003, 1.760970e-001
1.047157e+003, 1.728835e-001
1.049086e+003, 1.687105e-001
1.051014e+003, 1.638761e-001
1.052943e+003, 1.586203e-001
1.054871e+003, 1.533048e-001
1.056800e+003, 1.481561e-001
1.058728e+003, 1.433136e-001
1.060657e+003, 1.385774e-001
1.062585e+003, 1.341362e-001
1.064514e+003, 1.299037e-001
1.066442e+003, 1.259916e-001
1.068370e+003, 1.223691e-001
1.070299e+003, 1.187872e-001
1.072227e+003, 1.147930e-001
1.074156e+003, 1.109924e-001
1.076084e+003, 1.074852e-001
1.078013e+003, 1.040149e-001
1.079941e+003, 1.008112e-001
1.081870e+003, 9.801070e-002
1.083798e+003, 9.546626e-002
1.085727e+003, 9.374239e-002
1.087655e+003, 9.227424e-002
1.089584e+003, 9.122328e-002
1.091512e+003, 9.032347e-002
1.093441e+003, 8.939643e-002
1.095369e+003, 8.804162e-002
1.097297e+003, 8.637974e-002
1.099226e+003, 8.461542e-002
1.101154e+003, 8.317094e-002
1.103083e+003, 8.162740e-002
1.105011e+003, 7.999808e-002
1.106940e+003, 7.804392e-002
1.108868e+003, 7.624501e-002
1.110797e+003, 7.454117e-002
1.112725e+003, 7.291273e-002
1.114654e+003, 7.148106e-002
1.116582e+003, 7.013150e-002
1.118511e+003, 6.870811e-002
1.120439e+003, 6.747252e-002
1.122368e+003, 6.639856e-002
1.124296e+003, 6.581287e-002
1.126224e+003, 6.526082e-002
1.128153e+003, 6.466254e-002
1.130081e+003, 6.414032e-002
1.132010e+003, 6.400064e-002
1.133938e+003, 6.402858e-002
1.135867e+003, 6.424992e-002
1.137795e+003, 6.450143e-002
1.139724e+003, 6.488841e-002
1.141652e+003, 6.537607e-002
1.143581e+003, 6.607381e-002
1.145509e+003, 6.680393e-002
1.147438e+003, 6.786423e-002
1.149366e+003, 6.899079e-002
1.151295e+003, 7.049145e-002
1.153223e+003, 7.177161e-002
1.155151e+003, 7.276446e-002
1.157080e+003, 7.339279e-002
1.159008e+003, 7.359696e-002
1.160937e+003, 7.305615e-002
1.162865e+003, 7.196178e-002
1.164794e+003, 7.043380e-002
1.166722e+003, 6.877980e-002
1.168651e+003, 6.702796e-002
1.170579e+003, 6.541448e-002
1.172508e+003, 6.392840e-002
1.174436e+003, 6.284327e-002
1.176365e+003, 6.215277e-002
1.178293e+003, 6.202141e-002
1.180222e+003, 6.236839e-002
1.182150e+003, 6.327587e-002
1.184078e+003, 6.450802e-002
1.186007e+003, 6.610824e-002
1.187935e+003, 6.784606e-002
1.189864e+003, 7.006454e-002
1.191792e+003, 7.283117e-002
1.193721e+003, 7.620893e-002
1.195649e+003, 7.997411e-002
1.197578e+003, 8.440236e-002
1.199506e+003, 8.923806e-002
1.201435e+003, 9.445255e-002
1.203363e+003, 1.000314e-001
1.205292e+003, 1.061865e-001
1.207220e+003, 1.122182e-001
1.209149e+003, 1.180477e-001
1.211077e+003, 1.234674e-001
1.213005e+003, 1.280162e-001
1.214934e+003, 1.309253e-001
1.216862e+003, 1.320727e-001
1.218791e+003, 1.315021e-001
1.220719e+003, 1.294692e-001
1.222648e+003, 1.258714e-001
1.224576e+003, 1.211444e-001
1.226505e+003, 1.157281e-001
1.228433e+003, 1.102098e-001
1.230362e+003, 1.048056e-001
1.232290e+003, 9.982298e-002
1.234219e+003, 9.566381e-002
1.236147e+003, 9.238626e-002
1.238076e+003, 8.985325e-002
1.240004e+003, 8.808760e-002
1.241932e+003, 8.714861e-002
1.243861e+003, 8.722251e-002
1.245789e+003, 8.781207e-002
1.247718e+003, 8.875699e-002
1.249646e+003, 9.030965e-002
1.251575e+003, 9.229720e-002
1.253503e+003, 9.399360e-002
1.255432e+003, 9.549234e-002
1.257360e+003, 9.676104e-002
1.259289e+003, 9.795081e-002
1.261217e+003, 9.856592e-002
1.263146e+003, 9.850960e-002
1.265074e+003, 9.798492e-002
1.267003e+003, 9.726132e-002
1.268931e+003, 9.600261e-002
1.270859e+003, 9.418139e-002
1.272788e+003, 9.211747e-002
1.274716e+003, 9.008788e-002
1.276645e+003, 8.798792e-002
1.278573e+003, 8.623817e-002
1.280502e+003, 8.482598e-002
1.282430e+003, 8.382042e-002
1.284359e+003, 8.310390e-002
1.286287e+003, 8.269182e-002
1.288216e+003, 8.216073e-002
1.290144e+003, 8.163878e-002
1.292073e+003, 8.097509e-002
1.294001e+003, 7.995644e-002
1.295930e+003, 7.834959e-002
1.297858e+003, 7.681186e-002
1.299786e+003, 7.531818e-002
1.301715e+003, 7.382645e-002
1.303643e+003, 7.254593e-002
1.305572e+003, 7.169476e-002
1.307500e+003, 7.144453e-002
1.309429e+003, 7.172635e-002
1.311357e+003, 7.231527e-002
1.313286e+003, 7.350384e-002
1.315214e+003, 7.513472e-002
1.317143e+003, 7.742748e-002
1.319071e+003, 8.047149e-002
1.321000e+003, 8.402514e-002
1.322928e+003, 8.820839e-002
1.324857e+003, 9.315371e-002
1.326785e+003, 9.864930e-002
1.328714e+003, 1.052354e-001
1.330642e+003, 1.124590e-001
1.332570e+003, 1.202275e-001
1.334499e+003, 1.283996e-001
1.336427e+003, 1.365203e-001
1.338356e+003, 1.442271e-001
1.340284e+003, 1.513039e-001
1.342213e+003, 1.574315e-001
1.344141e+003, 1.623900e-001
1.346070e+003, 1.652325e-001
1.347998e+003, 1.656913e-001
1.349927e+003, 1.634904e-001
1.351855e+003, 1.587725e-001
1.353784e+003, 1.520846e-001
1.355712e+003, 1.442210e-001
1.357641e+003, 1.358218e-001
1.359569e+003, 1.274572e-001
1.361497e+003, 1.195999e-001
1.363426e+003, 1.126155e-001
1.365354e+003, 1.066441e-001
1.367283e+003, 1.021211e-001
1.369211e+003, 9.913366e-002
1.371140e+003, 9.797785e-002
1.373068e+003, 9.831901e-002
1.374997e+003, 1.001587e-001
1.376925e+003, 1.032433e-001
1.378854e+003, 1.078946e-001
1.380782e+003, 1.135756e-001
1.382711e+003, 1.199025e-001
1.384639e+003, 1.257765e-001
1.386568e+003, 1.308550e-001
1.388496e+003, 1.345489e-001
1.390424e+003, 1.369280e-001
1.392353e+003, 1.379265e-001
1.394281e+003, 1.376605e-001
1.396210e+003, 1.361354e-001
1.398138e+003, 1.342200e-001
1.400067e+003, 1.322072e-001
1.401995e+003, 1.308347e-001
1.403924e+003, 1.300545e-001
1.405852e+003, 1.292619e-001
1.407781e+003, 1.284071e-001
1.409709e+003, 1.276515e-001
1.411638e+003, 1.264850e-001
1.413566e+003, 1.247652e-001
1.415495e+003, 1.222616e-001
1.417423e+003, 1.189690e-001
1.419351e+003, 1.145547e-001
1.421280e+003, 1.092283e-001
1.423208e+003, 1.033313e-001
1.425137e+003, 9.699991e-002
1.427065e+003, 9.048384e-002
1.428994e+003, 8.423284e-002
1.430922e+003, 7.820684e-002
1.432851e+003, 7.310798e-002
1.434779e+003, 6.885083e-002
1.436708e+003, 6.553721e-002
1.438636e+003, 6.271980e-002
1.440565e+003, 6.109100e-002
1.442493e+003, 6.070269e-002
1.444422e+003, 6.135414e-002
1.446350e+003, 6.279947e-002
1.448278e+003, 6.439720e-002
1.450207e+003, 6.573423e-002
1.452135e+003, 6.691861e-002
1.454064e+003, 6.704593e-002
1.455992e+003, 6.611010e-002
1.457921e+003, 6.374443e-002
1.459849e+003, 6.031064e-002
1.461778e+003, 5.640172e-002
1.463706e+003, 5.227939e-002
1.465635e+003, 4.795452e-002
1.467563e+003, 4.373568e-002
1.469492e+003, 4.011885e-002
1.471420e+003, 3.723221e-002
1.473349e+003, 3.442411e-002
1.475277e+003, 3.190639e-002
1.477205e+003, 2.986901e-002
1.479134e+003, 2.812553e-002
1.481062e+003, 2.662994e-002
1.482991e+003, 2.549526e-002
1.484919e+003, 2.443722e-002
1.486848e+003, 2.367146e-002
1.488776e+003, 2.305953e-002
1.490705e+003, 2.254588e-002
1.492633e+003, 2.187059e-002
1.494562e+003, 2.144940e-002
1.496490e+003, 2.123593e-002
1.498419e+003, 2.100977e-002
1.500347e+003, 2.055293e-002
1.502276e+003, 2.021928e-002
1.504204e+003, 2.039585e-002
1.506132e+003, 2.086675e-002
1.508061e+003, 2.045558e-002
1.509989e+003, 2.000588e-002
1.511918e+003, 1.976684e-002
1.513846e+003, 1.963967e-002
1.515775e+003, 1.985491e-002
1.517703e+003, 2.001678e-002
1.519632e+003, 2.023987e-002
1.521560e+003, 2.032812e-002
1.523489e+003, 1.993148e-002
1.525417e+003, 2.006875e-002
1.527346e+003, 2.012441e-002
1.529274e+003, 2.009387e-002
1.531203e+003, 2.009133e-002
1.533131e+003, 2.045036e-002
1.535059e+003, 2.051429e-002
1.536988e+003, 2.073775e-002
1.538916e+003, 2.138033e-002
1.540845e+003, 2.172983e-002
1.542773e+003, 2.148766e-002
1.544702e+003, 2.132039e-002
1.546630e+003, 2.126891e-002
1.548559e+003, 2.136690e-002
1.550487e+003, 2.168205e-002
1.552416e+003, 2.212181e-002
1.554344e+003, 2.240659e-002
1.556273e+003, 2.292767e-002
1.558201e+003, 2.350849e-002
1.560130e+003, 2.345392e-002
1.562058e+003, 2.307273e-002
1.563986e+003, 2.322196e-002
1.565915e+003, 2.332253e-002
1.567843e+003, 2.366936e-002
1.569772e+003, 2.412925e-002
1.571700e+003, 2.433663e-002
1.573629e+003, 2.460993e-002
1.575557e+003, 2.515601e-002
1.577486e+003, 2.523695e-002
1.579414e+003, 2.528605e-002
1.581343e+003, 2.541086e-002
1.583271e+003, 2.574240e-002
1.585200e+003, 2.625484e-002
1.587128e+003, 2.673194e-002
1.589057e+003, 2.716631e-002
1.590985e+003, 2.793577e-002
1.592913e+003, 2.866318e-002
1.594842e+003, 2.915848e-002
1.596770e+003, 2.934622e-002
1.598699e+003, 3.001943e-002
1.600627e+003, 3.084510e-002
1.602556e+003, 3.139120e-002
1.604484e+003, 3.183558e-002
1.606413e+003, 3.224126e-002
1.608341e+003, 3.269124e-002
1.610270e+003, 3.314637e-002
1.612198e+003, 3.386210e-002
1.614127e+003, 3.422712e-002
1.616055e+003, 3.450255e-002
1.617984e+003, 3.454830e-002
1.619912e+003, 3.447561e-002
1.621840e+003, 3.461780e-002
1.623769e+003, 3.452285e-002
1.625697e+003, 3.447812e-002
1.627626e+003, 3.434383e-002
1.629554e+003, 3.432791e-002
1.631483e+003, 3.442575e-002
1.633411e+003, 3.490053e-002
1.635340e+003, 3.516313e-002
1.637268e+003, 3.488735e-002
1.639197e+003, 3.447147e-002
1.641125e+003, 3.430037e-002
1.643054e+003, 3.438397e-002
1.644982e+003, 3.473612e-002
1.646911e+003, 3.471752e-002
1.648839e+003, 3.456431e-002
1.650767e+003, 3.473599e-002
1.652696e+003, 3.532466e-002
1.654624e+003, 3.510246e-002
1.656553e+003, 3.492182e-002
1.658481e+003, 3.488203e-002
1.660410e+003, 3.512988e-002
1.662338e+003, 3.558000e-002
1.664267e+003, 3.618301e-002
1.666195e+003, 3.695024e-002
1.668124e+003, 3.804633e-002
1.670052e+003, 3.881186e-002
1.671981e+003, 3.968355e-002
1.673909e+003, 4.118714e-002
1.675838e+003, 4.287652e-002
1.677766e+003, 4.419238e-002
1.679694e+003, 4.542339e-002
1.681623e+003, 4.632945e-002
1.683551e+003, 4.698820e-002
1.685480e+003, 4.652705e-002
1.687408e+003, 4.492145e-002
1.689337e+003, 4.271426e-002
1.691265e+003, 4.018231e-002
1.693194e+003, 3.774540e-002
1.695122e+003, 3.571287e-002
1.697051e+003, 3.327287e-002
1.698979e+003, 3.105307e-002
1.700908e+003, 2.869188e-002
1.702836e+003, 2.649294e-002
1.704765e+003, 2.484920e-002
1.706693e+003, 2.333266e-002
1.708621e+003, 2.198452e-002
1.710550e+003, 2.088499e-002
1.712478e+003, 1.986539e-002
1.714407e+003, 1.923961e-002
1.716335e+003, 1.862208e-002
1.718264e+003, 1.796552e-002
1.720192e+003, 1.704678e-002
1.722121e+003, 1.634203e-002
1.724049e+003, 1.581442e-002
1.725978e+003, 1.526644e-002
1.727906e+003, 1.453740e-002
1.729835e+003, 1.423817e-002
1.731763e+003, 1.422348e-002
1.733692e+003, 1.416981e-002
1.735620e+003, 1.345819e-002
1.737548e+003, 1.276896e-002
1.739477e+003, 1.245104e-002
1.741405e+003, 1.225673e-002
1.743334e+003, 1.189805e-002
1.745262e+003, 1.143780e-002
1.747191e+003, 1.110563e-002
1.749119e+003, 1.086906e-002
1.751048e+003, 1.066293e-002
1.752976e+003, 1.038779e-002
1.754905e+003, 1.008408e-002
1.756833e+003, 9.932348e-003
1.758762e+003, 9.710180e-003
1.760690e+003, 9.704728e-003
1.762619e+003, 9.588216e-003
1.764547e+003, 9.381022e-003
1.766475e+003, 9.204691e-003
1.768404e+003, 9.254089e-003
1.770332e+003, 9.320258e-003
1.772261e+003, 9.726813e-003
1.774189e+003, 9.463333e-003
1.776118e+003, 8.931505e-003
1.778046e+003, 8.581821e-003
1.779975e+003, 8.541606e-003
1.781903e+003, 8.629221e-003
1.783832e+003, 8.829754e-003
1.785760e+003, 8.785055e-003
1.787689e+003, 8.524727e-003
1.789617e+003, 8.243074e-003
1.791546e+003, 8.357166e-003
1.793474e+003, 8.456903e-003
1.795402e+003, 8.320637e-003
1.797331e+003, 8.168978e-003
1.799259e+003, 8.213566e-003
1.801188e+003, 8.115589e-003
1.803116e+003, 8.017474e-003
1.805045e+003, 7.980470e-003
1.806973e+003, 8.016555e-003
1.808902e+003, 7.848724e-003
1.810830e+003, 7.779020e-003
1.812759e+003, 7.662818e-003
1.814687e+003, 7.437216e-003
1.816616e+003, 7.360341e-003
1.818544e+003, 7.866950e-003
1.820473e+003, 7.814414e-003
1.822401e+003, 7.594997e-003
1.824329e+003, 7.702437e-003
1.826258e+003, 7.716733e-003
1.828186e+003, 7.566930e-003
1.830115e+003, 7.571159e-003
1.832043e+003, 7.331145e-003
1.833972e+003, 7.128990e-003
1.835900e+003, 7.078716e-003
1.837829e+003, 7.263215e-003
1.839757e+003, 6.994541e-003
1.841686e+003, 7.246510e-003
1.843614e+003, 7.841863e-003
1.845543e+003, 7.890869e-003
1.847471e+003, 7.148040e-003
1.849400e+003, 6.816258e-003
1.851328e+003, 6.679034e-003
1.853256e+003, 6.930587e-003
1.855185e+003, 7.285667e-003
1.857113e+003, 7.375129e-003
1.859042e+003, 7.014170e-003
1.860970e+003, 6.425414e-003
1.862899e+003, 6.529000e-003
1.864827e+003, 7.146346e-003
1.866756e+003, 6.996115e-003
1.868684e+003, 7.032729e-003
1.870613e+003, 6.683878e-003
1.872541e+003, 6.278549e-003
1.874470e+003, 5.954410e-003
1.876398e+003, 6.013040e-003
1.878327e+003, 6.147618e-003
1.880255e+003, 6.424196e-003
1.882183e+003, 6.175641e-003
1.884112e+003, 6.506908e-003
1.886040e+003, 6.684395e-003
1.887969e+003, 6.747108e-003
1.889897e+003, 6.707101e-003
1.891826e+003, 6.716634e-003
1.893754e+003, 6.740498e-003
1.895683e+003, 6.826771e-003
1.897611e+003, 6.562773e-003
1.899540e+003, 6.533594e-003
1.901468e+003, 6.220888e-003
1.903397e+003, 6.426401e-003
1.905325e+003, 6.746641e-003
1.907254e+003, 7.090908e-003
1.909182e+003, 6.943236e-003
1.911110e+003, 6.592654e-003
1.913039e+003, 6.392953e-003
1.914967e+003, 6.626480e-003
1.916896e+003, 6.832597e-003
1.918824e+003, 6.425568e-003
1.920753e+003, 5.909765e-003
1.922681e+003, 6.341761e-003
1.924610e+003, 5.875224e-003
1.926538e+003, 5.445060e-003
1.928467e+003, 5.760299e-003
1.930395e+003, 6.446047e-003
1.932324e+003, 6.412607e-003
1.934252e+003, 6.610290e-003
1.936181e+003, 6.312662e-003
1.938109e+003, 6.214700e-003
1.940037e+003, 5.535614e-003
1.941966e+003, 6.062127e-003
1.943894e+003, 7.180967e-003
1.945823e+003, 6.161665e-003
1.947751e+003, 4.496630e-003
1.949680e+003, 5.211157e-003
1.951608e+003, 5.251695e-003
1.953537e+003, 4.913914e-003
1.955465e+003, 4.040906e-003
1.957394e+003, 4.440191e-003
1.959322e+003, 6.207416e-003
1.961251e+003, 7.050752e-003
1.963179e+003, 6.163441e-003
1.965108e+003, 6.081206e-003
1.967036e+003, 5.369431e-003
1.968964e+003, 4.089316e-003
1.970893e+003, 4.033991e-003
1.972821e+003, 4.987384e-003
1.974750e+003, 5.403560e-003
1.976678e+003, 6.892506e-003
1.978607e+003, 7.793191e-003
1.980535e+003, 7.715024e-003
1.982464e+003, 7.097115e-003
1.984392e+003, 6.925125e-003
1.986321e+003, 6.712909e-003
1.988249e+003, 7.417050e-003
1.990178e+003, 7.276648e-003
1.992106e+003, 7.105517e-003
1.994035e+003, 7.090941e-003
1.995963e+003, 7.267996e-003
1.997891e+003, 7.201768e-003
1.999820e+003, 6.492025e-003
2.001748e+003, 5.543269e-003
2.003677e+003, 5.345117e-003
2.005605e+003, 5.877059e-003
2.007534e+003, 8.108560e-003
2.009462e+003, 8.013977e-003
2.011391e+003, 5.746875e-003
2.013319e+003, 4.849590e-003
2.015248e+003, 6.236434e-003
2.017176e+003, 5.990767e-003
2.019105e+003, 5.496054e-003
2.021033e+003, 4.805766e-003
2.022962e+003, 4.620319e-003
2.024890e+003, 6.154904e-003
2.026818e+003, 7.463775e-003
2.028747e+003, 7.920441e-003
2.030675e+003, 8.726375e-003
2.032604e+003, 7.857133e-003
2.034532e+003, 7.087952e-003
2.036461e+003, 6.093298e-003
2.038389e+003, 7.004754e-003
2.040318e+003, 8.644423e-003
2.042246e+003, 8.767625e-003
2.044175e+003, 8.283306e-003
2.046103e+003, 9.015907e-003
2.048031e+003, 9.862686e-003
2.049960e+003, 1.079089e-002
2.051888e+003, 9.463351e-003
2.053817e+003, 8.311753e-003
2.055745e+003, 9.227153e-003
2.057674e+003, 9.964675e-003
2.059602e+003, 8.892721e-003
2.061531e+003, 7.493584e-003
2.063459e+003, 6.947419e-003
2.065388e+003, 7.905906e-003
2.067316e+003, 8.775501e-003
2.069245e+003, 9.332825e-003
2.071173e+003, 1.035357e-002
2.073102e+003, 1.073889e-002
2.075030e+003, 9.660448e-003
2.076958e+003, 9.795617e-003
2.078887e+003, 1.009730e-002
2.080815e+003, 1.072154e-002
2.082744e+003, 1.016980e-002
2.084672e+003, 9.665739e-003
2.086601e+003, 9.468452e-003
2.088529e+003, 9.256030e-003
2.090458e+003, 9.017588e-003
2.092386e+003, 9.851071e-003
2.094315e+003, 1.021730e-002
2.096243e+003, 1.005526e-002
2.098172e+003, 9.443273e-003
2.100100e+003, 9.409467e-003
2.102029e+003, 9.574925e-003
2.103957e+003, 1.014460e-002
2.105885e+003, 1.026761e-002
2.107814e+003, 1.013525e-002
2.109742e+003, 1.027791e-002
2.111671e+003, 1.056304e-002
2.113599e+003, 1.035914e-002
2.115528e+003, 1.061395e-002
2.117456e+003, 1.014117e-002
2.119385e+003, 9.801286e-003
2.121313e+003, 9.732299e-003
2.123242e+003, 1.007985e-002
2.125170e+003, 1.042173e-002
2.127099e+003, 9.454511e-003
2.129027e+003, 8.392196e-003
2.130956e+003, 8.900228e-003
2.132884e+003, 9.373981e-003
2.134813e+003, 1.039806e-002
2.136741e+003, 1.002268e-002
2.138669e+003, 9.582133e-003
2.140598e+003, 1.019616e-002
2.142526e+003, 1.161810e-002
2.144455e+003, 1.093320e-002
2.146383e+003, 9.944625e-003
2.148312e+003, 1.093523e-002
2.150240e+003, 1.197153e-002
2.152169e+003, 1.283757e-002
2.154097e+003, 1.334972e-002
2.156026e+003, 1.195680e-002
2.157954e+003, 1.257183e-002
2.159883e+003, 1.470758e-002
2.161811e+003, 1.564377e-002
2.163740e+003, 1.385836e-002
2.165668e+003, 1.474902e-002
2.167596e+003, 1.543718e-002
2.169525e+003, 1.444647e-002
2.171453e+003, 1.330287e-002
2.173382e+003, 1.373339e-002
2.175310e+003, 1.343215e-002
2.177239e+003, 1.383376e-002
2.179167e+003, 1.422725e-002
2.181096e+003, 1.422720e-002
2.183024e+003, 1.351222e-002
2.184953e+003, 1.323923e-002
2.186881e+003, 1.303780e-002
2.188810e+003, 1.388021e-002
2.190738e+003, 1.381062e-002
2.192667e+003, 1.463114e-002
2.194595e+003, 1.473443e-002
2.196523e+003, 1.485512e-002
2.198452e+003, 1.469798e-002
2.200380e+003, 1.460891e-002
2.202309e+003, 1.399712e-002
2.204237e+003, 1.329034e-002
2.206166e+003, 1.261065e-002
2.208094e+003, 1.346352e-002
2.210023e+003, 1.323545e-002
2.211951e+003, 1.364318e-002
2.213880e+003, 1.356088e-002
2.215808e+003, 1.327997e-002
2.217737e+003, 1.373628e-002
2.219665e+003, 1.535010e-002
2.221594e+003, 1.606718e-002
2.223522e+003, 1.601715e-002
2.225450e+003, 1.476992e-002
2.227379e+003, 1.473813e-002
2.229307e+003, 1.475673e-002
2.231236e+003, 1.523959e-002
2.233164e+003, 1.561500e-002
2.235093e+003, 1.683981e-002
2.237021e+003, 1.691477e-002
2.238950e+003, 1.674986e-002
2.240878e+003, 1.622758e-002
2.242807e+003, 1.537599e-002
2.244735e+003, 1.476121e-002
2.246664e+003, 1.484156e-002
2.248592e+003, 1.510121e-002
2.250521e+003, 1.554252e-002
2.252449e+003, 1.548878e-002
2.254377e+003, 1.592429e-002
2.256306e+003, 1.577066e-002
2.258234e+003, 1.555995e-002
2.260163e+003, 1.553927e-002
2.262091e+003, 1.605557e-002
2.264020e+003, 1.656934e-002
2.265948e+003, 1.690866e-002
2.267877e+003, 1.625246e-002
2.269805e+003, 1.638823e-002
2.271734e+003, 1.674087e-002
2.273662e+003, 1.741665e-002
2.275591e+003, 1.745620e-002
2.277519e+003, 1.751710e-002
2.279448e+003, 1.758200e-002
2.281376e+003, 1.822303e-002
2.283304e+003, 1.833088e-002
2.285233e+003, 1.814550e-002
2.287161e+003, 1.790433e-002
2.289090e+003, 1.792592e-002
2.291018e+003, 1.775102e-002
2.292947e+003, 1.822140e-002
2.294875e+003, 1.781267e-002
2.296804e+003, 1.743246e-002
2.298732e+003, 1.759736e-002
2.300661e+003, 1.838938e-002
2.302589e+003, 1.848455e-002
2.304518e+003, 1.818130e-002
2.306446e+003, 1.799021e-002
2.308375e+003, 1.835987e-002
2.310303e+003, 1.845221e-002
2.312231e+003, 1.822407e-002
2.314160e+003, 1.838455e-002
2.316088e+003, 1.897687e-002
2.318017e+003, 1.903714e-002
2.319945e+003, 1.979357e-002
2.321874e+003, 2.046460e-002
2.323802e+003, 2.095367e-002
2.325731e+003, 2.019871e-002
2.327659e+003, 1.950005e-002
2.329588e+003, 1.953079e-002
2.331516e+003, 1.935416e-002
2.333445e+003, 1.934865e-002
2.335373e+003, 1.995054e-002
2.337302e+003, 2.011933e-002
2.339230e+003, 1.993110e-002
2.341158e+003, 1.977657e-002
2.343087e+003, 1.972868e-002
2.345015e+003, 1.908544e-002
2.346944e+003, 1.889122e-002
2.348872e+003, 1.880187e-002
2.350801e+003, 1.894570e-002
2.352729e+003, 1.935509e-002
2.354658e+003, 2.000585e-002
2.356586e+003, 2.047610e-002
2.358515e+003, 2.041369e-002
2.360443e+003, 1.999263e-002
2.362372e+003, 1.979897e-002
2.364300e+003, 1.989677e-002
2.366229e+003, 2.020525e-002
2.368157e+003, 2.021346e-002
2.370085e+003, 2.018120e-002
2.372014e+003, 1.958992e-002
2.373942e+003, 1.912566e-002
2.375871e+003, 1.863760e-002
2.377799e+003, 1.811408e-002
2.379728e+003, 1.787724e-002
2.381656e+003, 1.782412e-002
2.383585e+003, 1.799178e-002
2.385513e+003, 1.849987e-002
2.387442e+003, 1.804448e-002
2.389370e+003, 1.830554e-002
2.391299e+003, 1.840636e-002
2.393227e+003, 1.833671e-002
2.395156e+003, 1.870390e-002
2.397084e+003, 1.885813e-002
2.399012e+003, 1.849990e-002
2.400941e+003, 1.854176e-002
2.402869e+003, 1.824768e-002
2.404798e+003, 1.784616e-002
2.406726e+003, 1.788721e-002
2.408655e+003, 1.837351e-002
2.410583e+003, 1.861257e-002
2.412512e+003, 1.827372e-002
2.414440e+003, 1.867427e-002
2.416369e+003, 1.926169e-002
2.418297e+003, 1.905894e-002
2.420226e+003, 1.857979e-002
2.422154e+003, 1.824130e-002
2.424083e+003, 1.837810e-002
2.426011e+003, 1.841912e-002
2.427939e+003, 1.828046e-002
2.429868e+003, 1.792822e-002
2.431796e+003, 1.811157e-002
2.433725e+003, 1.790166e-002
2.435653e+003, 1.806202e-002
2.437582e+003, 1.802869e-002
2.439510e+003, 1.834431e-002
2.441439e+003, 1.832085e-002
2.443367e+003, 1.827462e-002
2.445296e+003, 1.802357e-002
2.447224e+003, 1.794006e-002
2.449153e+003, 1.799241e-002
2.451081e+003, 1.839111e-002
2.453010e+003, 1.814332e-002
2.454938e+003, 1.853068e-002
2.456866e+003, 1.828635e-002
2.458795e+003, 1.811672e-002
2.460723e+003, 1.819503e-002
2.462652e+003, 1.813321e-002
2.464580e+003, 1.832223e-002
2.466509e+003, 1.863073e-002
2.468437e+003, 1.836853e-002
2.470366e+003, 1.839304e-002
2.472294e+003, 1.880143e-002
2.474223e+003, 1.885648e-002
2.476151e+003, 1.881824e-002
2.478080e+003, 1.903544e-002
2.480008e+003, 1.884922e-002
2.481937e+003, 1.859502e-002
2.483865e+003, 1.788806e-002
2.485793e+003, 1.808642e-002
2.487722e+003, 1.850318e-002
2.489650e+003, 1.885350e-002
2.491579e+003, 1.870698e-002
2.493507e+003, 1.857698e-002
2.495436e+003, 1.818516e-002
2.497364e+003, 1.837863e-002
2.499293e+003, 1.824871e-002
2.501221e+003, 1.819672e-002
2.503150e+003, 1.861067e-002
2.505078e+003, 1.905492e-002
2.507007e+003, 1.858061e-002
2.508935e+003, 1.829484e-002
2.510864e+003, 1.784912e-002
2.512792e+003, 1.815948e-002
2.514720e+003, 1.849312e-002
2.516649e+003, 1.828665e-002
2.518577e+003, 1.799651e-002
2.520506e+003, 1.888659e-002
2.522434e+003, 1.910120e-002
2.524363e+003, 1.876343e-002
2.526291e+003, 1.873152e-002
2.528220e+003, 1.895997e-002
2.530148e+003, 1.871390e-002
2.532077e+003, 1.920853e-002
2.534005e+003, 1.939132e-002
2.535934e+003, 1.943848e-002
2.537862e+003, 1.928750e-002
2.539791e+003, 1.908236e-002
2.541719e+003, 1.930397e-002
2.543647e+003, 1.952969e-002
2.545576e+003, 1.939600e-002
2.547504e+003, 1.973768e-002
2.549433e+003, 2.008604e-002
2.551361e+003, 2.071033e-002
2.553290e+003, 2.011961e-002
2.555218e+003, 2.000939e-002
2.557147e+003, 1.984644e-002
2.559075e+003, 1.978443e-002
2.561004e+003, 2.016520e-002
2.562932e+003, 2.089917e-002
2.564861e+003, 2.060314e-002
2.566789e+003, 2.076609e-002
2.568718e+003, 2.107472e-002
2.570646e+003, 2.120789e-002
2.572574e+003, 2.089158e-002
2.574503e+003, 2.079287e-002
2.576431e+003, 2.058828e-002
2.578360e+003, 2.080541e-002
2.580288e+003, 2.112749e-002
2.582217e+003, 2.097783e-002
2.584145e+003, 2.037194e-002
2.586074e+003, 2.076973e-002
2.588002e+003, 2.140215e-002
2.589931e+003, 2.104498e-002
2.591859e+003, 2.051551e-002
2.593788e+003, 2.109462e-002
2.595716e+003, 2.109437e-002
2.597645e+003, 2.093668e-002
2.599573e+003, 2.103682e-002
2.601501e+003, 2.140391e-002
2.603430e+003, 2.166683e-002
2.605358e+003, 2.136089e-002
2.607287e+003, 2.093451e-002
2.609215e+003, 2.107048e-002
2.611144e+003, 2.145603e-002
2.613072e+003, 2.189380e-002
2.615001e+003, 2.166266e-002
2.616929e+003, 2.138139e-002
2.618858e+003, 2.177281e-002
2.620786e+003, 2.217650e-002
2.622715e+003, 2.208588e-002
2.624643e+003, 2.249754e-002
2.626572e+003, 2.227605e-002
2.628500e+003, 2.154457e-002
2.630428e+003, 2.140399e-002
2.632357e+003, 2.173458e-002
2.634285e+003, 2.176171e-002
2.636214e+003, 2.170564e-002
2.638142e+003, 2.190184e-002
2.640071e+003, 2.218100e-002
2.641999e+003, 2.210387e-002
2.643928e+003, 2.222601e-002
2.645856e+003, 2.198743e-002
2.647785e+003, 2.216364e-002
2.649713e+003, 2.240778e-002
2.651642e+003, 2.264886e-002
2.653570e+003, 2.226282e-002
2.655499e+003, 2.201621e-002
2.657427e+003, 2.216576e-002
2.659355e+003, 2.224931e-002
2.661284e+003, 2.196535e-002
2.663212e+003, 2.171575e-002
2.665141e+003, 2.171528e-002
2.667069e+003, 2.222544e-002
2.668998e+003, 2.222149e-002
2.670926e+003, 2.198745e-002
2.672855e+003, 2.181924e-002
2.674783e+003, 2.183841e-002
2.676712e+003, 2.164616e-002
2.678640e+003, 2.172740e-002
2.680569e+003, 2.202360e-002
2.682497e+003, 2.255248e-002
2.684426e+003, 2.204950e-002
2.686354e+003, 2.201593e-002
2.688282e+003, 2.235201e-002
2.690211e+003, 2.276008e-002
2.692139e+003, 2.291410e-002
2.694068e+003, 2.300008e-002
2.695996e+003, 2.314837e-002
2.697925e+003, 2.306813e-002
2.699853e+003, 2.318390e-002
2.701782e+003, 2.314248e-002
2.703710e+003, 2.341468e-002
2.705639e+003, 2.425719e-002
2.707567e+003, 2.444521e-002
2.709496e+003, 2.439077e-002
2.711424e+003, 2.444098e-002
2.713353e+003, 2.463049e-002
2.715281e+003, 2.461467e-002
2.717209e+003, 2.507580e-002
2.719138e+003, 2.553476e-002
2.721066e+003, 2.561959e-002
2.722995e+003, 2.577181e-002
2.724923e+003, 2.587654e-002
2.726852e+003, 2.586522e-002
2.728780e+003, 2.636535e-002
2.730709e+003, 2.663676e-002
2.732637e+003, 2.686588e-002
2.734566e+003, 2.729855e-002
2.736494e+003, 2.757973e-002
2.738423e+003, 2.789833e-002
2.740351e+003, 2.804274e-002
2.742280e+003, 2.779322e-002
2.744208e+003, 2.802109e-002
2.746136e+003, 2.847746e-002
2.748065e+003, 2.876001e-002
2.749993e+003, 2.864020e-002
2.751922e+003, 2.896218e-002
2.753850e+003, 2.923668e-002
2.755779e+003, 2.922415e-002
2.757707e+003, 2.945474e-002
2.759636e+003, 2.995392e-002
2.761564e+003, 2.988266e-002
2.763493e+003, 3.010396e-002
2.765421e+003, 3.046028e-002
2.767350e+003, 3.094695e-002
2.769278e+003, 3.108029e-002
2.771207e+003, 3.120730e-002
2.773135e+003, 3.157390e-002
2.775063e+003, 3.176787e-002
2.776992e+003, 3.164183e-002
2.778920e+003, 3.164247e-002
2.780849e+003, 3.162282e-002
2.782777e+003, 3.203724e-002
2.784706e+003, 3.235481e-002
2.786634e+003, 3.309294e-002
2.788563e+003, 3.333276e-002
2.790491e+003, 3.351883e-002
2.792420e+003, 3.380200e-002
2.794348e+003, 3.448221e-002
2.796277e+003, 3.467209e-002
2.798205e+003, 3.499588e-002
2.800134e+003, 3.529343e-002
2.802062e+003, 3.540559e-002
2.803990e+003, 3.551586e-002
2.805919e+003, 3.571577e-002
2.807847e+003, 3.573315e-002
2.809776e+003, 3.630463e-002
2.811704e+003, 3.668356e-002
2.813633e+003, 3.700908e-002
2.815561e+003, 3.729883e-002
2.817490e+003, 3.768171e-002
2.819418e+003, 3.787853e-002
2.821347e+003, 3.788758e-002
2.823275e+003, 3.820731e-002
2.825204e+003, 3.927228e-002
2.827132e+003, 3.967597e-002
2.829061e+003, 3.984606e-002
2.830989e+003, 4.016916e-002
2.832917e+003, 4.066980e-002
2.834846e+003, 4.078274e-002
2.836774e+003, 4.158625e-002
2.838703e+003, 4.187947e-002
2.840631e+003, 4.235728e-002
2.842560e+003, 4.307080e-002
2.844488e+003, 4.309925e-002
2.846417e+003, 4.346136e-002
2.848345e+003, 4.426397e-002
2.850274e+003, 4.463560e-002
2.852202e+003, 4.534181e-002
2.854131e+003, 4.574274e-002
2.856059e+003, 4.599657e-002
2.857988e+003, 4.630607e-002
2.859916e+003, 4.661936e-002
2.861844e+003, 4.730536e-002
2.863773e+003, 4.828553e-002
2.865701e+003, 4.903043e-002
2.867630e+003, 4.947843e-002
2.869558e+003, 4.982666e-002
2.871487e+003, 5.044967e-002
2.873415e+003, 5.060800e-002
2.875344e+003, 5.086354e-002
2.877272e+003, 5.185306e-002
2.879201e+003, 5.280636e-002
2.881129e+003, 5.345760e-002
2.883058e+003, 5.377527e-002
2.884986e+003, 5.434790e-002
2.886915e+003, 5.501013e-002
2.888843e+003, 5.542938e-002
2.890771e+003, 5.659300e-002
2.892700e+003, 5.690351e-002
2.894628e+003, 5.734035e-002
2.896557e+003, 5.803760e-002
2.898485e+003, 5.885178e-002
2.900414e+003, 5.968502e-002
2.902342e+003, 6.066035e-002
2.904271e+003, 6.147658e-002
2.906199e+003, 6.167220e-002
2.908128e+003, 6.249937e-002
2.910056e+003, 6.362623e-002
2.911985e+003, 6.411158e-002
2.913913e+003, 6.514402e-002
2.915842e+003, 6.601291e-002
2.917770e+003, 6.683803e-002
2.919698e+003, 6.752198e-002
2.921627e+003, 6.864826e-002
2.923555e+003, 6.948026e-002
2.925484e+003, 7.013307e-002
2.927412e+003, 7.096388e-002
2.929341e+003, 7.207669e-002
2.931269e+003, 7.245064e-002
2.933198e+003, 7.307260e-002
2.935126e+003, 7.331288e-002
2.937055e+003, 7.426523e-002
2.938983e+003, 7.536282e-002
2.940912e+003, 7.692298e-002
2.942840e+003, 7.804621e-002
2.944769e+003, 7.881289e-002
2.946697e+003, 7.939079e-002
2.948625e+003, 8.023510e-002
2.950554e+003, 8.109303e-002
2.952482e+003, 8.240194e-002
2.954411e+003, 8.384580e-002
2.956339e+003, 8.509776e-002
2.958268e+003, 8.588528e-002
2.960196e+003, 8.686627e-002
2.962125e+003, 8.739950e-002
2.964053e+003, 8.838204e-002
2.965982e+003, 8.988872e-002
2.967910e+003, 9.158313e-002
2.969839e+003, 9.247402e-002
2.971767e+003, 9.294143e-002
2.973696e+003, 9.363552e-002
2.975624e+003, 9.450270e-002
2.977552e+003, 9.525087e-002
2.979481e+003, 9.650660e-002
2.981409e+003, 9.756174e-002
2.983338e+003, 9.826101e-002
2.985266e+003, 9.908407e-002
2.987195e+003, 1.003068e-001
2.989123e+003, 1.016384e-001
2.991052e+003, 1.032294e-001
2.992980e+003, 1.045977e-001
2.994909e+003, 1.054181e-001
2.996837e+003, 1.060767e-001
2.998766e+003, 1.074363e-001
3.000694e+003, 1.083063e-001
3.002623e+003, 1.093843e-001
3.004551e+003, 1.104690e-001
3.006479e+003, 1.110797e-001
3.008408e+003, 1.114913e-001
3.010336e+003, 1.124723e-001
3.012265e+003, 1.130834e-001
3.014193e+003, 1.134276e-001
3.016122e+003, 1.139578e-001
3.018050e+003, 1.152742e-001
3.019979e+003, 1.173258e-001
3.021907e+003, 1.186339e-001
3.023836e+003, 1.187666e-001
3.025764e+003, 1.191211e-001
3.027693e+003, 1.192614e-001
3.029621e+003, 1.202529e-001
3.031550e+003, 1.214715e-001
3.033478e+003, 1.222789e-001
3.035406e+003, 1.225937e-001
3.037335e+003, 1.228047e-001
3.039263e+003, 1.230194e-001
3.041192e+003, 1.239453e-001
3.043120e+003, 1.249197e-001
3.045049e+003, 1.252639e-001
3.046977e+003, 1.256633e-001
3.048906e+003, 1.269903e-001
3.050834e+003, 1.276315e-001
3.052763e+003, 1.279598e-001
3.054691e+003, 1.287660e-001
3.056620e+003, 1.295957e-001
3.058548e+003, 1.305909e-001
3.060477e+003, 1.317094e-001
3.062405e+003, 1.320700e-001
3.064333e+003, 1.328711e-001
3.066262e+003, 1.329620e-001
3.068190e+003, 1.336993e-001
3.070119e+003, 1.348470e-001
3.072047e+003, 1.359374e-001
3.073976e+003, 1.366986e-001
3.075904e+003, 1.371314e-001
3.077833e+003, 1.380825e-001
3.079761e+003, 1.389049e-001
3.081690e+003, 1.401162e-001
3.083618e+003, 1.417507e-001
3.085547e+003, 1.425612e-001
3.087475e+003, 1.441097e-001
3.089404e+003, 1.454621e-001
3.091332e+003, 1.463638e-001
3.093260e+003, 1.474185e-001
3.095189e+003, 1.483851e-001
3.097117e+003, 1.497546e-001
3.099046e+003, 1.514764e-001
3.100974e+003, 1.532787e-001
3.102903e+003, 1.555292e-001
3.104831e+003, 1.572126e-001
3.106760e+003, 1.589370e-001
3.108688e+003, 1.602430e-001
3.110617e+003, 1.618539e-001
3.112545e+003, 1.627468e-001
3.114474e+003, 1.639173e-001
3.116402e+003, 1.663281e-001
3.118331e+003, 1.684384e-001
3.120259e+003, 1.694389e-001
3.122188e+003, 1.707011e-001
3.124116e+003, 1.733339e-001
3.126044e+003, 1.763131e-001
3.127973e+003, 1.783374e-001
3.129901e+003, 1.802005e-001
3.131830e+003, 1.820229e-001
3.133758e+003, 1.838340e-001
3.135687e+003, 1.856833e-001
3.137615e+003, 1.877508e-001
3.139544e+003, 1.898961e-001
3.141472e+003, 1.920889e-001
3.143401e+003, 1.945149e-001
3.145329e+003, 1.976439e-001
3.147258e+003, 2.006434e-001
3.149186e+003, 2.032275e-001
3.151115e+003, 2.054932e-001
3.153043e+003, 2.081948e-001
3.154971e+003, 2.105919e-001
3.156900e+003, 2.128805e-001
3.158828e+003, 2.156225e-001
3.160757e+003, 2.178102e-001
3.162685e+003, 2.198270e-001
3.164614e+003, 2.229367e-001
3.166542e+003, 2.254370e-001
3.168471e+003, 2.282678e-001
3.170399e+003, 2.309156e-001
3.172328e+003, 2.329984e-001
3.174256e+003, 2.345007e-001
3.176185e+003, 2.377349e-001
3.178113e+003, 2.411191e-001
3.180042e+003, 2.436879e-001
3.181970e+003, 2.457260e-001
3.183898e+003, 2.477659e-001
3.185827e+003, 2.498793e-001
3.187755e+003, 2.521313e-001
3.189684e+003, 2.541720e-001
3.191612e+003, 2.562345e-001
3.193541e+003, 2.581980e-001
3.195469e+003, 2.601694e-001
3.197398e+003, 2.619682e-001
3.199326e+003, 2.649386e-001
3.201255e+003, 2.672821e-001
3.203183e+003, 2.681726e-001
3.205112e+003, 2.687072e-001
3.207040e+003, 2.703167e-001
3.208969e+003, 2.724924e-001
3.210897e+003, 2.743085e-001
3.212825e+003, 2.754840e-001
3.214754e+003, 2.776925e-001
3.216682e+003, 2.800110e-001
3.218611e+003, 2.805778e-001
3.220539e+003, 2.811309e-001
3.222468e+003, 2.831616e-001
3.224396e+003, 2.846961e-001
3.226325e+003, 2.852791e-001
3.228253e+003, 2.855957e-001
3.230182e+003, 2.861926e-001
3.232110e+003, 2.860144e-001
3.234039e+003, 2.863304e-001
3.235967e+003, 2.864363e-001
3.237896e+003, 2.860472e-001
3.239824e+003, 2.849274e-001
3.241752e+003, 2.844341e-001
3.243681e+003, 2.825360e-001
3.245609e+003, 2.801206e-001
3.247538e+003, 2.784192e-001
3.249466e+003, 2.772714e-001
3.251395e+003, 2.751050e-001
3.253323e+003, 2.727775e-001
3.255252e+003, 2.701061e-001
3.257180e+003, 2.681245e-001
3.259109e+003, 2.654431e-001
3.261037e+003, 2.630613e-001
3.262966e+003, 2.612878e-001
3.264894e+003, 2.592584e-001
3.266823e+003, 2.570769e-001
3.268751e+003, 2.550862e-001
3.270679e+003, 2.538934e-001
3.272608e+003, 2.525061e-001
3.274536e+003, 2.510381e-001
3.276465e+003, 2.501620e-001
3.278393e+003, 2.485343e-001
3.280322e+003, 2.474001e-001
3.282250e+003, 2.473493e-001
3.284179e+003, 2.464494e-001
3.286107e+003, 2.456177e-001
3.288036e+003, 2.447011e-001
3.289964e+003, 2.445053e-001
3.291893e+003, 2.446699e-001
3.293821e+003, 2.430290e-001
3.295750e+003, 2.420859e-001
3.297678e+003, 2.426790e-001
3.299606e+003, 2.424248e-001
3.301535e+003, 2.411564e-001
3.303463e+003, 2.409730e-001
3.305392e+003, 2.412347e-001
3.307320e+003, 2.413769e-001
3.309249e+003, 2.410944e-001
3.311177e+003, 2.405087e-001
3.313106e+003, 2.405645e-001
3.315034e+003, 2.408982e-001
3.316963e+003, 2.410955e-001
3.318891e+003, 2.407636e-001
3.320820e+003, 2.409006e-001
3.322748e+003, 2.417093e-001
3.324677e+003, 2.410024e-001
3.326605e+003, 2.400623e-001
3.328533e+003, 2.391367e-001
3.330462e+003, 2.371129e-001
3.332390e+003, 2.353122e-001
3.334319e+003, 2.349880e-001
3.336247e+003, 2.335827e-001
3.338176e+003, 2.314240e-001
3.340104e+003, 2.285918e-001
3.342033e+003, 2.257331e-001
3.343961e+003, 2.235206e-001
3.345890e+003, 2.215059e-001
3.347818e+003, 2.189206e-001
3.349747e+003, 2.162043e-001
3.351675e+003, 2.128824e-001
3.353604e+003, 2.087886e-001
3.355532e+003, 2.059103e-001
3.357460e+003, 2.045172e-001
3.359389e+003, 2.024743e-001
3.361317e+003, 1.990774e-001
3.363246e+003, 1.948473e-001
3.365174e+003, 1.920442e-001
3.367103e+003, 1.900191e-001
3.369031e+003, 1.881301e-001
3.370960e+003, 1.853042e-001
3.372888e+003, 1.829412e-001
3.374817e+003, 1.814847e-001
3.376745e+003, 1.800472e-001
3.378674e+003, 1.778294e-001
3.380602e+003, 1.754919e-001
3.382531e+003, 1.738452e-001
3.384459e+003, 1.716867e-001
3.386387e+003, 1.695516e-001
3.388316e+003, 1.686531e-001
3.390244e+003, 1.677281e-001
3.392173e+003, 1.662618e-001
3.394101e+003, 1.651517e-001
3.396030e+003, 1.633422e-001
3.397958e+003, 1.612370e-001
3.399887e+003, 1.602813e-001
3.401815e+003, 1.582743e-001
3.403744e+003, 1.563390e-001
3.405672e+003, 1.551952e-001
3.407601e+003, 1.551511e-001
3.409529e+003, 1.542314e-001
3.411458e+003, 1.537868e-001
3.413386e+003, 1.535662e-001
3.415314e+003, 1.532349e-001
3.417243e+003, 1.532524e-001
3.419171e+003, 1.524333e-001
3.421100e+003, 1.515609e-001
3.423028e+003, 1.524884e-001
3.424957e+003, 1.537769e-001
3.426885e+003, 1.557921e-001
3.428814e+003, 1.564722e-001
3.430742e+003, 1.581549e-001
3.432671e+003, 1.602793e-001
3.434599e+003, 1.629371e-001
3.436528e+003, 1.665005e-001
3.438456e+003, 1.691482e-001
3.440385e+003, 1.707103e-001
3.442313e+003, 1.725700e-001
3.444241e+003, 1.739938e-001
3.446170e+003, 1.767038e-001
3.448098e+003, 1.786018e-001
3.450027e+003, 1.798609e-001
3.451955e+003, 1.802810e-001
3.453884e+003, 1.793225e-001
3.455812e+003, 1.776877e-001
3.457741e+003, 1.776660e-001
3.459669e+003, 1.773467e-001
3.461598e+003, 1.751432e-001
3.463526e+003, 1.703315e-001
3.465455e+003, 1.657958e-001
3.467383e+003, 1.606413e-001
3.469312e+003, 1.539339e-001
3.471240e+003, 1.471269e-001
3.473168e+003, 1.408212e-001
3.475097e+003, 1.333022e-001
3.477025e+003, 1.267662e-001
3.478954e+003, 1.208292e-001
3.480882e+003, 1.141782e-001
3.482811e+003, 1.082729e-001
3.484739e+003, 1.034906e-001
3.486668e+003, 9.884535e-002
3.488596e+003, 9.477144e-002
3.490525e+003, 9.057616e-002
3.492453e+003, 8.714979e-002
3.494382e+003, 8.308660e-002
3.496310e+003, 7.987164e-002
3.498239e+003, 7.773138e-002
3.500167e+003, 7.641163e-002
3.502095e+003, 7.499515e-002
3.504024e+003, 7.416604e-002
3.505952e+003, 7.341301e-002
3.507881e+003, 7.429539e-002
3.509809e+003, 7.487425e-002
3.511738e+003, 7.580725e-002
3.513666e+003, 7.922946e-002
3.515595e+003, 8.350098e-002
3.517523e+003, 8.647015e-002
3.519452e+003, 8.983972e-002
3.521380e+003, 9.436808e-002
3.523309e+003, 9.927879e-002
3.525237e+003, 1.034777e-001
3.527166e+003, 1.066858e-001
3.529094e+003, 1.080200e-001
3.531022e+003, 1.073023e-001
3.532951e+003, 1.046279e-001
3.534879e+003, 1.015063e-001
3.536808e+003, 9.779812e-002
3.538736e+003, 9.338341e-002
3.540665e+003, 8.942521e-002
3.542593e+003, 8.636288e-002
3.544522e+003, 8.370604e-002
3.546450e+003, 8.238063e-002
3.548379e+003, 8.113269e-002
3.550307e+003, 8.098392e-002
3.552236e+003, 8.173605e-002
3.554164e+003, 8.289344e-002
3.556093e+003, 8.480609e-002
3.558021e+003, 8.778343e-002
3.559949e+003, 9.023336e-002
3.561878e+003, 9.223650e-002
3.563806e+003, 9.217270e-002
3.565735e+003, 8.719238e-002
3.567663e+003, 7.814699e-002
3.569592e+003, 6.708382e-002
3.571520e+003, 5.617444e-002
3.573449e+003, 4.603637e-002
3.575377e+003, 3.727536e-002
3.577306e+003, 3.229842e-002
3.579234e+003, 2.858873e-002
3.581163e+003, 2.469852e-002
3.583091e+003, 2.170268e-002
3.585020e+003, 2.063230e-002
3.586948e+003, 1.961566e-002
3.588876e+003, 1.888203e-002
3.590805e+003, 1.735106e-002
3.592733e+003, 1.747095e-002
3.594662e+003, 1.677269e-002
3.596590e+003, 1.506503e-002
3.598519e+003, 1.303026e-002
3.600447e+003, 1.214161e-002
3.602376e+003, 1.171243e-002
3.604304e+003, 1.096718e-002
3.606233e+003, 1.016340e-002
3.608161e+003, 1.003557e-002
3.610090e+003, 1.005087e-002
3.612018e+003, 9.478629e-003
3.613947e+003, 8.374629e-003
3.615875e+003, 8.084820e-003
3.617803e+003, 7.404719e-003
3.619732e+003, 6.674940e-003
3.621660e+003, 6.283331e-003
3.623589e+003, 6.734755e-003
3.625517e+003, 6.550218e-003
3.627446e+003, 6.248196e-003
3.629374e+003, 5.379668e-003
3.631303e+003, 4.356000e-003
3.633231e+003, 4.529319e-003
3.635160e+003, 4.772770e-003
3.637088e+003, 3.903510e-003
3.639017e+003, 3.043712e-003
3.640945e+003, 3.233459e-003
3.642874e+003, 1.971121e-003
3.644802e+003, 2.027716e-003
3.646730e+003, 3.885092e-003
3.648659e+003, 3.195620e-003
3.650587e+003, 1.151391e-003
3.652516e+003, -2.294093e-004
3.654444e+003, 7.708403e-004
3.656373e+003, 1.228085e-003
3.658301e+003, -6.221000e-004
3.660230e+003, -1.276249e-003
3.662158e+003, -8.428866e-004
3.664087e+003, -2.385214e-003
3.666015e+003, -2.422301e-003
3.667944e+003, -1.175963e-003
3.669872e+003, -1.410772e-004
3.671801e+003, -4.145397e-004
3.673729e+003, -1.660395e-004
3.675657e+003, 9.269746e-004
3.677586e+003, 9.294804e-004
3.679514e+003, -1.118487e-003
3.681443e+003, -1.530112e-003
3.683371e+003, -1.104050e-003
3.685300e+003, -1.791043e-003
3.687228e+003, -1.205435e-003
3.689157e+003, 4.938791e-004
3.691085e+003, -4.536111e-004
3.693014e+003, -1.735129e-003
3.694942e+003, -2.531667e-003
3.696871e+003, -2.278523e-003
3.698799e+003, -1.773157e-003
3.700728e+003, -1.905062e-003
3.702656e+003, -2.139537e-003
3.704584e+003, -1.547545e-003
3.706513e+003, -1.368545e-003
3.708441e+003, -8.684605e-004
3.710370e+003, -1.247852e-003
3.712298e+003, -7.240477e-004
3.714227e+003, -8.947121e-004
3.716155e+003, -1.495420e-003
3.718084e+003, -1.676548e-003
3.720012e+003, -1.525277e-003
3.721941e+003, -9.638605e-004
3.723869e+003, -5.646986e-004
3.725798e+003, 1.218329e-004
3.727726e+003, -6.752877e-004
3.729655e+003, -1.332473e-003
3.731583e+003, -6.387834e-004
3.733511e+003, -2.648364e-004
3.735440e+003, 7.135360e-005
3.737368e+003, -2.206600e-004
3.739297e+003, -9.952856e-004
3.741225e+003, -1.081345e-003
3.743154e+003, 4.799855e-005
3.745082e+003, 3.166337e-004
3.747011e+003, -4.795503e-004
3.748939e+003, -1.202042e-004
3.750868e+003, -1.768245e-005
3.752796e+003, -6.676840e-004
3.754725e+003, -1.075928e-003
3.756653e+003, -3.137577e-004
3.758582e+003, -8.450585e-004
3.760510e+003, -1.134590e-003
3.762438e+003, -8.954088e-004
3.764367e+003, -9.553912e-004
3.766295e+003, -1.256749e-003
3.768224e+003, -8.209918e-004
3.770152e+003, 1.239398e-004
3.772081e+003, 2.963154e-004
3.774009e+003, 8.098785e-004
3.775938e+003, 6.219859e-004
3.777866e+003, -1.277847e-004
3.779795e+003, 2.944555e-006
3.781723e+003, -6.911379e-004
3.783652e+003, -1.289573e-003
3.785580e+003, -1.614847e-003
3.787509e+003, -1.767183e-003
3.789437e+003, -1.215935e-003
3.791365e+003, -6.402060e-004
3.793294e+003, -9.625463e-005
3.795222e+003, -1.298043e-004
3.797151e+003, -5.471766e-004
3.799079e+003, -9.233350e-004
3.801008e+003, -1.892530e-004
3.802936e+003, -1.029041e-003
3.804865e+003, -1.138466e-003
3.806793e+003, 7.099721e-005
3.808722e+003, -2.467533e-005
3.810650e+003, 7.243847e-004
3.812579e+003, 1.438351e-004
3.814507e+003, -5.432493e-004
3.816436e+003, -1.551910e-004
3.818364e+003, -5.208591e-004
3.820292e+003, -7.835973e-005
3.822221e+003, 4.404737e-004
3.824149e+003, 6.260684e-004
3.826078e+003, 3.642032e-006
3.828006e+003, -6.440451e-004
3.829935e+003, -8.383578e-004
3.831863e+003, -6.031532e-004
3.833792e+003, -3.619014e-005
3.835720e+003, -6.052596e-004
3.837649e+003, 6.485342e-004
3.839577e+003, 1.169432e-003
3.841506e+003, -3.113533e-006
3.843434e+003, 4.557412e-004
3.845363e+003, 7.943193e-004
3.847291e+003, 6.869138e-004
3.849219e+003, 3.001501e-004
3.851148e+003, 1.477266e-003
3.853076e+003, 2.570591e-003
3.855005e+003, 1.802133e-003
3.856933e+003, 4.980777e-004
3.858862e+003, -5.926508e-005
3.860790e+003, -2.615576e-004
3.862719e+003, 3.473837e-004
3.864647e+003, -8.201086e-005
3.866576e+003, -5.602912e-006
3.868504e+003, 8.325860e-004
3.870433e+003, 9.244535e-004
3.872361e+003, 5.966368e-004
3.874290e+003, 1.215084e-003
3.876218e+003, 1.619798e-003
3.878146e+003, 8.430853e-004
3.880075e+003, -1.014121e-004
3.882003e+003, -1.277462e-004
3.883932e+003, 8.241532e-004
3.885860e+003, 2.404963e-003
3.887789e+003, 2.635123e-003
3.889717e+003, 2.609812e-003
3.891646e+003, 2.376552e-003
3.893574e+003, 2.161580e-003
3.895503e+003, 2.015929e-003
3.897431e+003, 1.369401e-003
3.899360e+003, 1.905324e-003
3.901288e+003, 2.629807e-003
3.903217e+003, 2.258724e-003
3.905145e+003, 2.143066e-003
3.907073e+003, 1.269771e-003
3.909002e+003, 1.815223e-004
3.910930e+003, -7.607263e-004
3.912859e+003, -5.852739e-004
3.914787e+003, 3.209148e-004
3.916716e+003, 9.521378e-004
3.918644e+003, 1.468815e-003
3.920573e+003, 2.396537e-003
3.922501e+003, 3.168489e-003
3.924430e+003, 3.231911e-003
3.926358e+003, 1.783613e-003
3.928287e+003, 1.511001e-003
3.930215e+003, 1.501299e-003
3.932144e+003, 1.675450e-003
3.934072e+003, 2.210007e-003
3.936000e+003, 1.346540e-003
3.937929e+003, 5.559011e-004
3.939857e+003, 1.018093e-003
3.941786e+003, 2.067921e-003
3.943714e+003, 2.277346e-003
3.945643e+003, 1.869778e-003
3.947571e+003, 1.588128e-003
3.949500e+003, 1.055193e-003
3.951428e+003, 1.216863e-003
3.953357e+003, 1.620696e-003
3.955285e+003, 1.446493e-003
3.957214e+003, 1.349671e-003
3.959142e+003, 1.620663e-003
3.961071e+003, 1.747303e-003
3.962999e+003, 1.178540e-003
3.964927e+003, 4.102020e-004
3.966856e+003, 1.669151e-003
3.968784e+003, 3.057911e-003
3.970713e+003, 3.171410e-003
3.972641e+003, 2.698529e-003
3.974570e+003, 1.744075e-003
3.976498e+003, 1.385135e-003
3.978427e+003, 1.852369e-003
3.980355e+003, 1.661025e-003
3.982284e+003, 1.064013e-003
3.984212e+003, 5.714794e-004
3.986141e+003, 1.660527e-003
3.988069e+003, 2.315397e-003
3.989998e+003, 2.083520e-003
3.991926e+003, 1.593811e-003
3.993854e+003, 1.824658e-003
3.995783e+003, 1.467989e-003
3.997711e+003, 1.024216e-003
3.999640e+003, 1.647936e-003
4.001568e+003, 0.000000e+000
##END=



