##NAMES=Lazulite
##RRUFFID=R050269
##IDEAL CHEMISTRY=MgAl_2_(PO_4_)_2_(OH)_2_
##LOCALITY=Horsjoberg, Varmland, Sweden
##OWNER=RRUFF
##SOURCE=Marcus Origlieri
##DESCRIPTION=Deep-blue indistinct crystals
##STATUS=The identification of this mineral has been confirmed by X-ray diffraction and chemical analysis
##URL=rruff.info/R050269
##MEASURED CHEMISTRY=(Mg_0.69_Fe_0.25_Mn_0.01_)Al_2.00_(P_1.00_O_4_)_2_(OH)_2_
3.741225e+002, 3.022936e-001
3.760510e+002, 2.697554e-001
3.779795e+002, 2.735772e-001
3.799079e+002, 2.600782e-001
3.818364e+002, 2.506316e-001
3.837649e+002, 2.519399e-001
3.856933e+002, 2.509464e-001
3.876218e+002, 2.420016e-001
3.895503e+002, 2.308983e-001
3.914787e+002, 2.270925e-001
3.934072e+002, 2.273185e-001
3.953357e+002, 2.227672e-001
3.972641e+002, 2.261149e-001
3.991926e+002, 2.313688e-001
4.011211e+002, 2.340911e-001
4.030495e+002, 2.339209e-001
4.049780e+002, 2.446280e-001
4.069065e+002, 2.488602e-001
4.088349e+002, 2.507521e-001
4.107634e+002, 2.522804e-001
4.126919e+002, 2.522548e-001
4.146203e+002, 2.557186e-001
4.165488e+002, 2.584015e-001
4.184773e+002, 2.580365e-001
4.204057e+002, 2.595742e-001
4.223342e+002, 2.614861e-001
4.242627e+002, 2.618829e-001
4.261911e+002, 2.609784e-001
4.281196e+002, 2.567900e-001
4.300481e+002, 2.500378e-001
4.319765e+002, 2.427333e-001
4.339050e+002, 2.380677e-001
4.358335e+002, 2.392795e-001
4.377619e+002, 2.413822e-001
4.396904e+002, 2.449493e-001
4.416189e+002, 2.509458e-001
4.435473e+002, 2.576975e-001
4.454758e+002, 2.639278e-001
4.474043e+002, 2.661341e-001
4.493327e+002, 2.652966e-001
4.512612e+002, 2.632305e-001
4.531897e+002, 2.614000e-001
4.551181e+002, 2.590719e-001
4.570466e+002, 2.549875e-001
4.589751e+002, 2.513616e-001
4.609035e+002, 2.487347e-001
4.628320e+002, 2.464557e-001
4.647605e+002, 2.443539e-001
4.666889e+002, 2.412429e-001
4.686174e+002, 2.365049e-001
4.705459e+002, 2.330105e-001
4.724743e+002, 2.292515e-001
4.744028e+002, 2.243661e-001
4.763313e+002, 2.190350e-001
4.782597e+002, 2.137793e-001
4.801882e+002, 2.099888e-001
4.821167e+002, 2.058353e-001
4.840451e+002, 2.014899e-001
4.859736e+002, 1.980445e-001
4.879021e+002, 1.955094e-001
4.898305e+002, 1.935545e-001
4.917590e+002, 1.941054e-001
4.936875e+002, 1.967219e-001
4.956159e+002, 2.001674e-001
4.975444e+002, 2.052753e-001
4.994729e+002, 2.108683e-001
5.014013e+002, 2.154600e-001
5.033298e+002, 2.176977e-001
5.052583e+002, 2.166836e-001
5.071867e+002, 2.123298e-001
5.091152e+002, 2.046845e-001
5.110437e+002, 1.956887e-001
5.129721e+002, 1.874977e-001
5.149006e+002, 1.791188e-001
5.168290e+002, 1.707400e-001
5.187575e+002, 1.630839e-001
5.206860e+002, 1.552972e-001
5.226144e+002, 1.475951e-001
5.245429e+002, 1.411616e-001
5.264714e+002, 1.352615e-001
5.283998e+002, 1.297340e-001
5.303283e+002, 1.263789e-001
5.322568e+002, 1.262423e-001
5.341852e+002, 1.295890e-001
5.361137e+002, 1.358759e-001
5.380422e+002, 1.421224e-001
5.399706e+002, 1.473002e-001
5.418991e+002, 1.521360e-001
5.438276e+002, 1.551706e-001
5.457560e+002, 1.561483e-001
5.476845e+002, 1.563294e-001
5.496130e+002, 1.553171e-001
5.515414e+002, 1.531852e-001
5.534699e+002, 1.502186e-001
5.553984e+002, 1.477551e-001
5.573268e+002, 1.454580e-001
5.592553e+002, 1.425159e-001
5.611838e+002, 1.394066e-001
5.631122e+002, 1.362960e-001
5.650407e+002, 1.332560e-001
5.669692e+002, 1.299470e-001
5.688976e+002, 1.263920e-001
5.708261e+002, 1.232717e-001
5.727546e+002, 1.202077e-001
5.746830e+002, 1.181435e-001
5.766115e+002, 1.165415e-001
5.785400e+002, 1.153921e-001
5.804684e+002, 1.148783e-001
5.823969e+002, 1.147010e-001
5.843254e+002, 1.140113e-001
5.862538e+002, 1.130215e-001
5.881823e+002, 1.112606e-001
5.901108e+002, 1.084278e-001
5.920392e+002, 1.041048e-001
5.939677e+002, 9.881952e-002
5.958962e+002, 9.312256e-002
5.978246e+002, 8.753708e-002
5.997531e+002, 8.374730e-002
6.016816e+002, 8.176550e-002
6.036100e+002, 8.154108e-002
6.055385e+002, 8.288796e-002
6.074670e+002, 8.416499e-002
6.093954e+002, 8.395068e-002
6.113239e+002, 8.212578e-002
6.132524e+002, 7.894113e-002
6.151808e+002, 7.536851e-002
6.171093e+002, 7.245808e-002
6.190378e+002, 7.093336e-002
6.209662e+002, 7.135212e-002
6.228947e+002, 7.389911e-002
6.248232e+002, 7.870457e-002
6.267516e+002, 8.594168e-002
6.286801e+002, 9.501027e-002
6.306086e+002, 1.042524e-001
6.325370e+002, 1.111724e-001
6.344655e+002, 1.166357e-001
6.363940e+002, 1.231174e-001
6.383224e+002, 1.317756e-001
6.402509e+002, 1.421129e-001
6.421794e+002, 1.521301e-001
6.441078e+002, 1.599939e-001
6.460363e+002, 1.638380e-001
6.479648e+002, 1.624905e-001
6.498932e+002, 1.564535e-001
6.518217e+002, 1.471779e-001
6.537502e+002, 1.357467e-001
6.556786e+002, 1.233556e-001
6.576071e+002, 1.108508e-001
6.595356e+002, 9.893022e-002
6.614641e+002, 8.798996e-002
6.633925e+002, 7.794595e-002
6.653210e+002, 6.907932e-002
6.672495e+002, 6.150449e-002
6.691779e+002, 5.492584e-002
6.711064e+002, 4.950583e-002
6.730349e+002, 4.557941e-002
6.749633e+002, 4.252711e-002
6.768918e+002, 3.986571e-002
6.788203e+002, 3.768230e-002
6.807487e+002, 3.620114e-002
6.826772e+002, 3.503002e-002
6.846057e+002, 3.414489e-002
6.865341e+002, 3.379656e-002
6.884626e+002, 3.349090e-002
6.903911e+002, 3.321143e-002
6.923195e+002, 3.331936e-002
6.942480e+002, 3.351985e-002
6.961765e+002, 3.362058e-002
6.981049e+002, 3.357705e-002
7.000334e+002, 3.386820e-002
7.019619e+002, 3.401154e-002
7.038903e+002, 3.454730e-002
7.058188e+002, 3.547458e-002
7.077473e+002, 3.631740e-002
7.096757e+002, 3.708163e-002
7.116042e+002, 3.828407e-002
7.135327e+002, 3.940848e-002
7.154611e+002, 4.048156e-002
7.173896e+002, 4.204362e-002
7.193181e+002, 4.369695e-002
7.212465e+002, 4.531144e-002
7.231750e+002, 4.749418e-002
7.251035e+002, 5.005438e-002
7.270319e+002, 5.264745e-002
7.289604e+002, 5.550187e-002
7.308889e+002, 5.855260e-002
7.328173e+002, 6.208089e-002
7.347458e+002, 6.601480e-002
7.366743e+002, 7.015830e-002
7.386027e+002, 7.461023e-002
7.405312e+002, 7.935289e-002
7.424597e+002, 8.465943e-002
7.443881e+002, 9.077755e-002
7.463166e+002, 9.738164e-002
7.482451e+002, 1.046399e-001
7.501735e+002, 1.128741e-001
7.521020e+002, 1.218560e-001
7.540305e+002, 1.316106e-001
7.559589e+002, 1.419513e-001
7.578874e+002, 1.524646e-001
7.598159e+002, 1.628687e-001
7.617443e+002, 1.726519e-001
7.636728e+002, 1.811039e-001
7.656013e+002, 1.878402e-001
7.675297e+002, 1.926309e-001
7.694582e+002, 1.948810e-001
7.713867e+002, 1.946711e-001
7.733151e+002, 1.923742e-001
7.752436e+002, 1.884692e-001
7.771721e+002, 1.830623e-001
7.791005e+002, 1.766094e-001
7.810290e+002, 1.694661e-001
7.829575e+002, 1.621094e-001
7.848859e+002, 1.549869e-001
7.868144e+002, 1.486126e-001
7.887429e+002, 1.430752e-001
7.906713e+002, 1.386333e-001
7.925998e+002, 1.353031e-001
7.945283e+002, 1.327430e-001
7.964567e+002, 1.315223e-001
7.983852e+002, 1.313028e-001
8.003137e+002, 1.315363e-001
8.022421e+002, 1.319677e-001
8.041706e+002, 1.324245e-001
8.060991e+002, 1.326512e-001
8.080275e+002, 1.323469e-001
8.099560e+002, 1.317159e-001
8.118845e+002, 1.305752e-001
8.138129e+002, 1.285467e-001
8.157414e+002, 1.259477e-001
8.176699e+002, 1.227375e-001
8.195983e+002, 1.190135e-001
8.215268e+002, 1.149848e-001
8.234553e+002, 1.104477e-001
8.253837e+002, 1.054185e-001
8.273122e+002, 1.003454e-001
8.292407e+002, 9.480893e-002
8.311691e+002, 8.898182e-002
8.330976e+002, 8.312721e-002
8.350261e+002, 7.738382e-002
8.369545e+002, 7.137102e-002
8.388830e+002, 6.566086e-002
8.408115e+002, 6.028948e-002
8.427399e+002, 5.531584e-002
8.446684e+002, 5.077364e-002
8.465969e+002, 4.688766e-002
8.485253e+002, 4.333518e-002
8.504538e+002, 4.035894e-002
8.523823e+002, 3.818924e-002
8.543107e+002, 3.651684e-002
8.562392e+002, 3.483767e-002
8.581677e+002, 3.377369e-002
8.600961e+002, 3.304512e-002
8.620246e+002, 3.229700e-002
8.639531e+002, 3.161094e-002
8.658815e+002, 3.122351e-002
8.678100e+002, 3.092947e-002
8.697385e+002, 3.057770e-002
8.716669e+002, 3.018169e-002
8.735954e+002, 2.995537e-002
8.755239e+002, 2.976350e-002
8.774523e+002, 2.958042e-002
8.793808e+002, 2.929031e-002
8.813093e+002, 2.898291e-002
8.832377e+002, 2.885242e-002
8.851662e+002, 2.889800e-002
8.870947e+002, 2.906952e-002
8.890231e+002, 2.926434e-002
8.909516e+002, 2.968819e-002
8.928801e+002, 3.020620e-002
8.948085e+002, 3.066581e-002
8.967370e+002, 3.113411e-002
8.986655e+002, 3.176592e-002
9.005939e+002, 3.236085e-002
9.025224e+002, 3.294310e-002
9.044509e+002, 3.373348e-002
9.063793e+002, 3.453679e-002
9.083078e+002, 3.536237e-002
9.102363e+002, 3.619644e-002
9.121647e+002, 3.705524e-002
9.140932e+002, 3.805979e-002
9.160217e+002, 3.919844e-002
9.179501e+002, 4.037419e-002
9.198786e+002, 4.172174e-002
9.218071e+002, 4.312361e-002
9.237355e+002, 4.457042e-002
9.256640e+002, 4.617332e-002
9.275925e+002, 4.799554e-002
9.295209e+002, 4.969754e-002
9.314494e+002, 5.146274e-002
9.333779e+002, 5.351463e-002
9.353063e+002, 5.578751e-002
9.372348e+002, 5.822791e-002
9.391633e+002, 6.071898e-002
9.410917e+002, 6.321514e-002
9.430202e+002, 6.599667e-002
9.449487e+002, 6.901491e-002
9.468771e+002, 7.229753e-002
9.488056e+002, 7.580443e-002
9.507341e+002, 7.975090e-002
9.526625e+002, 8.392836e-002
9.545910e+002, 8.826629e-002
9.565195e+002, 9.298594e-002
9.584479e+002, 9.816252e-002
9.603764e+002, 1.036353e-001
9.623049e+002, 1.095705e-001
9.642333e+002, 1.161165e-001
9.661618e+002, 1.230705e-001
9.680903e+002, 1.304068e-001
9.700187e+002, 1.384934e-001
9.719472e+002, 1.473479e-001
9.738757e+002, 1.566404e-001
9.758041e+002, 1.664860e-001
9.777326e+002, 1.769769e-001
9.796611e+002, 1.880656e-001
9.815895e+002, 1.998902e-001
9.835180e+002, 2.120724e-001
9.854465e+002, 2.245290e-001
9.873749e+002, 2.371880e-001
9.893034e+002, 2.501428e-001
9.912319e+002, 2.626198e-001
9.931603e+002, 2.737375e-001
9.950888e+002, 2.829629e-001
9.970173e+002, 2.893803e-001
9.989457e+002, 2.921692e-001
1.000874e+003, 2.916895e-001
1.002803e+003, 2.881995e-001
1.004731e+003, 2.815572e-001
1.006660e+003, 2.723002e-001
1.008588e+003, 2.613429e-001
1.010517e+003, 2.497708e-001
1.012445e+003, 2.389705e-001
1.014373e+003, 2.301139e-001
1.016302e+003, 2.241949e-001
1.018230e+003, 2.219188e-001
1.020159e+003, 2.231964e-001
1.022087e+003, 2.269016e-001
1.024016e+003, 2.322865e-001
1.025944e+003, 2.381217e-001
1.027873e+003, 2.429365e-001
1.029801e+003, 2.453892e-001
1.031730e+003, 2.447892e-001
1.033658e+003, 2.410570e-001
1.035587e+003, 2.345606e-001
1.037515e+003, 2.267704e-001
1.039443e+003, 2.200843e-001
1.041372e+003, 2.160552e-001
1.043300e+003, 2.158343e-001
1.045229e+003, 2.197434e-001
1.047157e+003, 2.267504e-001
1.049086e+003, 2.348176e-001
1.051014e+003, 2.422210e-001
1.052943e+003, 2.479162e-001
1.054871e+003, 2.516921e-001
1.056800e+003, 2.539697e-001
1.058728e+003, 2.562747e-001
1.060657e+003, 2.601357e-001
1.062585e+003, 2.661721e-001
1.064514e+003, 2.736845e-001
1.066442e+003, 2.815748e-001
1.068370e+003, 2.892735e-001
1.070299e+003, 2.960712e-001
1.072227e+003, 3.014110e-001
1.074156e+003, 3.056842e-001
1.076084e+003, 3.087503e-001
1.078013e+003, 3.106177e-001
1.079941e+003, 3.112294e-001
1.081870e+003, 3.110016e-001
1.083798e+003, 3.100457e-001
1.085727e+003, 3.084297e-001
1.087655e+003, 3.061652e-001
1.089584e+003, 3.036113e-001
1.091512e+003, 3.009961e-001
1.093441e+003, 2.980581e-001
1.095369e+003, 2.946770e-001
1.097297e+003, 2.911648e-001
1.099226e+003, 2.877392e-001
1.101154e+003, 2.845032e-001
1.103083e+003, 2.811511e-001
1.105011e+003, 2.777409e-001
1.106940e+003, 2.744634e-001
1.108868e+003, 2.711436e-001
1.110797e+003, 2.676077e-001
1.112725e+003, 2.641546e-001
1.114654e+003, 2.605693e-001
1.116582e+003, 2.564387e-001
1.118511e+003, 2.516025e-001
1.120439e+003, 2.461765e-001
1.122368e+003, 2.404729e-001
1.124296e+003, 2.352749e-001
1.126224e+003, 2.310277e-001
1.128153e+003, 2.279986e-001
1.130081e+003, 2.259928e-001
1.132010e+003, 2.243061e-001
1.133938e+003, 2.225489e-001
1.135867e+003, 2.207507e-001
1.137795e+003, 2.188569e-001
1.139724e+003, 2.169750e-001
1.141652e+003, 2.149253e-001
1.143581e+003, 2.126509e-001
1.145509e+003, 2.100243e-001
1.147438e+003, 2.067968e-001
1.149366e+003, 2.028591e-001
1.151295e+003, 1.979250e-001
1.153223e+003, 1.918399e-001
1.155151e+003, 1.848227e-001
1.157080e+003, 1.768429e-001
1.159008e+003, 1.682162e-001
1.160937e+003, 1.592967e-001
1.162865e+003, 1.502146e-001
1.164794e+003, 1.411028e-001
1.166722e+003, 1.322856e-001
1.168651e+003, 1.237400e-001
1.170579e+003, 1.156495e-001
1.172508e+003, 1.081820e-001
1.174436e+003, 1.012812e-001
1.176365e+003, 9.518463e-002
1.178293e+003, 9.003294e-002
1.180222e+003, 8.615695e-002
1.182150e+003, 8.390932e-002
1.184078e+003, 8.351281e-002
1.186007e+003, 8.557008e-002
1.187935e+003, 9.036756e-002
1.189864e+003, 9.680612e-002
1.191792e+003, 1.018741e-001
1.193721e+003, 1.028402e-001
1.195649e+003, 9.923474e-002
1.197578e+003, 9.271101e-002
1.199506e+003, 8.507975e-002
1.201435e+003, 7.727340e-002
1.203363e+003, 6.970254e-002
1.205292e+003, 6.280396e-002
1.207220e+003, 5.659307e-002
1.209149e+003, 5.100877e-002
1.211077e+003, 4.598692e-002
1.213005e+003, 4.151187e-002
1.214934e+003, 3.751177e-002
1.216862e+003, 3.405914e-002
1.218791e+003, 3.110048e-002
1.220719e+003, 2.840903e-002
1.222648e+003, 2.588718e-002
1.224576e+003, 2.365846e-002
1.226505e+003, 2.183497e-002
1.228433e+003, 2.031685e-002
1.230362e+003, 1.895592e-002
1.232290e+003, 1.764624e-002
1.234219e+003, 1.649445e-002
1.236147e+003, 1.554742e-002
1.238076e+003, 1.460420e-002
1.240004e+003, 1.380163e-002
1.241932e+003, 1.312346e-002
1.243861e+003, 1.262113e-002
1.245789e+003, 1.215454e-002
1.247718e+003, 1.174804e-002
1.249646e+003, 1.137506e-002
1.251575e+003, 1.101365e-002
1.253503e+003, 1.065166e-002
1.255432e+003, 1.034177e-002
1.257360e+003, 9.991138e-003
1.259289e+003, 9.543452e-003
1.261217e+003, 9.247843e-003
1.263146e+003, 9.145760e-003
1.265074e+003, 9.030997e-003
1.267003e+003, 8.807860e-003
1.268931e+003, 8.454652e-003
1.270859e+003, 8.303986e-003
1.272788e+003, 8.259366e-003
1.274716e+003, 8.199148e-003
1.276645e+003, 7.964484e-003
1.278573e+003, 7.756710e-003
1.280502e+003, 7.614376e-003
1.282430e+003, 7.514650e-003
1.284359e+003, 7.377702e-003
1.286287e+003, 7.190962e-003
1.288216e+003, 6.911904e-003
1.290144e+003, 6.814088e-003
1.292073e+003, 6.736195e-003
1.294001e+003, 6.652508e-003
1.295930e+003, 6.502048e-003
1.297858e+003, 6.207546e-003
1.299786e+003, 6.030814e-003
1.301715e+003, 5.886841e-003
1.303643e+003, 5.714098e-003
1.305572e+003, 5.724397e-003
1.307500e+003, 5.821097e-003
1.309429e+003, 5.861386e-003
1.311357e+003, 5.749469e-003
1.313286e+003, 5.733025e-003
1.315214e+003, 5.715983e-003
1.317143e+003, 5.681986e-003
1.319071e+003, 5.701135e-003
1.321000e+003, 5.578267e-003
1.322928e+003, 5.578425e-003
1.324857e+003, 5.573544e-003
1.326785e+003, 5.409394e-003
1.328714e+003, 5.415514e-003
1.330642e+003, 5.350646e-003
1.332570e+003, 5.303257e-003
1.334499e+003, 5.287349e-003
1.336427e+003, 5.272901e-003
1.338356e+003, 5.346670e-003
1.340284e+003, 5.355122e-003
1.342213e+003, 5.334135e-003
1.344141e+003, 5.451718e-003
1.346070e+003, 5.440036e-003
1.347998e+003, 5.438352e-003
1.349927e+003, 5.502055e-003
1.351855e+003, 5.617690e-003
1.353784e+003, 5.604546e-003
1.355712e+003, 5.612964e-003
1.357641e+003, 5.801706e-003
1.359569e+003, 5.935549e-003
1.361497e+003, 6.047720e-003
1.363426e+003, 6.021139e-003
1.365354e+003, 6.027995e-003
1.367283e+003, 6.144056e-003
1.369211e+003, 6.181593e-003
1.371140e+003, 6.272641e-003
1.373068e+003, 6.360630e-003
1.374997e+003, 6.540962e-003
1.376925e+003, 6.681733e-003
1.378854e+003, 6.648210e-003
1.380782e+003, 6.664067e-003
1.382711e+003, 6.794843e-003
1.384639e+003, 6.897532e-003
1.386568e+003, 7.055486e-003
1.388496e+003, 7.194569e-003
1.390424e+003, 7.290200e-003
1.392353e+003, 7.231259e-003
1.394281e+003, 7.223605e-003
1.396210e+003, 7.487851e-003
1.398138e+003, 7.782599e-003
1.400067e+003, 8.052750e-003
1.401995e+003, 8.161570e-003
1.403924e+003, 8.231393e-003
1.405852e+003, 8.376281e-003
1.407781e+003, 8.579269e-003
1.409709e+003, 8.837903e-003
1.411638e+003, 9.099535e-003
1.413566e+003, 9.299239e-003
1.415495e+003, 9.549572e-003
1.417423e+003, 9.794625e-003
1.419351e+003, 9.967374e-003
1.421280e+003, 1.017933e-002
1.423208e+003, 1.039697e-002
1.425137e+003, 1.052314e-002
1.427065e+003, 1.061674e-002
1.428994e+003, 1.076713e-002
1.430922e+003, 1.094623e-002
1.432851e+003, 1.120315e-002
1.434779e+003, 1.138583e-002
1.436708e+003, 1.130313e-002
1.438636e+003, 1.121489e-002
1.440565e+003, 1.127270e-002
1.442493e+003, 1.146875e-002
1.444422e+003, 1.159850e-002
1.446350e+003, 1.160575e-002
1.448278e+003, 1.168538e-002
1.450207e+003, 1.167109e-002
1.452135e+003, 1.160086e-002
1.454064e+003, 1.165662e-002
1.455992e+003, 1.173382e-002
1.457921e+003, 1.179218e-002
1.459849e+003, 1.165477e-002
1.461778e+003, 1.141756e-002
1.463706e+003, 1.141284e-002
1.465635e+003, 1.147966e-002
1.467563e+003, 1.136054e-002
1.469492e+003, 1.112341e-002
1.471420e+003, 1.073875e-002
1.473349e+003, 1.048879e-002
1.475277e+003, 1.041133e-002
1.477205e+003, 1.025460e-002
1.479134e+003, 1.014542e-002
1.481062e+003, 9.951123e-003
1.482991e+003, 9.827591e-003
1.484919e+003, 9.761214e-003
1.486848e+003, 9.649695e-003
1.488776e+003, 9.492874e-003
1.490705e+003, 9.392077e-003
1.492633e+003, 9.335364e-003
1.494562e+003, 9.288027e-003
1.496490e+003, 9.180697e-003
1.498419e+003, 9.083092e-003
1.500347e+003, 9.040070e-003
1.502276e+003, 8.996002e-003
1.504204e+003, 8.905469e-003
1.506132e+003, 8.800729e-003
1.508061e+003, 8.782590e-003
1.509989e+003, 8.775395e-003
1.511918e+003, 8.691197e-003
1.513846e+003, 8.622930e-003
1.515775e+003, 8.481974e-003
1.517703e+003, 8.390933e-003
1.519632e+003, 8.371186e-003
1.521560e+003, 8.449633e-003
1.523489e+003, 8.409968e-003
1.525417e+003, 8.315313e-003
1.527346e+003, 8.335598e-003
1.529274e+003, 8.459767e-003
1.531203e+003, 8.543542e-003
1.533131e+003, 8.506488e-003
1.535059e+003, 8.390551e-003
1.536988e+003, 8.244531e-003
1.538916e+003, 8.096609e-003
1.540845e+003, 7.949826e-003
1.542773e+003, 7.990164e-003
1.544702e+003, 8.103129e-003
1.546630e+003, 8.091434e-003
1.548559e+003, 8.059017e-003
1.550487e+003, 8.041852e-003
1.552416e+003, 7.980484e-003
1.554344e+003, 7.947603e-003
1.556273e+003, 7.855723e-003
1.558201e+003, 7.749766e-003
1.560130e+003, 7.848905e-003
1.562058e+003, 7.895879e-003
1.563986e+003, 7.762145e-003
1.565915e+003, 7.777691e-003
1.567843e+003, 7.812957e-003
1.569772e+003, 7.702301e-003
1.571700e+003, 7.783125e-003
1.573629e+003, 7.865485e-003
1.575557e+003, 7.732978e-003
1.577486e+003, 7.805556e-003
1.579414e+003, 7.898091e-003
1.581343e+003, 7.862999e-003
1.583271e+003, 7.712673e-003
1.585200e+003, 7.644893e-003
1.587128e+003, 7.947608e-003
1.589057e+003, 8.178204e-003
1.590985e+003, 8.242537e-003
1.592913e+003, 8.327573e-003
1.594842e+003, 8.322037e-003
1.596770e+003, 8.246914e-003
1.598699e+003, 8.347737e-003
1.600627e+003, 8.421413e-003
1.602556e+003, 8.253993e-003
1.604484e+003, 8.223474e-003
1.606413e+003, 8.379110e-003
1.608341e+003, 8.365441e-003
1.610270e+003, 8.344589e-003
1.612198e+003, 8.319879e-003
1.614127e+003, 8.402304e-003
1.616055e+003, 8.538819e-003
1.617984e+003, 8.451397e-003
1.619912e+003, 8.324705e-003
1.621840e+003, 8.388942e-003
1.623769e+003, 8.432405e-003
1.625697e+003, 8.470280e-003
1.627626e+003, 8.536316e-003
1.629554e+003, 8.640819e-003
1.631483e+003, 8.582436e-003
1.633411e+003, 8.584370e-003
1.635340e+003, 8.621714e-003
1.637268e+003, 8.712390e-003
1.639197e+003, 8.682909e-003
1.641125e+003, 8.613034e-003
1.643054e+003, 8.674944e-003
1.644982e+003, 8.782460e-003
1.646911e+003, 8.819006e-003
1.648839e+003, 8.739914e-003
1.650767e+003, 8.777441e-003
1.652696e+003, 8.727340e-003
1.654624e+003, 8.715210e-003
1.656553e+003, 8.856115e-003
1.658481e+003, 8.900649e-003
1.660410e+003, 8.886169e-003
1.662338e+003, 8.658942e-003
1.664267e+003, 8.432358e-003
1.666195e+003, 8.394947e-003
1.668124e+003, 8.489489e-003
1.670052e+003, 8.389816e-003
1.671981e+003, 8.214041e-003
1.673909e+003, 8.180339e-003
1.675838e+003, 8.314338e-003
1.677766e+003, 8.303510e-003
1.679694e+003, 8.042301e-003
1.681623e+003, 7.974754e-003
1.683551e+003, 8.026945e-003
1.685480e+003, 7.983987e-003
1.687408e+003, 7.830938e-003
1.689337e+003, 7.688018e-003
1.691265e+003, 7.708138e-003
1.693194e+003, 7.615528e-003
1.695122e+003, 7.542603e-003
1.697051e+003, 7.456338e-003
1.698979e+003, 7.454311e-003
1.700908e+003, 7.605467e-003
1.702836e+003, 7.659144e-003
1.704765e+003, 7.509194e-003
1.706693e+003, 7.613969e-003
1.708621e+003, 7.694362e-003
1.710550e+003, 7.686805e-003
1.712478e+003, 7.750989e-003
1.714407e+003, 7.841020e-003
1.716335e+003, 7.770903e-003
1.718264e+003, 7.819870e-003
1.720192e+003, 7.875841e-003
1.722121e+003, 8.065997e-003
1.724049e+003, 8.235941e-003
1.725978e+003, 8.108735e-003
1.727906e+003, 7.883930e-003
1.729835e+003, 7.903179e-003
1.731763e+003, 7.822895e-003
1.733692e+003, 7.664660e-003
1.735620e+003, 7.540053e-003
1.737548e+003, 7.524541e-003
1.739477e+003, 7.417609e-003
1.741405e+003, 7.297623e-003
1.743334e+003, 7.159239e-003
1.745262e+003, 7.243078e-003
1.747191e+003, 7.138024e-003
1.749119e+003, 6.878668e-003
1.751048e+003, 6.707678e-003
1.752976e+003, 6.687085e-003
1.754905e+003, 6.711070e-003
1.756833e+003, 6.615420e-003
1.758762e+003, 6.466664e-003
1.760690e+003, 6.489141e-003
1.762619e+003, 6.562585e-003
1.764547e+003, 6.536892e-003
1.766475e+003, 6.528896e-003
1.768404e+003, 6.540015e-003
1.770332e+003, 6.501095e-003
1.772261e+003, 6.332880e-003
1.774189e+003, 6.116267e-003
1.776118e+003, 6.141379e-003
1.778046e+003, 6.272440e-003
1.779975e+003, 6.280287e-003
1.781903e+003, 6.378021e-003
1.783832e+003, 6.368450e-003
1.785760e+003, 6.271036e-003
1.787689e+003, 6.214176e-003
1.789617e+003, 6.057633e-003
1.791546e+003, 5.954844e-003
1.793474e+003, 6.220376e-003
1.795402e+003, 6.472097e-003
1.797331e+003, 6.329699e-003
1.799259e+003, 6.147953e-003
1.801188e+003, 6.260978e-003
1.803116e+003, 6.356313e-003
1.805045e+003, 6.267768e-003
1.806973e+003, 6.036451e-003
1.808902e+003, 5.986643e-003
1.810830e+003, 6.157829e-003
1.812759e+003, 6.034892e-003
1.814687e+003, 5.673400e-003
1.816616e+003, 5.723121e-003
1.818544e+003, 6.197685e-003
1.820473e+003, 6.311242e-003
1.822401e+003, 6.087866e-003
1.824329e+003, 6.001097e-003
1.826258e+003, 6.191695e-003
1.828186e+003, 6.096437e-003
1.830115e+003, 6.017182e-003
1.832043e+003, 5.976717e-003
1.833972e+003, 5.909815e-003
1.835900e+003, 5.964671e-003
1.837829e+003, 6.092158e-003
1.839757e+003, 6.063890e-003
1.841686e+003, 6.209923e-003
1.843614e+003, 6.163221e-003
1.845543e+003, 6.125531e-003
1.847471e+003, 6.271886e-003
1.849400e+003, 6.355248e-003
1.851328e+003, 6.238027e-003
1.853256e+003, 6.241043e-003
1.855185e+003, 6.150998e-003
1.857113e+003, 6.061400e-003
1.859042e+003, 5.996002e-003
1.860970e+003, 5.899902e-003
1.862899e+003, 6.168430e-003
1.864827e+003, 6.463996e-003
1.866756e+003, 6.379832e-003
1.868684e+003, 6.164447e-003
1.870613e+003, 5.973781e-003
1.872541e+003, 6.146450e-003
1.874470e+003, 6.251523e-003
1.876398e+003, 6.141837e-003
1.878327e+003, 6.016914e-003
1.880255e+003, 6.359734e-003
1.882183e+003, 6.612162e-003
1.884112e+003, 6.418435e-003
1.886040e+003, 6.079856e-003
1.887969e+003, 6.083009e-003
1.889897e+003, 6.410114e-003
1.891826e+003, 6.553918e-003
1.893754e+003, 6.500389e-003
1.895683e+003, 6.274918e-003
1.897611e+003, 6.029359e-003
1.899540e+003, 6.032743e-003
1.901468e+003, 5.877192e-003
1.903397e+003, 5.817602e-003
1.905325e+003, 6.118010e-003
1.907254e+003, 6.619847e-003
1.909182e+003, 6.650961e-003
1.911110e+003, 6.521011e-003
1.913039e+003, 7.060782e-003
1.914967e+003, 7.314554e-003
1.916896e+003, 6.770521e-003
1.918824e+003, 6.489553e-003
1.920753e+003, 6.302316e-003
1.922681e+003, 6.486634e-003
1.924610e+003, 6.517362e-003
1.926538e+003, 6.125622e-003
1.928467e+003, 5.637842e-003
1.930395e+003, 5.816843e-003
1.932324e+003, 6.198901e-003
1.934252e+003, 6.536616e-003
1.936181e+003, 6.201557e-003
1.938109e+003, 6.258963e-003
1.940037e+003, 6.272823e-003
1.941966e+003, 5.867979e-003
1.943894e+003, 5.168497e-003
1.945823e+003, 4.829279e-003
1.947751e+003, 5.709483e-003
1.949680e+003, 6.181047e-003
1.951608e+003, 5.944731e-003
1.953537e+003, 6.237460e-003
1.955465e+003, 5.963149e-003
1.957394e+003, 5.467083e-003
1.959322e+003, 5.147898e-003
1.961251e+003, 5.611789e-003
1.963179e+003, 5.465314e-003
1.965108e+003, 5.851254e-003
1.967036e+003, 5.462666e-003
1.968964e+003, 4.896536e-003
1.970893e+003, 5.819663e-003
1.972821e+003, 6.165921e-003
1.974750e+003, 5.697816e-003
1.976678e+003, 6.783674e-003
1.978607e+003, 8.387268e-003
1.980535e+003, 8.060116e-003
1.982464e+003, 7.501511e-003
1.984392e+003, 7.363853e-003
1.986321e+003, 6.435222e-003
1.988249e+003, 5.783882e-003
1.990178e+003, 6.323205e-003
1.992106e+003, 6.594804e-003
1.994035e+003, 5.747543e-003
1.995963e+003, 5.524824e-003
1.997891e+003, 5.693772e-003
1.999820e+003, 5.469927e-003
2.001748e+003, 4.810322e-003
2.003677e+003, 4.254044e-003
2.005605e+003, 4.851079e-003
2.007534e+003, 6.823267e-003
2.009462e+003, 6.814107e-003
2.011391e+003, 6.042356e-003
2.013319e+003, 6.608422e-003
2.015248e+003, 6.573256e-003
2.017176e+003, 5.494556e-003
2.019105e+003, 5.528151e-003
2.021033e+003, 6.651530e-003
2.022962e+003, 7.725535e-003
2.024890e+003, 8.503462e-003
2.026818e+003, 7.995355e-003
2.028747e+003, 8.443125e-003
2.030675e+003, 9.000632e-003
2.032604e+003, 8.638030e-003
2.034532e+003, 8.585189e-003
2.036461e+003, 8.146157e-003
2.038389e+003, 7.605671e-003
2.040318e+003, 8.072057e-003
2.042246e+003, 9.244317e-003
2.044175e+003, 9.339974e-003
2.046103e+003, 8.323951e-003
2.048031e+003, 8.381651e-003
2.049960e+003, 9.337420e-003
2.051888e+003, 8.578408e-003
2.053817e+003, 8.103868e-003
2.055745e+003, 8.709284e-003
2.057674e+003, 9.245282e-003
2.059602e+003, 8.536302e-003
2.061531e+003, 7.557666e-003
2.063459e+003, 7.177962e-003
2.065388e+003, 7.662293e-003
2.067316e+003, 8.255469e-003
2.069245e+003, 8.993939e-003
2.071173e+003, 9.789564e-003
2.073102e+003, 9.940594e-003
2.075030e+003, 9.859943e-003
2.076958e+003, 9.356405e-003
2.078887e+003, 8.878045e-003
2.080815e+003, 8.626115e-003
2.082744e+003, 8.116022e-003
2.084672e+003, 8.187966e-003
2.086601e+003, 8.372753e-003
2.088529e+003, 8.351661e-003
2.090458e+003, 8.369662e-003
2.092386e+003, 8.296689e-003
2.094315e+003, 8.135637e-003
2.096243e+003, 8.312086e-003
2.098172e+003, 8.462424e-003
2.100100e+003, 8.616781e-003
2.102029e+003, 8.502543e-003
2.103957e+003, 8.876520e-003
2.105885e+003, 8.406424e-003
2.107814e+003, 7.510393e-003
2.109742e+003, 7.312071e-003
2.111671e+003, 7.947302e-003
2.113599e+003, 8.485639e-003
2.115528e+003, 8.084882e-003
2.117456e+003, 7.573427e-003
2.119385e+003, 7.515779e-003
2.121313e+003, 7.179278e-003
2.123242e+003, 7.224063e-003
2.125170e+003, 7.425961e-003
2.127099e+003, 6.937308e-003
2.129027e+003, 6.484491e-003
2.130956e+003, 5.999582e-003
2.132884e+003, 6.074450e-003
2.134813e+003, 6.748806e-003
2.136741e+003, 7.787588e-003
2.138669e+003, 7.582602e-003
2.140598e+003, 6.381905e-003
2.142526e+003, 6.416852e-003
2.144455e+003, 6.198405e-003
2.146383e+003, 5.761484e-003
2.148312e+003, 6.023755e-003
2.150240e+003, 6.341435e-003
2.152169e+003, 6.473314e-003
2.154097e+003, 6.680447e-003
2.156026e+003, 5.906932e-003
2.157954e+003, 8.216868e-003
2.159883e+003, 1.192963e-002
2.161811e+003, 1.219879e-002
2.163740e+003, 1.067325e-002
2.165668e+003, 1.061165e-002
2.167596e+003, 1.091432e-002
2.169525e+003, 1.036073e-002
2.171453e+003, 8.395035e-003
2.173382e+003, 8.148620e-003
2.175310e+003, 8.655362e-003
2.177239e+003, 9.472561e-003
2.179167e+003, 9.561604e-003
2.181096e+003, 9.716343e-003
2.183024e+003, 1.050625e-002
2.184953e+003, 1.170131e-002
2.186881e+003, 1.109378e-002
2.188810e+003, 9.905318e-003
2.190738e+003, 9.546308e-003
2.192667e+003, 9.939080e-003
2.194595e+003, 1.045817e-002
2.196523e+003, 1.022395e-002
2.198452e+003, 9.544635e-003
2.200380e+003, 9.075905e-003
2.202309e+003, 9.606954e-003
2.204237e+003, 1.036646e-002
2.206166e+003, 1.031233e-002
2.208094e+003, 1.031373e-002
2.210023e+003, 1.080908e-002
2.211951e+003, 1.047327e-002
2.213880e+003, 1.087650e-002
2.215808e+003, 1.176973e-002
2.217737e+003, 1.174176e-002
2.219665e+003, 1.167676e-002
2.221594e+003, 1.174256e-002
2.223522e+003, 1.176666e-002
2.225450e+003, 1.141890e-002
2.227379e+003, 1.137549e-002
2.229307e+003, 1.179911e-002
2.231236e+003, 1.168624e-002
2.233164e+003, 1.144370e-002
2.235093e+003, 1.212113e-002
2.237021e+003, 1.216718e-002
2.238950e+003, 1.222089e-002
2.240878e+003, 1.195970e-002
2.242807e+003, 1.155953e-002
2.244735e+003, 1.162925e-002
2.246664e+003, 1.205392e-002
2.248592e+003, 1.266644e-002
2.250521e+003, 1.311210e-002
2.252449e+003, 1.270052e-002
2.254377e+003, 1.239247e-002
2.256306e+003, 1.275616e-002
2.258234e+003, 1.294483e-002
2.260163e+003, 1.239287e-002
2.262091e+003, 1.197641e-002
2.264020e+003, 1.180761e-002
2.265948e+003, 1.232416e-002
2.267877e+003, 1.256965e-002
2.269805e+003, 1.318246e-002
2.271734e+003, 1.347536e-002
2.273662e+003, 1.319192e-002
2.275591e+003, 1.313940e-002
2.277519e+003, 1.337776e-002
2.279448e+003, 1.344792e-002
2.281376e+003, 1.360808e-002
2.283304e+003, 1.368820e-002
2.285233e+003, 1.347469e-002
2.287161e+003, 1.311006e-002
2.289090e+003, 1.296424e-002
2.291018e+003, 1.286667e-002
2.292947e+003, 1.284822e-002
2.294875e+003, 1.287904e-002
2.296804e+003, 1.278403e-002
2.298732e+003, 1.264015e-002
2.300661e+003, 1.304424e-002
2.302589e+003, 1.317312e-002
2.304518e+003, 1.283426e-002
2.306446e+003, 1.259007e-002
2.308375e+003, 1.250864e-002
2.310303e+003, 1.240412e-002
2.312231e+003, 1.266128e-002
2.314160e+003, 1.301958e-002
2.316088e+003, 1.312447e-002
2.318017e+003, 1.328172e-002
2.319945e+003, 1.371469e-002
2.321874e+003, 1.411394e-002
2.323802e+003, 1.392820e-002
2.325731e+003, 1.271197e-002
2.327659e+003, 1.199411e-002
2.329588e+003, 1.180723e-002
2.331516e+003, 1.189013e-002
2.333445e+003, 1.198817e-002
2.335373e+003, 1.216700e-002
2.337302e+003, 1.202845e-002
2.339230e+003, 1.185310e-002
2.341158e+003, 1.161464e-002
2.343087e+003, 1.177013e-002
2.345015e+003, 1.201830e-002
2.346944e+003, 1.216710e-002
2.348872e+003, 1.201388e-002
2.350801e+003, 1.165245e-002
2.352729e+003, 1.147466e-002
2.354658e+003, 1.144655e-002
2.356586e+003, 1.145866e-002
2.358515e+003, 1.135050e-002
2.360443e+003, 1.123960e-002
2.362372e+003, 1.101169e-002
2.364300e+003, 1.098994e-002
2.366229e+003, 1.100792e-002
2.368157e+003, 1.100554e-002
2.370085e+003, 1.087589e-002
2.372014e+003, 1.067149e-002
2.373942e+003, 1.121942e-002
2.375871e+003, 1.132740e-002
2.377799e+003, 1.075596e-002
2.379728e+003, 1.092017e-002
2.381656e+003, 1.125702e-002
2.383585e+003, 1.105977e-002
2.385513e+003, 1.138544e-002
2.387442e+003, 1.161263e-002
2.389370e+003, 1.169970e-002
2.391299e+003, 1.130000e-002
2.393227e+003, 1.127630e-002
2.395156e+003, 1.157268e-002
2.397084e+003, 1.166029e-002
2.399012e+003, 1.165787e-002
2.400941e+003, 1.181294e-002
2.402869e+003, 1.160968e-002
2.404798e+003, 1.181345e-002
2.406726e+003, 1.229845e-002
2.408655e+003, 1.246494e-002
2.410583e+003, 1.262102e-002
2.412512e+003, 1.256184e-002
2.414440e+003, 1.259516e-002
2.416369e+003, 1.249185e-002
2.418297e+003, 1.206875e-002
2.420226e+003, 1.197385e-002
2.422154e+003, 1.222649e-002
2.424083e+003, 1.226203e-002
2.426011e+003, 1.242023e-002
2.427939e+003, 1.282021e-002
2.429868e+003, 1.265202e-002
2.431796e+003, 1.247322e-002
2.433725e+003, 1.238428e-002
2.435653e+003, 1.298767e-002
2.437582e+003, 1.329545e-002
2.439510e+003, 1.313713e-002
2.441439e+003, 1.299141e-002
2.443367e+003, 1.277076e-002
2.445296e+003, 1.275343e-002
2.447224e+003, 1.360125e-002
2.449153e+003, 1.393659e-002
2.451081e+003, 1.342700e-002
2.453010e+003, 1.326548e-002
2.454938e+003, 1.357217e-002
2.456866e+003, 1.367831e-002
2.458795e+003, 1.369142e-002
2.460723e+003, 1.344578e-002
2.462652e+003, 1.331934e-002
2.464580e+003, 1.316689e-002
2.466509e+003, 1.301844e-002
2.468437e+003, 1.285659e-002
2.470366e+003, 1.286937e-002
2.472294e+003, 1.325261e-002
2.474223e+003, 1.340894e-002
2.476151e+003, 1.328126e-002
2.478080e+003, 1.347530e-002
2.480008e+003, 1.386360e-002
2.481937e+003, 1.381814e-002
2.483865e+003, 1.381063e-002
2.485793e+003, 1.378513e-002
2.487722e+003, 1.388666e-002
2.489650e+003, 1.397782e-002
2.491579e+003, 1.360829e-002
2.493507e+003, 1.360143e-002
2.495436e+003, 1.417353e-002
2.497364e+003, 1.429918e-002
2.499293e+003, 1.367522e-002
2.501221e+003, 1.361587e-002
2.503150e+003, 1.390993e-002
2.505078e+003, 1.422450e-002
2.507007e+003, 1.424967e-002
2.508935e+003, 1.402482e-002
2.510864e+003, 1.390357e-002
2.512792e+003, 1.388447e-002
2.514720e+003, 1.411803e-002
2.516649e+003, 1.429889e-002
2.518577e+003, 1.413536e-002
2.520506e+003, 1.402277e-002
2.522434e+003, 1.395121e-002
2.524363e+003, 1.408972e-002
2.526291e+003, 1.394422e-002
2.528220e+003, 1.388420e-002
2.530148e+003, 1.401628e-002
2.532077e+003, 1.406248e-002
2.534005e+003, 1.382339e-002
2.535934e+003, 1.401658e-002
2.537862e+003, 1.437178e-002
2.539791e+003, 1.443258e-002
2.541719e+003, 1.441889e-002
2.543647e+003, 1.456243e-002
2.545576e+003, 1.470270e-002
2.547504e+003, 1.483197e-002
2.549433e+003, 1.476555e-002
2.551361e+003, 1.479625e-002
2.553290e+003, 1.503250e-002
2.555218e+003, 1.527258e-002
2.557147e+003, 1.512271e-002
2.559075e+003, 1.457017e-002
2.561004e+003, 1.458769e-002
2.562932e+003, 1.493211e-002
2.564861e+003, 1.537648e-002
2.566789e+003, 1.502019e-002
2.568718e+003, 1.458025e-002
2.570646e+003, 1.466678e-002
2.572574e+003, 1.453090e-002
2.574503e+003, 1.522865e-002
2.576431e+003, 1.551718e-002
2.578360e+003, 1.566004e-002
2.580288e+003, 1.579001e-002
2.582217e+003, 1.585856e-002
2.584145e+003, 1.562520e-002
2.586074e+003, 1.559151e-002
2.588002e+003, 1.562436e-002
2.589931e+003, 1.545679e-002
2.591859e+003, 1.539152e-002
2.593788e+003, 1.561338e-002
2.595716e+003, 1.584364e-002
2.597645e+003, 1.624048e-002
2.599573e+003, 1.619933e-002
2.601501e+003, 1.579529e-002
2.603430e+003, 1.579853e-002
2.605358e+003, 1.601422e-002
2.607287e+003, 1.594502e-002
2.609215e+003, 1.593771e-002
2.611144e+003, 1.609823e-002
2.613072e+003, 1.604761e-002
2.615001e+003, 1.599205e-002
2.616929e+003, 1.615124e-002
2.618858e+003, 1.634992e-002
2.620786e+003, 1.639931e-002
2.622715e+003, 1.653534e-002
2.624643e+003, 1.633276e-002
2.626572e+003, 1.638626e-002
2.628500e+003, 1.642817e-002
2.630428e+003, 1.623140e-002
2.632357e+003, 1.620165e-002
2.634285e+003, 1.639235e-002
2.636214e+003, 1.650130e-002
2.638142e+003, 1.672214e-002
2.640071e+003, 1.702732e-002
2.641999e+003, 1.703977e-002
2.643928e+003, 1.676986e-002
2.645856e+003, 1.694266e-002
2.647785e+003, 1.690525e-002
2.649713e+003, 1.671545e-002
2.651642e+003, 1.657724e-002
2.653570e+003, 1.650003e-002
2.655499e+003, 1.645124e-002
2.657427e+003, 1.643176e-002
2.659355e+003, 1.643458e-002
2.661284e+003, 1.614451e-002
2.663212e+003, 1.605987e-002
2.665141e+003, 1.600220e-002
2.667069e+003, 1.588926e-002
2.668998e+003, 1.589133e-002
2.670926e+003, 1.601462e-002
2.672855e+003, 1.612165e-002
2.674783e+003, 1.596075e-002
2.676712e+003, 1.579247e-002
2.678640e+003, 1.587357e-002
2.680569e+003, 1.587231e-002
2.682497e+003, 1.598212e-002
2.684426e+003, 1.593655e-002
2.686354e+003, 1.604312e-002
2.688282e+003, 1.626092e-002
2.690211e+003, 1.623699e-002
2.692139e+003, 1.611342e-002
2.694068e+003, 1.618227e-002
2.695996e+003, 1.612937e-002
2.697925e+003, 1.621461e-002
2.699853e+003, 1.639746e-002
2.701782e+003, 1.624434e-002
2.703710e+003, 1.629419e-002
2.705639e+003, 1.664854e-002
2.707567e+003, 1.688519e-002
2.709496e+003, 1.666574e-002
2.711424e+003, 1.646679e-002
2.713353e+003, 1.642883e-002
2.715281e+003, 1.667126e-002
2.717209e+003, 1.685835e-002
2.719138e+003, 1.668756e-002
2.721066e+003, 1.634907e-002
2.722995e+003, 1.614900e-002
2.724923e+003, 1.625985e-002
2.726852e+003, 1.633750e-002
2.728780e+003, 1.646632e-002
2.730709e+003, 1.671396e-002
2.732637e+003, 1.699575e-002
2.734566e+003, 1.679226e-002
2.736494e+003, 1.641528e-002
2.738423e+003, 1.641776e-002
2.740351e+003, 1.663114e-002
2.742280e+003, 1.669308e-002
2.744208e+003, 1.664592e-002
2.746136e+003, 1.660125e-002
2.748065e+003, 1.702883e-002
2.749993e+003, 1.735128e-002
2.751922e+003, 1.720112e-002
2.753850e+003, 1.695023e-002
2.755779e+003, 1.666544e-002
2.757707e+003, 1.686382e-002
2.759636e+003, 1.725578e-002
2.761564e+003, 1.721170e-002
2.763493e+003, 1.687286e-002
2.765421e+003, 1.684861e-002
2.767350e+003, 1.710504e-002
2.769278e+003, 1.749629e-002
2.771207e+003, 1.754268e-002
2.773135e+003, 1.761941e-002
2.775063e+003, 1.781093e-002
2.776992e+003, 1.771471e-002
2.778920e+003, 1.773601e-002
2.780849e+003, 1.767913e-002
2.782777e+003, 1.780641e-002
2.784706e+003, 1.796016e-002
2.786634e+003, 1.794000e-002
2.788563e+003, 1.773471e-002
2.790491e+003, 1.769296e-002
2.792420e+003, 1.780989e-002
2.794348e+003, 1.779326e-002
2.796277e+003, 1.784439e-002
2.798205e+003, 1.784024e-002
2.800134e+003, 1.786988e-002
2.802062e+003, 1.786883e-002
2.803990e+003, 1.783400e-002
2.805919e+003, 1.789214e-002
2.807847e+003, 1.816106e-002
2.809776e+003, 1.831342e-002
2.811704e+003, 1.824760e-002
2.813633e+003, 1.825929e-002
2.815561e+003, 1.848878e-002
2.817490e+003, 1.900984e-002
2.819418e+003, 1.910067e-002
2.821347e+003, 1.874151e-002
2.823275e+003, 1.826708e-002
2.825204e+003, 1.842581e-002
2.827132e+003, 1.895103e-002
2.829061e+003, 1.916352e-002
2.830989e+003, 1.928168e-002
2.832917e+003, 1.937312e-002
2.834846e+003, 1.954061e-002
2.836774e+003, 1.985200e-002
2.838703e+003, 2.022687e-002
2.840631e+003, 2.065132e-002
2.842560e+003, 2.113159e-002
2.844488e+003, 2.189147e-002
2.846417e+003, 2.322938e-002
2.848345e+003, 2.418567e-002
2.850274e+003, 2.458993e-002
2.852202e+003, 2.475467e-002
2.854131e+003, 2.433669e-002
2.856059e+003, 2.329977e-002
2.857988e+003, 2.250759e-002
2.859916e+003, 2.220800e-002
2.861844e+003, 2.156588e-002
2.863773e+003, 2.112686e-002
2.865701e+003, 2.144650e-002
2.867630e+003, 2.156335e-002
2.869558e+003, 2.135337e-002
2.871487e+003, 2.114215e-002
2.873415e+003, 2.091200e-002
2.875344e+003, 2.084990e-002
2.877272e+003, 2.073907e-002
2.879201e+003, 2.065521e-002
2.881129e+003, 2.072371e-002
2.883058e+003, 2.094585e-002
2.884986e+003, 2.111288e-002
2.886915e+003, 2.136332e-002
2.888843e+003, 2.173234e-002
2.890771e+003, 2.187961e-002
2.892700e+003, 2.178441e-002
2.894628e+003, 2.200626e-002
2.896557e+003, 2.222284e-002
2.898485e+003, 2.250530e-002
2.900414e+003, 2.271354e-002
2.902342e+003, 2.318040e-002
2.904271e+003, 2.367402e-002
2.906199e+003, 2.400140e-002
2.908128e+003, 2.452331e-002
2.910056e+003, 2.521802e-002
2.911985e+003, 2.603273e-002
2.913913e+003, 2.716188e-002
2.915842e+003, 2.835847e-002
2.917770e+003, 2.931988e-002
2.919698e+003, 2.961116e-002
2.921627e+003, 2.984172e-002
2.923555e+003, 2.945601e-002
2.925484e+003, 2.841343e-002
2.927412e+003, 2.806466e-002
2.929341e+003, 2.793632e-002
2.931269e+003, 2.707059e-002
2.933198e+003, 2.616402e-002
2.935126e+003, 2.513987e-002
2.937055e+003, 2.438626e-002
2.938983e+003, 2.422258e-002
2.940912e+003, 2.410504e-002
2.942840e+003, 2.353486e-002
2.944769e+003, 2.284262e-002
2.946697e+003, 2.241588e-002
2.948625e+003, 2.261860e-002
2.950554e+003, 2.289940e-002
2.952482e+003, 2.296230e-002
2.954411e+003, 2.278581e-002
2.956339e+003, 2.272173e-002
2.958268e+003, 2.249717e-002
2.960196e+003, 2.222952e-002
2.962125e+003, 2.219510e-002
2.964053e+003, 2.232048e-002
2.965982e+003, 2.210350e-002
2.967910e+003, 2.154062e-002
2.969839e+003, 2.145768e-002
2.971767e+003, 2.179105e-002
2.973696e+003, 2.136819e-002
2.975624e+003, 2.102199e-002
2.977552e+003, 2.067069e-002
2.979481e+003, 2.079044e-002
2.981409e+003, 2.111867e-002
2.983338e+003, 2.142837e-002
2.985266e+003, 2.120838e-002
2.987195e+003, 2.086107e-002
2.989123e+003, 2.042829e-002
2.991052e+003, 2.064851e-002
2.992980e+003, 2.115847e-002
2.994909e+003, 2.122438e-002
2.996837e+003, 2.117963e-002
2.998766e+003, 2.135963e-002
3.000694e+003, 2.148011e-002
3.002623e+003, 2.158053e-002
3.004551e+003, 2.160880e-002
3.006479e+003, 2.134157e-002
3.008408e+003, 2.113594e-002
3.010336e+003, 2.154978e-002
3.012265e+003, 2.129488e-002
3.014193e+003, 2.058498e-002
3.016122e+003, 1.946222e-002
3.018050e+003, 1.960978e-002
3.019979e+003, 2.083634e-002
3.021907e+003, 2.129969e-002
3.023836e+003, 2.147890e-002
3.025764e+003, 2.144300e-002
3.027693e+003, 2.156631e-002
3.029621e+003, 2.183398e-002
3.031550e+003, 2.212274e-002
3.033478e+003, 2.255986e-002
3.035406e+003, 2.285695e-002
3.037335e+003, 2.247999e-002
3.039263e+003, 2.200621e-002
3.041192e+003, 2.194489e-002
3.043120e+003, 2.205954e-002
3.045049e+003, 2.256616e-002
3.046977e+003, 2.243703e-002
3.048906e+003, 2.230764e-002
3.050834e+003, 2.275977e-002
3.052763e+003, 2.309507e-002
3.054691e+003, 2.291165e-002
3.056620e+003, 2.240653e-002
3.058548e+003, 2.263734e-002
3.060477e+003, 2.325777e-002
3.062405e+003, 2.325914e-002
3.064333e+003, 2.295676e-002
3.066262e+003, 2.250919e-002
3.068190e+003, 2.287755e-002
3.070119e+003, 2.348837e-002
3.072047e+003, 2.355557e-002
3.073976e+003, 2.310108e-002
3.075904e+003, 2.265344e-002
3.077833e+003, 2.288000e-002
3.079761e+003, 2.300596e-002
3.081690e+003, 2.308823e-002
3.083618e+003, 2.334805e-002
3.085547e+003, 2.322827e-002
3.087475e+003, 2.355408e-002
3.089404e+003, 2.406989e-002
3.091332e+003, 2.433453e-002
3.093260e+003, 2.406466e-002
3.095189e+003, 2.372684e-002
3.097117e+003, 2.408992e-002
3.099046e+003, 2.440876e-002
3.100974e+003, 2.427878e-002
3.102903e+003, 2.375492e-002
3.104831e+003, 2.350339e-002
3.106760e+003, 2.426434e-002
3.108688e+003, 2.494802e-002
3.110617e+003, 2.506968e-002
3.112545e+003, 2.448329e-002
3.114474e+003, 2.453822e-002
3.116402e+003, 2.525284e-002
3.118331e+003, 2.529400e-002
3.120259e+003, 2.514211e-002
3.122188e+003, 2.522892e-002
3.124116e+003, 2.568710e-002
3.126044e+003, 2.534140e-002
3.127973e+003, 2.532234e-002
3.129901e+003, 2.549308e-002
3.131830e+003, 2.534908e-002
3.133758e+003, 2.531047e-002
3.135687e+003, 2.558192e-002
3.137615e+003, 2.580851e-002
3.139544e+003, 2.584009e-002
3.141472e+003, 2.609566e-002
3.143401e+003, 2.654375e-002
3.145329e+003, 2.658410e-002
3.147258e+003, 2.646242e-002
3.149186e+003, 2.650080e-002
3.151115e+003, 2.633283e-002
3.153043e+003, 2.642405e-002
3.154971e+003, 2.649525e-002
3.156900e+003, 2.648225e-002
3.158828e+003, 2.655012e-002
3.160757e+003, 2.673944e-002
3.162685e+003, 2.724654e-002
3.164614e+003, 2.733390e-002
3.166542e+003, 2.689880e-002
3.168471e+003, 2.665374e-002
3.170399e+003, 2.743038e-002
3.172328e+003, 2.804823e-002
3.174256e+003, 2.764591e-002
3.176185e+003, 2.738266e-002
3.178113e+003, 2.763941e-002
3.180042e+003, 2.781144e-002
3.181970e+003, 2.746642e-002
3.183898e+003, 2.778411e-002
3.185827e+003, 2.818283e-002
3.187755e+003, 2.797820e-002
3.189684e+003, 2.785973e-002
3.191612e+003, 2.867042e-002
3.193541e+003, 2.939042e-002
3.195469e+003, 2.911639e-002
3.197398e+003, 2.848914e-002
3.199326e+003, 2.863016e-002
3.201255e+003, 2.891469e-002
3.203183e+003, 2.907791e-002
3.205112e+003, 2.907410e-002
3.207040e+003, 2.939969e-002
3.208969e+003, 2.985195e-002
3.210897e+003, 3.017407e-002
3.212825e+003, 2.999961e-002
3.214754e+003, 2.975813e-002
3.216682e+003, 2.996155e-002
3.218611e+003, 3.043364e-002
3.220539e+003, 3.044570e-002
3.222468e+003, 3.066128e-002
3.224396e+003, 3.094286e-002
3.226325e+003, 3.104174e-002
3.228253e+003, 3.123640e-002
3.230182e+003, 3.161783e-002
3.232110e+003, 3.167871e-002
3.234039e+003, 3.130117e-002
3.235967e+003, 3.124522e-002
3.237896e+003, 3.159387e-002
3.239824e+003, 3.173373e-002
3.241752e+003, 3.182856e-002
3.243681e+003, 3.221510e-002
3.245609e+003, 3.222220e-002
3.247538e+003, 3.222949e-002
3.249466e+003, 3.216320e-002
3.251395e+003, 3.248543e-002
3.253323e+003, 3.259333e-002
3.255252e+003, 3.269867e-002
3.257180e+003, 3.298439e-002
3.259109e+003, 3.310976e-002
3.261037e+003, 3.334098e-002
3.262966e+003, 3.347642e-002
3.264894e+003, 3.375489e-002
3.266823e+003, 3.415558e-002
3.268751e+003, 3.450711e-002
3.270679e+003, 3.495906e-002
3.272608e+003, 3.531314e-002
3.274536e+003, 3.491063e-002
3.276465e+003, 3.474401e-002
3.278393e+003, 3.495651e-002
3.280322e+003, 3.549005e-002
3.282250e+003, 3.578425e-002
3.284179e+003, 3.582775e-002
3.286107e+003, 3.597957e-002
3.288036e+003, 3.612151e-002
3.289964e+003, 3.641109e-002
3.291893e+003, 3.647062e-002
3.293821e+003, 3.644806e-002
3.295750e+003, 3.680978e-002
3.297678e+003, 3.721786e-002
3.299606e+003, 3.746913e-002
3.301535e+003, 3.760989e-002
3.303463e+003, 3.806795e-002
3.305392e+003, 3.870933e-002
3.307320e+003, 3.891480e-002
3.309249e+003, 3.915802e-002
3.311177e+003, 3.935384e-002
3.313106e+003, 3.933923e-002
3.315034e+003, 3.922775e-002
3.316963e+003, 3.970989e-002
3.318891e+003, 4.051839e-002
3.320820e+003, 4.064624e-002
3.322748e+003, 4.048689e-002
3.324677e+003, 4.026259e-002
3.326605e+003, 4.122574e-002
3.328533e+003, 4.228145e-002
3.330462e+003, 4.249894e-002
3.332390e+003, 4.281776e-002
3.334319e+003, 4.302445e-002
3.336247e+003, 4.372367e-002
3.338176e+003, 4.431519e-002
3.340104e+003, 4.478795e-002
3.342033e+003, 4.539551e-002
3.343961e+003, 4.602959e-002
3.345890e+003, 4.700305e-002
3.347818e+003, 4.827748e-002
3.349747e+003, 4.917379e-002
3.351675e+003, 5.062320e-002
3.353604e+003, 5.221612e-002
3.355532e+003, 5.373456e-002
3.357460e+003, 5.578919e-002
3.359389e+003, 5.847005e-002
3.361317e+003, 6.152558e-002
3.363246e+003, 6.419024e-002
3.365174e+003, 6.705151e-002
3.367103e+003, 7.066305e-002
3.369031e+003, 7.455018e-002
3.370960e+003, 7.848959e-002
3.372888e+003, 8.328772e-002
3.374817e+003, 8.855690e-002
3.376745e+003, 9.340278e-002
3.378674e+003, 9.817497e-002
3.380602e+003, 1.022827e-001
3.382531e+003, 1.051840e-001
3.384459e+003, 1.076179e-001
3.386387e+003, 1.101008e-001
3.388316e+003, 1.138300e-001
3.390244e+003, 1.187464e-001
3.392173e+003, 1.241939e-001
3.394101e+003, 1.318681e-001
3.396030e+003, 1.393739e-001
3.397958e+003, 1.455738e-001
3.399887e+003, 1.503905e-001
3.401815e+003, 1.525913e-001
3.403744e+003, 1.514944e-001
3.405672e+003, 1.464866e-001
3.407601e+003, 1.368131e-001
3.409529e+003, 1.234438e-001
3.411458e+003, 1.075110e-001
3.413386e+003, 9.049172e-002
3.415314e+003, 7.454019e-002
3.417243e+003, 6.104203e-002
3.419171e+003, 5.154713e-002
3.421100e+003, 4.474034e-002
3.423028e+003, 3.870629e-002
3.424957e+003, 3.464196e-002
3.426885e+003, 3.174056e-002
3.428814e+003, 2.938703e-002
3.430742e+003, 2.824550e-002
3.432671e+003, 2.767064e-002
3.434599e+003, 2.680193e-002
3.436528e+003, 2.599569e-002
3.438456e+003, 2.551238e-002
3.440385e+003, 2.583394e-002
3.442313e+003, 2.609648e-002
3.444241e+003, 2.558739e-002
3.446170e+003, 2.514585e-002
3.448098e+003, 2.530124e-002
3.450027e+003, 2.544032e-002
3.451955e+003, 2.575859e-002
3.453884e+003, 2.607227e-002
3.455812e+003, 2.594953e-002
3.457741e+003, 2.659853e-002
3.459669e+003, 2.677830e-002
3.461598e+003, 2.660693e-002
3.463526e+003, 2.642898e-002
3.465455e+003, 2.591810e-002
3.467383e+003, 2.564239e-002
3.469312e+003, 2.611197e-002
3.471240e+003, 2.587098e-002
3.473168e+003, 2.550686e-002
3.475097e+003, 2.563958e-002
3.477025e+003, 2.559271e-002
3.478954e+003, 2.478673e-002
3.480882e+003, 2.387509e-002
3.482811e+003, 2.403175e-002
3.484739e+003, 2.416337e-002
3.486668e+003, 2.350106e-002
3.488596e+003, 2.313413e-002
3.490525e+003, 2.284228e-002
3.492453e+003, 2.226347e-002
3.494382e+003, 2.229333e-002
3.496310e+003, 2.275824e-002
3.498239e+003, 2.310998e-002
3.500167e+003, 2.325385e-002
3.502095e+003, 2.280019e-002
3.504024e+003, 2.194743e-002
3.505952e+003, 2.142614e-002
3.507881e+003, 2.166137e-002
3.509809e+003, 2.204577e-002
3.511738e+003, 2.256516e-002
3.513666e+003, 2.283545e-002
3.515595e+003, 2.233578e-002
3.517523e+003, 2.226035e-002
3.519452e+003, 2.210767e-002
3.521380e+003, 2.200492e-002
3.523309e+003, 2.192252e-002
3.525237e+003, 2.209774e-002
3.527166e+003, 2.245828e-002
3.529094e+003, 2.228183e-002
3.531022e+003, 2.195936e-002
3.532951e+003, 2.200084e-002
3.534879e+003, 2.230772e-002
3.536808e+003, 2.165638e-002
3.538736e+003, 2.117400e-002
3.540665e+003, 2.083049e-002
3.542593e+003, 2.094444e-002
3.544522e+003, 2.096245e-002
3.546450e+003, 2.079036e-002
3.548379e+003, 2.059524e-002
3.550307e+003, 1.968785e-002
3.552236e+003, 1.913580e-002
3.554164e+003, 1.929339e-002
3.556093e+003, 1.983933e-002
3.558021e+003, 1.986412e-002
3.559949e+003, 2.022182e-002
3.561878e+003, 2.055045e-002
3.563806e+003, 2.060387e-002
3.565735e+003, 2.030286e-002
3.567663e+003, 1.992148e-002
3.569592e+003, 1.999555e-002
3.571520e+003, 2.016526e-002
3.573449e+003, 1.991582e-002
3.575377e+003, 1.985884e-002
3.577306e+003, 2.044620e-002
3.579234e+003, 2.022744e-002
3.581163e+003, 1.915233e-002
3.583091e+003, 1.873992e-002
3.585020e+003, 1.924655e-002
3.586948e+003, 1.935514e-002
3.588876e+003, 1.947168e-002
3.590805e+003, 1.925549e-002
3.592733e+003, 1.860487e-002
3.594662e+003, 1.915281e-002
3.596590e+003, 1.995377e-002
3.598519e+003, 1.992350e-002
3.600447e+003, 1.940196e-002
3.602376e+003, 1.903046e-002
3.604304e+003, 1.872837e-002
3.606233e+003, 1.899520e-002
3.608161e+003, 1.910863e-002
3.610090e+003, 1.924060e-002
3.612018e+003, 2.004193e-002
3.613947e+003, 1.938941e-002
3.615875e+003, 1.885712e-002
3.617803e+003, 1.919009e-002
3.619732e+003, 1.928210e-002
3.621660e+003, 1.947623e-002
3.623589e+003, 1.928661e-002
3.625517e+003, 1.865633e-002
3.627446e+003, 1.759968e-002
3.629374e+003, 1.760971e-002
3.631303e+003, 1.760002e-002
3.633231e+003, 1.753859e-002
3.635160e+003, 1.835770e-002
3.637088e+003, 1.838360e-002
3.639017e+003, 1.813751e-002
3.640945e+003, 1.852844e-002
3.642874e+003, 1.868390e-002
3.644802e+003, 1.811119e-002
3.646730e+003, 1.751304e-002
3.648659e+003, 1.753680e-002
3.650587e+003, 1.789290e-002
3.652516e+003, 1.819545e-002
3.654444e+003, 1.811926e-002
3.656373e+003, 1.803882e-002
3.658301e+003, 1.804814e-002
3.660230e+003, 1.767679e-002
3.662158e+003, 1.830564e-002
3.664087e+003, 1.853446e-002
3.666015e+003, 1.803597e-002
3.667944e+003, 1.788868e-002
3.669872e+003, 1.773339e-002
3.671801e+003, 1.810817e-002
3.673729e+003, 1.860463e-002
3.675657e+003, 1.839378e-002
3.677586e+003, 1.811337e-002
3.679514e+003, 1.785687e-002
3.681443e+003, 1.761578e-002
3.683371e+003, 1.742235e-002
3.685300e+003, 1.805319e-002
3.687228e+003, 1.787849e-002
3.689157e+003, 1.757570e-002
3.691085e+003, 1.754824e-002
3.693014e+003, 1.756007e-002
3.694942e+003, 1.835805e-002
3.696871e+003, 1.878629e-002
3.698799e+003, 1.825092e-002
3.700728e+003, 1.758450e-002
3.702656e+003, 1.733067e-002
3.704584e+003, 1.763993e-002
3.706513e+003, 1.791105e-002
3.708441e+003, 1.832069e-002
3.710370e+003, 1.852453e-002
3.712298e+003, 1.827842e-002
3.714227e+003, 1.815394e-002
3.716155e+003, 1.825158e-002
3.718084e+003, 1.843183e-002
3.720012e+003, 1.843847e-002
3.721941e+003, 1.787178e-002
3.723869e+003, 1.787851e-002
3.725798e+003, 1.907617e-002
3.727726e+003, 1.969275e-002
3.729655e+003, 1.949636e-002
3.731583e+003, 1.864517e-002
3.733511e+003, 1.880491e-002
3.735440e+003, 1.913026e-002
3.737368e+003, 1.910135e-002
3.739297e+003, 1.940613e-002
3.741225e+003, 1.885667e-002
3.743154e+003, 1.842045e-002
3.745082e+003, 1.891777e-002
3.747011e+003, 1.929826e-002
3.748939e+003, 1.870992e-002
3.750868e+003, 1.840862e-002
3.752796e+003, 1.865925e-002
3.754725e+003, 1.867242e-002
3.756653e+003, 1.880294e-002
3.758582e+003, 1.882374e-002
3.760510e+003, 1.784280e-002
3.762438e+003, 1.731874e-002
3.764367e+003, 1.759481e-002
3.766295e+003, 1.871303e-002
3.768224e+003, 1.962920e-002
3.770152e+003, 1.952615e-002
3.772081e+003, 1.947753e-002
3.774009e+003, 1.990632e-002
3.775938e+003, 1.998052e-002
3.777866e+003, 1.947923e-002
3.779795e+003, 1.885733e-002
3.781723e+003, 1.833553e-002
3.783652e+003, 1.895889e-002
3.785580e+003, 1.974346e-002
3.787509e+003, 1.976819e-002
3.789437e+003, 1.954542e-002
3.791365e+003, 1.909507e-002
3.793294e+003, 1.910980e-002
3.795222e+003, 1.954061e-002
3.797151e+003, 1.962712e-002
3.799079e+003, 1.928244e-002
3.801008e+003, 1.909213e-002
3.802936e+003, 1.926647e-002
3.804865e+003, 1.908207e-002
3.806793e+003, 1.924417e-002
3.808722e+003, 1.984805e-002
3.810650e+003, 1.959112e-002
3.812579e+003, 1.923902e-002
3.814507e+003, 1.954166e-002
3.816436e+003, 1.946065e-002
3.818364e+003, 1.942220e-002
3.820292e+003, 1.968043e-002
3.822221e+003, 2.072179e-002
3.824149e+003, 2.059837e-002
3.826078e+003, 1.947022e-002
3.828006e+003, 1.901959e-002
3.829935e+003, 1.962150e-002
3.831863e+003, 2.022691e-002
3.833792e+003, 2.061549e-002
3.835720e+003, 2.020022e-002
3.837649e+003, 1.938346e-002
3.839577e+003, 1.930538e-002
3.841506e+003, 1.961276e-002
3.843434e+003, 1.923361e-002
3.845363e+003, 1.852275e-002
3.847291e+003, 1.863397e-002
3.849219e+003, 1.920710e-002
3.851148e+003, 1.928923e-002
3.853076e+003, 1.852505e-002
3.855005e+003, 1.829742e-002
3.856933e+003, 1.868075e-002
3.858862e+003, 1.878120e-002
3.860790e+003, 1.851788e-002
3.862719e+003, 1.862726e-002
3.864647e+003, 1.898525e-002
3.866576e+003, 1.892420e-002
3.868504e+003, 1.933927e-002
3.870433e+003, 2.003800e-002
3.872361e+003, 2.022546e-002
3.874290e+003, 1.974524e-002
3.876218e+003, 1.961483e-002
3.878146e+003, 1.938289e-002
3.880075e+003, 1.906324e-002
3.882003e+003, 1.916960e-002
3.883932e+003, 1.944765e-002
3.885860e+003, 1.944386e-002
3.887789e+003, 1.912527e-002
3.889717e+003, 1.939115e-002
3.891646e+003, 2.001245e-002
3.893574e+003, 1.947479e-002
3.895503e+003, 1.908203e-002
3.897431e+003, 1.918354e-002
3.899360e+003, 1.878024e-002
3.901288e+003, 1.916965e-002
3.903217e+003, 1.964862e-002
3.905145e+003, 1.972152e-002
3.907073e+003, 1.987558e-002
3.909002e+003, 1.995206e-002
3.910930e+003, 2.000726e-002
3.912859e+003, 1.854556e-002
3.914787e+003, 1.798289e-002
3.916716e+003, 1.909762e-002
3.918644e+003, 1.952778e-002
3.920573e+003, 1.921533e-002
3.922501e+003, 1.818377e-002
3.924430e+003, 1.854338e-002
3.926358e+003, 1.976144e-002
3.928287e+003, 2.018794e-002
3.930215e+003, 2.011904e-002
3.932144e+003, 1.953508e-002
3.934072e+003, 1.883240e-002
3.936000e+003, 1.951675e-002
3.937929e+003, 1.905797e-002
3.939857e+003, 1.846582e-002
3.941786e+003, 1.896329e-002
3.943714e+003, 1.918398e-002
3.945643e+003, 1.929977e-002
3.947571e+003, 1.947297e-002
3.949500e+003, 1.955552e-002
3.951428e+003, 1.899864e-002
3.953357e+003, 1.930289e-002
3.955285e+003, 2.041789e-002
3.957214e+003, 2.098600e-002
3.959142e+003, 2.054292e-002
3.961071e+003, 1.931517e-002
3.962999e+003, 1.969350e-002
3.964927e+003, 1.996037e-002
3.966856e+003, 1.989134e-002
3.968784e+003, 2.021579e-002
3.970713e+003, 2.040239e-002
3.972641e+003, 2.048316e-002
3.974570e+003, 2.048871e-002
3.976498e+003, 2.015281e-002
3.978427e+003, 1.984266e-002
3.980355e+003, 1.972806e-002
3.982284e+003, 1.985588e-002
3.984212e+003, 1.991611e-002
3.986141e+003, 1.997960e-002
3.988069e+003, 2.018592e-002
3.989998e+003, 2.062134e-002
3.991926e+003, 2.094791e-002
3.993854e+003, 2.010246e-002
3.995783e+003, 1.902062e-002
3.997711e+003, 1.917697e-002
3.999640e+003, 2.010705e-002
4.001568e+003, 0.000000e+000
##END=



