##NAMES=Lazulite
##RRUFFID=R050110
##IDEAL CHEMISTRY=MgAl_2_(PO_4_)_2_(OH)_2_
##LOCALITY=Rapid Creek, Yukon Territory, Canada
##OWNER=RRUFF
##SOURCE=Rock Currier
##DESCRIPTION=Azure-blue stubby crystals with complex terminations
##STATUS=The identification of this mineral has been confirmed by X-ray diffraction and chemical analysis
##URL=rruff.info/R050110
##MEASURED CHEMISTRY=(Mg_0.84_Fe_0.16_)Al_2.00_(P_1.00_O_4_)_2_(OH)_2_
3.991926e+002, 0.000000e+000
4.011211e+002, 1.438260e-001
4.030496e+002, 1.445011e-001
4.049780e+002, 1.514799e-001
4.069065e+002, 1.548216e-001
4.088350e+002, 1.587002e-001
4.107634e+002, 1.660999e-001
4.126919e+002, 1.745536e-001
4.146204e+002, 1.744261e-001
4.165488e+002, 1.757276e-001
4.184773e+002, 1.759906e-001
4.204058e+002, 1.741904e-001
4.223342e+002, 1.791621e-001
4.242627e+002, 1.854258e-001
4.261912e+002, 1.851673e-001
4.281196e+002, 1.830885e-001
4.300481e+002, 1.794648e-001
4.319766e+002, 1.723327e-001
4.339050e+002, 1.667664e-001
4.358335e+002, 1.629725e-001
4.377620e+002, 1.607555e-001
4.396904e+002, 1.637638e-001
4.416189e+002, 1.701437e-001
4.435474e+002, 1.742530e-001
4.454758e+002, 1.780107e-001
4.474043e+002, 1.833093e-001
4.493328e+002, 1.863628e-001
4.512612e+002, 1.867958e-001
4.531897e+002, 1.837866e-001
4.551182e+002, 1.799875e-001
4.570466e+002, 1.780819e-001
4.589751e+002, 1.767747e-001
4.609036e+002, 1.734817e-001
4.628320e+002, 1.713519e-001
4.647605e+002, 1.712068e-001
4.666890e+002, 1.710684e-001
4.686174e+002, 1.695878e-001
4.705459e+002, 1.675926e-001
4.724744e+002, 1.658511e-001
4.744028e+002, 1.638617e-001
4.763313e+002, 1.618318e-001
4.782598e+002, 1.593865e-001
4.801882e+002, 1.553013e-001
4.821167e+002, 1.508750e-001
4.840452e+002, 1.478714e-001
4.859736e+002, 1.448481e-001
4.879021e+002, 1.411999e-001
4.898306e+002, 1.380187e-001
4.917590e+002, 1.358491e-001
4.936875e+002, 1.349437e-001
4.956160e+002, 1.359268e-001
4.975444e+002, 1.392707e-001
4.994729e+002, 1.454453e-001
5.014014e+002, 1.514530e-001
5.033298e+002, 1.560979e-001
5.052583e+002, 1.592101e-001
5.071868e+002, 1.594413e-001
5.091152e+002, 1.568431e-001
5.110437e+002, 1.518689e-001
5.129722e+002, 1.464772e-001
5.149006e+002, 1.410158e-001
5.168291e+002, 1.349669e-001
5.187576e+002, 1.289283e-001
5.206860e+002, 1.232846e-001
5.226145e+002, 1.184528e-001
5.245430e+002, 1.135620e-001
5.264714e+002, 1.077982e-001
5.283999e+002, 1.020730e-001
5.303284e+002, 9.767187e-002
5.322568e+002, 9.540308e-002
5.341853e+002, 9.564524e-002
5.361138e+002, 9.840481e-002
5.380422e+002, 1.031514e-001
5.399707e+002, 1.077894e-001
5.418992e+002, 1.120347e-001
5.438276e+002, 1.147660e-001
5.457561e+002, 1.163905e-001
5.476846e+002, 1.178225e-001
5.496130e+002, 1.180196e-001
5.515415e+002, 1.166701e-001
5.534700e+002, 1.149994e-001
5.553984e+002, 1.133064e-001
5.573269e+002, 1.111845e-001
5.592554e+002, 1.089521e-001
5.611838e+002, 1.062193e-001
5.631123e+002, 1.031374e-001
5.650408e+002, 1.002671e-001
5.669692e+002, 9.698875e-002
5.688977e+002, 9.374779e-002
5.708262e+002, 9.076272e-002
5.727546e+002, 8.834025e-002
5.746831e+002, 8.626175e-002
5.766116e+002, 8.439223e-002
5.785400e+002, 8.302841e-002
5.804685e+002, 8.220628e-002
5.823970e+002, 8.190975e-002
5.843254e+002, 8.168943e-002
5.862539e+002, 8.170849e-002
5.881824e+002, 8.185275e-002
5.901108e+002, 8.103757e-002
5.920393e+002, 7.958936e-002
5.939678e+002, 7.745877e-002
5.958962e+002, 7.428869e-002
5.978247e+002, 7.014628e-002
5.997532e+002, 6.582250e-002
6.016816e+002, 6.221604e-002
6.036101e+002, 6.007396e-002
6.055386e+002, 5.966729e-002
6.074670e+002, 6.014632e-002
6.093955e+002, 6.064887e-002
6.113240e+002, 6.012977e-002
6.132524e+002, 5.759203e-002
6.151809e+002, 5.426177e-002
6.171094e+002, 5.113044e-002
6.190378e+002, 4.858807e-002
6.209663e+002, 4.744588e-002
6.228948e+002, 4.776395e-002
6.248232e+002, 4.997018e-002
6.267517e+002, 5.434668e-002
6.286802e+002, 6.042328e-002
6.306086e+002, 6.758559e-002
6.325371e+002, 7.401720e-002
6.344656e+002, 7.798976e-002
6.363940e+002, 8.101875e-002
6.383225e+002, 8.562510e-002
6.402510e+002, 9.214766e-002
6.421794e+002, 9.957966e-002
6.441079e+002, 1.066676e-001
6.460364e+002, 1.123276e-001
6.479648e+002, 1.149326e-001
6.498933e+002, 1.133787e-001
6.518218e+002, 1.086735e-001
6.537502e+002, 1.020377e-001
6.556787e+002, 9.379780e-002
6.576072e+002, 8.454161e-002
6.595356e+002, 7.532776e-002
6.614641e+002, 6.669332e-002
6.633926e+002, 5.868694e-002
6.653210e+002, 5.117894e-002
6.672495e+002, 4.504222e-002
6.691780e+002, 3.974660e-002
6.711064e+002, 3.513383e-002
6.730349e+002, 3.149064e-002
6.749634e+002, 2.862703e-002
6.768918e+002, 2.660954e-002
6.788203e+002, 2.504601e-002
6.807488e+002, 2.366283e-002
6.826772e+002, 2.286484e-002
6.846057e+002, 2.210086e-002
6.865342e+002, 2.137249e-002
6.884626e+002, 2.086847e-002
6.903911e+002, 2.068247e-002
6.923196e+002, 2.078726e-002
6.942480e+002, 2.078247e-002
6.961765e+002, 2.070837e-002
6.981050e+002, 2.088111e-002
7.000334e+002, 2.125610e-002
7.019619e+002, 2.160670e-002
7.038904e+002, 2.199103e-002
7.058188e+002, 2.265725e-002
7.077473e+002, 2.312321e-002
7.096758e+002, 2.355102e-002
7.116042e+002, 2.428102e-002
7.135327e+002, 2.524486e-002
7.154612e+002, 2.628760e-002
7.173896e+002, 2.734746e-002
7.193181e+002, 2.861539e-002
7.212466e+002, 2.987069e-002
7.231750e+002, 3.127570e-002
7.251035e+002, 3.288226e-002
7.270320e+002, 3.467446e-002
7.289604e+002, 3.698269e-002
7.308889e+002, 3.940386e-002
7.328174e+002, 4.154260e-002
7.347458e+002, 4.388203e-002
7.366743e+002, 4.662336e-002
7.386028e+002, 4.989370e-002
7.405313e+002, 5.353174e-002
7.424597e+002, 5.733822e-002
7.443882e+002, 6.157353e-002
7.463167e+002, 6.628714e-002
7.482451e+002, 7.134554e-002
7.501736e+002, 7.673076e-002
7.521021e+002, 8.239154e-002
7.540305e+002, 8.835776e-002
7.559590e+002, 9.477004e-002
7.578875e+002, 1.017445e-001
7.598159e+002, 1.089027e-001
7.617444e+002, 1.156953e-001
7.636729e+002, 1.214437e-001
7.656013e+002, 1.264071e-001
7.675298e+002, 1.302056e-001
7.694583e+002, 1.326461e-001
7.713867e+002, 1.335874e-001
7.733152e+002, 1.330428e-001
7.752437e+002, 1.314663e-001
7.771721e+002, 1.287453e-001
7.791006e+002, 1.248997e-001
7.810291e+002, 1.205787e-001
7.829575e+002, 1.161204e-001
7.848860e+002, 1.117002e-001
7.868145e+002, 1.072021e-001
7.887429e+002, 1.029416e-001
7.906714e+002, 9.921273e-002
7.925999e+002, 9.623434e-002
7.945283e+002, 9.395183e-002
7.964568e+002, 9.245377e-002
7.983853e+002, 9.157819e-002
8.003137e+002, 9.125465e-002
8.022422e+002, 9.133368e-002
8.041707e+002, 9.172781e-002
8.060991e+002, 9.232064e-002
8.080276e+002, 9.259810e-002
8.099561e+002, 9.209240e-002
8.118845e+002, 9.109262e-002
8.138130e+002, 8.989592e-002
8.157415e+002, 8.834083e-002
8.176699e+002, 8.661353e-002
8.195984e+002, 8.450571e-002
8.215269e+002, 8.181662e-002
8.234553e+002, 7.881609e-002
8.253838e+002, 7.573601e-002
8.273123e+002, 7.195868e-002
8.292407e+002, 6.807009e-002
8.311692e+002, 6.419774e-002
8.330977e+002, 5.996390e-002
8.350261e+002, 5.582500e-002
8.369546e+002, 5.208776e-002
8.388831e+002, 4.832651e-002
8.408115e+002, 4.406916e-002
8.427400e+002, 3.983730e-002
8.446685e+002, 3.599484e-002
8.465969e+002, 3.255155e-002
8.485254e+002, 2.972035e-002
8.504539e+002, 2.781135e-002
8.523823e+002, 2.604237e-002
8.543108e+002, 2.452039e-002
8.562393e+002, 2.314425e-002
8.581677e+002, 2.197598e-002
8.600962e+002, 2.112729e-002
8.620247e+002, 2.057453e-002
8.639531e+002, 2.021348e-002
8.658816e+002, 1.954850e-002
8.678101e+002, 1.893678e-002
8.697385e+002, 1.867329e-002
8.716670e+002, 1.864798e-002
8.735955e+002, 1.855076e-002
8.755239e+002, 1.850217e-002
8.774524e+002, 1.862817e-002
8.793809e+002, 1.863281e-002
8.813093e+002, 1.853957e-002
8.832378e+002, 1.850480e-002
8.851663e+002, 1.882648e-002
8.870947e+002, 1.906154e-002
8.890232e+002, 1.934431e-002
8.909517e+002, 1.975029e-002
8.928801e+002, 2.001175e-002
8.948085e+002, 2.018815e-002
8.967370e+002, 2.062928e-002
8.986655e+002, 2.133341e-002
9.005939e+002, 2.188421e-002
9.025224e+002, 2.212858e-002
9.044509e+002, 2.252420e-002
9.063793e+002, 2.322456e-002
9.083078e+002, 2.406921e-002
9.102363e+002, 2.484427e-002
9.121647e+002, 2.564110e-002
9.140932e+002, 2.623010e-002
9.160217e+002, 2.715120e-002
9.179501e+002, 2.812585e-002
9.198786e+002, 2.893764e-002
9.218071e+002, 2.988282e-002
9.237355e+002, 3.094978e-002
9.256640e+002, 3.227305e-002
9.275925e+002, 3.350646e-002
9.295209e+002, 3.460958e-002
9.314494e+002, 3.592214e-002
9.333779e+002, 3.724360e-002
9.353063e+002, 3.854307e-002
9.372348e+002, 4.013989e-002
9.391633e+002, 4.189319e-002
9.410917e+002, 4.376680e-002
9.430202e+002, 4.550599e-002
9.449487e+002, 4.730414e-002
9.468771e+002, 4.954323e-002
9.488056e+002, 5.183166e-002
9.507341e+002, 5.447463e-002
9.526625e+002, 5.722693e-002
9.545910e+002, 6.001574e-002
9.565195e+002, 6.302404e-002
9.584479e+002, 6.626454e-002
9.603764e+002, 6.946404e-002
9.623049e+002, 7.288770e-002
9.642333e+002, 7.682654e-002
9.661618e+002, 8.091550e-002
9.680903e+002, 8.528297e-002
9.700187e+002, 9.002417e-002
9.719472e+002, 9.517585e-002
9.738757e+002, 1.005418e-001
9.758041e+002, 1.063655e-001
9.777326e+002, 1.128139e-001
9.796611e+002, 1.197107e-001
9.815895e+002, 1.270386e-001
9.835180e+002, 1.345852e-001
9.854465e+002, 1.422421e-001
9.873749e+002, 1.503961e-001
9.893034e+002, 1.583796e-001
9.912319e+002, 1.662184e-001
9.931603e+002, 1.741275e-001
9.950888e+002, 1.813662e-001
9.970173e+002, 1.874776e-001
9.989457e+002, 1.920535e-001
1.000874e+003, 1.949849e-001
1.002803e+003, 1.957883e-001
1.004731e+003, 1.943204e-001
1.006660e+003, 1.905681e-001
1.008588e+003, 1.850514e-001
1.010517e+003, 1.779276e-001
1.012445e+003, 1.701798e-001
1.014373e+003, 1.630995e-001
1.016302e+003, 1.576159e-001
1.018230e+003, 1.539320e-001
1.020159e+003, 1.523103e-001
1.022087e+003, 1.529516e-001
1.024016e+003, 1.553550e-001
1.025944e+003, 1.581704e-001
1.027873e+003, 1.610490e-001
1.029801e+003, 1.633414e-001
1.031730e+003, 1.643328e-001
1.033658e+003, 1.636241e-001
1.035587e+003, 1.607639e-001
1.037515e+003, 1.559781e-001
1.039444e+003, 1.505405e-001
1.041372e+003, 1.457796e-001
1.043301e+003, 1.432790e-001
1.045229e+003, 1.435328e-001
1.047157e+003, 1.467331e-001
1.049086e+003, 1.522249e-001
1.051014e+003, 1.584586e-001
1.052943e+003, 1.643086e-001
1.054871e+003, 1.688660e-001
1.056800e+003, 1.709009e-001
1.058728e+003, 1.712021e-001
1.060657e+003, 1.719785e-001
1.062585e+003, 1.750851e-001
1.064514e+003, 1.797828e-001
1.066442e+003, 1.850500e-001
1.068371e+003, 1.903181e-001
1.070299e+003, 1.954770e-001
1.072228e+003, 2.000639e-001
1.074156e+003, 2.043331e-001
1.076084e+003, 2.076865e-001
1.078013e+003, 2.095303e-001
1.079941e+003, 2.107371e-001
1.081870e+003, 2.116606e-001
1.083798e+003, 2.119551e-001
1.085727e+003, 2.117519e-001
1.087655e+003, 2.110845e-001
1.089584e+003, 2.102560e-001
1.091512e+003, 2.089044e-001
1.093441e+003, 2.072903e-001
1.095369e+003, 2.055762e-001
1.097298e+003, 2.039060e-001
1.099226e+003, 2.020565e-001
1.101155e+003, 2.004361e-001
1.103083e+003, 1.988803e-001
1.105011e+003, 1.969816e-001
1.106940e+003, 1.952788e-001
1.108868e+003, 1.936855e-001
1.110797e+003, 1.916999e-001
1.112725e+003, 1.896868e-001
1.114654e+003, 1.879093e-001
1.116582e+003, 1.858934e-001
1.118511e+003, 1.830581e-001
1.120439e+003, 1.792800e-001
1.122368e+003, 1.747865e-001
1.124296e+003, 1.705678e-001
1.126225e+003, 1.670610e-001
1.128153e+003, 1.644343e-001
1.130082e+003, 1.627290e-001
1.132010e+003, 1.615119e-001
1.133938e+003, 1.601516e-001
1.135867e+003, 1.589537e-001
1.137795e+003, 1.578602e-001
1.139724e+003, 1.566781e-001
1.141652e+003, 1.554931e-001
1.143581e+003, 1.541616e-001
1.145509e+003, 1.522193e-001
1.147438e+003, 1.504476e-001
1.149366e+003, 1.489064e-001
1.151295e+003, 1.468151e-001
1.153223e+003, 1.435266e-001
1.155152e+003, 1.392661e-001
1.157080e+003, 1.342438e-001
1.159009e+003, 1.285641e-001
1.160937e+003, 1.221366e-001
1.162865e+003, 1.154254e-001
1.164794e+003, 1.086018e-001
1.166722e+003, 1.018207e-001
1.168651e+003, 9.513102e-002
1.170579e+003, 8.856785e-002
1.172508e+003, 8.244156e-002
1.174436e+003, 7.688069e-002
1.176365e+003, 7.204848e-002
1.178293e+003, 6.784313e-002
1.180222e+003, 6.425612e-002
1.182150e+003, 6.156307e-002
1.184079e+003, 6.005074e-002
1.186007e+003, 6.030037e-002
1.187936e+003, 6.279671e-002
1.189864e+003, 6.752118e-002
1.191792e+003, 7.297507e-002
1.193721e+003, 7.610427e-002
1.195649e+003, 7.512964e-002
1.197578e+003, 7.107554e-002
1.199506e+003, 6.534515e-002
1.201435e+003, 5.951078e-002
1.203363e+003, 5.364157e-002
1.205292e+003, 4.810597e-002
1.207220e+003, 4.319276e-002
1.209149e+003, 3.869656e-002
1.211077e+003, 3.465105e-002
1.213006e+003, 3.117849e-002
1.214934e+003, 2.812308e-002
1.216863e+003, 2.535811e-002
1.218791e+003, 2.291441e-002
1.220719e+003, 2.082995e-002
1.222648e+003, 1.871357e-002
1.224576e+003, 1.681317e-002
1.226505e+003, 1.536719e-002
1.228433e+003, 1.403398e-002
1.230362e+003, 1.278610e-002
1.232290e+003, 1.178769e-002
1.234219e+003, 1.091179e-002
1.236147e+003, 1.021792e-002
1.238076e+003, 9.685964e-003
1.240004e+003, 9.060255e-003
1.241933e+003, 8.510187e-003
1.243861e+003, 8.086552e-003
1.245790e+003, 7.630955e-003
1.247718e+003, 7.039112e-003
1.249646e+003, 6.748006e-003
1.251575e+003, 6.592226e-003
1.253503e+003, 6.465367e-003
1.255432e+003, 6.259370e-003
1.257360e+003, 5.949857e-003
1.259289e+003, 5.741232e-003
1.261217e+003, 5.326485e-003
1.263146e+003, 5.013782e-003
1.265074e+003, 4.704773e-003
1.267003e+003, 4.445747e-003
1.268931e+003, 4.347953e-003
1.270860e+003, 4.225959e-003
1.272788e+003, 4.080433e-003
1.274717e+003, 4.202178e-003
1.276645e+003, 4.178187e-003
1.278573e+003, 4.060866e-003
1.280502e+003, 3.937397e-003
1.282430e+003, 3.661829e-003
1.284359e+003, 3.246865e-003
1.286287e+003, 2.944325e-003
1.288216e+003, 2.978143e-003
1.290144e+003, 2.994388e-003
1.292073e+003, 3.062042e-003
1.294001e+003, 3.216261e-003
1.295930e+003, 3.177286e-003
1.297858e+003, 2.948890e-003
1.299787e+003, 2.802211e-003
1.301715e+003, 2.622386e-003
1.303644e+003, 2.547615e-003
1.305572e+003, 2.751238e-003
1.307500e+003, 2.841877e-003
1.309429e+003, 2.794747e-003
1.311357e+003, 2.594750e-003
1.313286e+003, 2.541804e-003
1.315214e+003, 2.604111e-003
1.317143e+003, 2.517527e-003
1.319071e+003, 2.358206e-003
1.321000e+003, 2.221649e-003
1.322928e+003, 2.122889e-003
1.324857e+003, 2.067997e-003
1.326785e+003, 2.099408e-003
1.328714e+003, 2.166999e-003
1.330642e+003, 2.188774e-003
1.332571e+003, 2.123402e-003
1.334499e+003, 2.066676e-003
1.336427e+003, 1.958744e-003
1.338356e+003, 1.880922e-003
1.340284e+003, 1.920436e-003
1.342213e+003, 2.018359e-003
1.344141e+003, 2.107289e-003
1.346070e+003, 2.176241e-003
1.347998e+003, 2.152194e-003
1.349927e+003, 2.124191e-003
1.351855e+003, 2.150660e-003
1.353784e+003, 2.150156e-003
1.355712e+003, 2.172818e-003
1.357641e+003, 2.239358e-003
1.359569e+003, 2.034767e-003
1.361498e+003, 1.779452e-003
1.363426e+003, 2.053648e-003
1.365354e+003, 2.294132e-003
1.367283e+003, 2.165015e-003
1.369211e+003, 2.130748e-003
1.371140e+003, 2.366587e-003
1.373068e+003, 2.411987e-003
1.374997e+003, 2.154001e-003
1.376925e+003, 2.084368e-003
1.378854e+003, 2.017427e-003
1.380782e+003, 2.156893e-003
1.382711e+003, 2.292222e-003
1.384639e+003, 2.272569e-003
1.386568e+003, 2.396957e-003
1.388496e+003, 2.249178e-003
1.390424e+003, 2.073762e-003
1.392353e+003, 2.288902e-003
1.394281e+003, 2.345484e-003
1.396210e+003, 2.208364e-003
1.398138e+003, 2.328143e-003
1.400067e+003, 2.356574e-003
1.401995e+003, 2.220216e-003
1.403924e+003, 2.458761e-003
1.405852e+003, 2.694032e-003
1.407781e+003, 2.701626e-003
1.409709e+003, 2.459262e-003
1.411638e+003, 2.320433e-003
1.413566e+003, 2.281666e-003
1.415495e+003, 2.131840e-003
1.417423e+003, 2.204792e-003
1.419351e+003, 2.434789e-003
1.421280e+003, 2.595717e-003
1.423208e+003, 2.658129e-003
1.425137e+003, 2.442509e-003
1.427065e+003, 2.383917e-003
1.428994e+003, 2.471845e-003
1.430922e+003, 2.604597e-003
1.432851e+003, 2.613646e-003
1.434779e+003, 2.536479e-003
1.436708e+003, 2.612422e-003
1.438636e+003, 2.618430e-003
1.440565e+003, 2.599810e-003
1.442493e+003, 2.830174e-003
1.444422e+003, 2.964098e-003
1.446350e+003, 2.996560e-003
1.448278e+003, 2.948138e-003
1.450207e+003, 2.858657e-003
1.452135e+003, 2.879962e-003
1.454064e+003, 2.784025e-003
1.455992e+003, 2.604033e-003
1.457921e+003, 2.579713e-003
1.459849e+003, 2.658785e-003
1.461778e+003, 2.758619e-003
1.463706e+003, 3.005350e-003
1.465635e+003, 2.984506e-003
1.467563e+003, 3.212078e-003
1.469492e+003, 3.440180e-003
1.471420e+003, 3.350550e-003
1.473349e+003, 3.010097e-003
1.475277e+003, 2.966944e-003
1.477205e+003, 3.001557e-003
1.479134e+003, 2.911242e-003
1.481062e+003, 3.103440e-003
1.482991e+003, 3.127014e-003
1.484919e+003, 2.980080e-003
1.486848e+003, 3.055590e-003
1.488776e+003, 3.199327e-003
1.490705e+003, 3.241600e-003
1.492633e+003, 3.329551e-003
1.494562e+003, 3.207549e-003
1.496490e+003, 3.133287e-003
1.498419e+003, 3.203544e-003
1.500347e+003, 3.408744e-003
1.502276e+003, 3.733168e-003
1.504204e+003, 3.548805e-003
1.506132e+003, 3.331952e-003
1.508061e+003, 3.449496e-003
1.509989e+003, 3.729264e-003
1.511918e+003, 3.842262e-003
1.513846e+003, 3.739043e-003
1.515775e+003, 3.740947e-003
1.517703e+003, 3.798141e-003
1.519632e+003, 4.017727e-003
1.521560e+003, 4.046245e-003
1.523489e+003, 4.076059e-003
1.525417e+003, 4.169125e-003
1.527346e+003, 4.131027e-003
1.529274e+003, 4.198673e-003
1.531203e+003, 4.317730e-003
1.533131e+003, 4.258991e-003
1.535059e+003, 4.208067e-003
1.536988e+003, 4.093539e-003
1.538916e+003, 3.761993e-003
1.540845e+003, 3.850371e-003
1.542773e+003, 3.971033e-003
1.544702e+003, 4.094329e-003
1.546630e+003, 4.151659e-003
1.548559e+003, 4.092981e-003
1.550487e+003, 3.979917e-003
1.552416e+003, 3.959651e-003
1.554344e+003, 3.687969e-003
1.556273e+003, 3.587042e-003
1.558201e+003, 3.818875e-003
1.560130e+003, 4.006121e-003
1.562058e+003, 4.166814e-003
1.563986e+003, 4.310588e-003
1.565915e+003, 4.559122e-003
1.567843e+003, 4.593823e-003
1.569772e+003, 4.401314e-003
1.571700e+003, 4.261739e-003
1.573629e+003, 4.043233e-003
1.575557e+003, 4.219287e-003
1.577486e+003, 4.447469e-003
1.579414e+003, 4.678562e-003
1.581343e+003, 4.739503e-003
1.583271e+003, 4.725996e-003
1.585200e+003, 4.754330e-003
1.587128e+003, 4.862995e-003
1.589057e+003, 4.897020e-003
1.590985e+003, 4.825552e-003
1.592913e+003, 4.937311e-003
1.594842e+003, 4.981680e-003
1.596770e+003, 4.842327e-003
1.598699e+003, 5.091884e-003
1.600627e+003, 5.026983e-003
1.602556e+003, 4.749297e-003
1.604484e+003, 4.891027e-003
1.606413e+003, 5.103023e-003
1.608341e+003, 5.002321e-003
1.610270e+003, 5.072536e-003
1.612198e+003, 5.121429e-003
1.614127e+003, 5.029005e-003
1.616055e+003, 5.175879e-003
1.617984e+003, 5.262564e-003
1.619912e+003, 5.319270e-003
1.621840e+003, 5.274403e-003
1.623769e+003, 5.167275e-003
1.625697e+003, 5.277142e-003
1.627626e+003, 5.176005e-003
1.629554e+003, 5.089451e-003
1.631483e+003, 5.315017e-003
1.633411e+003, 5.202956e-003
1.635340e+003, 4.851644e-003
1.637268e+003, 5.022051e-003
1.639197e+003, 5.304909e-003
1.641125e+003, 5.174282e-003
1.643054e+003, 5.051530e-003
1.644982e+003, 4.910100e-003
1.646911e+003, 4.883783e-003
1.648839e+003, 4.932193e-003
1.650767e+003, 4.780198e-003
1.652696e+003, 4.811962e-003
1.654624e+003, 4.976083e-003
1.656553e+003, 5.093506e-003
1.658481e+003, 4.988916e-003
1.660410e+003, 5.062881e-003
1.662338e+003, 5.291052e-003
1.664267e+003, 5.256351e-003
1.666195e+003, 5.057240e-003
1.668124e+003, 5.222785e-003
1.670052e+003, 5.252339e-003
1.671981e+003, 5.095104e-003
1.673909e+003, 4.987924e-003
1.675838e+003, 4.674416e-003
1.677766e+003, 4.626480e-003
1.679694e+003, 4.921529e-003
1.681623e+003, 4.935594e-003
1.683551e+003, 4.900857e-003
1.685480e+003, 4.940163e-003
1.687408e+003, 4.856512e-003
1.689337e+003, 4.807220e-003
1.691265e+003, 5.001819e-003
1.693194e+003, 5.002292e-003
1.695122e+003, 4.769464e-003
1.697051e+003, 4.583539e-003
1.698979e+003, 5.032817e-003
1.700908e+003, 4.891047e-003
1.702836e+003, 4.880183e-003
1.704765e+003, 4.934541e-003
1.706693e+003, 4.989441e-003
1.708621e+003, 5.080332e-003
1.710550e+003, 5.205618e-003
1.712478e+003, 4.901344e-003
1.714407e+003, 4.890491e-003
1.716335e+003, 4.844704e-003
1.718264e+003, 4.659104e-003
1.720192e+003, 4.953999e-003
1.722121e+003, 5.116746e-003
1.724049e+003, 4.981448e-003
1.725978e+003, 5.063792e-003
1.727906e+003, 4.718138e-003
1.729835e+003, 4.475520e-003
1.731763e+003, 4.684414e-003
1.733692e+003, 4.789501e-003
1.735620e+003, 4.751694e-003
1.737548e+003, 4.925903e-003
1.739477e+003, 4.740541e-003
1.741405e+003, 4.299535e-003
1.743334e+003, 4.265472e-003
1.745262e+003, 4.389543e-003
1.747191e+003, 4.428726e-003
1.749119e+003, 4.688404e-003
1.751048e+003, 4.846358e-003
1.752976e+003, 4.635412e-003
1.754905e+003, 4.448227e-003
1.756833e+003, 4.581645e-003
1.758762e+003, 4.273904e-003
1.760690e+003, 3.980719e-003
1.762619e+003, 3.922287e-003
1.764547e+003, 3.963627e-003
1.766475e+003, 4.163412e-003
1.768404e+003, 4.452724e-003
1.770332e+003, 4.680052e-003
1.772261e+003, 4.469936e-003
1.774189e+003, 4.247461e-003
1.776118e+003, 4.347322e-003
1.778046e+003, 4.307589e-003
1.779975e+003, 4.247866e-003
1.781903e+003, 4.364708e-003
1.783832e+003, 4.366614e-003
1.785760e+003, 4.308320e-003
1.787689e+003, 4.234165e-003
1.789617e+003, 4.283695e-003
1.791546e+003, 4.435235e-003
1.793474e+003, 4.142554e-003
1.795402e+003, 3.934288e-003
1.797331e+003, 4.134105e-003
1.799259e+003, 4.125923e-003
1.801188e+003, 3.998567e-003
1.803116e+003, 4.403694e-003
1.805045e+003, 4.605052e-003
1.806973e+003, 4.629109e-003
1.808902e+003, 4.041240e-003
1.810830e+003, 3.629339e-003
1.812759e+003, 3.920811e-003
1.814687e+003, 3.899267e-003
1.816616e+003, 3.777209e-003
1.818544e+003, 4.644642e-003
1.820473e+003, 4.807190e-003
1.822401e+003, 3.949152e-003
1.824329e+003, 4.005126e-003
1.826258e+003, 4.433683e-003
1.828186e+003, 4.525152e-003
1.830115e+003, 4.363605e-003
1.832043e+003, 4.195799e-003
1.833972e+003, 4.096619e-003
1.835900e+003, 4.132480e-003
1.837829e+003, 3.939222e-003
1.839757e+003, 4.128217e-003
1.841686e+003, 4.365380e-003
1.843614e+003, 4.152683e-003
1.845543e+003, 4.173279e-003
1.847471e+003, 4.396731e-003
1.849400e+003, 3.980263e-003
1.851328e+003, 3.829170e-003
1.853256e+003, 4.132120e-003
1.855185e+003, 4.333491e-003
1.857113e+003, 4.194734e-003
1.859042e+003, 4.332171e-003
1.860970e+003, 4.532334e-003
1.862899e+003, 4.323117e-003
1.864827e+003, 4.149931e-003
1.866756e+003, 4.091606e-003
1.868684e+003, 4.016135e-003
1.870613e+003, 3.998809e-003
1.872541e+003, 4.574567e-003
1.874470e+003, 4.680858e-003
1.876398e+003, 4.385420e-003
1.878327e+003, 3.826243e-003
1.880255e+003, 4.473660e-003
1.882183e+003, 4.356232e-003
1.884112e+003, 3.924214e-003
1.886040e+003, 4.034339e-003
1.887969e+003, 4.304219e-003
1.889897e+003, 4.100088e-003
1.891826e+003, 3.854935e-003
1.893754e+003, 3.990584e-003
1.895683e+003, 3.691883e-003
1.897611e+003, 2.902229e-003
1.899540e+003, 2.785510e-003
1.901468e+003, 3.529115e-003
1.903397e+003, 4.224998e-003
1.905325e+003, 4.338529e-003
1.907254e+003, 4.808641e-003
1.909182e+003, 4.641747e-003
1.911110e+003, 3.973798e-003
1.913039e+003, 4.117829e-003
1.914967e+003, 4.305906e-003
1.916896e+003, 4.313912e-003
1.918824e+003, 3.942631e-003
1.920753e+003, 2.968239e-003
1.922681e+003, 2.917066e-003
1.924610e+003, 3.427956e-003
1.926538e+003, 3.246422e-003
1.928467e+003, 3.094736e-003
1.930395e+003, 2.397010e-003
1.932324e+003, 1.907162e-003
1.934252e+003, 2.485868e-003
1.936181e+003, 3.209378e-003
1.938109e+003, 2.866925e-003
1.940037e+003, 2.918640e-003
1.941966e+003, 2.997710e-003
1.943894e+003, 3.002574e-003
1.945823e+003, 2.954732e-003
1.947751e+003, 2.164003e-003
1.949680e+003, 1.854520e-003
1.951608e+003, 1.944527e-003
1.953537e+003, 1.991858e-003
1.955465e+003, 3.464488e-004
1.957394e+003, 3.014281e-004
1.959322e+003, 8.211664e-004
1.961251e+003, 9.909817e-004
1.963179e+003, 1.184727e-003
1.965108e+003, 1.289387e-003
1.967036e+003, 3.992346e-005
1.968964e+003, -2.294599e-003
1.970893e+003, -2.794524e-003
1.972821e+003, -1.315020e-003
1.974750e+003, -1.547044e-003
1.976678e+003, -1.479985e-003
1.978607e+003, 9.378768e-004
1.980535e+003, 1.749501e-003
1.982464e+003, 7.532173e-004
1.984392e+003, 4.460859e-004
1.986321e+003, -8.099180e-004
1.988249e+003, -6.264331e-004
1.990178e+003, 7.763008e-004
1.992106e+003, -2.919898e-004
1.994035e+003, -1.743313e-003
1.995963e+003, 5.083351e-004
1.997891e+003, 5.768840e-004
1.999820e+003, -1.031326e-003
2.001748e+003, -2.383518e-003
2.003677e+003, -3.827368e-003
2.005605e+003, -4.135437e-003
2.007534e+003, -2.704807e-003
2.009462e+003, -1.805534e-003
2.011391e+003, -1.167189e-003
2.013319e+003, -1.863316e-003
2.015248e+003, -4.623594e-003
2.017176e+003, -4.164677e-003
2.019105e+003, -2.095934e-003
2.021033e+003, -2.761364e-003
2.022962e+003, -2.822272e-003
2.024890e+003, -1.248913e-003
2.026818e+003, 3.295872e-004
2.028747e+003, -2.251517e-004
2.030675e+003, -5.857773e-005
2.032604e+003, 5.603007e-004
2.034532e+003, 1.342429e-006
2.036461e+003, 1.591362e-004
2.038389e+003, 1.105365e-003
2.040318e+003, 4.079456e-004
2.042246e+003, -7.391788e-004
2.044175e+003, 7.293642e-004
2.046103e+003, 2.765560e-003
2.048032e+003, 4.342969e-003
2.049960e+003, 5.446522e-003
2.051889e+003, 3.772930e-003
2.053817e+003, 2.460329e-003
2.055746e+003, 2.071758e-003
2.057674e+003, 1.558939e-003
2.059603e+003, 2.021248e-003
2.061531e+003, 2.767518e-003
2.063459e+003, 2.274395e-003
2.065388e+003, 1.289653e-003
2.067316e+003, 1.721229e-003
2.069245e+003, 2.973860e-003
2.071173e+003, 3.710853e-003
2.073102e+003, 3.252844e-003
2.075030e+003, 3.802133e-003
2.076959e+003, 4.400681e-003
2.078887e+003, 4.139266e-003
2.080816e+003, 4.764776e-003
2.082744e+003, 5.882796e-003
2.084673e+003, 4.884460e-003
2.086601e+003, 3.684541e-003
2.088530e+003, 3.321920e-003
2.090458e+003, 2.828988e-003
2.092386e+003, 2.430303e-003
2.094315e+003, 2.741540e-003
2.096243e+003, 3.107496e-003
2.098172e+003, 2.768364e-003
2.100100e+003, 3.192559e-003
2.102029e+003, 3.089663e-003
2.103957e+003, 3.033617e-003
2.105886e+003, 2.636144e-003
2.107814e+003, 1.931418e-003
2.109743e+003, 2.074620e-003
2.111671e+003, 2.677068e-003
2.113600e+003, 3.586850e-003
2.115528e+003, 3.578859e-003
2.117457e+003, 2.233370e-003
2.119385e+003, 1.984774e-003
2.121313e+003, 1.929867e-003
2.123242e+003, 1.512778e-003
2.125170e+003, 1.116722e-003
2.127099e+003, 8.000648e-004
2.129027e+003, 4.364864e-005
2.130956e+003, -6.395155e-004
2.132884e+003, -1.135695e-003
2.134813e+003, -6.315756e-004
2.136741e+003, -1.601758e-005
2.138670e+003, -8.501834e-004
2.140598e+003, -1.751115e-003
2.142527e+003, -9.461216e-004
2.144455e+003, -5.713797e-004
2.146384e+003, -2.150844e-003
2.148312e+003, -3.069096e-003
2.150240e+003, -5.012203e-003
2.152169e+003, -6.217590e-003
2.154097e+003, -5.448481e-003
2.156026e+003, -5.802478e-003
2.157954e+003, -4.948061e-003
2.159883e+003, 3.419938e-004
2.161811e+003, 1.446853e-003
2.163740e+003, 5.918661e-004
2.165668e+003, -9.065868e-004
2.167597e+003, -1.474259e-003
2.169525e+003, -1.496989e-003
2.171454e+003, -1.715434e-003
2.173382e+003, -1.307117e-003
2.175311e+003, -8.526912e-004
2.177239e+003, -5.438525e-004
2.179167e+003, 4.131231e-004
2.181096e+003, 4.210310e-004
2.183024e+003, -8.524613e-004
2.184953e+003, -1.827884e-003
2.186881e+003, -1.670163e-004
2.188810e+003, 4.950099e-004
2.190738e+003, 1.850809e-004
2.192667e+003, 1.882026e-003
2.194595e+003, 2.703606e-003
2.196524e+003, 1.293712e-003
2.198452e+003, 5.936791e-004
2.200381e+003, 1.487476e-004
2.202309e+003, 7.108832e-004
2.204238e+003, 2.220627e-003
2.206166e+003, 2.834755e-003
2.208094e+003, 2.941815e-003
2.210023e+003, 2.189963e-003
2.211951e+003, 1.397211e-003
2.213880e+003, 1.063195e-003
2.215808e+003, 1.677374e-003
2.217737e+003, 2.666700e-003
2.219665e+003, 4.432687e-003
2.221594e+003, 4.075222e-003
2.223522e+003, 3.411516e-003
2.225451e+003, 3.201374e-003
2.227379e+003, 2.970372e-003
2.229308e+003, 1.744300e-003
2.231236e+003, 1.719923e-003
2.233165e+003, 3.944992e-003
2.235093e+003, 5.214775e-003
2.237021e+003, 3.633096e-003
2.238950e+003, 3.078905e-003
2.240878e+003, 3.245566e-003
2.242807e+003, 2.708361e-003
2.244735e+003, 3.128157e-003
2.246664e+003, 3.807195e-003
2.248592e+003, 3.433739e-003
2.250521e+003, 4.025900e-003
2.252449e+003, 4.446889e-003
2.254378e+003, 4.770923e-003
2.256306e+003, 5.272631e-003
2.258235e+003, 5.740479e-003
2.260163e+003, 5.126068e-003
2.262092e+003, 4.162186e-003
2.264020e+003, 4.158960e-003
2.265948e+003, 4.142265e-003
2.267877e+003, 4.624302e-003
2.269805e+003, 4.865691e-003
2.271734e+003, 5.012227e-003
2.273662e+003, 5.362708e-003
2.275591e+003, 5.435105e-003
2.277519e+003, 5.648788e-003
2.279448e+003, 6.189855e-003
2.281376e+003, 6.693718e-003
2.283305e+003, 7.514615e-003
2.285233e+003, 8.100932e-003
2.287162e+003, 7.615688e-003
2.289090e+003, 6.692494e-003
2.291019e+003, 6.880292e-003
2.292947e+003, 7.971850e-003
2.294875e+003, 8.036743e-003
2.296804e+003, 7.946944e-003
2.298732e+003, 8.288695e-003
2.300661e+003, 8.303895e-003
2.302589e+003, 7.724307e-003
2.304518e+003, 7.607163e-003
2.306446e+003, 8.132253e-003
2.308375e+003, 8.926796e-003
2.310303e+003, 8.770134e-003
2.312232e+003, 8.476955e-003
2.314160e+003, 8.320268e-003
2.316089e+003, 8.232727e-003
2.318017e+003, 7.981317e-003
2.319946e+003, 8.288832e-003
2.321874e+003, 9.301888e-003
2.323802e+003, 9.651626e-003
2.325731e+003, 8.562759e-003
2.327659e+003, 7.896278e-003
2.329588e+003, 7.752139e-003
2.331516e+003, 7.773006e-003
2.333445e+003, 7.804149e-003
2.335373e+003, 8.193435e-003
2.337302e+003, 8.233552e-003
2.339230e+003, 7.902158e-003
2.341159e+003, 7.822908e-003
2.343087e+003, 8.448670e-003
2.345016e+003, 9.017194e-003
2.346944e+003, 8.922775e-003
2.348873e+003, 8.241834e-003
2.350801e+003, 7.695258e-003
2.352729e+003, 7.910073e-003
2.354658e+003, 8.164566e-003
2.356586e+003, 8.228993e-003
2.358515e+003, 8.282749e-003
2.360443e+003, 8.024802e-003
2.362372e+003, 7.871056e-003
2.364300e+003, 7.648848e-003
2.366229e+003, 7.260514e-003
2.368157e+003, 6.948952e-003
2.370086e+003, 7.228595e-003
2.372014e+003, 7.096230e-003
2.373942e+003, 6.593935e-003
2.375871e+003, 6.777565e-003
2.377799e+003, 7.285387e-003
2.379728e+003, 6.644210e-003
2.381656e+003, 5.984217e-003
2.383585e+003, 6.090100e-003
2.385513e+003, 5.607949e-003
2.387442e+003, 5.289149e-003
2.389370e+003, 6.136516e-003
2.391299e+003, 7.094684e-003
2.393227e+003, 7.116088e-003
2.395156e+003, 6.606977e-003
2.397084e+003, 6.518593e-003
2.399012e+003, 7.083090e-003
2.400941e+003, 7.489691e-003
2.402869e+003, 7.378879e-003
2.404798e+003, 7.787594e-003
2.406726e+003, 7.910714e-003
2.408655e+003, 7.269525e-003
2.410583e+003, 7.200245e-003
2.412512e+003, 7.636032e-003
2.414440e+003, 7.060746e-003
2.416369e+003, 7.050998e-003
2.418297e+003, 7.939141e-003
2.420226e+003, 8.038858e-003
2.422154e+003, 8.113150e-003
2.424083e+003, 8.414423e-003
2.426011e+003, 7.769093e-003
2.427939e+003, 7.631613e-003
2.429868e+003, 8.796852e-003
2.431796e+003, 8.616259e-003
2.433725e+003, 8.240948e-003
2.435653e+003, 8.764245e-003
2.437582e+003, 8.778740e-003
2.439510e+003, 8.591870e-003
2.441439e+003, 9.319818e-003
2.443367e+003, 9.753318e-003
2.445296e+003, 9.404481e-003
2.447224e+003, 8.780073e-003
2.449153e+003, 8.325040e-003
2.451081e+003, 8.819075e-003
2.453010e+003, 8.958972e-003
2.454938e+003, 8.386977e-003
2.456866e+003, 8.258052e-003
2.458795e+003, 8.296284e-003
2.460723e+003, 9.021926e-003
2.462652e+003, 9.995357e-003
2.464580e+003, 9.773044e-003
2.466509e+003, 9.080573e-003
2.468437e+003, 8.486228e-003
2.470366e+003, 8.420215e-003
2.472294e+003, 8.798845e-003
2.474223e+003, 8.877132e-003
2.476151e+003, 8.822774e-003
2.478080e+003, 8.795116e-003
2.480008e+003, 8.875721e-003
2.481937e+003, 8.327571e-003
2.483865e+003, 8.096630e-003
2.485793e+003, 8.742382e-003
2.487722e+003, 8.382786e-003
2.489650e+003, 7.924031e-003
2.491579e+003, 8.324942e-003
2.493507e+003, 8.683455e-003
2.495436e+003, 8.348174e-003
2.497364e+003, 8.416022e-003
2.499293e+003, 8.854795e-003
2.501221e+003, 9.229407e-003
2.503150e+003, 8.788696e-003
2.505078e+003, 8.716688e-003
2.507007e+003, 9.092479e-003
2.508935e+003, 8.995858e-003
2.510864e+003, 9.318790e-003
2.512792e+003, 9.037419e-003
2.514720e+003, 8.926910e-003
2.516649e+003, 8.661108e-003
2.518577e+003, 8.479475e-003
2.520506e+003, 8.674611e-003
2.522434e+003, 8.981589e-003
2.524363e+003, 9.539453e-003
2.526291e+003, 1.015001e-002
2.528220e+003, 9.346176e-003
2.530148e+003, 8.989826e-003
2.532077e+003, 9.229654e-003
2.534005e+003, 8.569688e-003
2.535934e+003, 8.683561e-003
2.537862e+003, 9.045393e-003
2.539791e+003, 8.755925e-003
2.541719e+003, 8.245141e-003
2.543647e+003, 8.561295e-003
2.545576e+003, 9.363524e-003
2.547504e+003, 9.480086e-003
2.549433e+003, 9.420309e-003
2.551361e+003, 9.855264e-003
2.553290e+003, 1.000061e-002
2.555218e+003, 9.324998e-003
2.557147e+003, 9.124856e-003
2.559075e+003, 9.603605e-003
2.561004e+003, 9.894520e-003
2.562932e+003, 1.010909e-002
2.564861e+003, 9.395038e-003
2.566789e+003, 8.897565e-003
2.568718e+003, 9.762323e-003
2.570646e+003, 8.961638e-003
2.572574e+003, 7.975610e-003
2.574503e+003, 8.426641e-003
2.576431e+003, 9.150812e-003
2.578360e+003, 9.162510e-003
2.580288e+003, 9.028963e-003
2.582217e+003, 8.751095e-003
2.584145e+003, 9.356391e-003
2.586074e+003, 1.047703e-002
2.588002e+003, 1.001817e-002
2.589931e+003, 9.254127e-003
2.591859e+003, 9.206499e-003
2.593788e+003, 9.943609e-003
2.595716e+003, 1.028723e-002
2.597645e+003, 1.033587e-002
2.599573e+003, 1.062264e-002
2.601501e+003, 1.075233e-002
2.603430e+003, 1.043540e-002
2.605358e+003, 1.003144e-002
2.607287e+003, 9.940510e-003
2.609215e+003, 1.021770e-002
2.611144e+003, 9.898436e-003
2.613072e+003, 9.264308e-003
2.615001e+003, 9.173419e-003
2.616929e+003, 1.003707e-002
2.618858e+003, 1.047483e-002
2.620786e+003, 1.014379e-002
2.622715e+003, 8.830472e-003
2.624643e+003, 8.721163e-003
2.626572e+003, 9.392320e-003
2.628500e+003, 9.071534e-003
2.630428e+003, 8.914581e-003
2.632357e+003, 9.748774e-003
2.634285e+003, 1.079602e-002
2.636214e+003, 1.068772e-002
2.638142e+003, 1.051796e-002
2.640071e+003, 1.111434e-002
2.641999e+003, 1.103230e-002
2.643928e+003, 1.036250e-002
2.645856e+003, 1.031229e-002
2.647785e+003, 1.028426e-002
2.649713e+003, 1.015390e-002
2.651642e+003, 1.027040e-002
2.653570e+003, 1.094898e-002
2.655499e+003, 1.067218e-002
2.657427e+003, 1.012484e-002
2.659355e+003, 1.002537e-002
2.661284e+003, 9.724414e-003
2.663212e+003, 9.791137e-003
2.665141e+003, 9.625335e-003
2.667069e+003, 9.523299e-003
2.668998e+003, 9.354346e-003
2.670926e+003, 9.145990e-003
2.672855e+003, 9.168238e-003
2.674783e+003, 9.654120e-003
2.676712e+003, 9.512968e-003
2.678640e+003, 9.255469e-003
2.680569e+003, 9.288264e-003
2.682497e+003, 9.156886e-003
2.684426e+003, 9.569428e-003
2.686354e+003, 9.447939e-003
2.688282e+003, 9.073136e-003
2.690211e+003, 9.976009e-003
2.692139e+003, 1.027115e-002
2.694068e+003, 9.534566e-003
2.695996e+003, 9.224055e-003
2.697925e+003, 9.421760e-003
2.699853e+003, 9.350780e-003
2.701782e+003, 9.794271e-003
2.703710e+003, 9.651704e-003
2.705639e+003, 9.373488e-003
2.707567e+003, 9.582991e-003
2.709496e+003, 9.583111e-003
2.711424e+003, 9.160751e-003
2.713353e+003, 9.078674e-003
2.715281e+003, 9.897167e-003
2.717209e+003, 1.033466e-002
2.719138e+003, 1.001284e-002
2.721066e+003, 9.744650e-003
2.722995e+003, 1.015976e-002
2.724923e+003, 1.019666e-002
2.726852e+003, 9.907285e-003
2.728780e+003, 9.634895e-003
2.730709e+003, 9.945069e-003
2.732637e+003, 1.036685e-002
2.734566e+003, 1.013484e-002
2.736494e+003, 9.843391e-003
2.738423e+003, 9.880077e-003
2.740351e+003, 9.803090e-003
2.742280e+003, 9.461406e-003
2.744208e+003, 1.021922e-002
2.746136e+003, 1.019308e-002
2.748065e+003, 9.374492e-003
2.749993e+003, 9.491523e-003
2.751922e+003, 9.824127e-003
2.753850e+003, 1.010327e-002
2.755779e+003, 1.002059e-002
2.757707e+003, 9.721822e-003
2.759636e+003, 1.017219e-002
2.761564e+003, 1.069074e-002
2.763493e+003, 1.058621e-002
2.765421e+003, 1.055994e-002
2.767350e+003, 1.080400e-002
2.769278e+003, 9.843209e-003
2.771207e+003, 9.686528e-003
2.773135e+003, 9.994810e-003
2.775063e+003, 1.013727e-002
2.776992e+003, 1.012324e-002
2.778920e+003, 1.040432e-002
2.780849e+003, 1.078408e-002
2.782777e+003, 1.059641e-002
2.784706e+003, 1.038679e-002
2.786634e+003, 1.036768e-002
2.788563e+003, 1.018083e-002
2.790491e+003, 9.785869e-003
2.792420e+003, 9.814909e-003
2.794348e+003, 9.761643e-003
2.796277e+003, 9.961407e-003
2.798205e+003, 1.046464e-002
2.800134e+003, 1.068765e-002
2.802062e+003, 1.105832e-002
2.803990e+003, 1.128600e-002
2.805919e+003, 1.115484e-002
2.807847e+003, 1.053505e-002
2.809776e+003, 1.056323e-002
2.811704e+003, 1.089993e-002
2.813633e+003, 1.058841e-002
2.815561e+003, 1.054355e-002
2.817490e+003, 1.069928e-002
2.819418e+003, 1.022461e-002
2.821347e+003, 1.001290e-002
2.823275e+003, 1.022895e-002
2.825204e+003, 1.090091e-002
2.827132e+003, 1.105489e-002
2.829061e+003, 1.062446e-002
2.830989e+003, 1.034528e-002
2.832917e+003, 1.054749e-002
2.834846e+003, 9.838005e-003
2.836774e+003, 9.826649e-003
2.838703e+003, 1.073985e-002
2.840631e+003, 1.150603e-002
2.842560e+003, 1.197443e-002
2.844488e+003, 1.163154e-002
2.846417e+003, 1.117856e-002
2.848345e+003, 1.149318e-002
2.850274e+003, 1.103446e-002
2.852202e+003, 1.068068e-002
2.854131e+003, 1.096262e-002
2.856059e+003, 1.089337e-002
2.857988e+003, 1.089535e-002
2.859916e+003, 1.085071e-002
2.861844e+003, 1.083528e-002
2.863773e+003, 1.084054e-002
2.865701e+003, 1.067812e-002
2.867630e+003, 1.111702e-002
2.869558e+003, 1.128133e-002
2.871487e+003, 1.102332e-002
2.873415e+003, 1.119682e-002
2.875344e+003, 1.102177e-002
2.877272e+003, 1.118712e-002
2.879201e+003, 1.171524e-002
2.881129e+003, 1.136317e-002
2.883058e+003, 1.133315e-002
2.884986e+003, 1.153558e-002
2.886915e+003, 1.156862e-002
2.888843e+003, 1.151051e-002
2.890771e+003, 1.186486e-002
2.892700e+003, 1.140799e-002
2.894628e+003, 1.022611e-002
2.896557e+003, 1.064196e-002
2.898485e+003, 1.100920e-002
2.900414e+003, 1.101527e-002
2.902342e+003, 1.180634e-002
2.904271e+003, 1.218117e-002
2.906199e+003, 1.137797e-002
2.908128e+003, 1.121071e-002
2.910056e+003, 1.220700e-002
2.911985e+003, 1.247797e-002
2.913913e+003, 1.241811e-002
2.915842e+003, 1.176621e-002
2.917770e+003, 1.183467e-002
2.919698e+003, 1.146512e-002
2.921627e+003, 1.097976e-002
2.923555e+003, 1.124123e-002
2.925484e+003, 1.194188e-002
2.927412e+003, 1.171522e-002
2.929341e+003, 1.142079e-002
2.931269e+003, 1.175201e-002
2.933198e+003, 1.212469e-002
2.935126e+003, 1.209182e-002
2.937055e+003, 1.204537e-002
2.938983e+003, 1.124696e-002
2.940912e+003, 1.082967e-002
2.942840e+003, 1.114696e-002
2.944769e+003, 1.183543e-002
2.946697e+003, 1.211657e-002
2.948625e+003, 1.153439e-002
2.950554e+003, 1.148224e-002
2.952482e+003, 1.107588e-002
2.954411e+003, 1.088679e-002
2.956339e+003, 1.098647e-002
2.958268e+003, 1.069818e-002
2.960196e+003, 1.097016e-002
2.962125e+003, 1.191554e-002
2.964053e+003, 1.218767e-002
2.965982e+003, 1.155396e-002
2.967910e+003, 1.127908e-002
2.969839e+003, 1.141418e-002
2.971767e+003, 1.275232e-002
2.973696e+003, 1.300540e-002
2.975624e+003, 1.180016e-002
2.977552e+003, 1.149604e-002
2.979481e+003, 1.223483e-002
2.981409e+003, 1.230225e-002
2.983338e+003, 1.221252e-002
2.985266e+003, 1.236151e-002
2.987195e+003, 1.244009e-002
2.989123e+003, 1.169270e-002
2.991052e+003, 1.201298e-002
2.992980e+003, 1.344087e-002
2.994909e+003, 1.343960e-002
2.996837e+003, 1.236358e-002
2.998766e+003, 1.218753e-002
3.000694e+003, 1.274619e-002
3.002623e+003, 1.237274e-002
3.004551e+003, 1.164926e-002
3.006479e+003, 1.155827e-002
3.008408e+003, 1.218706e-002
3.010336e+003, 1.241140e-002
3.012265e+003, 1.181497e-002
3.014193e+003, 1.163776e-002
3.016122e+003, 1.134441e-002
3.018050e+003, 1.198758e-002
3.019979e+003, 1.276501e-002
3.021907e+003, 1.199639e-002
3.023836e+003, 1.173465e-002
3.025764e+003, 1.209632e-002
3.027693e+003, 1.205900e-002
3.029621e+003, 1.146541e-002
3.031550e+003, 1.120518e-002
3.033478e+003, 1.212275e-002
3.035406e+003, 1.179050e-002
3.037335e+003, 1.217700e-002
3.039263e+003, 1.310693e-002
3.041192e+003, 1.219392e-002
3.043120e+003, 1.109371e-002
3.045049e+003, 1.116789e-002
3.046977e+003, 1.218767e-002
3.048906e+003, 1.323493e-002
3.050834e+003, 1.225343e-002
3.052763e+003, 1.171064e-002
3.054691e+003, 1.244788e-002
3.056620e+003, 1.282431e-002
3.058548e+003, 1.315223e-002
3.060477e+003, 1.323917e-002
3.062405e+003, 1.208520e-002
3.064333e+003, 1.207771e-002
3.066262e+003, 1.285912e-002
3.068190e+003, 1.268891e-002
3.070119e+003, 1.221035e-002
3.072047e+003, 1.239748e-002
3.073976e+003, 1.335305e-002
3.075904e+003, 1.340171e-002
3.077833e+003, 1.270365e-002
3.079761e+003, 1.302278e-002
3.081690e+003, 1.393931e-002
3.083618e+003, 1.356754e-002
3.085547e+003, 1.276875e-002
3.087475e+003, 1.219575e-002
3.089404e+003, 1.235348e-002
3.091332e+003, 1.241740e-002
3.093260e+003, 1.276180e-002
3.095189e+003, 1.316817e-002
3.097117e+003, 1.354804e-002
3.099046e+003, 1.367941e-002
3.100974e+003, 1.250996e-002
3.102903e+003, 1.128239e-002
3.104831e+003, 1.124167e-002
3.106760e+003, 1.192490e-002
3.108688e+003, 1.174274e-002
3.110617e+003, 1.192888e-002
3.112545e+003, 1.300352e-002
3.114474e+003, 1.420186e-002
3.116402e+003, 1.417297e-002
3.118331e+003, 1.321852e-002
3.120259e+003, 1.369643e-002
3.122188e+003, 1.458287e-002
3.124116e+003, 1.456492e-002
3.126044e+003, 1.337348e-002
3.127973e+003, 1.292792e-002
3.129901e+003, 1.317687e-002
3.131830e+003, 1.334973e-002
3.133758e+003, 1.323423e-002
3.135687e+003, 1.339446e-002
3.137615e+003, 1.340246e-002
3.139544e+003, 1.403852e-002
3.141472e+003, 1.497279e-002
3.143401e+003, 1.525230e-002
3.145329e+003, 1.526209e-002
3.147258e+003, 1.442586e-002
3.149186e+003, 1.387271e-002
3.151115e+003, 1.328416e-002
3.153043e+003, 1.484617e-002
3.154971e+003, 1.614849e-002
3.156900e+003, 1.563222e-002
3.158828e+003, 1.407161e-002
3.160757e+003, 1.336122e-002
3.162685e+003, 1.381064e-002
3.164614e+003, 1.426156e-002
3.166542e+003, 1.335494e-002
3.168471e+003, 1.323245e-002
3.170399e+003, 1.389967e-002
3.172328e+003, 1.465358e-002
3.174256e+003, 1.545125e-002
3.176185e+003, 1.597344e-002
3.178113e+003, 1.625415e-002
3.180042e+003, 1.562805e-002
3.181970e+003, 1.491456e-002
3.183898e+003, 1.417718e-002
3.185827e+003, 1.407001e-002
3.187755e+003, 1.551706e-002
3.189684e+003, 1.692148e-002
3.191612e+003, 1.637744e-002
3.193541e+003, 1.506495e-002
3.195469e+003, 1.595730e-002
3.197398e+003, 1.571269e-002
3.199326e+003, 1.482658e-002
3.201255e+003, 1.561369e-002
3.203183e+003, 1.562002e-002
3.205112e+003, 1.580682e-002
3.207040e+003, 1.663110e-002
3.208969e+003, 1.681310e-002
3.210897e+003, 1.655826e-002
3.212825e+003, 1.608252e-002
3.214754e+003, 1.520623e-002
3.216682e+003, 1.513759e-002
3.218611e+003, 1.588614e-002
3.220539e+003, 1.639509e-002
3.222468e+003, 1.654450e-002
3.224396e+003, 1.577290e-002
3.226325e+003, 1.604507e-002
3.228253e+003, 1.608858e-002
3.230182e+003, 1.530943e-002
3.232110e+003, 1.567928e-002
3.234039e+003, 1.691348e-002
3.235967e+003, 1.818113e-002
3.237896e+003, 1.895692e-002
3.239824e+003, 1.899261e-002
3.241752e+003, 1.807875e-002
3.243681e+003, 1.629494e-002
3.245609e+003, 1.566003e-002
3.247538e+003, 1.565281e-002
3.249466e+003, 1.711197e-002
3.251395e+003, 1.732067e-002
3.253323e+003, 1.712821e-002
3.255252e+003, 1.841706e-002
3.257180e+003, 1.992904e-002
3.259109e+003, 1.970499e-002
3.261037e+003, 1.921692e-002
3.262966e+003, 1.906563e-002
3.264894e+003, 1.878256e-002
3.266823e+003, 1.864609e-002
3.268751e+003, 1.999634e-002
3.270679e+003, 2.047610e-002
3.272608e+003, 2.083780e-002
3.274536e+003, 2.048608e-002
3.276465e+003, 2.058228e-002
3.278393e+003, 2.107946e-002
3.280322e+003, 1.987845e-002
3.282250e+003, 1.981662e-002
3.284179e+003, 2.048703e-002
3.286107e+003, 1.994818e-002
3.288036e+003, 1.955314e-002
3.289964e+003, 2.018052e-002
3.291893e+003, 2.030835e-002
3.293821e+003, 1.985935e-002
3.295750e+003, 2.049718e-002
3.297678e+003, 2.081978e-002
3.299606e+003, 2.208654e-002
3.301535e+003, 2.273307e-002
3.303463e+003, 2.205064e-002
3.305392e+003, 2.154515e-002
3.307320e+003, 2.282349e-002
3.309249e+003, 2.341262e-002
3.311177e+003, 2.231308e-002
3.313106e+003, 2.248478e-002
3.315034e+003, 2.213723e-002
3.316963e+003, 2.130800e-002
3.318891e+003, 2.166939e-002
3.320820e+003, 2.276762e-002
3.322748e+003, 2.261097e-002
3.324677e+003, 2.245857e-002
3.326605e+003, 2.318417e-002
3.328533e+003, 2.399775e-002
3.330462e+003, 2.406997e-002
3.332390e+003, 2.383135e-002
3.334319e+003, 2.373212e-002
3.336247e+003, 2.367451e-002
3.338176e+003, 2.515737e-002
3.340104e+003, 2.668707e-002
3.342033e+003, 2.621060e-002
3.343961e+003, 2.637111e-002
3.345890e+003, 2.755264e-002
3.347818e+003, 2.700081e-002
3.349747e+003, 2.709429e-002
3.351675e+003, 2.948977e-002
3.353604e+003, 3.100486e-002
3.355532e+003, 2.996139e-002
3.357460e+003, 3.110214e-002
3.359389e+003, 3.402305e-002
3.361317e+003, 3.582125e-002
3.363246e+003, 3.664189e-002
3.365174e+003, 3.826663e-002
3.367103e+003, 4.102514e-002
3.369031e+003, 4.403472e-002
3.370960e+003, 4.541402e-002
3.372888e+003, 4.722913e-002
3.374817e+003, 5.198918e-002
3.376745e+003, 5.681298e-002
3.378674e+003, 6.130979e-002
3.380602e+003, 6.518377e-002
3.382531e+003, 6.758239e-002
3.384459e+003, 6.986968e-002
3.386387e+003, 7.308804e-002
3.388316e+003, 7.807989e-002
3.390244e+003, 8.451717e-002
3.392173e+003, 9.218978e-002
3.394101e+003, 1.000873e-001
3.396030e+003, 1.085296e-001
3.397958e+003, 1.165156e-001
3.399887e+003, 1.220766e-001
3.401815e+003, 1.249543e-001
3.403744e+003, 1.228736e-001
3.405672e+003, 1.157556e-001
3.407601e+003, 1.091091e-001
3.409529e+003, 9.713849e-002
3.411458e+003, 8.122586e-002
3.413386e+003, 6.705815e-002
3.415314e+003, 5.417150e-002
3.417243e+003, 4.302216e-002
3.419171e+003, 3.491086e-002
3.421100e+003, 2.858710e-002
3.423028e+003, 2.363140e-002
3.424957e+003, 2.042666e-002
3.426885e+003, 1.769150e-002
3.428814e+003, 1.611022e-002
3.430742e+003, 1.501389e-002
3.432671e+003, 1.476169e-002
3.434599e+003, 1.389384e-002
3.436528e+003, 1.290501e-002
3.438456e+003, 1.364697e-002
3.440385e+003, 1.519641e-002
3.442313e+003, 1.471327e-002
3.444241e+003, 1.391387e-002
3.446170e+003, 1.278830e-002
3.448098e+003, 1.205091e-002
3.450027e+003, 1.253045e-002
3.451955e+003, 1.359255e-002
3.453884e+003, 1.417919e-002
3.455812e+003, 1.358536e-002
3.457741e+003, 1.298481e-002
3.459669e+003, 1.354790e-002
3.461598e+003, 1.390977e-002
3.463526e+003, 1.353735e-002
3.465455e+003, 1.357342e-002
3.467383e+003, 1.419340e-002
3.469312e+003, 1.493509e-002
3.471240e+003, 1.476244e-002
3.473168e+003, 1.332493e-002
3.475097e+003, 1.227595e-002
3.477025e+003, 1.262099e-002
3.478954e+003, 1.183120e-002
3.480882e+003, 1.026703e-002
3.482811e+003, 1.005411e-002
3.484739e+003, 1.072317e-002
3.486668e+003, 1.217406e-002
3.488596e+003, 1.427711e-002
3.490525e+003, 1.387936e-002
3.492453e+003, 1.391617e-002
3.494382e+003, 1.349207e-002
3.496310e+003, 1.272697e-002
3.498239e+003, 1.209406e-002
3.500167e+003, 1.134235e-002
3.502095e+003, 1.007130e-002
3.504024e+003, 1.052465e-002
3.505952e+003, 1.127910e-002
3.507881e+003, 1.161689e-002
3.509809e+003, 1.041353e-002
3.511738e+003, 9.799705e-003
3.513666e+003, 1.040280e-002
3.515595e+003, 1.094088e-002
3.517523e+003, 1.194988e-002
3.519452e+003, 1.199719e-002
3.521380e+003, 1.250392e-002
3.523309e+003, 1.089468e-002
3.525237e+003, 9.995023e-003
3.527166e+003, 9.497283e-003
3.529094e+003, 7.647981e-003
3.531022e+003, 8.331662e-003
3.532951e+003, 9.247937e-003
3.534879e+003, 8.735215e-003
3.536808e+003, 9.185957e-003
3.538736e+003, 9.916957e-003
3.540665e+003, 1.072717e-002
3.542593e+003, 1.071870e-002
3.544522e+003, 1.131004e-002
3.546450e+003, 1.181945e-002
3.548379e+003, 1.194026e-002
3.550307e+003, 1.187462e-002
3.552236e+003, 1.062393e-002
3.554164e+003, 9.570641e-003
3.556093e+003, 8.581704e-003
3.558021e+003, 8.925761e-003
3.559949e+003, 9.943663e-003
3.561878e+003, 1.007027e-002
3.563806e+003, 1.081534e-002
3.565735e+003, 1.114683e-002
3.567663e+003, 1.005343e-002
3.569592e+003, 9.970631e-003
3.571520e+003, 1.106101e-002
3.573449e+003, 1.092468e-002
3.575377e+003, 9.968588e-003
3.577306e+003, 1.039876e-002
3.579234e+003, 1.051402e-002
3.581163e+003, 9.048086e-003
3.583091e+003, 9.226005e-003
3.585020e+003, 8.720190e-003
3.586948e+003, 8.791928e-003
3.588876e+003, 1.008397e-002
3.590805e+003, 9.834843e-003
3.592733e+003, 8.843269e-003
3.594662e+003, 1.085018e-002
3.596590e+003, 1.291053e-002
3.598519e+003, 1.181128e-002
3.600447e+003, 9.769795e-003
3.602376e+003, 1.000596e-002
3.604304e+003, 1.003109e-002
3.606233e+003, 1.074282e-002
3.608161e+003, 1.167278e-002
3.610090e+003, 1.069105e-002
3.612018e+003, 8.718092e-003
3.613947e+003, 8.125502e-003
3.615875e+003, 7.963533e-003
3.617803e+003, 8.495973e-003
3.619732e+003, 9.862412e-003
3.621660e+003, 1.042386e-002
3.623589e+003, 9.623814e-003
3.625517e+003, 8.711415e-003
3.627446e+003, 9.206487e-003
3.629374e+003, 1.249474e-002
3.631303e+003, 1.294256e-002
3.633231e+003, 1.009890e-002
3.635160e+003, 9.765083e-003
3.637088e+003, 1.038232e-002
3.639017e+003, 9.308088e-003
3.640945e+003, 9.059097e-003
3.642874e+003, 9.499565e-003
3.644802e+003, 1.071769e-002
3.646730e+003, 1.199708e-002
3.648659e+003, 1.142288e-002
3.650587e+003, 9.673860e-003
3.652516e+003, 7.639370e-003
3.654444e+003, 8.052628e-003
3.656373e+003, 9.746332e-003
3.658301e+003, 9.553946e-003
3.660230e+003, 9.947282e-003
3.662158e+003, 1.057730e-002
3.664087e+003, 1.013515e-002
3.666015e+003, 8.114212e-003
3.667944e+003, 5.989411e-003
3.669872e+003, 7.961501e-003
3.671801e+003, 8.386979e-003
3.673729e+003, 6.891211e-003
3.675657e+003, 8.297229e-003
3.677586e+003, 1.058022e-002
3.679514e+003, 1.215597e-002
3.681443e+003, 1.150199e-002
3.683371e+003, 1.037925e-002
3.685300e+003, 9.574871e-003
3.687228e+003, 7.895444e-003
3.689157e+003, 6.822742e-003
3.691085e+003, 6.613065e-003
3.693014e+003, 8.357964e-003
3.694942e+003, 9.699628e-003
3.696871e+003, 8.306457e-003
3.698799e+003, 7.963171e-003
3.700728e+003, 9.807166e-003
3.702656e+003, 1.029084e-002
3.704584e+003, 9.810602e-003
3.706513e+003, 1.145555e-002
3.708441e+003, 1.141308e-002
3.710370e+003, 9.688002e-003
3.712298e+003, 9.682073e-003
3.714227e+003, 9.293158e-003
3.716155e+003, 1.073086e-002
3.718084e+003, 9.867675e-003
3.720012e+003, 1.022977e-002
3.721941e+003, 1.144179e-002
3.723869e+003, 1.042209e-002
3.725798e+003, 8.892628e-003
3.727726e+003, 8.169789e-003
3.729655e+003, 7.442207e-003
3.731583e+003, 7.383921e-003
3.733511e+003, 7.854543e-003
3.735440e+003, 7.832972e-003
3.737368e+003, 9.522886e-003
3.739297e+003, 1.137261e-002
3.741225e+003, 1.082772e-002
3.743154e+003, 9.544419e-003
3.745082e+003, 9.391841e-003
3.747011e+003, 8.299457e-003
3.748939e+003, 7.831344e-003
3.750868e+003, 7.285542e-003
3.752796e+003, 8.624613e-003
3.754725e+003, 1.038171e-002
3.756653e+003, 8.905568e-003
3.758582e+003, 9.875394e-003
3.760510e+003, 1.141744e-002
3.762438e+003, 9.685667e-003
3.764367e+003, 8.787692e-003
3.766295e+003, 1.116147e-002
3.768224e+003, 1.010498e-002
3.770152e+003, 7.118251e-003
3.772081e+003, 6.790661e-003
3.774009e+003, 8.754715e-003
3.775938e+003, 8.264322e-003
3.777866e+003, 8.286514e-003
3.779795e+003, 9.684589e-003
3.781723e+003, 1.110057e-002
3.783652e+003, 1.049835e-002
3.785580e+003, 1.087937e-002
3.787509e+003, 1.031426e-002
3.789437e+003, 8.323546e-003
3.791365e+003, 8.538381e-003
3.793294e+003, 1.067821e-002
3.795222e+003, 1.061226e-002
3.797151e+003, 1.002936e-002
3.799079e+003, 1.000491e-002
3.801008e+003, 1.017353e-002
3.802936e+003, 9.151394e-003
3.804865e+003, 7.916470e-003
3.806793e+003, 7.837598e-003
3.808722e+003, 9.530486e-003
3.810650e+003, 1.183872e-002
3.812579e+003, 1.337284e-002
3.814507e+003, 1.240217e-002
3.816436e+003, 1.341648e-002
3.818364e+003, 1.446515e-002
3.820292e+003, 1.340917e-002
3.822221e+003, 1.266531e-002
3.824149e+003, 1.204802e-002
3.826078e+003, 1.150465e-002
3.828006e+003, 1.143180e-002
3.829935e+003, 1.045228e-002
3.831863e+003, 9.217867e-003
3.833792e+003, 7.806074e-003
3.835720e+003, 8.506708e-003
3.837649e+003, 9.375638e-003
3.839577e+003, 1.090856e-002
3.841506e+003, 1.128259e-002
3.843434e+003, 1.083818e-002
3.845363e+003, 1.061866e-002
3.847291e+003, 1.056398e-002
3.849219e+003, 9.335758e-003
3.851148e+003, 9.341513e-003
3.853076e+003, 1.046766e-002
3.855005e+003, 1.191184e-002
3.856933e+003, 1.053207e-002
3.858862e+003, 1.028121e-002
3.860790e+003, 8.695061e-003
3.862719e+003, 9.109953e-003
3.864647e+003, 9.585777e-003
3.866576e+003, 8.916525e-003
3.868504e+003, 1.053238e-002
3.870433e+003, 1.284980e-002
3.872361e+003, 9.844362e-003
3.874290e+003, 7.288657e-003
3.876218e+003, 8.113593e-003
3.878146e+003, 1.101944e-002
3.880075e+003, 1.114230e-002
3.882003e+003, 9.239247e-003
3.883932e+003, 8.723932e-003
3.885860e+003, 1.111070e-002
3.887789e+003, 1.217737e-002
3.889717e+003, 1.239638e-002
3.891646e+003, 1.307742e-002
3.893574e+003, 1.229614e-002
3.895503e+003, 1.160411e-002
3.897431e+003, 1.013918e-002
3.899360e+003, 9.366846e-003
3.901288e+003, 1.169561e-002
3.903217e+003, 1.167020e-002
3.905145e+003, 1.114141e-002
3.907073e+003, 9.211475e-003
3.909002e+003, 7.375211e-003
3.910930e+003, 8.362019e-003
3.912859e+003, 9.159077e-003
3.914787e+003, 7.792670e-003
3.916716e+003, 7.055467e-003
3.918644e+003, 5.576350e-003
3.920573e+003, 7.790706e-003
3.922501e+003, 9.737616e-003
3.924430e+003, 1.180247e-002
3.926358e+003, 1.152699e-002
3.928287e+003, 1.023142e-002
3.930215e+003, 8.886141e-003
3.932144e+003, 7.561303e-003
3.934072e+003, 8.704921e-003
3.936000e+003, 8.965883e-003
3.937929e+003, 6.899917e-003
3.939857e+003, 8.529958e-003
3.941786e+003, 1.137249e-002
3.943714e+003, 1.240356e-002
3.945643e+003, 1.209139e-002
3.947571e+003, 1.145806e-002
3.949500e+003, 9.528801e-003
3.951428e+003, 1.089113e-002
3.953357e+003, 1.028142e-002
3.955285e+003, 9.101212e-003
3.957214e+003, 1.085267e-002
3.959142e+003, 1.164964e-002
3.961071e+003, 1.193826e-002
3.962999e+003, 1.082711e-002
3.964927e+003, 9.321928e-003
3.966856e+003, 9.569358e-003
3.968784e+003, 1.130098e-002
3.970713e+003, 1.217519e-002
3.972641e+003, 1.146585e-002
3.974570e+003, 1.223856e-002
3.976498e+003, 1.154884e-002
3.978427e+003, 8.041687e-003
3.980355e+003, 7.891925e-003
3.982284e+003, 1.057186e-002
3.984212e+003, 1.107983e-002
3.986141e+003, 1.116951e-002
3.988069e+003, 1.179630e-002
3.989998e+003, 1.286861e-002
3.991926e+003, 1.155197e-002
3.993854e+003, 1.068603e-002
3.995783e+003, 1.063257e-002
3.997711e+003, 7.823091e-003
3.999640e+003, 7.826108e-003
##END=



