##NAMES=Leightonite
##RRUFFID=R050211
##IDEAL CHEMISTRY=K_2_Ca_2_Cu^2+^(S^6+^O_4_)_4_&#183;2H_2_O
##LOCALITY=Chuquicamata mine, Calama, Antofagasta Province, Chile
##OWNER=RRUFF
##SOURCE=John Dagenais
##DESCRIPTION=Blue lathlike crystals
##STATUS=The identification of this mineral has been confirmed by X-ray diffraction and chemical analysis
##URL=rruff.info/R050211
##MEASURED CHEMISTRY=(K_1.91_Na_0.09_)_Σ=2_Ca_2.00_Cu_1.00_(S_1.00_O_4_)_4_·1.96H_2_O
5.014013e+001, 1.096387e-002
5.206860e+001, 1.150818e-002
5.399707e+001, 1.265303e-002
5.592553e+001, 1.657694e-002
5.785400e+001, 1.815969e-002
5.978246e+001, 1.906219e-002
6.171093e+001, 1.942601e-002
6.363940e+001, 2.088915e-002
6.556786e+001, 2.127228e-002
6.749633e+001, 2.010683e-002
6.942480e+001, 2.000509e-002
7.135326e+001, 2.134136e-002
7.328172e+001, 2.505849e-002
7.521019e+001, 2.772984e-002
7.713866e+001, 2.897957e-002
7.906712e+001, 3.163447e-002
8.099559e+001, 3.234066e-002
8.292406e+001, 3.286513e-002
8.485252e+001, 3.384183e-002
8.678099e+001, 3.378148e-002
8.870946e+001, 3.415908e-002
9.063792e+001, 3.463158e-002
9.256638e+001, 3.464086e-002
9.449485e+001, 3.638455e-002
9.642332e+001, 3.876551e-002
9.835178e+001, 4.086579e-002
1.002803e+002, 3.969626e-002
1.022087e+002, 4.094462e-002
1.041372e+002, 4.307032e-002
1.060657e+002, 4.343788e-002
1.079941e+002, 4.336339e-002
1.099226e+002, 4.330599e-002
1.118510e+002, 4.464483e-002
1.137795e+002, 4.619898e-002
1.157080e+002, 4.631806e-002
1.176364e+002, 4.649004e-002
1.195649e+002, 4.645556e-002
1.214934e+002, 4.684560e-002
1.234218e+002, 4.537260e-002
1.253503e+002, 4.458597e-002
1.272788e+002, 4.413470e-002
1.292072e+002, 4.400740e-002
1.311357e+002, 4.364222e-002
1.330642e+002, 4.298511e-002
1.349926e+002, 4.278859e-002
1.369211e+002, 4.364470e-002
1.388496e+002, 4.333632e-002
1.407780e+002, 4.364051e-002
1.427065e+002, 4.462791e-002
1.446350e+002, 4.601545e-002
1.465634e+002, 4.753397e-002
1.484919e+002, 4.879525e-002
1.504204e+002, 5.010954e-002
1.523488e+002, 5.156101e-002
1.542773e+002, 5.273036e-002
1.562058e+002, 5.367943e-002
1.581342e+002, 5.440666e-002
1.600627e+002, 5.524723e-002
1.619912e+002, 5.541594e-002
1.639196e+002, 5.485238e-002
1.658481e+002, 5.465643e-002
1.677766e+002, 5.520017e-002
1.697050e+002, 5.604849e-002
1.716335e+002, 5.794860e-002
1.735620e+002, 5.930686e-002
1.754904e+002, 5.990395e-002
1.774189e+002, 6.102683e-002
1.793474e+002, 6.292331e-002
1.812758e+002, 6.398164e-002
1.832043e+002, 6.409189e-002
1.851328e+002, 6.371734e-002
1.870612e+002, 6.298345e-002
1.889897e+002, 6.213182e-002
1.909182e+002, 6.176189e-002
1.928466e+002, 6.085803e-002
1.947751e+002, 5.988250e-002
1.967036e+002, 5.933172e-002
1.986320e+002, 5.896273e-002
2.005605e+002, 5.874941e-002
2.024890e+002, 5.994652e-002
2.044174e+002, 6.119793e-002
2.063459e+002, 6.241682e-002
2.082744e+002, 6.333466e-002
2.102028e+002, 6.379604e-002
2.121313e+002, 6.440534e-002
2.140598e+002, 6.533594e-002
2.159882e+002, 6.621274e-002
2.179167e+002, 6.680381e-002
2.198452e+002, 6.687102e-002
2.217736e+002, 6.704564e-002
2.237021e+002, 6.707533e-002
2.256305e+002, 6.694871e-002
2.275590e+002, 6.677093e-002
2.294875e+002, 6.710333e-002
2.314159e+002, 6.748433e-002
2.333444e+002, 6.780143e-002
2.352729e+002, 6.828883e-002
2.372013e+002, 6.870297e-002
2.391298e+002, 6.902203e-002
2.410583e+002, 6.964153e-002
2.429867e+002, 7.042529e-002
2.449152e+002, 7.064071e-002
2.468437e+002, 6.996154e-002
2.487721e+002, 6.940290e-002
2.507006e+002, 6.877528e-002
2.526291e+002, 6.749089e-002
2.545575e+002, 6.583466e-002
2.564860e+002, 6.441903e-002
2.584145e+002, 6.329086e-002
2.603429e+002, 6.186884e-002
2.622714e+002, 6.095848e-002
2.641999e+002, 6.013004e-002
2.661283e+002, 5.898459e-002
2.680568e+002, 5.819953e-002
2.699853e+002, 5.737885e-002
2.719137e+002, 5.649174e-002
2.738422e+002, 5.544671e-002
2.757707e+002, 5.419905e-002
2.776991e+002, 5.310851e-002
2.796276e+002, 5.205426e-002
2.815561e+002, 5.075657e-002
2.834845e+002, 4.982890e-002
2.854130e+002, 4.928641e-002
2.873415e+002, 4.876031e-002
2.892699e+002, 4.883438e-002
2.911984e+002, 4.901439e-002
2.931269e+002, 4.940563e-002
2.950553e+002, 4.995277e-002
2.969838e+002, 4.964259e-002
2.989123e+002, 4.814747e-002
3.008407e+002, 4.601092e-002
3.027692e+002, 4.343845e-002
3.046977e+002, 4.045727e-002
3.066261e+002, 3.773844e-002
3.085546e+002, 3.532021e-002
3.104831e+002, 3.312767e-002
3.124115e+002, 3.124545e-002
3.143400e+002, 2.960141e-002
3.162685e+002, 2.826837e-002
3.181969e+002, 2.721166e-002
3.201254e+002, 2.659485e-002
3.220539e+002, 2.604595e-002
3.239823e+002, 2.546984e-002
3.259108e+002, 2.505541e-002
3.278392e+002, 2.472556e-002
3.297677e+002, 2.453061e-002
3.316962e+002, 2.446127e-002
3.336246e+002, 2.427464e-002
3.355531e+002, 2.414543e-002
3.374816e+002, 2.407840e-002
3.394100e+002, 2.410721e-002
3.413385e+002, 2.414656e-002
3.432670e+002, 2.411957e-002
3.451954e+002, 2.414270e-002
3.471239e+002, 2.420601e-002
3.490524e+002, 2.408087e-002
3.509808e+002, 2.414911e-002
3.529093e+002, 2.415554e-002
3.548378e+002, 2.400746e-002
3.567662e+002, 2.418831e-002
3.586947e+002, 2.459837e-002
3.606232e+002, 2.460578e-002
3.625516e+002, 2.433507e-002
3.644801e+002, 2.430050e-002
3.664086e+002, 2.453719e-002
3.683370e+002, 2.458436e-002
3.702655e+002, 2.473167e-002
3.721940e+002, 2.499320e-002
3.741224e+002, 2.533374e-002
3.760509e+002, 2.545811e-002
3.779794e+002, 2.531624e-002
3.799078e+002, 2.529650e-002
3.818363e+002, 2.574556e-002
3.837648e+002, 2.611855e-002
3.856932e+002, 2.618907e-002
3.876217e+002, 2.619797e-002
3.895502e+002, 2.640815e-002
3.914786e+002, 2.656982e-002
3.934071e+002, 2.684076e-002
3.953356e+002, 2.720081e-002
3.972640e+002, 2.761958e-002
3.991925e+002, 2.793391e-002
4.011210e+002, 2.831238e-002
4.030494e+002, 2.882854e-002
4.049779e+002, 2.944863e-002
4.069064e+002, 2.990578e-002
4.088348e+002, 3.034159e-002
4.107633e+002, 3.090763e-002
4.126917e+002, 3.168613e-002
4.146202e+002, 3.231492e-002
4.165487e+002, 3.292546e-002
4.184771e+002, 3.335545e-002
4.204056e+002, 3.388742e-002
4.223341e+002, 3.432775e-002
4.242625e+002, 3.532448e-002
4.261910e+002, 3.641503e-002
4.281195e+002, 3.748820e-002
4.300479e+002, 3.918286e-002
4.319764e+002, 4.159034e-002
4.339049e+002, 4.422342e-002
4.358333e+002, 4.671923e-002
4.377618e+002, 4.710937e-002
4.396903e+002, 4.555554e-002
4.416187e+002, 4.373984e-002
4.435472e+002, 4.265044e-002
4.454757e+002, 4.207107e-002
4.474041e+002, 4.194472e-002
4.493326e+002, 4.169936e-002
4.512611e+002, 4.167062e-002
4.531895e+002, 4.185223e-002
4.551180e+002, 4.269349e-002
4.570465e+002, 4.389189e-002
4.589749e+002, 4.528168e-002
4.609034e+002, 4.712820e-002
4.628319e+002, 4.941789e-002
4.647603e+002, 5.188866e-002
4.666888e+002, 5.399892e-002
4.686173e+002, 5.482481e-002
4.705457e+002, 5.509548e-002
4.724742e+002, 5.583751e-002
4.744027e+002, 5.699655e-002
4.763311e+002, 5.806493e-002
4.782596e+002, 5.901756e-002
4.801881e+002, 5.959364e-002
4.821165e+002, 5.910356e-002
4.840450e+002, 5.756311e-002
4.859735e+002, 5.635256e-002
4.879019e+002, 5.542246e-002
4.898304e+002, 5.502680e-002
4.917589e+002, 5.546331e-002
4.936873e+002, 5.614070e-002
4.956158e+002, 5.725411e-002
4.975443e+002, 5.885743e-002
4.994727e+002, 6.052297e-002
5.014012e+002, 6.231664e-002
5.033297e+002, 6.387687e-002
5.052581e+002, 6.509987e-002
5.071866e+002, 6.640514e-002
5.091151e+002, 6.706582e-002
5.110435e+002, 6.738628e-002
5.129720e+002, 6.797886e-002
5.149005e+002, 6.866360e-002
5.168289e+002, 6.899702e-002
5.187574e+002, 6.919008e-002
5.206859e+002, 6.987735e-002
5.226143e+002, 7.071279e-002
5.245428e+002, 7.173627e-002
5.264713e+002, 7.274669e-002
5.283997e+002, 7.373287e-002
5.303282e+002, 7.498468e-002
5.322567e+002, 7.601850e-002
5.341851e+002, 7.657854e-002
5.361136e+002, 7.725932e-002
5.380421e+002, 7.778478e-002
5.399705e+002, 7.814743e-002
5.418990e+002, 7.878402e-002
5.438275e+002, 7.926603e-002
5.457559e+002, 7.928550e-002
5.476844e+002, 7.940939e-002
5.496129e+002, 7.967560e-002
5.515413e+002, 8.015256e-002
5.534698e+002, 8.078575e-002
5.553983e+002, 8.066677e-002
5.573267e+002, 7.991331e-002
5.592552e+002, 7.921568e-002
5.611837e+002, 7.886327e-002
5.631121e+002, 7.860714e-002
5.650406e+002, 7.782335e-002
5.669691e+002, 7.723449e-002
5.688975e+002, 7.690985e-002
5.708260e+002, 7.666788e-002
5.727545e+002, 7.676486e-002
5.746829e+002, 7.734177e-002
5.766114e+002, 7.824528e-002
5.785399e+002, 7.905754e-002
5.804683e+002, 8.048050e-002
5.823968e+002, 8.327643e-002
5.843253e+002, 8.616526e-002
5.862537e+002, 8.976690e-002
5.881822e+002, 9.461746e-002
5.901107e+002, 1.006612e-001
5.920391e+002, 1.061473e-001
5.939676e+002, 1.078056e-001
5.958961e+002, 1.041314e-001
5.978245e+002, 9.749143e-002
5.997530e+002, 9.123397e-002
6.016815e+002, 8.676679e-002
6.036099e+002, 8.494165e-002
6.055384e+002, 8.549267e-002
6.074669e+002, 8.646784e-002
6.093953e+002, 8.606822e-002
6.113238e+002, 8.364151e-002
6.132523e+002, 8.138077e-002
6.151807e+002, 8.080308e-002
6.171091e+002, 8.136180e-002
6.190376e+002, 8.208041e-002
6.209661e+002, 8.338097e-002
6.228945e+002, 8.488718e-002
6.248230e+002, 8.689786e-002
6.267515e+002, 8.844846e-002
6.286799e+002, 8.922876e-002
6.306084e+002, 8.891631e-002
6.325369e+002, 8.812734e-002
6.344653e+002, 8.777038e-002
6.363938e+002, 8.849306e-002
6.383223e+002, 8.968417e-002
6.402507e+002, 9.101264e-002
6.421792e+002, 9.179474e-002
6.441077e+002, 9.116416e-002
6.460361e+002, 8.963283e-002
6.479646e+002, 8.766720e-002
6.498931e+002, 8.347653e-002
6.518215e+002, 7.633407e-002
6.537500e+002, 6.941301e-002
6.556785e+002, 6.656624e-002
6.576069e+002, 6.673255e-002
6.595354e+002, 6.725030e-002
6.614639e+002, 6.657965e-002
6.633923e+002, 6.349751e-002
6.653208e+002, 5.835342e-002
6.672493e+002, 5.297504e-002
6.691777e+002, 4.878762e-002
6.711062e+002, 4.663796e-002
6.730347e+002, 4.618359e-002
6.749631e+002, 4.615996e-002
6.768916e+002, 4.600383e-002
6.788201e+002, 4.632983e-002
6.807485e+002, 4.684539e-002
6.826770e+002, 4.696657e-002
6.846055e+002, 4.693268e-002
6.865339e+002, 4.742193e-002
6.884624e+002, 4.783533e-002
6.903909e+002, 4.840081e-002
6.923193e+002, 5.008249e-002
6.942478e+002, 5.097071e-002
6.961763e+002, 5.121504e-002
6.981047e+002, 5.231424e-002
7.000332e+002, 5.102784e-002
##END=



