##NAMES=Lepidocrocite
##RRUFFID=R050454
##IDEAL CHEMISTRY=Fe^3+^O(OH)
##LOCALITY=Malvern, Chester County, Pennsylvania, USA
##OWNER=RRUFF
##SOURCE=University of Arizona Mineral Museum
##DESCRIPTION=Aggregate of red-brown flattened and platy crystals
##STATUS=The identification of this mineral has been confirmed by X-ray diffraction and chemical analysis
##URL=rruff.info/R050454
##MEASURED CHEMISTRY=Fe^3+^_0.99_O(OH)
3.741225e+002, 1.931369e-001
3.760510e+002, 1.898311e-001
3.779795e+002, 1.919866e-001
3.799079e+002, 1.873577e-001
3.818364e+002, 1.890026e-001
3.837649e+002, 1.949321e-001
3.856933e+002, 1.919775e-001
3.876218e+002, 1.804264e-001
3.895503e+002, 1.792414e-001
3.914787e+002, 1.774421e-001
3.934072e+002, 1.749264e-001
3.953357e+002, 1.775366e-001
3.972641e+002, 1.758341e-001
3.991926e+002, 1.714309e-001
4.011211e+002, 1.758416e-001
4.030495e+002, 1.783800e-001
4.049780e+002, 1.781902e-001
4.069065e+002, 1.788527e-001
4.088349e+002, 1.787666e-001
4.107634e+002, 1.761254e-001
4.126919e+002, 1.778292e-001
4.146203e+002, 1.792795e-001
4.165488e+002, 1.792831e-001
4.184773e+002, 1.805695e-001
4.204057e+002, 1.827574e-001
4.223342e+002, 1.836600e-001
4.242627e+002, 1.837476e-001
4.261911e+002, 1.836359e-001
4.281196e+002, 1.843337e-001
4.300481e+002, 1.865937e-001
4.319765e+002, 1.885755e-001
4.339050e+002, 1.891888e-001
4.358335e+002, 1.903677e-001
4.377619e+002, 1.898260e-001
4.396904e+002, 1.903607e-001
4.416189e+002, 1.912669e-001
4.435473e+002, 1.917285e-001
4.454758e+002, 1.914261e-001
4.474043e+002, 1.920875e-001
4.493327e+002, 1.929749e-001
4.512612e+002, 1.929287e-001
4.531897e+002, 1.923933e-001
4.551181e+002, 1.918677e-001
4.570466e+002, 1.899716e-001
4.589751e+002, 1.881747e-001
4.609035e+002, 1.863851e-001
4.628320e+002, 1.848987e-001
4.647605e+002, 1.834748e-001
4.666889e+002, 1.812251e-001
4.686174e+002, 1.777930e-001
4.705459e+002, 1.760823e-001
4.724743e+002, 1.739256e-001
4.744028e+002, 1.701868e-001
4.763313e+002, 1.665716e-001
4.782597e+002, 1.640029e-001
4.801882e+002, 1.616130e-001
4.821167e+002, 1.586189e-001
4.840451e+002, 1.558324e-001
4.859736e+002, 1.540428e-001
4.879021e+002, 1.526055e-001
4.898305e+002, 1.522714e-001
4.917590e+002, 1.517392e-001
4.936875e+002, 1.508269e-001
4.956159e+002, 1.492752e-001
4.975444e+002, 1.482402e-001
4.994729e+002, 1.468326e-001
5.014013e+002, 1.449952e-001
5.033298e+002, 1.435918e-001
5.052583e+002, 1.425198e-001
5.071867e+002, 1.413139e-001
5.091152e+002, 1.397090e-001
5.110437e+002, 1.383178e-001
5.129721e+002, 1.368048e-001
5.149006e+002, 1.349798e-001
5.168290e+002, 1.331830e-001
5.187575e+002, 1.315852e-001
5.206860e+002, 1.296109e-001
5.226144e+002, 1.273625e-001
5.245429e+002, 1.260766e-001
5.264714e+002, 1.244127e-001
5.283998e+002, 1.222660e-001
5.303283e+002, 1.206255e-001
5.322568e+002, 1.190915e-001
5.341852e+002, 1.173938e-001
5.361137e+002, 1.151438e-001
5.380422e+002, 1.132156e-001
5.399706e+002, 1.116515e-001
5.418991e+002, 1.102681e-001
5.438276e+002, 1.088681e-001
5.457560e+002, 1.064188e-001
5.476845e+002, 1.046192e-001
5.496130e+002, 1.034107e-001
5.515414e+002, 1.020541e-001
5.534699e+002, 1.007944e-001
5.553984e+002, 9.890395e-002
5.573268e+002, 9.734654e-002
5.592553e+002, 9.573044e-002
5.611838e+002, 9.431121e-002
5.631122e+002, 9.316816e-002
5.650407e+002, 9.230452e-002
5.669692e+002, 9.155752e-002
5.688976e+002, 9.083626e-002
5.708261e+002, 8.999024e-002
5.727546e+002, 8.916394e-002
5.746830e+002, 8.849818e-002
5.766115e+002, 8.776130e-002
5.785400e+002, 8.735939e-002
5.804684e+002, 8.699110e-002
5.823969e+002, 8.619606e-002
5.843254e+002, 8.529848e-002
5.862538e+002, 8.452367e-002
5.881823e+002, 8.352556e-002
5.901108e+002, 8.264422e-002
5.920392e+002, 8.194060e-002
5.939677e+002, 8.087954e-002
5.958962e+002, 7.989808e-002
5.978246e+002, 7.878432e-002
5.997531e+002, 7.771075e-002
6.016816e+002, 7.690820e-002
6.036100e+002, 7.612000e-002
6.055385e+002, 7.514496e-002
6.074670e+002, 7.404349e-002
6.093954e+002, 7.277988e-002
6.113239e+002, 7.179169e-002
6.132524e+002, 7.074037e-002
6.151808e+002, 6.972926e-002
6.171093e+002, 6.910893e-002
6.190378e+002, 6.822104e-002
6.209662e+002, 6.727521e-002
6.228947e+002, 6.630122e-002
6.248232e+002, 6.510770e-002
6.267516e+002, 6.420261e-002
6.286801e+002, 6.323287e-002
6.306086e+002, 6.226039e-002
6.325370e+002, 6.124298e-002
6.344655e+002, 6.035560e-002
6.363940e+002, 5.936285e-002
6.383224e+002, 5.821216e-002
6.402509e+002, 5.714779e-002
6.421794e+002, 5.604928e-002
6.441078e+002, 5.507496e-002
6.460363e+002, 5.420002e-002
6.479648e+002, 5.358063e-002
6.498932e+002, 5.292955e-002
6.518217e+002, 5.223707e-002
6.537502e+002, 5.158436e-002
6.556786e+002, 5.087709e-002
6.576071e+002, 5.030760e-002
6.595356e+002, 5.001571e-002
6.614641e+002, 4.984235e-002
6.633925e+002, 4.947451e-002
6.653210e+002, 4.921681e-002
6.672495e+002, 4.912018e-002
6.691779e+002, 4.861842e-002
6.711064e+002, 4.798818e-002
6.730349e+002, 4.755691e-002
6.749633e+002, 4.722003e-002
6.768918e+002, 4.690709e-002
6.788203e+002, 4.647862e-002
6.807487e+002, 4.627999e-002
6.826772e+002, 4.600308e-002
6.846057e+002, 4.587862e-002
6.865341e+002, 4.601322e-002
6.884626e+002, 4.609860e-002
6.903911e+002, 4.624212e-002
6.923195e+002, 4.672818e-002
6.942480e+002, 4.733668e-002
6.961765e+002, 4.794904e-002
6.981049e+002, 4.859027e-002
7.000334e+002, 4.925467e-002
7.019619e+002, 4.978277e-002
7.038903e+002, 5.064961e-002
7.058188e+002, 5.185197e-002
7.077473e+002, 5.315226e-002
7.096757e+002, 5.442297e-002
7.116042e+002, 5.593936e-002
7.135327e+002, 5.754179e-002
7.154611e+002, 5.930274e-002
7.173896e+002, 6.138954e-002
7.193181e+002, 6.358414e-002
7.212465e+002, 6.602218e-002
7.231750e+002, 6.900573e-002
7.251035e+002, 7.211088e-002
7.270319e+002, 7.533631e-002
7.289604e+002, 7.876030e-002
7.308889e+002, 8.228557e-002
7.328173e+002, 8.581723e-002
7.347458e+002, 8.921489e-002
7.366743e+002, 9.216380e-002
7.386027e+002, 9.431221e-002
7.405312e+002, 9.539793e-002
7.424597e+002, 9.538755e-002
7.443881e+002, 9.423877e-002
7.463166e+002, 9.224697e-002
7.482451e+002, 8.963627e-002
7.501735e+002, 8.658028e-002
7.521020e+002, 8.349507e-002
7.540305e+002, 8.048841e-002
7.559589e+002, 7.745411e-002
7.578874e+002, 7.445785e-002
7.598159e+002, 7.193517e-002
7.617443e+002, 6.971288e-002
7.636728e+002, 6.766561e-002
7.656013e+002, 6.588888e-002
7.675297e+002, 6.463385e-002
7.694582e+002, 6.367353e-002
7.713867e+002, 6.289475e-002
7.733151e+002, 6.220653e-002
7.752436e+002, 6.186426e-002
7.771721e+002, 6.196904e-002
7.791005e+002, 6.211358e-002
7.810290e+002, 6.220501e-002
7.829575e+002, 6.220538e-002
7.848859e+002, 6.201997e-002
7.868144e+002, 6.193146e-002
7.887429e+002, 6.216567e-002
7.906713e+002, 6.244551e-002
7.925998e+002, 6.232251e-002
7.945283e+002, 6.213053e-002
7.964567e+002, 6.194362e-002
7.983852e+002, 6.152692e-002
8.003137e+002, 6.097942e-002
8.022421e+002, 6.048955e-002
8.041706e+002, 6.010446e-002
8.060991e+002, 5.968773e-002
8.080275e+002, 5.919006e-002
8.099560e+002, 5.884610e-002
8.118845e+002, 5.840511e-002
8.138129e+002, 5.782972e-002
8.157414e+002, 5.743334e-002
8.176699e+002, 5.704578e-002
8.195983e+002, 5.674465e-002
8.215268e+002, 5.657415e-002
8.234553e+002, 5.656550e-002
8.253837e+002, 5.644709e-002
8.273122e+002, 5.642553e-002
8.292407e+002, 5.655383e-002
8.311691e+002, 5.679010e-002
8.330976e+002, 5.681219e-002
8.350261e+002, 5.699927e-002
8.369545e+002, 5.734715e-002
8.388830e+002, 5.781531e-002
8.408115e+002, 5.829243e-002
8.427399e+002, 5.881818e-002
8.446684e+002, 5.947958e-002
8.465969e+002, 5.992621e-002
8.485253e+002, 6.023724e-002
8.504538e+002, 6.078030e-002
8.523823e+002, 6.135278e-002
8.543107e+002, 6.189391e-002
8.562392e+002, 6.247375e-002
8.581677e+002, 6.337134e-002
8.600961e+002, 6.410450e-002
8.620246e+002, 6.464871e-002
8.639531e+002, 6.536143e-002
8.658815e+002, 6.617236e-002
8.678100e+002, 6.697883e-002
8.697385e+002, 6.773604e-002
8.716669e+002, 6.836111e-002
8.735954e+002, 6.912532e-002
8.755239e+002, 6.989682e-002
8.774523e+002, 7.069494e-002
8.793808e+002, 7.122673e-002
8.813093e+002, 7.169698e-002
8.832377e+002, 7.210373e-002
8.851662e+002, 7.252949e-002
8.870947e+002, 7.287747e-002
8.890231e+002, 7.299802e-002
8.909516e+002, 7.299766e-002
8.928801e+002, 7.296718e-002
8.948085e+002, 7.301114e-002
8.967370e+002, 7.281132e-002
8.986655e+002, 7.243831e-002
9.005939e+002, 7.213742e-002
9.025224e+002, 7.163565e-002
9.044509e+002, 7.116744e-002
9.063793e+002, 7.078198e-002
9.083078e+002, 7.040522e-002
9.102363e+002, 6.990909e-002
9.121647e+002, 6.933804e-002
9.140932e+002, 6.884086e-002
9.160217e+002, 6.834722e-002
9.179501e+002, 6.788083e-002
9.198786e+002, 6.749596e-002
9.218071e+002, 6.708194e-002
9.237355e+002, 6.675161e-002
9.256640e+002, 6.647937e-002
9.275925e+002, 6.643239e-002
9.295209e+002, 6.650520e-002
9.314494e+002, 6.658755e-002
9.333779e+002, 6.669257e-002
9.353063e+002, 6.676406e-002
9.372348e+002, 6.712188e-002
9.391633e+002, 6.776578e-002
9.410917e+002, 6.830555e-002
9.430202e+002, 6.871520e-002
9.449487e+002, 6.926136e-002
9.468771e+002, 6.992553e-002
9.488056e+002, 7.051125e-002
9.507341e+002, 7.122657e-002
9.526625e+002, 7.195405e-002
9.545910e+002, 7.277323e-002
9.565195e+002, 7.364501e-002
9.584479e+002, 7.452329e-002
9.603764e+002, 7.563172e-002
9.623049e+002, 7.677455e-002
9.642333e+002, 7.772990e-002
9.661618e+002, 7.857901e-002
9.680903e+002, 7.960689e-002
9.700187e+002, 8.065020e-002
9.719472e+002, 8.151057e-002
9.738757e+002, 8.251233e-002
9.758041e+002, 8.352102e-002
9.777326e+002, 8.470476e-002
9.796611e+002, 8.603144e-002
9.815895e+002, 8.744688e-002
9.835180e+002, 8.921245e-002
9.854465e+002, 9.104034e-002
9.873749e+002, 9.287779e-002
9.893034e+002, 9.493089e-002
9.912319e+002, 9.741488e-002
9.931603e+002, 1.002653e-001
9.950888e+002, 1.030291e-001
9.970173e+002, 1.061125e-001
9.989457e+002, 1.096703e-001
1.000874e+003, 1.136397e-001
1.002803e+003, 1.178105e-001
1.004731e+003, 1.224726e-001
1.006660e+003, 1.273083e-001
1.008588e+003, 1.321072e-001
1.010517e+003, 1.371792e-001
1.012445e+003, 1.420721e-001
1.014373e+003, 1.462468e-001
1.016302e+003, 1.492730e-001
1.018230e+003, 1.504660e-001
1.020159e+003, 1.495032e-001
1.022087e+003, 1.460190e-001
1.024016e+003, 1.405365e-001
1.025944e+003, 1.340490e-001
1.027873e+003, 1.269840e-001
1.029801e+003, 1.195731e-001
1.031730e+003, 1.123468e-001
1.033658e+003, 1.053775e-001
1.035587e+003, 9.899715e-002
1.037515e+003, 9.362832e-002
1.039443e+003, 8.926529e-002
1.041372e+003, 8.576837e-002
1.043300e+003, 8.310374e-002
1.045229e+003, 8.092859e-002
1.047157e+003, 7.916570e-002
1.049086e+003, 7.794078e-002
1.051014e+003, 7.723726e-002
1.052943e+003, 7.682253e-002
1.054871e+003, 7.659375e-002
1.056800e+003, 7.650059e-002
1.058728e+003, 7.646572e-002
1.060657e+003, 7.661061e-002
1.062585e+003, 7.682607e-002
1.064514e+003, 7.709704e-002
1.066442e+003, 7.756485e-002
1.068370e+003, 7.806098e-002
1.070299e+003, 7.852398e-002
1.072227e+003, 7.894072e-002
1.074156e+003, 7.947723e-002
1.076084e+003, 8.013048e-002
1.078013e+003, 8.084258e-002
1.079941e+003, 8.154039e-002
1.081870e+003, 8.221956e-002
1.083798e+003, 8.295448e-002
1.085727e+003, 8.372534e-002
1.087655e+003, 8.425847e-002
1.089584e+003, 8.472268e-002
1.091512e+003, 8.538184e-002
1.093441e+003, 8.630101e-002
1.095369e+003, 8.711498e-002
1.097297e+003, 8.804953e-002
1.099226e+003, 8.898101e-002
1.101154e+003, 8.970598e-002
1.103083e+003, 9.028175e-002
1.105011e+003, 9.102770e-002
1.106940e+003, 9.176154e-002
1.108868e+003, 9.264620e-002
1.110797e+003, 9.346592e-002
1.112725e+003, 9.424119e-002
1.114654e+003, 9.488063e-002
1.116582e+003, 9.543816e-002
1.118511e+003, 9.616059e-002
1.120439e+003, 9.669586e-002
1.122368e+003, 9.718104e-002
1.124296e+003, 9.780668e-002
1.126224e+003, 9.832235e-002
1.128153e+003, 9.896978e-002
1.130081e+003, 9.976541e-002
1.132010e+003, 1.002917e-001
1.133938e+003, 1.006006e-001
1.135867e+003, 1.009439e-001
1.137795e+003, 1.011705e-001
1.139724e+003, 1.013647e-001
1.141652e+003, 1.015634e-001
1.143581e+003, 1.016055e-001
1.145509e+003, 1.015322e-001
1.147438e+003, 1.013822e-001
1.149366e+003, 1.012212e-001
1.151295e+003, 1.010163e-001
1.153223e+003, 1.006444e-001
1.155151e+003, 1.002610e-001
1.157080e+003, 9.979867e-002
1.159008e+003, 9.925392e-002
1.160937e+003, 9.868187e-002
1.162865e+003, 9.803809e-002
1.164794e+003, 9.741409e-002
1.166722e+003, 9.668268e-002
1.168651e+003, 9.597470e-002
1.170579e+003, 9.534938e-002
1.172508e+003, 9.458198e-002
1.174436e+003, 9.384694e-002
1.176365e+003, 9.312984e-002
1.178293e+003, 9.235926e-002
1.180222e+003, 9.159865e-002
1.182150e+003, 9.088475e-002
1.184078e+003, 9.024791e-002
1.186007e+003, 8.977562e-002
1.187935e+003, 8.935138e-002
1.189864e+003, 8.886487e-002
1.191792e+003, 8.836796e-002
1.193721e+003, 8.797416e-002
1.195649e+003, 8.773296e-002
1.197578e+003, 8.743367e-002
1.199506e+003, 8.708376e-002
1.201435e+003, 8.674861e-002
1.203363e+003, 8.632962e-002
1.205292e+003, 8.603483e-002
1.207220e+003, 8.594408e-002
1.209149e+003, 8.583014e-002
1.211077e+003, 8.546751e-002
1.213005e+003, 8.526642e-002
1.214934e+003, 8.521351e-002
1.216862e+003, 8.496255e-002
1.218791e+003, 8.470861e-002
1.220719e+003, 8.452990e-002
1.222648e+003, 8.433956e-002
1.224576e+003, 8.427247e-002
1.226505e+003, 8.425983e-002
1.228433e+003, 8.411840e-002
1.230362e+003, 8.393078e-002
1.232290e+003, 8.386187e-002
1.234219e+003, 8.376497e-002
1.236147e+003, 8.372380e-002
1.238076e+003, 8.371579e-002
1.240004e+003, 8.389607e-002
1.241932e+003, 8.411605e-002
1.243861e+003, 8.417732e-002
1.245789e+003, 8.424489e-002
1.247718e+003, 8.438086e-002
1.249646e+003, 8.465736e-002
1.251575e+003, 8.494589e-002
1.253503e+003, 8.508324e-002
1.255432e+003, 8.529717e-002
1.257360e+003, 8.551005e-002
1.259289e+003, 8.572689e-002
1.261217e+003, 8.601971e-002
1.263146e+003, 8.635616e-002
1.265074e+003, 8.658011e-002
1.267003e+003, 8.681496e-002
1.268931e+003, 8.717311e-002
1.270859e+003, 8.753821e-002
1.272788e+003, 8.787165e-002
1.274716e+003, 8.816211e-002
1.276645e+003, 8.843862e-002
1.278573e+003, 8.878116e-002
1.280502e+003, 8.922549e-002
1.282430e+003, 8.950826e-002
1.284359e+003, 8.981877e-002
1.286287e+003, 9.019470e-002
1.288216e+003, 9.051366e-002
1.290144e+003, 9.093236e-002
1.292073e+003, 9.135175e-002
1.294001e+003, 9.168819e-002
1.295930e+003, 9.200114e-002
1.297858e+003, 9.246755e-002
1.299786e+003, 9.284722e-002
1.301715e+003, 9.316917e-002
1.303643e+003, 9.346884e-002
1.305572e+003, 9.378919e-002
1.307500e+003, 9.447856e-002
1.309429e+003, 9.525450e-002
1.311357e+003, 9.571300e-002
1.313286e+003, 9.626414e-002
1.315214e+003, 9.682353e-002
1.317143e+003, 9.726579e-002
1.319071e+003, 9.767740e-002
1.321000e+003, 9.817299e-002
1.322928e+003, 9.864904e-002
1.324857e+003, 9.916052e-002
1.326785e+003, 9.950933e-002
1.328714e+003, 1.000287e-001
1.330642e+003, 1.004951e-001
1.332570e+003, 1.007520e-001
1.334499e+003, 1.010768e-001
1.336427e+003, 1.015186e-001
1.338356e+003, 1.019120e-001
1.340284e+003, 1.022253e-001
1.342213e+003, 1.024800e-001
1.344141e+003, 1.030214e-001
1.346070e+003, 1.033849e-001
1.347998e+003, 1.036509e-001
1.349927e+003, 1.041285e-001
1.351855e+003, 1.044999e-001
1.353784e+003, 1.047636e-001
1.355712e+003, 1.049676e-001
1.357641e+003, 1.053448e-001
1.359569e+003, 1.058585e-001
1.361497e+003, 1.062736e-001
1.363426e+003, 1.067179e-001
1.365354e+003, 1.071443e-001
1.367283e+003, 1.076436e-001
1.369211e+003, 1.078775e-001
1.371140e+003, 1.081938e-001
1.373068e+003, 1.086106e-001
1.374997e+003, 1.091390e-001
1.376925e+003, 1.095305e-001
1.378854e+003, 1.099078e-001
1.380782e+003, 1.102397e-001
1.382711e+003, 1.105465e-001
1.384639e+003, 1.108232e-001
1.386568e+003, 1.113749e-001
1.388496e+003, 1.118122e-001
1.390424e+003, 1.121420e-001
1.392353e+003, 1.126685e-001
1.394281e+003, 1.132731e-001
1.396210e+003, 1.136524e-001
1.398138e+003, 1.141832e-001
1.400067e+003, 1.145505e-001
1.401995e+003, 1.147845e-001
1.403924e+003, 1.153946e-001
1.405852e+003, 1.159888e-001
1.407781e+003, 1.164032e-001
1.409709e+003, 1.170533e-001
1.411638e+003, 1.176711e-001
1.413566e+003, 1.180665e-001
1.415495e+003, 1.184433e-001
1.417423e+003, 1.193141e-001
1.419351e+003, 1.200605e-001
1.421280e+003, 1.203565e-001
1.423208e+003, 1.208963e-001
1.425137e+003, 1.214680e-001
1.427065e+003, 1.217958e-001
1.428994e+003, 1.223415e-001
1.430922e+003, 1.229163e-001
1.432851e+003, 1.235431e-001
1.434779e+003, 1.244323e-001
1.436708e+003, 1.253024e-001
1.438636e+003, 1.255213e-001
1.440565e+003, 1.259187e-001
1.442493e+003, 1.265166e-001
1.444422e+003, 1.271196e-001
1.446350e+003, 1.276810e-001
1.448278e+003, 1.283318e-001
1.450207e+003, 1.289134e-001
1.452135e+003, 1.295197e-001
1.454064e+003, 1.302841e-001
1.455992e+003, 1.314599e-001
1.457921e+003, 1.319194e-001
1.459849e+003, 1.318753e-001
1.461778e+003, 1.320885e-001
1.463706e+003, 1.326217e-001
1.465635e+003, 1.330426e-001
1.467563e+003, 1.331614e-001
1.469492e+003, 1.333539e-001
1.471420e+003, 1.339215e-001
1.473349e+003, 1.342562e-001
1.475277e+003, 1.343029e-001
1.477205e+003, 1.342150e-001
1.479134e+003, 1.339822e-001
1.481062e+003, 1.340202e-001
1.482991e+003, 1.341330e-001
1.484919e+003, 1.343874e-001
1.486848e+003, 1.347473e-001
1.488776e+003, 1.350374e-001
1.490705e+003, 1.351625e-001
1.492633e+003, 1.351226e-001
1.494562e+003, 1.355016e-001
1.496490e+003, 1.360568e-001
1.498419e+003, 1.362234e-001
1.500347e+003, 1.361624e-001
1.502276e+003, 1.364080e-001
1.504204e+003, 1.372145e-001
1.506132e+003, 1.380499e-001
1.508061e+003, 1.380031e-001
1.509989e+003, 1.376346e-001
1.511918e+003, 1.377664e-001
1.513846e+003, 1.381257e-001
1.515775e+003, 1.386173e-001
1.517703e+003, 1.390226e-001
1.519632e+003, 1.395967e-001
1.521560e+003, 1.402098e-001
1.523489e+003, 1.400848e-001
1.525417e+003, 1.401687e-001
1.527346e+003, 1.404136e-001
1.529274e+003, 1.405524e-001
1.531203e+003, 1.408080e-001
1.533131e+003, 1.412777e-001
1.535059e+003, 1.414453e-001
1.536988e+003, 1.418913e-001
1.538916e+003, 1.428458e-001
1.540845e+003, 1.431855e-001
1.542773e+003, 1.430055e-001
1.544702e+003, 1.430318e-001
1.546630e+003, 1.431356e-001
1.548559e+003, 1.434050e-001
1.550487e+003, 1.436649e-001
1.552416e+003, 1.439866e-001
1.554344e+003, 1.447025e-001
1.556273e+003, 1.456041e-001
1.558201e+003, 1.468269e-001
1.560130e+003, 1.468794e-001
1.562058e+003, 1.462109e-001
1.563986e+003, 1.464421e-001
1.565915e+003, 1.467042e-001
1.567843e+003, 1.471891e-001
1.569772e+003, 1.478662e-001
1.571700e+003, 1.480964e-001
1.573629e+003, 1.485784e-001
1.575557e+003, 1.495432e-001
1.577486e+003, 1.496929e-001
1.579414e+003, 1.497849e-001
1.581343e+003, 1.502835e-001
1.583271e+003, 1.506217e-001
1.585200e+003, 1.508520e-001
1.587128e+003, 1.512574e-001
1.589057e+003, 1.519694e-001
1.590985e+003, 1.526010e-001
1.592913e+003, 1.529242e-001
1.594842e+003, 1.533980e-001
1.596770e+003, 1.539780e-001
1.598699e+003, 1.543859e-001
1.600627e+003, 1.547574e-001
1.602556e+003, 1.553087e-001
1.604484e+003, 1.558054e-001
1.606413e+003, 1.562627e-001
1.608341e+003, 1.566105e-001
1.610270e+003, 1.568923e-001
1.612198e+003, 1.572530e-001
1.614127e+003, 1.577562e-001
1.616055e+003, 1.587184e-001
1.617984e+003, 1.589885e-001
1.619912e+003, 1.589243e-001
1.621840e+003, 1.594354e-001
1.623769e+003, 1.597448e-001
1.625697e+003, 1.598708e-001
1.627626e+003, 1.601050e-001
1.629554e+003, 1.602774e-001
1.631483e+003, 1.606082e-001
1.633411e+003, 1.612271e-001
1.635340e+003, 1.618672e-001
1.637268e+003, 1.617030e-001
1.639197e+003, 1.614705e-001
1.641125e+003, 1.616631e-001
1.643054e+003, 1.620910e-001
1.644982e+003, 1.628763e-001
1.646911e+003, 1.630605e-001
1.648839e+003, 1.626144e-001
1.650767e+003, 1.633848e-001
1.652696e+003, 1.647907e-001
1.654624e+003, 1.642349e-001
1.656553e+003, 1.635321e-001
1.658481e+003, 1.635856e-001
1.660410e+003, 1.638591e-001
1.662338e+003, 1.642671e-001
1.664267e+003, 1.644752e-001
1.666195e+003, 1.646675e-001
1.668124e+003, 1.652841e-001
1.670052e+003, 1.655373e-001
1.671981e+003, 1.655057e-001
1.673909e+003, 1.659888e-001
1.675838e+003, 1.664647e-001
1.677766e+003, 1.665683e-001
1.679694e+003, 1.669788e-001
1.681623e+003, 1.674017e-001
1.683551e+003, 1.685056e-001
1.685480e+003, 1.688541e-001
1.687408e+003, 1.686100e-001
1.689337e+003, 1.688832e-001
1.691265e+003, 1.691022e-001
1.693194e+003, 1.697207e-001
1.695122e+003, 1.708843e-001
1.697051e+003, 1.712794e-001
1.698979e+003, 1.719833e-001
1.700908e+003, 1.724679e-001
1.702836e+003, 1.721024e-001
1.704765e+003, 1.726582e-001
1.706693e+003, 1.732485e-001
1.708621e+003, 1.735005e-001
1.710550e+003, 1.738253e-001
1.712478e+003, 1.744660e-001
1.714407e+003, 1.752476e-001
1.716335e+003, 1.763867e-001
1.718264e+003, 1.770405e-001
1.720192e+003, 1.771861e-001
1.722121e+003, 1.776466e-001
1.724049e+003, 1.781713e-001
1.725978e+003, 1.786993e-001
1.727906e+003, 1.795164e-001
1.729835e+003, 1.801668e-001
1.731763e+003, 1.810733e-001
1.733692e+003, 1.823591e-001
1.735620e+003, 1.826065e-001
1.737548e+003, 1.826798e-001
1.739477e+003, 1.832803e-001
1.741405e+003, 1.837455e-001
1.743334e+003, 1.842922e-001
1.745262e+003, 1.847705e-001
1.747191e+003, 1.853630e-001
1.749119e+003, 1.860415e-001
1.751048e+003, 1.868098e-001
1.752976e+003, 1.870962e-001
1.754905e+003, 1.873736e-001
1.756833e+003, 1.880504e-001
1.758762e+003, 1.886132e-001
1.760690e+003, 1.893083e-001
1.762619e+003, 1.900659e-001
1.764547e+003, 1.904640e-001
1.766475e+003, 1.910651e-001
1.768404e+003, 1.916241e-001
1.770332e+003, 1.920480e-001
1.772261e+003, 1.925749e-001
1.774189e+003, 1.928475e-001
1.776118e+003, 1.931431e-001
1.778046e+003, 1.936473e-001
1.779975e+003, 1.944076e-001
1.781903e+003, 1.949486e-001
1.783832e+003, 1.954700e-001
1.785760e+003, 1.958299e-001
1.787689e+003, 1.959405e-001
1.789617e+003, 1.964436e-001
1.791546e+003, 1.971356e-001
1.793474e+003, 1.971688e-001
1.795402e+003, 1.970371e-001
1.797331e+003, 1.972826e-001
1.799259e+003, 1.975912e-001
1.801188e+003, 1.977420e-001
1.803116e+003, 1.979114e-001
1.805045e+003, 1.980956e-001
1.806973e+003, 1.983040e-001
1.808902e+003, 1.987620e-001
1.810830e+003, 1.987223e-001
1.812759e+003, 1.985404e-001
1.814687e+003, 1.985990e-001
1.816616e+003, 1.987932e-001
1.818544e+003, 1.988849e-001
1.820473e+003, 1.991569e-001
1.822401e+003, 1.994980e-001
1.824329e+003, 1.997617e-001
1.826258e+003, 1.998904e-001
1.828186e+003, 1.999116e-001
1.830115e+003, 1.999838e-001
1.832043e+003, 1.999756e-001
1.833972e+003, 2.001476e-001
1.835900e+003, 2.004226e-001
1.837829e+003, 2.008971e-001
1.839757e+003, 2.012239e-001
1.841686e+003, 2.015444e-001
1.843614e+003, 2.018577e-001
1.845543e+003, 2.018560e-001
1.847471e+003, 2.019185e-001
1.849400e+003, 2.022021e-001
1.851328e+003, 2.025346e-001
1.853256e+003, 2.027052e-001
1.855185e+003, 2.029374e-001
1.857113e+003, 2.032405e-001
1.859042e+003, 2.036858e-001
1.860970e+003, 2.044537e-001
1.862899e+003, 2.048395e-001
1.864827e+003, 2.048407e-001
1.866756e+003, 2.047917e-001
1.868684e+003, 2.051637e-001
1.870613e+003, 2.053986e-001
1.872541e+003, 2.055154e-001
1.874470e+003, 2.058048e-001
1.876398e+003, 2.057300e-001
1.878327e+003, 2.055272e-001
1.880255e+003, 2.055892e-001
1.882183e+003, 2.057643e-001
1.884112e+003, 2.059422e-001
1.886040e+003, 2.060385e-001
1.887969e+003, 2.061694e-001
1.889897e+003, 2.063739e-001
1.891826e+003, 2.063271e-001
1.893754e+003, 2.062168e-001
1.895683e+003, 2.059494e-001
1.897611e+003, 2.055004e-001
1.899540e+003, 2.052547e-001
1.901468e+003, 2.049329e-001
1.903397e+003, 2.045795e-001
1.905325e+003, 2.045872e-001
1.907254e+003, 2.050571e-001
1.909182e+003, 2.048555e-001
1.911110e+003, 2.047356e-001
1.913039e+003, 2.049226e-001
1.914967e+003, 2.048950e-001
1.916896e+003, 2.053779e-001
1.918824e+003, 2.062420e-001
1.920753e+003, 2.067505e-001
1.922681e+003, 2.068767e-001
1.924610e+003, 2.066015e-001
1.926538e+003, 2.065969e-001
1.928467e+003, 2.073467e-001
1.930395e+003, 2.080761e-001
1.932324e+003, 2.080011e-001
1.934252e+003, 2.082145e-001
1.936181e+003, 2.092076e-001
1.938109e+003, 2.094288e-001
1.940037e+003, 2.088960e-001
1.941966e+003, 2.092677e-001
1.943894e+003, 2.095036e-001
1.945823e+003, 2.094266e-001
1.947751e+003, 2.105162e-001
1.949680e+003, 2.113173e-001
1.951608e+003, 2.109738e-001
1.953537e+003, 2.108197e-001
1.955465e+003, 2.102266e-001
1.957394e+003, 2.105169e-001
1.959322e+003, 2.120291e-001
1.961251e+003, 2.124784e-001
1.963179e+003, 2.119050e-001
1.965108e+003, 2.114666e-001
1.967036e+003, 2.107409e-001
1.968964e+003, 2.100610e-001
1.970893e+003, 2.103222e-001
1.972821e+003, 2.106578e-001
1.974750e+003, 2.105706e-001
1.976678e+003, 2.102759e-001
1.978607e+003, 2.109907e-001
1.980535e+003, 2.110342e-001
1.982464e+003, 2.100649e-001
1.984392e+003, 2.092289e-001
1.986321e+003, 2.081470e-001
1.988249e+003, 2.069633e-001
1.990178e+003, 2.067251e-001
1.992106e+003, 2.077463e-001
1.994035e+003, 2.071339e-001
1.995963e+003, 2.063179e-001
1.997891e+003, 2.059265e-001
1.999820e+003, 2.048374e-001
2.001748e+003, 2.044843e-001
2.003677e+003, 2.042263e-001
2.005605e+003, 2.032410e-001
2.007534e+003, 2.036822e-001
2.009462e+003, 2.040503e-001
2.011391e+003, 2.037355e-001
2.013319e+003, 2.025857e-001
2.015248e+003, 2.025867e-001
2.017176e+003, 2.030208e-001
2.019105e+003, 2.027999e-001
2.021033e+003, 2.024308e-001
2.022962e+003, 2.019386e-001
2.024890e+003, 2.027317e-001
2.026818e+003, 2.031820e-001
2.028747e+003, 2.026003e-001
2.030675e+003, 2.021690e-001
2.032604e+003, 2.014896e-001
2.034532e+003, 2.014521e-001
2.036461e+003, 2.021343e-001
2.038389e+003, 2.033104e-001
2.040318e+003, 2.031706e-001
2.042246e+003, 2.027225e-001
2.044175e+003, 2.038510e-001
2.046103e+003, 2.043496e-001
2.048031e+003, 2.041691e-001
2.049960e+003, 2.049709e-001
2.051888e+003, 2.054642e-001
2.053817e+003, 2.054009e-001
2.055745e+003, 2.053937e-001
2.057674e+003, 2.058060e-001
2.059602e+003, 2.057319e-001
2.061531e+003, 2.056454e-001
2.063459e+003, 2.055289e-001
2.065388e+003, 2.057102e-001
2.067316e+003, 2.058081e-001
2.069245e+003, 2.063304e-001
2.071173e+003, 2.074129e-001
2.073102e+003, 2.079134e-001
2.075030e+003, 2.075455e-001
2.076958e+003, 2.069090e-001
2.078887e+003, 2.069454e-001
2.080815e+003, 2.077494e-001
2.082744e+003, 2.079585e-001
2.084672e+003, 2.073087e-001
2.086601e+003, 2.076673e-001
2.088529e+003, 2.085464e-001
2.090458e+003, 2.086942e-001
2.092386e+003, 2.086925e-001
2.094315e+003, 2.078737e-001
2.096243e+003, 2.080394e-001
2.098172e+003, 2.091777e-001
2.100100e+003, 2.100982e-001
2.102029e+003, 2.104209e-001
2.103957e+003, 2.109357e-001
2.105885e+003, 2.110059e-001
2.107814e+003, 2.111183e-001
2.109742e+003, 2.115081e-001
2.111671e+003, 2.116062e-001
2.113599e+003, 2.113541e-001
2.115528e+003, 2.116633e-001
2.117456e+003, 2.115136e-001
2.119385e+003, 2.112879e-001
2.121313e+003, 2.114228e-001
2.123242e+003, 2.122077e-001
2.125170e+003, 2.130437e-001
2.127099e+003, 2.121506e-001
2.129027e+003, 2.117484e-001
2.130956e+003, 2.118547e-001
2.132884e+003, 2.121912e-001
2.134813e+003, 2.126572e-001
2.136741e+003, 2.131181e-001
2.138669e+003, 2.132800e-001
2.140598e+003, 2.137413e-001
2.142526e+003, 2.136672e-001
2.144455e+003, 2.136097e-001
2.146383e+003, 2.145158e-001
2.148312e+003, 2.149509e-001
2.150240e+003, 2.144464e-001
2.152169e+003, 2.136168e-001
2.154097e+003, 2.138279e-001
2.156026e+003, 2.139607e-001
2.157954e+003, 2.150509e-001
2.159883e+003, 2.183865e-001
2.161811e+003, 2.187070e-001
2.163740e+003, 2.174731e-001
2.165668e+003, 2.185117e-001
2.167596e+003, 2.200746e-001
2.169525e+003, 2.196221e-001
2.171453e+003, 2.189462e-001
2.173382e+003, 2.193048e-001
2.175310e+003, 2.197562e-001
2.177239e+003, 2.200938e-001
2.179167e+003, 2.210696e-001
2.181096e+003, 2.212305e-001
2.183024e+003, 2.208394e-001
2.184953e+003, 2.207716e-001
2.186881e+003, 2.214335e-001
2.188810e+003, 2.223302e-001
2.190738e+003, 2.226560e-001
2.192667e+003, 2.229574e-001
2.194595e+003, 2.234207e-001
2.196523e+003, 2.241614e-001
2.198452e+003, 2.242402e-001
2.200380e+003, 2.246803e-001
2.202309e+003, 2.247715e-001
2.204237e+003, 2.257811e-001
2.206166e+003, 2.258477e-001
2.208094e+003, 2.256194e-001
2.210023e+003, 2.263695e-001
2.211951e+003, 2.267455e-001
2.213880e+003, 2.267653e-001
2.215808e+003, 2.264175e-001
2.217737e+003, 2.269267e-001
2.219665e+003, 2.277959e-001
2.221594e+003, 2.275525e-001
2.223522e+003, 2.280608e-001
2.225450e+003, 2.286173e-001
2.227379e+003, 2.291030e-001
2.229307e+003, 2.298997e-001
2.231236e+003, 2.302514e-001
2.233164e+003, 2.305541e-001
2.235093e+003, 2.312934e-001
2.237021e+003, 2.312523e-001
2.238950e+003, 2.316968e-001
2.240878e+003, 2.320163e-001
2.242807e+003, 2.315258e-001
2.244735e+003, 2.313846e-001
2.246664e+003, 2.319836e-001
2.248592e+003, 2.331769e-001
2.250521e+003, 2.334559e-001
2.252449e+003, 2.331565e-001
2.254377e+003, 2.342642e-001
2.256306e+003, 2.346577e-001
2.258234e+003, 2.339148e-001
2.260163e+003, 2.337499e-001
2.262091e+003, 2.344141e-001
2.264020e+003, 2.351661e-001
2.265948e+003, 2.357916e-001
2.267877e+003, 2.361707e-001
2.269805e+003, 2.366400e-001
2.271734e+003, 2.372987e-001
2.273662e+003, 2.377434e-001
2.275591e+003, 2.381116e-001
2.277519e+003, 2.381770e-001
2.279448e+003, 2.382002e-001
2.281376e+003, 2.384982e-001
2.283304e+003, 2.388336e-001
2.285233e+003, 2.392787e-001
2.287161e+003, 2.397982e-001
2.289090e+003, 2.399632e-001
2.291018e+003, 2.406072e-001
2.292947e+003, 2.408277e-001
2.294875e+003, 2.408283e-001
2.296804e+003, 2.413307e-001
2.298732e+003, 2.420057e-001
2.300661e+003, 2.424811e-001
2.302589e+003, 2.429249e-001
2.304518e+003, 2.432180e-001
2.306446e+003, 2.430615e-001
2.308375e+003, 2.437521e-001
2.310303e+003, 2.443275e-001
2.312231e+003, 2.445199e-001
2.314160e+003, 2.451799e-001
2.316088e+003, 2.456364e-001
2.318017e+003, 2.459648e-001
2.319945e+003, 2.465870e-001
2.321874e+003, 2.477429e-001
2.323802e+003, 2.485690e-001
2.325731e+003, 2.484040e-001
2.327659e+003, 2.485417e-001
2.329588e+003, 2.492043e-001
2.331516e+003, 2.496011e-001
2.333445e+003, 2.499749e-001
2.335373e+003, 2.504635e-001
2.337302e+003, 2.508441e-001
2.339230e+003, 2.512814e-001
2.341158e+003, 2.513711e-001
2.343087e+003, 2.515444e-001
2.345015e+003, 2.513485e-001
2.346944e+003, 2.510125e-001
2.348872e+003, 2.507792e-001
2.350801e+003, 2.512179e-001
2.352729e+003, 2.518181e-001
2.354658e+003, 2.522681e-001
2.356586e+003, 2.525777e-001
2.358515e+003, 2.533170e-001
2.360443e+003, 2.542098e-001
2.362372e+003, 2.544232e-001
2.364300e+003, 2.541772e-001
2.366229e+003, 2.542703e-001
2.368157e+003, 2.546745e-001
2.370085e+003, 2.548067e-001
2.372014e+003, 2.549652e-001
2.373942e+003, 2.551511e-001
2.375871e+003, 2.553095e-001
2.377799e+003, 2.556051e-001
2.379728e+003, 2.562130e-001
2.381656e+003, 2.568634e-001
2.383585e+003, 2.566541e-001
2.385513e+003, 2.563197e-001
2.387442e+003, 2.567416e-001
2.389370e+003, 2.575256e-001
2.391299e+003, 2.580356e-001
2.393227e+003, 2.583994e-001
2.395156e+003, 2.584310e-001
2.397084e+003, 2.585561e-001
2.399012e+003, 2.589904e-001
2.400941e+003, 2.593369e-001
2.402869e+003, 2.591303e-001
2.404798e+003, 2.593997e-001
2.406726e+003, 2.604434e-001
2.408655e+003, 2.613086e-001
2.410583e+003, 2.619238e-001
2.412512e+003, 2.622204e-001
2.414440e+003, 2.623101e-001
2.416369e+003, 2.625081e-001
2.418297e+003, 2.626847e-001
2.420226e+003, 2.631949e-001
2.422154e+003, 2.635684e-001
2.424083e+003, 2.635978e-001
2.426011e+003, 2.637872e-001
2.427939e+003, 2.643423e-001
2.429868e+003, 2.647573e-001
2.431796e+003, 2.648749e-001
2.433725e+003, 2.652390e-001
2.435653e+003, 2.662332e-001
2.437582e+003, 2.671864e-001
2.439510e+003, 2.673292e-001
2.441439e+003, 2.672172e-001
2.443367e+003, 2.673611e-001
2.445296e+003, 2.680686e-001
2.447224e+003, 2.687317e-001
2.449153e+003, 2.691126e-001
2.451081e+003, 2.692656e-001
2.453010e+003, 2.693615e-001
2.454938e+003, 2.700182e-001
2.456866e+003, 2.705279e-001
2.458795e+003, 2.704496e-001
2.460723e+003, 2.705017e-001
2.462652e+003, 2.711232e-001
2.464580e+003, 2.714554e-001
2.466509e+003, 2.721158e-001
2.468437e+003, 2.726078e-001
2.470366e+003, 2.730798e-001
2.472294e+003, 2.734147e-001
2.474223e+003, 2.733966e-001
2.476151e+003, 2.739464e-001
2.478080e+003, 2.745719e-001
2.480008e+003, 2.753270e-001
2.481937e+003, 2.754950e-001
2.483865e+003, 2.754943e-001
2.485793e+003, 2.756528e-001
2.487722e+003, 2.759922e-001
2.489650e+003, 2.767749e-001
2.491579e+003, 2.776056e-001
2.493507e+003, 2.780648e-001
2.495436e+003, 2.782921e-001
2.497364e+003, 2.783875e-001
2.499293e+003, 2.783560e-001
2.501221e+003, 2.787002e-001
2.503150e+003, 2.796229e-001
2.505078e+003, 2.802536e-001
2.507007e+003, 2.802070e-001
2.508935e+003, 2.804574e-001
2.510864e+003, 2.808632e-001
2.512792e+003, 2.816722e-001
2.514720e+003, 2.824173e-001
2.516649e+003, 2.824143e-001
2.518577e+003, 2.825529e-001
2.520506e+003, 2.833829e-001
2.522434e+003, 2.838937e-001
2.524363e+003, 2.842976e-001
2.526291e+003, 2.849616e-001
2.528220e+003, 2.854358e-001
2.530148e+003, 2.853868e-001
2.532077e+003, 2.853655e-001
2.534005e+003, 2.862420e-001
2.535934e+003, 2.870733e-001
2.537862e+003, 2.877022e-001
2.539791e+003, 2.880090e-001
2.541719e+003, 2.883192e-001
2.543647e+003, 2.886167e-001
2.545576e+003, 2.890571e-001
2.547504e+003, 2.896197e-001
2.549433e+003, 2.903417e-001
2.551361e+003, 2.909422e-001
2.553290e+003, 2.912447e-001
2.555218e+003, 2.918072e-001
2.557147e+003, 2.922186e-001
2.559075e+003, 2.924752e-001
2.561004e+003, 2.926592e-001
2.562932e+003, 2.932000e-001
2.564861e+003, 2.941349e-001
2.566789e+003, 2.944976e-001
2.568718e+003, 2.944581e-001
2.570646e+003, 2.951706e-001
2.572574e+003, 2.956767e-001
2.574503e+003, 2.960865e-001
2.576431e+003, 2.964671e-001
2.578360e+003, 2.970103e-001
2.580288e+003, 2.974081e-001
2.582217e+003, 2.981698e-001
2.584145e+003, 2.983600e-001
2.586074e+003, 2.984592e-001
2.588002e+003, 2.990907e-001
2.589931e+003, 2.998272e-001
2.591859e+003, 3.004090e-001
2.593788e+003, 3.010395e-001
2.595716e+003, 3.012263e-001
2.597645e+003, 3.016357e-001
2.599573e+003, 3.021156e-001
2.601501e+003, 3.024686e-001
2.603430e+003, 3.031515e-001
2.605358e+003, 3.040865e-001
2.607287e+003, 3.044583e-001
2.609215e+003, 3.043382e-001
2.611144e+003, 3.050551e-001
2.613072e+003, 3.059085e-001
2.615001e+003, 3.062994e-001
2.616929e+003, 3.065924e-001
2.618858e+003, 3.069695e-001
2.620786e+003, 3.073418e-001
2.622715e+003, 3.082543e-001
2.624643e+003, 3.086959e-001
2.626572e+003, 3.087802e-001
2.628500e+003, 3.093051e-001
2.630428e+003, 3.097466e-001
2.632357e+003, 3.103318e-001
2.634285e+003, 3.109263e-001
2.636214e+003, 3.114976e-001
2.638142e+003, 3.120416e-001
2.640071e+003, 3.123915e-001
2.641999e+003, 3.129102e-001
2.643928e+003, 3.136530e-001
2.645856e+003, 3.139217e-001
2.647785e+003, 3.142081e-001
2.649713e+003, 3.147426e-001
2.651642e+003, 3.153206e-001
2.653570e+003, 3.159435e-001
2.655499e+003, 3.163911e-001
2.657427e+003, 3.167760e-001
2.659355e+003, 3.171518e-001
2.661284e+003, 3.172412e-001
2.663212e+003, 3.175110e-001
2.665141e+003, 3.180504e-001
2.667069e+003, 3.184200e-001
2.668998e+003, 3.187177e-001
2.670926e+003, 3.189192e-001
2.672855e+003, 3.191026e-001
2.674783e+003, 3.193247e-001
2.676712e+003, 3.199891e-001
2.678640e+003, 3.202996e-001
2.680569e+003, 3.203988e-001
2.682497e+003, 3.210074e-001
2.684426e+003, 3.214541e-001
2.686354e+003, 3.221292e-001
2.688282e+003, 3.226503e-001
2.690211e+003, 3.230120e-001
2.692139e+003, 3.233961e-001
2.694068e+003, 3.234810e-001
2.695996e+003, 3.238069e-001
2.697925e+003, 3.242486e-001
2.699853e+003, 3.245472e-001
2.701782e+003, 3.252246e-001
2.703710e+003, 3.258006e-001
2.705639e+003, 3.260783e-001
2.707567e+003, 3.261265e-001
2.709496e+003, 3.267532e-001
2.711424e+003, 3.276404e-001
2.713353e+003, 3.278733e-001
2.715281e+003, 3.278156e-001
2.717209e+003, 3.280624e-001
2.719138e+003, 3.284567e-001
2.721066e+003, 3.286895e-001
2.722995e+003, 3.288721e-001
2.724923e+003, 3.292967e-001
2.726852e+003, 3.297946e-001
2.728780e+003, 3.300530e-001
2.730709e+003, 3.302233e-001
2.732637e+003, 3.304954e-001
2.734566e+003, 3.308291e-001
2.736494e+003, 3.312133e-001
2.738423e+003, 3.315840e-001
2.740351e+003, 3.320459e-001
2.742280e+003, 3.322316e-001
2.744208e+003, 3.323540e-001
2.746136e+003, 3.327459e-001
2.748065e+003, 3.328184e-001
2.749993e+003, 3.330256e-001
2.751922e+003, 3.334454e-001
2.753850e+003, 3.336957e-001
2.755779e+003, 3.339284e-001
2.757707e+003, 3.341239e-001
2.759636e+003, 3.342073e-001
2.761564e+003, 3.343465e-001
2.763493e+003, 3.349716e-001
2.765421e+003, 3.351380e-001
2.767350e+003, 3.352204e-001
2.769278e+003, 3.357425e-001
2.771207e+003, 3.356914e-001
2.773135e+003, 3.353285e-001
2.775063e+003, 3.356630e-001
2.776992e+003, 3.360518e-001
2.778920e+003, 3.363896e-001
2.780849e+003, 3.365497e-001
2.782777e+003, 3.365386e-001
2.784706e+003, 3.370263e-001
2.786634e+003, 3.374345e-001
2.788563e+003, 3.374065e-001
2.790491e+003, 3.371758e-001
2.792420e+003, 3.371488e-001
2.794348e+003, 3.373405e-001
2.796277e+003, 3.377797e-001
2.798205e+003, 3.382205e-001
2.800134e+003, 3.382254e-001
2.802062e+003, 3.378814e-001
2.803990e+003, 3.379737e-001
2.805919e+003, 3.381329e-001
2.807847e+003, 3.384287e-001
2.809776e+003, 3.385006e-001
2.811704e+003, 3.385953e-001
2.813633e+003, 3.383878e-001
2.815561e+003, 3.383103e-001
2.817490e+003, 3.388927e-001
2.819418e+003, 3.389176e-001
2.821347e+003, 3.383555e-001
2.823275e+003, 3.379939e-001
2.825204e+003, 3.381145e-001
2.827132e+003, 3.381654e-001
2.829061e+003, 3.380806e-001
2.830989e+003, 3.379687e-001
2.832917e+003, 3.383148e-001
2.834846e+003, 3.381988e-001
2.836774e+003, 3.379794e-001
2.838703e+003, 3.378571e-001
2.840631e+003, 3.376676e-001
2.842560e+003, 3.377062e-001
2.844488e+003, 3.376057e-001
2.846417e+003, 3.370952e-001
2.848345e+003, 3.364804e-001
2.850274e+003, 3.360971e-001
2.852202e+003, 3.358490e-001
2.854131e+003, 3.358791e-001
2.856059e+003, 3.360048e-001
2.857988e+003, 3.357259e-001
2.859916e+003, 3.355089e-001
2.861844e+003, 3.353789e-001
2.863773e+003, 3.352670e-001
2.865701e+003, 3.351886e-001
2.867630e+003, 3.350338e-001
2.869558e+003, 3.354535e-001
2.871487e+003, 3.354275e-001
2.873415e+003, 3.351311e-001
2.875344e+003, 3.350202e-001
2.877272e+003, 3.345299e-001
2.879201e+003, 3.340157e-001
2.881129e+003, 3.337256e-001
2.883058e+003, 3.336961e-001
2.884986e+003, 3.339315e-001
2.886915e+003, 3.337079e-001
2.888843e+003, 3.335121e-001
2.890771e+003, 3.336252e-001
2.892700e+003, 3.331543e-001
2.894628e+003, 3.327115e-001
2.896557e+003, 3.324768e-001
2.898485e+003, 3.323828e-001
2.900414e+003, 3.324161e-001
2.902342e+003, 3.327968e-001
2.904271e+003, 3.327595e-001
2.906199e+003, 3.323788e-001
2.908128e+003, 3.322228e-001
2.910056e+003, 3.319322e-001
2.911985e+003, 3.316197e-001
2.913913e+003, 3.310887e-001
2.915842e+003, 3.302475e-001
2.917770e+003, 3.299960e-001
2.919698e+003, 3.300585e-001
2.921627e+003, 3.299809e-001
2.923555e+003, 3.297373e-001
2.925484e+003, 3.292589e-001
2.927412e+003, 3.296832e-001
2.929341e+003, 3.302189e-001
2.931269e+003, 3.299915e-001
2.933198e+003, 3.294832e-001
2.935126e+003, 3.295866e-001
2.937055e+003, 3.292454e-001
2.938983e+003, 3.288043e-001
2.940912e+003, 3.290261e-001
2.942840e+003, 3.289476e-001
2.944769e+003, 3.284554e-001
2.946697e+003, 3.281750e-001
2.948625e+003, 3.283112e-001
2.950554e+003, 3.284661e-001
2.952482e+003, 3.284386e-001
2.954411e+003, 3.288956e-001
2.956339e+003, 3.288722e-001
2.958268e+003, 3.282258e-001
2.960196e+003, 3.281397e-001
2.962125e+003, 3.280664e-001
2.964053e+003, 3.278140e-001
2.965982e+003, 3.273226e-001
2.967910e+003, 3.267967e-001
2.969839e+003, 3.266114e-001
2.971767e+003, 3.270255e-001
2.973696e+003, 3.274607e-001
2.975624e+003, 3.273665e-001
2.977552e+003, 3.266759e-001
2.979481e+003, 3.265727e-001
2.981409e+003, 3.266522e-001
2.983338e+003, 3.261713e-001
2.985266e+003, 3.257533e-001
2.987195e+003, 3.257545e-001
2.989123e+003, 3.254739e-001
2.991052e+003, 3.255475e-001
2.992980e+003, 3.257590e-001
2.994909e+003, 3.258072e-001
2.996837e+003, 3.254940e-001
2.998766e+003, 3.249788e-001
3.000694e+003, 3.251709e-001
3.002623e+003, 3.254010e-001
3.004551e+003, 3.252329e-001
3.006479e+003, 3.250523e-001
3.008408e+003, 3.245160e-001
3.010336e+003, 3.242685e-001
3.012265e+003, 3.237526e-001
3.014193e+003, 3.228034e-001
3.016122e+003, 3.216622e-001
3.018050e+003, 3.219303e-001
3.019979e+003, 3.237480e-001
3.021907e+003, 3.243113e-001
3.023836e+003, 3.235230e-001
3.025764e+003, 3.231064e-001
3.027693e+003, 3.234997e-001
3.029621e+003, 3.238349e-001
3.031550e+003, 3.238082e-001
3.033478e+003, 3.235913e-001
3.035406e+003, 3.231819e-001
3.037335e+003, 3.225831e-001
3.039263e+003, 3.224265e-001
3.041192e+003, 3.224173e-001
3.043120e+003, 3.218745e-001
3.045049e+003, 3.216650e-001
3.046977e+003, 3.217266e-001
3.048906e+003, 3.216790e-001
3.050834e+003, 3.215468e-001
3.052763e+003, 3.214692e-001
3.054691e+003, 3.212948e-001
3.056620e+003, 3.207808e-001
3.058548e+003, 3.208590e-001
3.060477e+003, 3.213299e-001
3.062405e+003, 3.208381e-001
3.064333e+003, 3.198346e-001
3.066262e+003, 3.191433e-001
3.068190e+003, 3.194152e-001
3.070119e+003, 3.200497e-001
3.072047e+003, 3.197354e-001
3.073976e+003, 3.191363e-001
3.075904e+003, 3.183695e-001
3.077833e+003, 3.180765e-001
3.079761e+003, 3.181738e-001
3.081690e+003, 3.179182e-001
3.083618e+003, 3.173130e-001
3.085547e+003, 3.165005e-001
3.087475e+003, 3.166015e-001
3.089404e+003, 3.165128e-001
3.091332e+003, 3.157695e-001
3.093260e+003, 3.154252e-001
3.095189e+003, 3.151841e-001
3.097117e+003, 3.154873e-001
3.099046e+003, 3.154970e-001
3.100974e+003, 3.142829e-001
3.102903e+003, 3.130213e-001
3.104831e+003, 3.123094e-001
3.106760e+003, 3.124870e-001
3.108688e+003, 3.125194e-001
3.110617e+003, 3.123425e-001
3.112545e+003, 3.114903e-001
3.114474e+003, 3.112695e-001
3.116402e+003, 3.112468e-001
3.118331e+003, 3.105903e-001
3.120259e+003, 3.099266e-001
3.122188e+003, 3.092413e-001
3.124116e+003, 3.089429e-001
3.126044e+003, 3.088995e-001
3.127973e+003, 3.082128e-001
3.129901e+003, 3.074439e-001
3.131830e+003, 3.068854e-001
3.133758e+003, 3.058896e-001
3.135687e+003, 3.053529e-001
3.137615e+003, 3.051000e-001
3.139544e+003, 3.044074e-001
3.141472e+003, 3.035493e-001
3.143401e+003, 3.025091e-001
3.145329e+003, 3.014737e-001
3.147258e+003, 3.010027e-001
3.149186e+003, 3.008427e-001
3.151115e+003, 3.000795e-001
3.153043e+003, 2.992971e-001
3.154971e+003, 2.984451e-001
3.156900e+003, 2.981345e-001
3.158828e+003, 2.978541e-001
3.160757e+003, 2.969207e-001
3.162685e+003, 2.956125e-001
3.164614e+003, 2.950046e-001
3.166542e+003, 2.945599e-001
3.168471e+003, 2.933525e-001
3.170399e+003, 2.920617e-001
3.172328e+003, 2.911183e-001
3.174256e+003, 2.908183e-001
3.176185e+003, 2.903922e-001
3.178113e+003, 2.891843e-001
3.180042e+003, 2.883505e-001
3.181970e+003, 2.872571e-001
3.183898e+003, 2.862780e-001
3.185827e+003, 2.859907e-001
3.187755e+003, 2.855869e-001
3.189684e+003, 2.845768e-001
3.191612e+003, 2.835085e-001
3.193541e+003, 2.824014e-001
3.195469e+003, 2.815153e-001
3.197398e+003, 2.809936e-001
3.199326e+003, 2.799518e-001
3.201255e+003, 2.786171e-001
3.203183e+003, 2.774600e-001
3.205112e+003, 2.768808e-001
3.207040e+003, 2.760623e-001
3.208969e+003, 2.751684e-001
3.210897e+003, 2.741450e-001
3.212825e+003, 2.727274e-001
3.214754e+003, 2.721219e-001
3.216682e+003, 2.713127e-001
3.218611e+003, 2.698626e-001
3.220539e+003, 2.690634e-001
3.222468e+003, 2.680091e-001
3.224396e+003, 2.671338e-001
3.226325e+003, 2.664160e-001
3.228253e+003, 2.653673e-001
3.230182e+003, 2.645849e-001
3.232110e+003, 2.639728e-001
3.234039e+003, 2.625296e-001
3.235967e+003, 2.613249e-001
3.237896e+003, 2.605244e-001
3.239824e+003, 2.590139e-001
3.241752e+003, 2.581090e-001
3.243681e+003, 2.577813e-001
3.245609e+003, 2.571965e-001
3.247538e+003, 2.559163e-001
3.249466e+003, 2.553632e-001
3.251395e+003, 2.552542e-001
3.253323e+003, 2.545490e-001
3.255252e+003, 2.528457e-001
3.257180e+003, 2.517973e-001
3.259109e+003, 2.513239e-001
3.261037e+003, 2.505015e-001
3.262966e+003, 2.498980e-001
3.264894e+003, 2.490488e-001
3.266823e+003, 2.483050e-001
3.268751e+003, 2.474550e-001
3.270679e+003, 2.466425e-001
3.272608e+003, 2.463117e-001
3.274536e+003, 2.461264e-001
3.276465e+003, 2.457155e-001
3.278393e+003, 2.444616e-001
3.280322e+003, 2.434957e-001
3.282250e+003, 2.430865e-001
3.284179e+003, 2.420701e-001
3.286107e+003, 2.414499e-001
3.288036e+003, 2.414043e-001
3.289964e+003, 2.409470e-001
3.291893e+003, 2.407948e-001
3.293821e+003, 2.406626e-001
3.295750e+003, 2.400618e-001
3.297678e+003, 2.393701e-001
3.299606e+003, 2.393192e-001
3.301535e+003, 2.389124e-001
3.303463e+003, 2.380783e-001
3.305392e+003, 2.372865e-001
3.307320e+003, 2.364554e-001
3.309249e+003, 2.362162e-001
3.311177e+003, 2.362718e-001
3.313106e+003, 2.358091e-001
3.315034e+003, 2.351587e-001
3.316963e+003, 2.350327e-001
3.318891e+003, 2.350914e-001
3.320820e+003, 2.345134e-001
3.322748e+003, 2.337002e-001
3.324677e+003, 2.331973e-001
3.326605e+003, 2.330833e-001
3.328533e+003, 2.330145e-001
3.330462e+003, 2.329245e-001
3.332390e+003, 2.330332e-001
3.334319e+003, 2.330789e-001
3.336247e+003, 2.326590e-001
3.338176e+003, 2.320521e-001
3.340104e+003, 2.318503e-001
3.342033e+003, 2.319928e-001
3.343961e+003, 2.316708e-001
3.345890e+003, 2.309048e-001
3.347818e+003, 2.299498e-001
3.349747e+003, 2.295740e-001
3.351675e+003, 2.295947e-001
3.353604e+003, 2.296891e-001
3.355532e+003, 2.291297e-001
3.357460e+003, 2.287157e-001
3.359389e+003, 2.288579e-001
3.361317e+003, 2.288879e-001
3.363246e+003, 2.283527e-001
3.365174e+003, 2.279468e-001
3.367103e+003, 2.279615e-001
3.369031e+003, 2.282887e-001
3.370960e+003, 2.280596e-001
3.372888e+003, 2.277341e-001
3.374817e+003, 2.271125e-001
3.376745e+003, 2.269685e-001
3.378674e+003, 2.275319e-001
3.380602e+003, 2.274192e-001
3.382531e+003, 2.272785e-001
3.384459e+003, 2.271492e-001
3.386387e+003, 2.268577e-001
3.388316e+003, 2.264189e-001
3.390244e+003, 2.262746e-001
3.392173e+003, 2.262205e-001
3.394101e+003, 2.261454e-001
3.396030e+003, 2.258194e-001
3.397958e+003, 2.248155e-001
3.399887e+003, 2.239388e-001
3.401815e+003, 2.235164e-001
3.403744e+003, 2.233657e-001
3.405672e+003, 2.233963e-001
3.407601e+003, 2.237691e-001
3.409529e+003, 2.234679e-001
3.411458e+003, 2.228146e-001
3.413386e+003, 2.228921e-001
3.415314e+003, 2.228801e-001
3.417243e+003, 2.229870e-001
3.419171e+003, 2.228768e-001
3.421100e+003, 2.225454e-001
3.423028e+003, 2.221776e-001
3.424957e+003, 2.218498e-001
3.426885e+003, 2.216775e-001
3.428814e+003, 2.220238e-001
3.430742e+003, 2.221551e-001
3.432671e+003, 2.222197e-001
3.434599e+003, 2.225048e-001
3.436528e+003, 2.228686e-001
3.438456e+003, 2.219061e-001
3.440385e+003, 2.207481e-001
3.442313e+003, 2.207696e-001
3.444241e+003, 2.206546e-001
3.446170e+003, 2.209225e-001
3.448098e+003, 2.214997e-001
3.450027e+003, 2.216832e-001
3.451955e+003, 2.212863e-001
3.453884e+003, 2.208925e-001
3.455812e+003, 2.211534e-001
3.457741e+003, 2.208205e-001
3.459669e+003, 2.203849e-001
3.461598e+003, 2.197913e-001
3.463526e+003, 2.191360e-001
3.465455e+003, 2.197841e-001
3.467383e+003, 2.198834e-001
3.469312e+003, 2.196966e-001
3.471240e+003, 2.201234e-001
3.473168e+003, 2.200414e-001
3.475097e+003, 2.198506e-001
3.477025e+003, 2.200364e-001
3.478954e+003, 2.197238e-001
3.480882e+003, 2.195046e-001
3.482811e+003, 2.195664e-001
3.484739e+003, 2.197261e-001
3.486668e+003, 2.197002e-001
3.488596e+003, 2.195541e-001
3.490525e+003, 2.199887e-001
3.492453e+003, 2.200391e-001
3.494382e+003, 2.192937e-001
3.496310e+003, 2.192382e-001
3.498239e+003, 2.192269e-001
3.500167e+003, 2.184291e-001
3.502095e+003, 2.182567e-001
3.504024e+003, 2.192226e-001
3.505952e+003, 2.197994e-001
3.507881e+003, 2.190299e-001
3.509809e+003, 2.182418e-001
3.511738e+003, 2.174238e-001
3.513666e+003, 2.179323e-001
3.515595e+003, 2.185900e-001
3.517523e+003, 2.183412e-001
3.519452e+003, 2.181078e-001
3.521380e+003, 2.181889e-001
3.523309e+003, 2.180640e-001
3.525237e+003, 2.188645e-001
3.527166e+003, 2.195287e-001
3.529094e+003, 2.190689e-001
3.531022e+003, 2.188835e-001
3.532951e+003, 2.187731e-001
3.534879e+003, 2.183016e-001
3.536808e+003, 2.178060e-001
3.538736e+003, 2.176245e-001
3.540665e+003, 2.172163e-001
3.542593e+003, 2.169073e-001
3.544522e+003, 2.173055e-001
3.546450e+003, 2.174532e-001
3.548379e+003, 2.175945e-001
3.550307e+003, 2.175393e-001
3.552236e+003, 2.177414e-001
3.554164e+003, 2.173571e-001
3.556093e+003, 2.169596e-001
3.558021e+003, 2.173482e-001
3.559949e+003, 2.170773e-001
3.561878e+003, 2.166329e-001
3.563806e+003, 2.166134e-001
3.565735e+003, 2.168595e-001
3.567663e+003, 2.172236e-001
3.569592e+003, 2.168501e-001
3.571520e+003, 2.166578e-001
3.573449e+003, 2.168145e-001
3.575377e+003, 2.169778e-001
3.577306e+003, 2.165798e-001
3.579234e+003, 2.160115e-001
3.581163e+003, 2.160706e-001
3.583091e+003, 2.167923e-001
3.585020e+003, 2.173667e-001
3.586948e+003, 2.175478e-001
3.588876e+003, 2.170034e-001
3.590805e+003, 2.161390e-001
3.592733e+003, 2.175618e-001
3.594662e+003, 2.184864e-001
3.596590e+003, 2.176012e-001
3.598519e+003, 2.170140e-001
3.600447e+003, 2.175364e-001
3.602376e+003, 2.183573e-001
3.604304e+003, 2.182937e-001
3.606233e+003, 2.181033e-001
3.608161e+003, 2.179792e-001
3.610090e+003, 2.177910e-001
3.612018e+003, 2.179419e-001
3.613947e+003, 2.185956e-001
3.615875e+003, 2.195011e-001
3.617803e+003, 2.197347e-001
3.619732e+003, 2.199910e-001
3.621660e+003, 2.192509e-001
3.623589e+003, 2.191236e-001
3.625517e+003, 2.203565e-001
3.627446e+003, 2.211290e-001
3.629374e+003, 2.203136e-001
3.631303e+003, 2.191894e-001
3.633231e+003, 2.195514e-001
3.635160e+003, 2.204151e-001
3.637088e+003, 2.214863e-001
3.639017e+003, 2.209250e-001
3.640945e+003, 2.200070e-001
3.642874e+003, 2.208631e-001
3.644802e+003, 2.216972e-001
3.646730e+003, 2.221667e-001
3.648659e+003, 2.227775e-001
3.650587e+003, 2.227825e-001
3.652516e+003, 2.222476e-001
3.654444e+003, 2.229180e-001
3.656373e+003, 2.234730e-001
3.658301e+003, 2.230248e-001
3.660230e+003, 2.229061e-001
3.662158e+003, 2.227064e-001
3.664087e+003, 2.230536e-001
3.666015e+003, 2.243010e-001
3.667944e+003, 2.250802e-001
3.669872e+003, 2.257118e-001
3.671801e+003, 2.252730e-001
3.673729e+003, 2.261114e-001
3.675657e+003, 2.276136e-001
3.677586e+003, 2.257831e-001
3.679514e+003, 2.243557e-001
3.681443e+003, 2.243914e-001
3.683371e+003, 2.251056e-001
3.685300e+003, 2.259109e-001
3.687228e+003, 2.273459e-001
3.689157e+003, 2.280278e-001
3.691085e+003, 2.273702e-001
3.693014e+003, 2.272013e-001
3.694942e+003, 2.272922e-001
3.696871e+003, 2.269108e-001
3.698799e+003, 2.273486e-001
3.700728e+003, 2.284900e-001
3.702656e+003, 2.286704e-001
3.704584e+003, 2.280404e-001
3.706513e+003, 2.286077e-001
3.708441e+003, 2.296200e-001
3.710370e+003, 2.304576e-001
3.712298e+003, 2.310596e-001
3.714227e+003, 2.312171e-001
3.716155e+003, 2.310363e-001
3.718084e+003, 2.306152e-001
3.720012e+003, 2.306502e-001
3.721941e+003, 2.311166e-001
3.723869e+003, 2.316239e-001
3.725798e+003, 2.313633e-001
3.727726e+003, 2.307728e-001
3.729655e+003, 2.316568e-001
3.731583e+003, 2.330514e-001
3.733511e+003, 2.339161e-001
3.735440e+003, 2.342440e-001
3.737368e+003, 2.337116e-001
3.739297e+003, 2.329246e-001
3.741225e+003, 2.336639e-001
3.743154e+003, 2.360418e-001
3.745082e+003, 2.360775e-001
3.747011e+003, 2.348306e-001
3.748939e+003, 2.367823e-001
3.750868e+003, 2.373041e-001
3.752796e+003, 2.365948e-001
3.754725e+003, 2.353671e-001
3.756653e+003, 2.352799e-001
3.758582e+003, 2.361303e-001
3.760510e+003, 2.369192e-001
3.762438e+003, 2.371105e-001
3.764367e+003, 2.375041e-001
3.766295e+003, 2.368065e-001
3.768224e+003, 2.368442e-001
3.770152e+003, 2.376893e-001
3.772081e+003, 2.374392e-001
3.774009e+003, 2.369473e-001
3.775938e+003, 2.368604e-001
3.777866e+003, 2.376979e-001
3.779795e+003, 2.384330e-001
3.781723e+003, 2.383637e-001
3.783652e+003, 2.389512e-001
3.785580e+003, 2.395849e-001
3.787509e+003, 2.396359e-001
3.789437e+003, 2.394402e-001
3.791365e+003, 2.393224e-001
3.793294e+003, 2.399229e-001
3.795222e+003, 2.408024e-001
3.797151e+003, 2.412662e-001
3.799079e+003, 2.421028e-001
3.801008e+003, 2.424129e-001
3.802936e+003, 2.407863e-001
3.804865e+003, 2.404245e-001
3.806793e+003, 2.421000e-001
3.808722e+003, 2.422043e-001
3.810650e+003, 2.423501e-001
3.812579e+003, 2.424274e-001
3.814507e+003, 2.430863e-001
3.816436e+003, 2.438163e-001
3.818364e+003, 2.432389e-001
3.820292e+003, 2.441307e-001
3.822221e+003, 2.442691e-001
3.824149e+003, 2.433772e-001
3.826078e+003, 2.436376e-001
3.828006e+003, 2.440426e-001
3.829935e+003, 2.442428e-001
3.831863e+003, 2.445216e-001
3.833792e+003, 2.443116e-001
3.835720e+003, 2.450842e-001
3.837649e+003, 2.465775e-001
3.839577e+003, 2.464292e-001
3.841506e+003, 2.456951e-001
3.843434e+003, 2.453883e-001
3.845363e+003, 2.454305e-001
3.847291e+003, 2.461842e-001
3.849219e+003, 2.468768e-001
3.851148e+003, 2.472541e-001
3.853076e+003, 2.493062e-001
3.855005e+003, 2.484080e-001
3.856933e+003, 2.465535e-001
3.858862e+003, 2.474100e-001
3.860790e+003, 2.478482e-001
3.862719e+003, 2.483540e-001
3.864647e+003, 2.497395e-001
3.866576e+003, 2.496296e-001
3.868504e+003, 2.495184e-001
3.870433e+003, 2.499703e-001
3.872361e+003, 2.502451e-001
3.874290e+003, 2.501234e-001
3.876218e+003, 2.490799e-001
3.878146e+003, 2.492920e-001
3.880075e+003, 2.494984e-001
3.882003e+003, 2.503670e-001
3.883932e+003, 2.518852e-001
3.885860e+003, 2.514257e-001
3.887789e+003, 2.504820e-001
3.889717e+003, 2.517890e-001
3.891646e+003, 2.519408e-001
3.893574e+003, 2.510438e-001
3.895503e+003, 2.514777e-001
3.897431e+003, 2.517800e-001
3.899360e+003, 2.522113e-001
3.901288e+003, 2.530009e-001
3.903217e+003, 2.531292e-001
3.905145e+003, 2.527579e-001
3.907073e+003, 2.519110e-001
3.909002e+003, 2.522587e-001
3.910930e+003, 2.528643e-001
3.912859e+003, 2.526497e-001
3.914787e+003, 2.534390e-001
3.916716e+003, 2.539366e-001
3.918644e+003, 2.543638e-001
3.920573e+003, 2.539354e-001
3.922501e+003, 2.540405e-001
3.924430e+003, 2.543386e-001
3.926358e+003, 2.538364e-001
3.928287e+003, 2.540712e-001
3.930215e+003, 2.548270e-001
3.932144e+003, 2.551850e-001
3.934072e+003, 2.551945e-001
3.936000e+003, 2.551274e-001
3.937929e+003, 2.545896e-001
3.939857e+003, 2.546868e-001
3.941786e+003, 2.562013e-001
3.943714e+003, 2.567512e-001
3.945643e+003, 2.567756e-001
3.947571e+003, 2.566531e-001
3.949500e+003, 2.560996e-001
3.951428e+003, 2.559727e-001
3.953357e+003, 2.558394e-001
3.955285e+003, 2.560037e-001
3.957214e+003, 2.571669e-001
3.959142e+003, 2.572855e-001
3.961071e+003, 2.573510e-001
3.962999e+003, 2.574192e-001
3.964927e+003, 2.565081e-001
3.966856e+003, 2.573507e-001
3.968784e+003, 2.590667e-001
3.970713e+003, 2.589048e-001
3.972641e+003, 2.576653e-001
3.974570e+003, 2.570014e-001
3.976498e+003, 2.573842e-001
3.978427e+003, 2.583655e-001
3.980355e+003, 2.585656e-001
3.982284e+003, 2.580342e-001
3.984212e+003, 2.580553e-001
3.986141e+003, 2.592002e-001
3.988069e+003, 2.598776e-001
3.989998e+003, 2.590955e-001
3.991926e+003, 2.591298e-001
3.993854e+003, 2.597973e-001
3.995783e+003, 2.608360e-001
3.997711e+003, 2.610258e-001
3.999640e+003, 2.608919e-001
##END=



