##NAMES=Liebigite
##RRUFFID=R050662
##IDEAL CHEMISTRY=Ca_2_(U^6+^O_2_)(CO_3_)_3_&#183;11H_2_O
##LOCALITY=Schwartzwaelder mine, Jefferson County, Colorado, USA
##OWNER=RRUFF
##SOURCE=University of Arizona Mineral Museum
##DESCRIPTION=Yellowish-green flaky aggregate
##STATUS=The identification of this mineral has been confirmed by X-ray diffraction and chemical analysis
##URL=rruff.info/R050662
##MEASURED CHEMISTRY=Ca_2.00_(U_1.00_O_2_)(CO_3_)_3_Â·11H_2_O ; C not measured but estimated by stoichiometry
3.991926e+002, 1.028312e-001
4.011211e+002, 1.071386e-001
4.030495e+002, 1.074452e-001
4.049780e+002, 1.049604e-001
4.069065e+002, 1.079122e-001
4.088349e+002, 1.128321e-001
4.107634e+002, 1.130987e-001
4.126919e+002, 1.122500e-001
4.146203e+002, 1.149482e-001
4.165488e+002, 1.180883e-001
4.184773e+002, 1.184331e-001
4.204057e+002, 1.207058e-001
4.223342e+002, 1.207069e-001
4.242627e+002, 1.196220e-001
4.261911e+002, 1.195915e-001
4.281196e+002, 1.214584e-001
4.300481e+002, 1.239006e-001
4.319765e+002, 1.258012e-001
4.339050e+002, 1.257317e-001
4.358335e+002, 1.260745e-001
4.377619e+002, 1.268583e-001
4.396904e+002, 1.272174e-001
4.416189e+002, 1.274429e-001
4.435473e+002, 1.280344e-001
4.454758e+002, 1.285265e-001
4.474043e+002, 1.292426e-001
4.493327e+002, 1.299540e-001
4.512612e+002, 1.306285e-001
4.531897e+002, 1.318195e-001
4.551181e+002, 1.323269e-001
4.570466e+002, 1.328496e-001
4.589751e+002, 1.340413e-001
4.609035e+002, 1.343322e-001
4.628320e+002, 1.352876e-001
4.647605e+002, 1.364031e-001
4.666889e+002, 1.356962e-001
4.686174e+002, 1.358951e-001
4.705459e+002, 1.362102e-001
4.724743e+002, 1.353156e-001
4.744028e+002, 1.363578e-001
4.763313e+002, 1.381314e-001
4.782597e+002, 1.387131e-001
4.801882e+002, 1.383229e-001
4.821167e+002, 1.375957e-001
4.840451e+002, 1.379308e-001
4.859736e+002, 1.391516e-001
4.879021e+002, 1.385300e-001
4.898305e+002, 1.381787e-001
4.917590e+002, 1.385854e-001
4.936875e+002, 1.389428e-001
4.956159e+002, 1.390404e-001
4.975444e+002, 1.401958e-001
4.994729e+002, 1.404873e-001
5.014013e+002, 1.398619e-001
5.033298e+002, 1.393410e-001
5.052583e+002, 1.400528e-001
5.071867e+002, 1.401407e-001
5.091152e+002, 1.399263e-001
5.110437e+002, 1.399350e-001
5.129721e+002, 1.398506e-001
5.149006e+002, 1.399156e-001
5.168290e+002, 1.400356e-001
5.187575e+002, 1.392065e-001
5.206860e+002, 1.386545e-001
5.226144e+002, 1.391299e-001
5.245429e+002, 1.396299e-001
5.264714e+002, 1.391698e-001
5.283998e+002, 1.384260e-001
5.303283e+002, 1.380313e-001
5.322568e+002, 1.377944e-001
5.341852e+002, 1.377533e-001
5.361137e+002, 1.375356e-001
5.380422e+002, 1.369561e-001
5.399706e+002, 1.363038e-001
5.418991e+002, 1.358854e-001
5.438276e+002, 1.358254e-001
5.457560e+002, 1.356209e-001
5.476845e+002, 1.348986e-001
5.496130e+002, 1.339443e-001
5.515414e+002, 1.336162e-001
5.534699e+002, 1.333321e-001
5.553984e+002, 1.328226e-001
5.573268e+002, 1.328508e-001
5.592553e+002, 1.323919e-001
5.611838e+002, 1.321655e-001
5.631122e+002, 1.316713e-001
5.650407e+002, 1.308902e-001
5.669692e+002, 1.307383e-001
5.688976e+002, 1.304790e-001
5.708261e+002, 1.307816e-001
5.727546e+002, 1.315754e-001
5.746830e+002, 1.311337e-001
5.766115e+002, 1.292490e-001
5.785400e+002, 1.284816e-001
5.804684e+002, 1.287966e-001
5.823969e+002, 1.289561e-001
5.843254e+002, 1.282129e-001
5.862538e+002, 1.272686e-001
5.881823e+002, 1.267254e-001
5.901108e+002, 1.265671e-001
5.920392e+002, 1.263355e-001
5.939677e+002, 1.252196e-001
5.958962e+002, 1.246695e-001
5.978246e+002, 1.243339e-001
5.997531e+002, 1.236952e-001
6.016816e+002, 1.231022e-001
6.036100e+002, 1.221804e-001
6.055385e+002, 1.216278e-001
6.074670e+002, 1.211262e-001
6.093954e+002, 1.202958e-001
6.113239e+002, 1.194486e-001
6.132524e+002, 1.189756e-001
6.151808e+002, 1.185079e-001
6.171093e+002, 1.176752e-001
6.190378e+002, 1.166474e-001
6.209662e+002, 1.156728e-001
6.228947e+002, 1.150633e-001
6.248232e+002, 1.146960e-001
6.267516e+002, 1.138179e-001
6.286801e+002, 1.131457e-001
6.306086e+002, 1.130049e-001
6.325370e+002, 1.126647e-001
6.344655e+002, 1.113494e-001
6.363940e+002, 1.099328e-001
6.383224e+002, 1.094280e-001
6.402509e+002, 1.089424e-001
6.421794e+002, 1.082460e-001
6.441078e+002, 1.076270e-001
6.460363e+002, 1.068595e-001
6.479648e+002, 1.062126e-001
6.498932e+002, 1.053915e-001
6.518217e+002, 1.041845e-001
6.537502e+002, 1.029877e-001
6.556786e+002, 1.024917e-001
6.576071e+002, 1.024474e-001
6.595356e+002, 1.022040e-001
6.614641e+002, 1.015342e-001
6.633925e+002, 1.008487e-001
6.653210e+002, 1.007470e-001
6.672495e+002, 1.008815e-001
6.691779e+002, 1.004697e-001
6.711064e+002, 9.967004e-002
6.730349e+002, 9.892497e-002
6.749633e+002, 9.808032e-002
6.768918e+002, 9.763794e-002
6.788203e+002, 9.674504e-002
6.807487e+002, 9.584528e-002
6.826772e+002, 9.491805e-002
6.846057e+002, 9.380156e-002
6.865341e+002, 9.275706e-002
6.884626e+002, 9.176000e-002
6.903911e+002, 9.058950e-002
6.923195e+002, 8.919334e-002
6.942480e+002, 8.803905e-002
6.961765e+002, 8.752031e-002
6.981049e+002, 8.734842e-002
7.000334e+002, 8.662941e-002
7.019619e+002, 8.544444e-002
7.038903e+002, 8.445393e-002
7.058188e+002, 8.397920e-002
7.077473e+002, 8.366080e-002
7.096757e+002, 8.378989e-002
7.116042e+002, 8.431643e-002
7.135327e+002, 8.501297e-002
7.154611e+002, 8.602194e-002
7.173896e+002, 8.721618e-002
7.193181e+002, 8.861620e-002
7.212465e+002, 8.985051e-002
7.231750e+002, 9.143889e-002
7.251035e+002, 9.333272e-002
7.270319e+002, 9.519520e-002
7.289604e+002, 9.695739e-002
7.308889e+002, 9.867529e-002
7.328173e+002, 1.001751e-001
7.347458e+002, 1.012260e-001
7.366743e+002, 1.017643e-001
7.386027e+002, 1.016565e-001
7.405312e+002, 1.009191e-001
7.424597e+002, 9.954805e-002
7.443881e+002, 9.715690e-002
7.463166e+002, 9.406856e-002
7.482451e+002, 9.016684e-002
7.501735e+002, 8.523849e-002
7.521020e+002, 8.107119e-002
7.540305e+002, 7.703784e-002
7.559589e+002, 7.148255e-002
7.578874e+002, 6.575169e-002
7.598159e+002, 6.147840e-002
7.617443e+002, 5.881870e-002
7.636728e+002, 5.708847e-002
7.656013e+002, 5.605810e-002
7.675297e+002, 5.552857e-002
7.694582e+002, 5.492283e-002
7.713867e+002, 5.422570e-002
7.733151e+002, 5.365914e-002
7.752436e+002, 5.361902e-002
7.771721e+002, 5.391939e-002
7.791005e+002, 5.398934e-002
7.810290e+002, 5.393449e-002
7.829575e+002, 5.394531e-002
7.848859e+002, 5.385226e-002
7.868144e+002, 5.382475e-002
7.887429e+002, 5.374295e-002
7.906713e+002, 5.360867e-002
7.925998e+002, 5.366321e-002
7.945283e+002, 5.365130e-002
7.964567e+002, 5.376247e-002
7.983852e+002, 5.390138e-002
8.003137e+002, 5.416601e-002
8.022421e+002, 5.466158e-002
8.041706e+002, 5.508793e-002
8.060991e+002, 5.531811e-002
8.080275e+002, 5.558039e-002
8.099560e+002, 5.597366e-002
8.118845e+002, 5.666859e-002
8.138129e+002, 5.779432e-002
8.157414e+002, 5.927241e-002
8.176699e+002, 6.104992e-002
8.195983e+002, 6.262134e-002
8.215268e+002, 6.303609e-002
8.234553e+002, 6.154420e-002
8.253837e+002, 5.946876e-002
8.273122e+002, 5.811953e-002
8.292407e+002, 5.776970e-002
8.311691e+002, 5.825052e-002
8.330976e+002, 5.938716e-002
8.350261e+002, 6.100646e-002
8.369545e+002, 6.307159e-002
8.388830e+002, 6.559303e-002
8.408115e+002, 6.869047e-002
8.427399e+002, 7.130779e-002
8.446684e+002, 7.161411e-002
8.465969e+002, 6.978258e-002
8.485253e+002, 6.807961e-002
8.504538e+002, 6.759516e-002
8.523823e+002, 6.770052e-002
8.543107e+002, 6.862227e-002
8.562392e+002, 7.024844e-002
8.581677e+002, 7.223219e-002
8.600961e+002, 7.457992e-002
8.620246e+002, 7.771970e-002
8.639531e+002, 8.179794e-002
8.658815e+002, 8.664527e-002
8.678100e+002, 9.269899e-002
8.697385e+002, 1.003688e-001
8.716669e+002, 1.092943e-001
8.735954e+002, 1.190571e-001
8.755239e+002, 1.291870e-001
8.774523e+002, 1.395180e-001
8.793808e+002, 1.491182e-001
8.813093e+002, 1.565294e-001
8.832377e+002, 1.617561e-001
8.851662e+002, 1.643122e-001
8.870947e+002, 1.639720e-001
8.890231e+002, 1.610493e-001
8.909516e+002, 1.560468e-001
8.928801e+002, 1.491414e-001
8.948085e+002, 1.402538e-001
8.967370e+002, 1.303038e-001
8.986655e+002, 1.191551e-001
9.005939e+002, 1.067563e-001
9.025224e+002, 9.376315e-002
9.044509e+002, 8.136380e-002
9.063793e+002, 7.036582e-002
9.083078e+002, 6.126701e-002
9.102363e+002, 5.440037e-002
9.121647e+002, 4.911241e-002
9.140932e+002, 4.481358e-002
9.160217e+002, 4.104495e-002
9.179501e+002, 3.795753e-002
9.198786e+002, 3.538390e-002
9.218071e+002, 3.279258e-002
9.237355e+002, 3.044483e-002
9.256640e+002, 2.850080e-002
9.275925e+002, 2.678442e-002
9.295209e+002, 2.540445e-002
9.314494e+002, 2.416891e-002
9.333779e+002, 2.300930e-002
9.353063e+002, 2.204686e-002
9.372348e+002, 2.174559e-002
9.391633e+002, 2.131243e-002
9.410917e+002, 2.066178e-002
9.430202e+002, 2.037998e-002
9.449487e+002, 2.018378e-002
9.468771e+002, 2.029207e-002
9.488056e+002, 2.022617e-002
9.507341e+002, 2.006610e-002
9.526625e+002, 2.000776e-002
9.545910e+002, 1.999963e-002
9.565195e+002, 1.993721e-002
9.584479e+002, 2.003675e-002
9.603764e+002, 2.011323e-002
9.623049e+002, 2.021348e-002
9.642333e+002, 2.063328e-002
9.661618e+002, 2.098052e-002
9.680903e+002, 2.080893e-002
9.700187e+002, 2.091729e-002
9.719472e+002, 2.109904e-002
9.738757e+002, 2.133783e-002
9.758041e+002, 2.166137e-002
9.777326e+002, 2.191931e-002
9.796611e+002, 2.219410e-002
9.815895e+002, 2.233546e-002
9.835180e+002, 2.237756e-002
9.854465e+002, 2.261062e-002
9.873749e+002, 2.299328e-002
9.893034e+002, 2.330181e-002
9.912319e+002, 2.333461e-002
9.931603e+002, 2.330105e-002
9.950888e+002, 2.334160e-002
9.970173e+002, 2.356083e-002
9.989457e+002, 2.375088e-002
1.000874e+003, 2.359528e-002
1.002803e+003, 2.359160e-002
1.004731e+003, 2.380787e-002
1.006660e+003, 2.387992e-002
1.008588e+003, 2.385988e-002
1.010517e+003, 2.386955e-002
1.012445e+003, 2.418357e-002
1.014373e+003, 2.415170e-002
1.016302e+003, 2.404326e-002
1.018230e+003, 2.418227e-002
1.020159e+003, 2.433126e-002
1.022087e+003, 2.419064e-002
1.024016e+003, 2.434081e-002
1.025944e+003, 2.454078e-002
1.027873e+003, 2.445350e-002
1.029801e+003, 2.437163e-002
1.031730e+003, 2.443644e-002
1.033658e+003, 2.464689e-002
1.035587e+003, 2.483202e-002
1.037515e+003, 2.469774e-002
1.039443e+003, 2.474235e-002
1.041372e+003, 2.491383e-002
1.043300e+003, 2.480187e-002
1.045229e+003, 2.488112e-002
1.047157e+003, 2.545606e-002
1.049086e+003, 2.606449e-002
1.051014e+003, 2.640030e-002
1.052943e+003, 2.661268e-002
1.054871e+003, 2.691326e-002
1.056800e+003, 2.755919e-002
1.058728e+003, 2.853950e-002
1.060657e+003, 2.997461e-002
1.062585e+003, 3.219138e-002
1.064514e+003, 3.546971e-002
1.066442e+003, 3.962095e-002
1.068370e+003, 4.305804e-002
1.070299e+003, 4.244560e-002
1.072227e+003, 3.792389e-002
1.074156e+003, 3.408229e-002
1.076084e+003, 3.262011e-002
1.078013e+003, 3.067015e-002
1.079941e+003, 2.803024e-002
1.081870e+003, 2.635944e-002
1.083798e+003, 2.552384e-002
1.085727e+003, 2.507366e-002
1.087655e+003, 2.463242e-002
1.089584e+003, 2.408540e-002
1.091512e+003, 2.358686e-002
1.093441e+003, 2.332709e-002
1.095369e+003, 2.324172e-002
1.097297e+003, 2.303542e-002
1.099226e+003, 2.297729e-002
1.101154e+003, 2.291964e-002
1.103083e+003, 2.287720e-002
1.105011e+003, 2.284469e-002
1.106940e+003, 2.291049e-002
1.108868e+003, 2.306575e-002
1.110797e+003, 2.292327e-002
1.112725e+003, 2.272476e-002
1.114654e+003, 2.282524e-002
1.116582e+003, 2.305108e-002
1.118511e+003, 2.312536e-002
1.120439e+003, 2.327987e-002
1.122368e+003, 2.334885e-002
1.124296e+003, 2.336024e-002
1.126224e+003, 2.364902e-002
1.128153e+003, 2.384055e-002
1.130081e+003, 2.398675e-002
1.132010e+003, 2.412226e-002
1.133938e+003, 2.421773e-002
1.135867e+003, 2.442043e-002
1.137795e+003, 2.458253e-002
1.139724e+003, 2.480291e-002
1.141652e+003, 2.500455e-002
1.143581e+003, 2.493565e-002
1.145509e+003, 2.479092e-002
1.147438e+003, 2.463265e-002
1.149366e+003, 2.449706e-002
1.151295e+003, 2.465914e-002
1.153223e+003, 2.502374e-002
1.155151e+003, 2.507568e-002
1.157080e+003, 2.492396e-002
1.159008e+003, 2.487943e-002
1.160937e+003, 2.492733e-002
1.162865e+003, 2.503939e-002
1.164794e+003, 2.518820e-002
1.166722e+003, 2.531540e-002
1.168651e+003, 2.544423e-002
1.170579e+003, 2.555972e-002
1.172508e+003, 2.580850e-002
1.174436e+003, 2.598311e-002
1.176365e+003, 2.606773e-002
1.178293e+003, 2.619766e-002
1.180222e+003, 2.641660e-002
1.182150e+003, 2.672238e-002
1.184078e+003, 2.683322e-002
1.186007e+003, 2.696549e-002
1.187935e+003, 2.729104e-002
1.189864e+003, 2.758372e-002
1.191792e+003, 2.770887e-002
1.193721e+003, 2.780323e-002
1.195649e+003, 2.802290e-002
1.197578e+003, 2.818638e-002
1.199506e+003, 2.825292e-002
1.201435e+003, 2.855158e-002
1.203363e+003, 2.893431e-002
1.205292e+003, 2.901520e-002
1.207220e+003, 2.923428e-002
1.209149e+003, 2.960040e-002
1.211077e+003, 2.972357e-002
1.213005e+003, 2.976142e-002
1.214934e+003, 2.986960e-002
1.216862e+003, 3.018491e-002
1.218791e+003, 3.075177e-002
1.220719e+003, 3.116514e-002
1.222648e+003, 3.137956e-002
1.224576e+003, 3.142982e-002
1.226505e+003, 3.156232e-002
1.228433e+003, 3.203090e-002
1.230362e+003, 3.249168e-002
1.232290e+003, 3.277576e-002
1.234219e+003, 3.292323e-002
1.236147e+003, 3.335071e-002
1.238076e+003, 3.378098e-002
1.240004e+003, 3.415027e-002
1.241932e+003, 3.462072e-002
1.243861e+003, 3.496131e-002
1.245789e+003, 3.537405e-002
1.247718e+003, 3.577989e-002
1.249646e+003, 3.609512e-002
1.251575e+003, 3.670455e-002
1.253503e+003, 3.728115e-002
1.255432e+003, 3.795332e-002
1.257360e+003, 3.847598e-002
1.259289e+003, 3.869865e-002
1.261217e+003, 3.914715e-002
1.263146e+003, 3.987080e-002
1.265074e+003, 4.059971e-002
1.267003e+003, 4.148469e-002
1.268931e+003, 4.223135e-002
1.270859e+003, 4.292973e-002
1.272788e+003, 4.388977e-002
1.274716e+003, 4.494078e-002
1.276645e+003, 4.570783e-002
1.278573e+003, 4.673414e-002
1.280502e+003, 4.776989e-002
1.282430e+003, 4.875189e-002
1.284359e+003, 4.987426e-002
1.286287e+003, 5.104603e-002
1.288216e+003, 5.231922e-002
1.290144e+003, 5.370992e-002
1.292073e+003, 5.521202e-002
1.294001e+003, 5.679551e-002
1.295930e+003, 5.843735e-002
1.297858e+003, 6.027942e-002
1.299786e+003, 6.220512e-002
1.301715e+003, 6.432175e-002
1.303643e+003, 6.681249e-002
1.305572e+003, 6.948038e-002
1.307500e+003, 7.206870e-002
1.309429e+003, 7.487784e-002
1.311357e+003, 7.807039e-002
1.313286e+003, 8.150874e-002
1.315214e+003, 8.511372e-002
1.317143e+003, 8.874620e-002
1.319071e+003, 9.255976e-002
1.321000e+003, 9.665919e-002
1.322928e+003, 1.011939e-001
1.324857e+003, 1.060786e-001
1.326785e+003, 1.113323e-001
1.328714e+003, 1.172291e-001
1.330642e+003, 1.237152e-001
1.332570e+003, 1.308881e-001
1.334499e+003, 1.383249e-001
1.336427e+003, 1.459512e-001
1.338356e+003, 1.536094e-001
1.340284e+003, 1.610632e-001
1.342213e+003, 1.687481e-001
1.344141e+003, 1.765780e-001
1.346070e+003, 1.836347e-001
1.347998e+003, 1.899029e-001
1.349927e+003, 1.954036e-001
1.351855e+003, 2.003195e-001
1.353784e+003, 2.050188e-001
1.355712e+003, 2.105037e-001
1.357641e+003, 2.182811e-001
1.359569e+003, 2.294261e-001
1.361497e+003, 2.439666e-001
1.363426e+003, 2.616040e-001
1.365354e+003, 2.812041e-001
1.367283e+003, 3.018917e-001
1.369211e+003, 3.222787e-001
1.371140e+003, 3.399410e-001
1.373068e+003, 3.524440e-001
1.374997e+003, 3.573997e-001
1.376925e+003, 3.538426e-001
1.378854e+003, 3.425605e-001
1.380782e+003, 3.252054e-001
1.382711e+003, 3.036749e-001
1.384639e+003, 2.808951e-001
1.386568e+003, 2.594057e-001
1.388496e+003, 2.411084e-001
1.390424e+003, 2.273872e-001
1.392353e+003, 2.183665e-001
1.394281e+003, 2.135271e-001
1.396210e+003, 2.111453e-001
1.398138e+003, 2.103831e-001
1.400067e+003, 2.101918e-001
1.401995e+003, 2.089737e-001
1.403924e+003, 2.059825e-001
1.405852e+003, 2.007097e-001
1.407781e+003, 1.927297e-001
1.409709e+003, 1.826819e-001
1.411638e+003, 1.712699e-001
1.413566e+003, 1.595631e-001
1.415495e+003, 1.486443e-001
1.417423e+003, 1.389000e-001
1.419351e+003, 1.301681e-001
1.421280e+003, 1.222628e-001
1.423208e+003, 1.153857e-001
1.425137e+003, 1.093802e-001
1.427065e+003, 1.040153e-001
1.428994e+003, 9.982152e-002
1.430922e+003, 9.639719e-002
1.432851e+003, 9.347491e-002
1.434779e+003, 9.107055e-002
1.436708e+003, 8.922699e-002
1.438636e+003, 8.785123e-002
1.440565e+003, 8.719166e-002
1.442493e+003, 8.676352e-002
1.444422e+003, 8.660892e-002
1.446350e+003, 8.711696e-002
1.448278e+003, 8.807721e-002
1.450207e+003, 8.931522e-002
1.452135e+003, 9.119775e-002
1.454064e+003, 9.364155e-002
1.455992e+003, 9.701440e-002
1.457921e+003, 1.005399e-001
1.459849e+003, 1.041727e-001
1.461778e+003, 1.088009e-001
1.463706e+003, 1.145604e-001
1.465635e+003, 1.209174e-001
1.467563e+003, 1.277534e-001
1.469492e+003, 1.353451e-001
1.471420e+003, 1.432810e-001
1.473349e+003, 1.517286e-001
1.475277e+003, 1.611246e-001
1.477205e+003, 1.716324e-001
1.479134e+003, 1.828320e-001
1.481062e+003, 1.948882e-001
1.482991e+003, 2.079298e-001
1.484919e+003, 2.222219e-001
1.486848e+003, 2.376188e-001
1.488776e+003, 2.542003e-001
1.490705e+003, 2.716915e-001
1.492633e+003, 2.891509e-001
1.494562e+003, 3.069207e-001
1.496490e+003, 3.239621e-001
1.498419e+003, 3.389769e-001
1.500347e+003, 3.518638e-001
1.502276e+003, 3.614114e-001
1.504204e+003, 3.669457e-001
1.506132e+003, 3.688131e-001
1.508061e+003, 3.662862e-001
1.509989e+003, 3.599900e-001
1.511918e+003, 3.507485e-001
1.513846e+003, 3.387546e-001
1.515775e+003, 3.252453e-001
1.517703e+003, 3.109148e-001
1.519632e+003, 2.970320e-001
1.521560e+003, 2.840316e-001
1.523489e+003, 2.720768e-001
1.525417e+003, 2.620769e-001
1.527346e+003, 2.545636e-001
1.529274e+003, 2.496772e-001
1.531203e+003, 2.472099e-001
1.533131e+003, 2.471843e-001
1.535059e+003, 2.489916e-001
1.536988e+003, 2.522688e-001
1.538916e+003, 2.563255e-001
1.540845e+003, 2.593699e-001
1.542773e+003, 2.609035e-001
1.544702e+003, 2.607656e-001
1.546630e+003, 2.578653e-001
1.548559e+003, 2.523737e-001
1.550487e+003, 2.445788e-001
1.552416e+003, 2.350500e-001
1.554344e+003, 2.240739e-001
1.556273e+003, 2.123732e-001
1.558201e+003, 2.007304e-001
1.560130e+003, 1.887987e-001
1.562058e+003, 1.770752e-001
1.563986e+003, 1.665940e-001
1.565915e+003, 1.573272e-001
1.567843e+003, 1.494050e-001
1.569772e+003, 1.424138e-001
1.571700e+003, 1.360928e-001
1.573629e+003, 1.305408e-001
1.575557e+003, 1.255574e-001
1.577486e+003, 1.206732e-001
1.579414e+003, 1.157884e-001
1.581343e+003, 1.108236e-001
1.583271e+003, 1.059682e-001
1.585200e+003, 1.011888e-001
1.587128e+003, 9.653045e-002
1.589057e+003, 9.245457e-002
1.590985e+003, 8.885670e-002
1.592913e+003, 8.555295e-002
1.594842e+003, 8.270423e-002
1.596770e+003, 8.042678e-002
1.598699e+003, 7.863545e-002
1.600627e+003, 7.736923e-002
1.602556e+003, 7.649001e-002
1.604484e+003, 7.627843e-002
1.606413e+003, 7.694585e-002
1.608341e+003, 7.814004e-002
1.610270e+003, 8.026588e-002
1.612198e+003, 8.330602e-002
1.614127e+003, 8.693254e-002
1.616055e+003, 9.055981e-002
1.617984e+003, 9.328225e-002
1.619912e+003, 9.418861e-002
1.621840e+003, 9.361894e-002
1.623769e+003, 9.219132e-002
1.625697e+003, 9.029759e-002
1.627626e+003, 8.858681e-002
1.629554e+003, 8.712787e-002
1.631483e+003, 8.575001e-002
1.633411e+003, 8.467629e-002
1.635340e+003, 8.331627e-002
1.637268e+003, 8.124004e-002
1.639197e+003, 7.898749e-002
1.641125e+003, 7.686631e-002
1.643054e+003, 7.489522e-002
1.644982e+003, 7.303686e-002
1.646911e+003, 7.135148e-002
1.648839e+003, 6.968198e-002
1.650767e+003, 6.834831e-002
1.652696e+003, 6.722970e-002
1.654624e+003, 6.480593e-002
1.656553e+003, 6.237276e-002
1.658481e+003, 6.042961e-002
1.660410e+003, 5.817345e-002
1.662338e+003, 5.575300e-002
1.664267e+003, 5.322200e-002
1.666195e+003, 5.080852e-002
1.668124e+003, 4.831605e-002
1.670052e+003, 4.537195e-002
1.671981e+003, 4.243842e-002
1.673909e+003, 3.984686e-002
1.675838e+003, 3.763007e-002
1.677766e+003, 3.548810e-002
1.679694e+003, 3.338673e-002
1.681623e+003, 3.185527e-002
1.683551e+003, 3.062407e-002
1.685480e+003, 2.855980e-002
1.687408e+003, 2.669931e-002
1.689337e+003, 2.539151e-002
1.691265e+003, 2.397071e-002
1.693194e+003, 2.269015e-002
1.695122e+003, 2.211363e-002
1.697051e+003, 2.119912e-002
1.698979e+003, 2.037857e-002
1.700908e+003, 1.943081e-002
1.702836e+003, 1.802346e-002
1.704765e+003, 1.702855e-002
1.706693e+003, 1.634000e-002
1.708621e+003, 1.576733e-002
1.710550e+003, 1.504855e-002
1.712478e+003, 1.427765e-002
1.714407e+003, 1.388288e-002
1.716335e+003, 1.375256e-002
1.718264e+003, 1.324527e-002
1.720192e+003, 1.239113e-002
1.722121e+003, 1.220594e-002
1.724049e+003, 1.200126e-002
1.725978e+003, 1.163856e-002
1.727906e+003, 1.139372e-002
1.729835e+003, 1.087549e-002
1.731763e+003, 1.055655e-002
1.733692e+003, 1.052992e-002
1.735620e+003, 9.977787e-003
1.737548e+003, 9.532100e-003
1.739477e+003, 9.345187e-003
1.741405e+003, 8.651121e-003
1.743334e+003, 8.153830e-003
1.745262e+003, 8.325777e-003
1.747191e+003, 8.515917e-003
1.749119e+003, 8.265663e-003
1.751048e+003, 8.193077e-003
1.752976e+003, 8.403685e-003
1.754905e+003, 8.315281e-003
1.756833e+003, 8.203904e-003
1.758762e+003, 8.175978e-003
1.760690e+003, 8.345407e-003
1.762619e+003, 8.468452e-003
1.764547e+003, 8.489126e-003
1.766475e+003, 8.523557e-003
1.768404e+003, 8.350160e-003
1.770332e+003, 8.369407e-003
1.772261e+003, 8.795022e-003
1.774189e+003, 8.561373e-003
1.776118e+003, 8.182907e-003
1.778046e+003, 8.085099e-003
1.779975e+003, 8.248900e-003
1.781903e+003, 8.049658e-003
1.783832e+003, 7.906388e-003
1.785760e+003, 7.707479e-003
1.787689e+003, 8.013070e-003
1.789617e+003, 8.155031e-003
1.791546e+003, 7.722498e-003
1.793474e+003, 7.781107e-003
1.795402e+003, 8.176344e-003
1.797331e+003, 7.935838e-003
1.799259e+003, 8.033854e-003
1.801188e+003, 8.308542e-003
1.803116e+003, 8.347629e-003
1.805045e+003, 8.094432e-003
1.806973e+003, 7.666739e-003
1.808902e+003, 7.419004e-003
1.810830e+003, 8.051693e-003
1.812759e+003, 8.442112e-003
1.814687e+003, 8.083968e-003
1.816616e+003, 8.063613e-003
1.818544e+003, 8.495366e-003
1.820473e+003, 8.767452e-003
1.822401e+003, 8.821556e-003
1.824329e+003, 9.198276e-003
1.826258e+003, 9.421741e-003
1.828186e+003, 9.336803e-003
1.830115e+003, 9.245668e-003
1.832043e+003, 9.330337e-003
1.833972e+003, 9.021552e-003
1.835900e+003, 7.820433e-003
1.837829e+003, 7.210678e-003
1.839757e+003, 7.154399e-003
1.841686e+003, 7.353592e-003
1.843614e+003, 7.812641e-003
1.845543e+003, 7.272784e-003
1.847471e+003, 6.998875e-003
1.849400e+003, 6.961057e-003
1.851328e+003, 6.817540e-003
1.853256e+003, 7.065084e-003
1.855185e+003, 7.112310e-003
1.857113e+003, 7.411653e-003
1.859042e+003, 6.717239e-003
1.860970e+003, 6.046145e-003
1.862899e+003, 6.185505e-003
1.864827e+003, 6.211023e-003
1.866756e+003, 6.117227e-003
1.868684e+003, 6.864531e-003
1.870613e+003, 7.225859e-003
1.872541e+003, 6.943964e-003
1.874470e+003, 6.733654e-003
1.876398e+003, 6.972062e-003
1.878327e+003, 7.375348e-003
1.880255e+003, 6.524933e-003
1.882183e+003, 5.759635e-003
1.884112e+003, 6.134287e-003
1.886040e+003, 6.355232e-003
1.887969e+003, 6.616401e-003
1.889897e+003, 6.547473e-003
1.891826e+003, 6.478462e-003
1.893754e+003, 7.243274e-003
1.895683e+003, 7.724329e-003
1.897611e+003, 7.210833e-003
1.899540e+003, 6.483879e-003
1.901468e+003, 6.035671e-003
1.903397e+003, 5.754687e-003
1.905325e+003, 5.774630e-003
1.907254e+003, 6.609642e-003
1.909182e+003, 7.367762e-003
1.911110e+003, 7.068854e-003
1.913039e+003, 6.403089e-003
1.914967e+003, 6.093732e-003
1.916896e+003, 5.933917e-003
1.918824e+003, 5.534079e-003
1.920753e+003, 5.438230e-003
1.922681e+003, 6.697336e-003
1.924610e+003, 7.792376e-003
1.926538e+003, 7.305751e-003
1.928467e+003, 7.099219e-003
1.930395e+003, 6.715307e-003
1.932324e+003, 6.032619e-003
1.934252e+003, 6.308445e-003
1.936181e+003, 6.597634e-003
1.938109e+003, 5.873992e-003
1.940037e+003, 6.347650e-003
1.941966e+003, 6.515602e-003
1.943894e+003, 4.741691e-003
1.945823e+003, 3.966840e-003
1.947751e+003, 4.959714e-003
1.949680e+003, 6.170614e-003
1.951608e+003, 6.777956e-003
1.953537e+003, 7.158021e-003
1.955465e+003, 7.020107e-003
1.957394e+003, 5.486354e-003
1.959322e+003, 5.204440e-003
1.961251e+003, 5.385723e-003
1.963179e+003, 5.095187e-003
1.965108e+003, 4.126140e-003
1.967036e+003, 3.487303e-003
1.968964e+003, 4.712178e-003
1.970893e+003, 6.427092e-003
1.972821e+003, 7.151228e-003
1.974750e+003, 6.322397e-003
1.976678e+003, 5.088912e-003
1.978607e+003, 4.658064e-003
1.980535e+003, 5.926122e-003
1.982464e+003, 7.911058e-003
1.984392e+003, 8.408548e-003
1.986321e+003, 8.511630e-003
1.988249e+003, 7.180248e-003
1.990178e+003, 5.409084e-003
1.992106e+003, 5.651282e-003
1.994035e+003, 7.251309e-003
1.995963e+003, 8.840928e-003
1.997891e+003, 8.906183e-003
1.999820e+003, 7.732586e-003
2.001748e+003, 6.889917e-003
2.003677e+003, 5.858470e-003
2.005605e+003, 5.658942e-003
2.007534e+003, 6.484319e-003
2.009462e+003, 5.472955e-003
2.011391e+003, 5.582499e-003
2.013319e+003, 7.141104e-003
2.015248e+003, 8.756776e-003
2.017176e+003, 8.710475e-003
2.019105e+003, 7.698553e-003
2.021033e+003, 6.678449e-003
2.022962e+003, 6.198662e-003
2.024890e+003, 6.721550e-003
2.026818e+003, 8.089684e-003
2.028747e+003, 6.961637e-003
2.030675e+003, 7.246557e-003
2.032604e+003, 8.695336e-003
2.034532e+003, 9.412715e-003
2.036461e+003, 1.032369e-002
2.038389e+003, 9.577815e-003
2.040318e+003, 7.510564e-003
2.042246e+003, 7.318959e-003
2.044175e+003, 7.012666e-003
2.046103e+003, 7.089326e-003
2.048031e+003, 8.866398e-003
2.049960e+003, 9.152775e-003
2.051888e+003, 8.734167e-003
2.053817e+003, 8.767871e-003
2.055745e+003, 8.847441e-003
2.057674e+003, 9.368190e-003
2.059602e+003, 9.771108e-003
2.061531e+003, 9.802078e-003
2.063459e+003, 9.579160e-003
2.065388e+003, 1.095298e-002
2.067316e+003, 1.067147e-002
2.069245e+003, 9.580657e-003
2.071173e+003, 1.001612e-002
2.073102e+003, 1.036329e-002
2.075030e+003, 1.006064e-002
2.076958e+003, 1.047886e-002
2.078887e+003, 1.016265e-002
2.080815e+003, 1.037493e-002
2.082744e+003, 1.021577e-002
2.084672e+003, 1.045796e-002
2.086601e+003, 1.162190e-002
2.088529e+003, 1.126675e-002
2.090458e+003, 1.043842e-002
2.092386e+003, 1.103180e-002
2.094315e+003, 1.139514e-002
2.096243e+003, 1.173632e-002
2.098172e+003, 1.217603e-002
2.100100e+003, 1.211120e-002
2.102029e+003, 1.183116e-002
2.103957e+003, 1.133219e-002
2.105885e+003, 1.211317e-002
2.107814e+003, 1.256584e-002
2.109742e+003, 1.196444e-002
2.111671e+003, 1.262813e-002
2.113599e+003, 1.277920e-002
2.115528e+003, 1.263890e-002
2.117456e+003, 1.297050e-002
2.119385e+003, 1.259232e-002
2.121313e+003, 1.281201e-002
2.123242e+003, 1.269897e-002
2.125170e+003, 1.235747e-002
2.127099e+003, 1.292042e-002
2.129027e+003, 1.252618e-002
2.130956e+003, 1.080058e-002
2.132884e+003, 9.443195e-003
2.134813e+003, 8.776184e-003
2.136741e+003, 8.095447e-003
2.138669e+003, 8.120196e-003
2.140598e+003, 8.924562e-003
2.142526e+003, 1.081986e-002
2.144455e+003, 1.053384e-002
2.146383e+003, 9.830785e-003
2.148312e+003, 9.521566e-003
2.150240e+003, 8.861042e-003
2.152169e+003, 7.544664e-003
2.154097e+003, 7.374871e-003
2.156026e+003, 8.148910e-003
2.157954e+003, 9.596810e-003
2.159883e+003, 1.165993e-002
2.161811e+003, 1.241548e-002
2.163740e+003, 1.085656e-002
2.165668e+003, 1.048072e-002
2.167596e+003, 1.171037e-002
2.169525e+003, 1.171366e-002
2.171453e+003, 1.090946e-002
2.173382e+003, 1.054164e-002
2.175310e+003, 1.105266e-002
2.177239e+003, 1.161004e-002
2.179167e+003, 9.634907e-003
2.181096e+003, 8.386779e-003
2.183024e+003, 9.528329e-003
2.184953e+003, 1.144268e-002
2.186881e+003, 1.223167e-002
2.188810e+003, 1.116806e-002
2.190738e+003, 1.083578e-002
2.192667e+003, 1.189356e-002
2.194595e+003, 1.293045e-002
2.196523e+003, 1.275541e-002
2.198452e+003, 1.332503e-002
2.200380e+003, 1.409608e-002
2.202309e+003, 1.278139e-002
2.204237e+003, 1.271901e-002
2.206166e+003, 1.177576e-002
2.208094e+003, 1.138476e-002
2.210023e+003, 1.184520e-002
2.211951e+003, 1.226418e-002
2.213880e+003, 1.165981e-002
2.215808e+003, 1.079115e-002
2.217737e+003, 1.171062e-002
2.219665e+003, 1.293735e-002
2.221594e+003, 1.279208e-002
2.223522e+003, 1.282304e-002
2.225450e+003, 1.259418e-002
2.227379e+003, 1.479527e-002
2.229307e+003, 1.572372e-002
2.231236e+003, 1.414985e-002
2.233164e+003, 1.429379e-002
2.235093e+003, 1.445067e-002
2.237021e+003, 1.321304e-002
2.238950e+003, 1.216654e-002
2.240878e+003, 1.294661e-002
2.242807e+003, 1.334763e-002
2.244735e+003, 1.237958e-002
2.246664e+003, 1.177325e-002
2.248592e+003, 1.219917e-002
2.250521e+003, 1.386069e-002
2.252449e+003, 1.353917e-002
2.254377e+003, 1.351244e-002
2.256306e+003, 1.456604e-002
2.258234e+003, 1.491688e-002
2.260163e+003, 1.456129e-002
2.262091e+003, 1.387646e-002
2.264020e+003, 1.404382e-002
2.265948e+003, 1.415220e-002
2.267877e+003, 1.338310e-002
2.269805e+003, 1.258563e-002
2.271734e+003, 1.270398e-002
2.273662e+003, 1.354516e-002
2.275591e+003, 1.415743e-002
2.277519e+003, 1.399674e-002
2.279448e+003, 1.355979e-002
2.281376e+003, 1.422709e-002
2.283304e+003, 1.542014e-002
2.285233e+003, 1.544932e-002
2.287161e+003, 1.506356e-002
2.289090e+003, 1.504138e-002
2.291018e+003, 1.464976e-002
2.292947e+003, 1.414048e-002
2.294875e+003, 1.392689e-002
2.296804e+003, 1.458049e-002
2.298732e+003, 1.493626e-002
2.300661e+003, 1.441641e-002
2.302589e+003, 1.373087e-002
2.304518e+003, 1.370235e-002
2.306446e+003, 1.420125e-002
2.308375e+003, 1.395832e-002
2.310303e+003, 1.387148e-002
2.312231e+003, 1.489893e-002
2.314160e+003, 1.526520e-002
2.316088e+003, 1.528104e-002
2.318017e+003, 1.501728e-002
2.319945e+003, 1.490370e-002
2.321874e+003, 1.576446e-002
2.323802e+003, 1.656763e-002
2.325731e+003, 1.594807e-002
2.327659e+003, 1.520767e-002
2.329588e+003, 1.516762e-002
2.331516e+003, 1.560192e-002
2.333445e+003, 1.592949e-002
2.335373e+003, 1.586924e-002
2.337302e+003, 1.569294e-002
2.339230e+003, 1.567259e-002
2.341158e+003, 1.561619e-002
2.343087e+003, 1.559255e-002
2.345015e+003, 1.508699e-002
2.346944e+003, 1.439966e-002
2.348872e+003, 1.449856e-002
2.350801e+003, 1.564602e-002
2.352729e+003, 1.625850e-002
2.354658e+003, 1.620762e-002
2.356586e+003, 1.672739e-002
2.358515e+003, 1.711163e-002
2.360443e+003, 1.669514e-002
2.362372e+003, 1.641406e-002
2.364300e+003, 1.646423e-002
2.366229e+003, 1.617520e-002
2.368157e+003, 1.654324e-002
2.370085e+003, 1.660372e-002
2.372014e+003, 1.475780e-002
2.373942e+003, 1.360093e-002
2.375871e+003, 1.367148e-002
2.377799e+003, 1.412521e-002
2.379728e+003, 1.381106e-002
2.381656e+003, 1.344564e-002
2.383585e+003, 1.355878e-002
2.385513e+003, 1.442027e-002
2.387442e+003, 1.498740e-002
2.389370e+003, 1.460962e-002
2.391299e+003, 1.398084e-002
2.393227e+003, 1.402009e-002
2.395156e+003, 1.407176e-002
2.397084e+003, 1.474926e-002
2.399012e+003, 1.465406e-002
2.400941e+003, 1.423518e-002
2.402869e+003, 1.491779e-002
2.404798e+003, 1.501649e-002
2.406726e+003, 1.428759e-002
2.408655e+003, 1.491574e-002
2.410583e+003, 1.557903e-002
2.412512e+003, 1.544141e-002
2.414440e+003, 1.496325e-002
2.416369e+003, 1.514260e-002
2.418297e+003, 1.518297e-002
2.420226e+003, 1.455099e-002
2.422154e+003, 1.501358e-002
2.424083e+003, 1.550992e-002
2.426011e+003, 1.516869e-002
2.427939e+003, 1.511864e-002
2.429868e+003, 1.517630e-002
2.431796e+003, 1.490605e-002
2.433725e+003, 1.457704e-002
2.435653e+003, 1.417056e-002
2.437582e+003, 1.449009e-002
2.439510e+003, 1.526064e-002
2.441439e+003, 1.585998e-002
2.443367e+003, 1.578146e-002
2.445296e+003, 1.594466e-002
2.447224e+003, 1.530182e-002
2.449153e+003, 1.506750e-002
2.451081e+003, 1.515919e-002
2.453010e+003, 1.549682e-002
2.454938e+003, 1.615048e-002
2.456866e+003, 1.567433e-002
2.458795e+003, 1.415881e-002
2.460723e+003, 1.456773e-002
2.462652e+003, 1.550201e-002
2.464580e+003, 1.473122e-002
2.466509e+003, 1.461681e-002
2.468437e+003, 1.452510e-002
2.470366e+003, 1.469593e-002
2.472294e+003, 1.471645e-002
2.474223e+003, 1.476724e-002
2.476151e+003, 1.489446e-002
2.478080e+003, 1.476954e-002
2.480008e+003, 1.504357e-002
2.481937e+003, 1.482929e-002
2.483865e+003, 1.405976e-002
2.485793e+003, 1.457547e-002
2.487722e+003, 1.493113e-002
2.489650e+003, 1.430598e-002
2.491579e+003, 1.357629e-002
2.493507e+003, 1.391347e-002
2.495436e+003, 1.358073e-002
2.497364e+003, 1.363211e-002
2.499293e+003, 1.427496e-002
2.501221e+003, 1.503249e-002
2.503150e+003, 1.565504e-002
2.505078e+003, 1.490352e-002
2.507007e+003, 1.415616e-002
2.508935e+003, 1.413842e-002
2.510864e+003, 1.400340e-002
2.512792e+003, 1.407775e-002
2.514720e+003, 1.360030e-002
2.516649e+003, 1.363310e-002
2.518577e+003, 1.428119e-002
2.520506e+003, 1.409922e-002
2.522434e+003, 1.393791e-002
2.524363e+003, 1.406776e-002
2.526291e+003, 1.435046e-002
2.528220e+003, 1.451360e-002
2.530148e+003, 1.431996e-002
2.532077e+003, 1.427299e-002
2.534005e+003, 1.402906e-002
2.535934e+003, 1.341355e-002
2.537862e+003, 1.335659e-002
2.539791e+003, 1.308773e-002
2.541719e+003, 1.277105e-002
2.543647e+003, 1.383995e-002
2.545576e+003, 1.426227e-002
2.547504e+003, 1.464697e-002
2.549433e+003, 1.498321e-002
2.551361e+003, 1.491400e-002
2.553290e+003, 1.499996e-002
2.555218e+003, 1.471114e-002
2.557147e+003, 1.409101e-002
2.559075e+003, 1.429007e-002
2.561004e+003, 1.500287e-002
2.562932e+003, 1.589359e-002
2.564861e+003, 1.602167e-002
2.566789e+003, 1.650595e-002
2.568718e+003, 1.712284e-002
2.570646e+003, 1.734892e-002
2.572574e+003, 1.740937e-002
2.574503e+003, 1.593013e-002
2.576431e+003, 1.556060e-002
2.578360e+003, 1.610201e-002
2.580288e+003, 1.661913e-002
2.582217e+003, 1.754337e-002
2.584145e+003, 1.770103e-002
2.586074e+003, 1.767751e-002
2.588002e+003, 1.804825e-002
2.589931e+003, 1.787972e-002
2.591859e+003, 1.757748e-002
2.593788e+003, 1.824756e-002
2.595716e+003, 1.880504e-002
2.597645e+003, 1.828772e-002
2.599573e+003, 1.886845e-002
2.601501e+003, 1.900859e-002
2.603430e+003, 1.816171e-002
2.605358e+003, 1.849953e-002
2.607287e+003, 1.952020e-002
2.609215e+003, 1.929304e-002
2.611144e+003, 1.876014e-002
2.613072e+003, 1.884116e-002
2.615001e+003, 1.893259e-002
2.616929e+003, 1.911735e-002
2.618858e+003, 1.982199e-002
2.620786e+003, 1.988050e-002
2.622715e+003, 1.953765e-002
2.624643e+003, 1.917706e-002
2.626572e+003, 1.882595e-002
2.628500e+003, 1.864393e-002
2.630428e+003, 1.871511e-002
2.632357e+003, 1.919856e-002
2.634285e+003, 1.899518e-002
2.636214e+003, 1.847537e-002
2.638142e+003, 1.873560e-002
2.640071e+003, 1.919985e-002
2.641999e+003, 1.915005e-002
2.643928e+003, 1.876057e-002
2.645856e+003, 1.867258e-002
2.647785e+003, 1.865935e-002
2.649713e+003, 1.872871e-002
2.651642e+003, 1.923441e-002
2.653570e+003, 1.917616e-002
2.655499e+003, 1.861338e-002
2.657427e+003, 1.813905e-002
2.659355e+003, 1.816188e-002
2.661284e+003, 1.802287e-002
2.663212e+003, 1.783508e-002
2.665141e+003, 1.747885e-002
2.667069e+003, 1.731549e-002
2.668998e+003, 1.771460e-002
2.670926e+003, 1.803981e-002
2.672855e+003, 1.781637e-002
2.674783e+003, 1.731123e-002
2.676712e+003, 1.724306e-002
2.678640e+003, 1.758738e-002
2.680569e+003, 1.773847e-002
2.682497e+003, 1.745724e-002
2.684426e+003, 1.777636e-002
2.686354e+003, 1.791259e-002
2.688282e+003, 1.734661e-002
2.690211e+003, 1.753061e-002
2.692139e+003, 1.811269e-002
2.694068e+003, 1.787955e-002
2.695996e+003, 1.744426e-002
2.697925e+003, 1.745384e-002
2.699853e+003, 1.762677e-002
2.701782e+003, 1.823839e-002
2.703710e+003, 1.779892e-002
2.705639e+003, 1.736080e-002
2.707567e+003, 1.768970e-002
2.709496e+003, 1.859733e-002
2.711424e+003, 1.880947e-002
2.713353e+003, 1.849101e-002
2.715281e+003, 1.829708e-002
2.717209e+003, 1.833284e-002
2.719138e+003, 1.798427e-002
2.721066e+003, 1.856446e-002
2.722995e+003, 1.929776e-002
2.724923e+003, 1.928684e-002
2.726852e+003, 1.864340e-002
2.728780e+003, 1.842836e-002
2.730709e+003, 1.889755e-002
2.732637e+003, 1.922971e-002
2.734566e+003, 1.874685e-002
2.736494e+003, 1.842547e-002
2.738423e+003, 1.853725e-002
2.740351e+003, 1.871033e-002
2.742280e+003, 1.858283e-002
2.744208e+003, 1.854344e-002
2.746136e+003, 1.856516e-002
2.748065e+003, 1.818567e-002
2.749993e+003, 1.789945e-002
2.751922e+003, 1.862956e-002
2.753850e+003, 1.921709e-002
2.755779e+003, 1.931730e-002
2.757707e+003, 1.879662e-002
2.759636e+003, 1.862485e-002
2.761564e+003, 1.970486e-002
2.763493e+003, 1.985974e-002
2.765421e+003, 1.984723e-002
2.767350e+003, 2.013937e-002
2.769278e+003, 2.020043e-002
2.771207e+003, 2.055257e-002
2.773135e+003, 2.107255e-002
2.775063e+003, 2.145060e-002
2.776992e+003, 2.165847e-002
2.778920e+003, 2.182717e-002
2.780849e+003, 2.200717e-002
2.782777e+003, 2.265643e-002
2.784706e+003, 2.240469e-002
2.786634e+003, 2.198535e-002
2.788563e+003, 2.272509e-002
2.790491e+003, 2.319518e-002
2.792420e+003, 2.336193e-002
2.794348e+003, 2.331407e-002
2.796277e+003, 2.324110e-002
2.798205e+003, 2.334389e-002
2.800134e+003, 2.343422e-002
2.802062e+003, 2.329685e-002
2.803990e+003, 2.407634e-002
2.805919e+003, 2.413595e-002
2.807847e+003, 2.372586e-002
2.809776e+003, 2.412259e-002
2.811704e+003, 2.482931e-002
2.813633e+003, 2.491417e-002
2.815561e+003, 2.457949e-002
2.817490e+003, 2.477084e-002
2.819418e+003, 2.556707e-002
2.821347e+003, 2.541924e-002
2.823275e+003, 2.514000e-002
2.825204e+003, 2.571904e-002
2.827132e+003, 2.590171e-002
2.829061e+003, 2.540490e-002
2.830989e+003, 2.629521e-002
2.832917e+003, 2.713176e-002
2.834846e+003, 2.693074e-002
2.836774e+003, 2.649491e-002
2.838703e+003, 2.712333e-002
2.840631e+003, 2.822157e-002
2.842560e+003, 2.903002e-002
2.844488e+003, 2.905048e-002
2.846417e+003, 2.869723e-002
2.848345e+003, 2.899905e-002
2.850274e+003, 2.945354e-002
2.852202e+003, 3.037705e-002
2.854131e+003, 3.108046e-002
2.856059e+003, 3.103838e-002
2.857988e+003, 3.087934e-002
2.859916e+003, 3.123314e-002
2.861844e+003, 3.120218e-002
2.863773e+003, 3.137083e-002
2.865701e+003, 3.162840e-002
2.867630e+003, 3.222699e-002
2.869558e+003, 3.255430e-002
2.871487e+003, 3.278089e-002
2.873415e+003, 3.258867e-002
2.875344e+003, 3.308268e-002
2.877272e+003, 3.378278e-002
2.879201e+003, 3.418028e-002
2.881129e+003, 3.427754e-002
2.883058e+003, 3.422361e-002
2.884986e+003, 3.449921e-002
2.886915e+003, 3.538783e-002
2.888843e+003, 3.520580e-002
2.890771e+003, 3.499232e-002
2.892700e+003, 3.635605e-002
2.894628e+003, 3.732239e-002
2.896557e+003, 3.675004e-002
2.898485e+003, 3.683226e-002
2.900414e+003, 3.725047e-002
2.902342e+003, 3.746009e-002
2.904271e+003, 3.765094e-002
2.906199e+003, 3.761354e-002
2.908128e+003, 3.809275e-002
2.910056e+003, 3.849987e-002
2.911985e+003, 3.964243e-002
2.913913e+003, 4.030444e-002
2.915842e+003, 4.018022e-002
2.917770e+003, 3.984918e-002
2.919698e+003, 3.965501e-002
2.921627e+003, 3.978818e-002
2.923555e+003, 4.014674e-002
2.925484e+003, 4.043547e-002
2.927412e+003, 4.071208e-002
2.929341e+003, 4.073549e-002
2.931269e+003, 4.142316e-002
2.933198e+003, 4.209998e-002
2.935126e+003, 4.318759e-002
2.937055e+003, 4.357752e-002
2.938983e+003, 4.243166e-002
2.940912e+003, 4.181373e-002
2.942840e+003, 4.144716e-002
2.944769e+003, 4.204028e-002
2.946697e+003, 4.242211e-002
2.948625e+003, 4.275390e-002
2.950554e+003, 4.299041e-002
2.952482e+003, 4.350511e-002
2.954411e+003, 4.416064e-002
2.956339e+003, 4.484316e-002
2.958268e+003, 4.554281e-002
2.960196e+003, 4.568927e-002
2.962125e+003, 4.513502e-002
2.964053e+003, 4.584203e-002
2.965982e+003, 4.597990e-002
2.967910e+003, 4.540050e-002
2.969839e+003, 4.627386e-002
2.971767e+003, 4.622246e-002
2.973696e+003, 4.623408e-002
2.975624e+003, 4.686179e-002
2.977552e+003, 4.790903e-002
2.979481e+003, 4.825800e-002
2.981409e+003, 4.853299e-002
2.983338e+003, 4.901150e-002
2.985266e+003, 4.861395e-002
2.987195e+003, 4.885069e-002
2.989123e+003, 4.964328e-002
2.991052e+003, 5.073869e-002
2.992980e+003, 5.079295e-002
2.994909e+003, 5.090225e-002
2.996837e+003, 5.120405e-002
2.998766e+003, 5.148878e-002
3.000694e+003, 5.063338e-002
3.002623e+003, 5.150677e-002
3.004551e+003, 5.325081e-002
3.006479e+003, 5.462987e-002
3.008408e+003, 5.474380e-002
3.010336e+003, 5.504426e-002
3.012265e+003, 5.510221e-002
3.014193e+003, 5.573962e-002
3.016122e+003, 5.647041e-002
3.018050e+003, 5.647749e-002
3.019979e+003, 5.689830e-002
3.021907e+003, 5.817256e-002
3.023836e+003, 5.962989e-002
3.025764e+003, 5.991649e-002
3.027693e+003, 5.954818e-002
3.029621e+003, 5.986238e-002
3.031550e+003, 6.070597e-002
3.033478e+003, 6.199845e-002
3.035406e+003, 6.266506e-002
3.037335e+003, 6.316330e-002
3.039263e+003, 6.386669e-002
3.041192e+003, 6.415039e-002
3.043120e+003, 6.484643e-002
3.045049e+003, 6.502275e-002
3.046977e+003, 6.624804e-002
3.048906e+003, 6.760678e-002
3.050834e+003, 6.783529e-002
3.052763e+003, 6.912012e-002
3.054691e+003, 7.025507e-002
3.056620e+003, 7.060187e-002
3.058548e+003, 7.157049e-002
3.060477e+003, 7.312844e-002
3.062405e+003, 7.328977e-002
3.064333e+003, 7.284111e-002
3.066262e+003, 7.349008e-002
3.068190e+003, 7.444343e-002
3.070119e+003, 7.484460e-002
3.072047e+003, 7.572316e-002
3.073976e+003, 7.700926e-002
3.075904e+003, 7.774574e-002
3.077833e+003, 7.901897e-002
3.079761e+003, 7.955465e-002
3.081690e+003, 7.996343e-002
3.083618e+003, 8.097273e-002
3.085547e+003, 8.170431e-002
3.087475e+003, 8.313719e-002
3.089404e+003, 8.311365e-002
3.091332e+003, 8.267284e-002
3.093260e+003, 8.378662e-002
3.095189e+003, 8.515080e-002
3.097117e+003, 8.648297e-002
3.099046e+003, 8.658851e-002
3.100974e+003, 8.663252e-002
3.102903e+003, 8.760245e-002
3.104831e+003, 8.970375e-002
3.106760e+003, 9.164158e-002
3.108688e+003, 9.249940e-002
3.110617e+003, 9.253492e-002
3.112545e+003, 9.311203e-002
3.114474e+003, 9.356655e-002
3.116402e+003, 9.524367e-002
3.118331e+003, 9.731258e-002
3.120259e+003, 9.780664e-002
3.122188e+003, 9.787153e-002
3.124116e+003, 9.872174e-002
3.126044e+003, 1.000784e-001
3.127973e+003, 1.003376e-001
3.129901e+003, 1.013160e-001
3.131830e+003, 1.023089e-001
3.133758e+003, 1.024507e-001
3.135687e+003, 1.029848e-001
3.137615e+003, 1.047785e-001
3.139544e+003, 1.063998e-001
3.141472e+003, 1.069510e-001
3.143401e+003, 1.070973e-001
3.145329e+003, 1.077777e-001
3.147258e+003, 1.093212e-001
3.149186e+003, 1.106809e-001
3.151115e+003, 1.114695e-001
3.153043e+003, 1.123164e-001
3.154971e+003, 1.131389e-001
3.156900e+003, 1.144999e-001
3.158828e+003, 1.155578e-001
3.160757e+003, 1.170357e-001
3.162685e+003, 1.181024e-001
3.164614e+003, 1.180619e-001
3.166542e+003, 1.197522e-001
3.168471e+003, 1.223717e-001
3.170399e+003, 1.233383e-001
3.172328e+003, 1.234987e-001
3.174256e+003, 1.239520e-001
3.176185e+003, 1.239941e-001
3.178113e+003, 1.251513e-001
3.180042e+003, 1.267504e-001
3.181970e+003, 1.269373e-001
3.183898e+003, 1.272083e-001
3.185827e+003, 1.278303e-001
3.187755e+003, 1.299942e-001
3.189684e+003, 1.320212e-001
3.191612e+003, 1.322053e-001
3.193541e+003, 1.334713e-001
3.195469e+003, 1.359756e-001
3.197398e+003, 1.365755e-001
3.199326e+003, 1.359584e-001
3.201255e+003, 1.359628e-001
3.203183e+003, 1.364446e-001
3.205112e+003, 1.367746e-001
3.207040e+003, 1.385983e-001
3.208969e+003, 1.404447e-001
3.210897e+003, 1.403108e-001
3.212825e+003, 1.410814e-001
3.214754e+003, 1.429789e-001
3.216682e+003, 1.429895e-001
3.218611e+003, 1.427736e-001
3.220539e+003, 1.439777e-001
3.222468e+003, 1.440009e-001
3.224396e+003, 1.444849e-001
3.226325e+003, 1.454188e-001
3.228253e+003, 1.467167e-001
3.230182e+003, 1.463206e-001
3.232110e+003, 1.462619e-001
3.234039e+003, 1.477589e-001
3.235967e+003, 1.485306e-001
3.237896e+003, 1.475195e-001
3.239824e+003, 1.469415e-001
3.241752e+003, 1.488993e-001
3.243681e+003, 1.500499e-001
3.245609e+003, 1.499983e-001
3.247538e+003, 1.506104e-001
3.249466e+003, 1.518890e-001
3.251395e+003, 1.519342e-001
3.253323e+003, 1.520607e-001
3.255252e+003, 1.521810e-001
3.257180e+003, 1.512502e-001
3.259109e+003, 1.506753e-001
3.261037e+003, 1.529770e-001
3.262966e+003, 1.544837e-001
3.264894e+003, 1.543090e-001
3.266823e+003, 1.538934e-001
3.268751e+003, 1.544487e-001
3.270679e+003, 1.550965e-001
3.272608e+003, 1.555469e-001
3.274536e+003, 1.558879e-001
3.276465e+003, 1.569341e-001
3.278393e+003, 1.575625e-001
3.280322e+003, 1.577455e-001
3.282250e+003, 1.573814e-001
3.284179e+003, 1.574006e-001
3.286107e+003, 1.575430e-001
3.288036e+003, 1.578644e-001
3.289964e+003, 1.595499e-001
3.291893e+003, 1.600489e-001
3.293821e+003, 1.595478e-001
3.295750e+003, 1.609260e-001
3.297678e+003, 1.622603e-001
3.299606e+003, 1.615199e-001
3.301535e+003, 1.624841e-001
3.303463e+003, 1.640980e-001
3.305392e+003, 1.652007e-001
3.307320e+003, 1.664901e-001
3.309249e+003, 1.664940e-001
3.311177e+003, 1.661110e-001
3.313106e+003, 1.657175e-001
3.315034e+003, 1.667125e-001
3.316963e+003, 1.682400e-001
3.318891e+003, 1.693588e-001
3.320820e+003, 1.704096e-001
3.322748e+003, 1.705669e-001
3.324677e+003, 1.701435e-001
3.326605e+003, 1.715627e-001
3.328533e+003, 1.742631e-001
3.330462e+003, 1.739974e-001
3.332390e+003, 1.743483e-001
3.334319e+003, 1.740548e-001
3.336247e+003, 1.737304e-001
3.338176e+003, 1.753477e-001
3.340104e+003, 1.768850e-001
3.342033e+003, 1.781890e-001
3.343961e+003, 1.785572e-001
3.345890e+003, 1.790226e-001
3.347818e+003, 1.788955e-001
3.349747e+003, 1.780338e-001
3.351675e+003, 1.787996e-001
3.353604e+003, 1.797682e-001
3.355532e+003, 1.790213e-001
3.357460e+003, 1.792294e-001
3.359389e+003, 1.795647e-001
3.361317e+003, 1.801039e-001
3.363246e+003, 1.805559e-001
3.365174e+003, 1.802059e-001
3.367103e+003, 1.804206e-001
3.369031e+003, 1.804403e-001
3.370960e+003, 1.808327e-001
3.372888e+003, 1.812622e-001
3.374817e+003, 1.807033e-001
3.376745e+003, 1.801774e-001
3.378674e+003, 1.804733e-001
3.380602e+003, 1.810609e-001
3.382531e+003, 1.815675e-001
3.384459e+003, 1.829938e-001
3.386387e+003, 1.831047e-001
3.388316e+003, 1.825272e-001
3.390244e+003, 1.826256e-001
3.392173e+003, 1.814265e-001
3.394101e+003, 1.814065e-001
3.396030e+003, 1.824174e-001
3.397958e+003, 1.824367e-001
3.399887e+003, 1.817857e-001
3.401815e+003, 1.815418e-001
3.403744e+003, 1.818182e-001
3.405672e+003, 1.803900e-001
3.407601e+003, 1.805744e-001
3.409529e+003, 1.822875e-001
3.411458e+003, 1.827824e-001
3.413386e+003, 1.825043e-001
3.415314e+003, 1.830402e-001
3.417243e+003, 1.818206e-001
3.419171e+003, 1.815386e-001
3.421100e+003, 1.824045e-001
3.423028e+003, 1.829122e-001
3.424957e+003, 1.827867e-001
3.426885e+003, 1.821286e-001
3.428814e+003, 1.815818e-001
3.430742e+003, 1.820242e-001
3.432671e+003, 1.818991e-001
3.434599e+003, 1.816889e-001
3.436528e+003, 1.815023e-001
3.438456e+003, 1.820750e-001
3.440385e+003, 1.834372e-001
3.442313e+003, 1.839460e-001
3.444241e+003, 1.822985e-001
3.446170e+003, 1.810571e-001
3.448098e+003, 1.823672e-001
3.450027e+003, 1.835302e-001
3.451955e+003, 1.835950e-001
3.453884e+003, 1.835316e-001
3.455812e+003, 1.838949e-001
3.457741e+003, 1.835439e-001
3.459669e+003, 1.826924e-001
3.461598e+003, 1.814574e-001
3.463526e+003, 1.800739e-001
3.465455e+003, 1.795618e-001
3.467383e+003, 1.806718e-001
3.469312e+003, 1.796959e-001
3.471240e+003, 1.786300e-001
3.473168e+003, 1.776962e-001
3.475097e+003, 1.765323e-001
3.477025e+003, 1.766574e-001
3.478954e+003, 1.776922e-001
3.480882e+003, 1.787539e-001
3.482811e+003, 1.771922e-001
3.484739e+003, 1.744514e-001
3.486668e+003, 1.733775e-001
3.488596e+003, 1.727990e-001
3.490525e+003, 1.731276e-001
3.492453e+003, 1.733954e-001
3.494382e+003, 1.731690e-001
3.496310e+003, 1.719693e-001
3.498239e+003, 1.716051e-001
3.500167e+003, 1.711475e-001
3.502095e+003, 1.702509e-001
3.504024e+003, 1.691259e-001
3.505952e+003, 1.690401e-001
3.507881e+003, 1.693944e-001
3.509809e+003, 1.670751e-001
3.511738e+003, 1.651195e-001
3.513666e+003, 1.647893e-001
3.515595e+003, 1.640604e-001
3.517523e+003, 1.621379e-001
3.519452e+003, 1.602892e-001
3.521380e+003, 1.594048e-001
3.523309e+003, 1.569425e-001
3.525237e+003, 1.552169e-001
3.527166e+003, 1.561373e-001
3.529094e+003, 1.562203e-001
3.531022e+003, 1.553170e-001
3.532951e+003, 1.546021e-001
3.534879e+003, 1.506489e-001
3.536808e+003, 1.473346e-001
3.538736e+003, 1.479570e-001
3.540665e+003, 1.467870e-001
3.542593e+003, 1.455245e-001
3.544522e+003, 1.433412e-001
3.546450e+003, 1.414949e-001
3.548379e+003, 1.401662e-001
3.550307e+003, 1.401180e-001
3.552236e+003, 1.382641e-001
3.554164e+003, 1.349355e-001
3.556093e+003, 1.322125e-001
3.558021e+003, 1.303867e-001
3.559949e+003, 1.283156e-001
3.561878e+003, 1.248234e-001
3.563806e+003, 1.230289e-001
3.565735e+003, 1.222407e-001
3.567663e+003, 1.211781e-001
3.569592e+003, 1.194542e-001
3.571520e+003, 1.162037e-001
3.573449e+003, 1.141836e-001
3.575377e+003, 1.115967e-001
3.577306e+003, 1.092027e-001
3.579234e+003, 1.081919e-001
3.581163e+003, 1.042385e-001
3.583091e+003, 1.017135e-001
3.585020e+003, 1.020550e-001
3.586948e+003, 9.994566e-002
3.588876e+003, 9.740470e-002
3.590805e+003, 9.477790e-002
3.592733e+003, 9.259803e-002
3.594662e+003, 8.951380e-002
3.596590e+003, 8.685763e-002
3.598519e+003, 8.447645e-002
3.600447e+003, 8.231006e-002
3.602376e+003, 7.979017e-002
3.604304e+003, 7.618856e-002
3.606233e+003, 7.303439e-002
3.608161e+003, 7.112887e-002
3.610090e+003, 6.768860e-002
3.612018e+003, 6.519871e-002
3.613947e+003, 6.260301e-002
3.615875e+003, 5.742319e-002
3.617803e+003, 5.280776e-002
3.619732e+003, 5.100174e-002
3.621660e+003, 4.926463e-002
3.623589e+003, 4.807553e-002
3.625517e+003, 4.673151e-002
3.627446e+003, 4.426438e-002
3.629374e+003, 4.193709e-002
3.631303e+003, 3.923148e-002
3.633231e+003, 3.433298e-002
3.635160e+003, 3.127763e-002
3.637088e+003, 3.116233e-002
3.639017e+003, 2.944164e-002
3.640945e+003, 2.784687e-002
3.642874e+003, 2.731172e-002
3.644802e+003, 2.521815e-002
3.646730e+003, 2.355116e-002
3.648659e+003, 2.297829e-002
3.650587e+003, 2.263359e-002
3.652516e+003, 2.161112e-002
3.654444e+003, 1.909386e-002
3.656373e+003, 1.838152e-002
3.658301e+003, 1.812354e-002
3.660230e+003, 1.797977e-002
3.662158e+003, 1.771756e-002
3.664087e+003, 1.758866e-002
3.666015e+003, 1.608795e-002
3.667944e+003, 1.521481e-002
3.669872e+003, 1.296701e-002
3.671801e+003, 1.107110e-002
3.673729e+003, 1.258283e-002
3.675657e+003, 1.342905e-002
3.677586e+003, 1.382359e-002
3.679514e+003, 1.236488e-002
3.681443e+003, 1.047411e-002
3.683371e+003, 9.180520e-003
3.685300e+003, 7.824538e-003
3.687228e+003, 8.531408e-003
3.689157e+003, 1.020275e-002
3.691085e+003, 1.009916e-002
3.693014e+003, 8.268519e-003
3.694942e+003, 7.815238e-003
3.696871e+003, 7.031487e-003
3.698799e+003, 6.990595e-003
3.700728e+003, 9.527807e-003
3.702656e+003, 1.057571e-002
3.704584e+003, 1.018563e-002
3.706513e+003, 8.990069e-003
3.708441e+003, 8.370500e-003
3.710370e+003, 7.781283e-003
3.712298e+003, 7.015367e-003
3.714227e+003, 7.755117e-003
3.716155e+003, 8.340878e-003
3.718084e+003, 8.723438e-003
3.720012e+003, 7.587372e-003
3.721941e+003, 7.697371e-003
3.723869e+003, 7.920811e-003
3.725798e+003, 8.520246e-003
3.727726e+003, 9.607132e-003
3.729655e+003, 7.882326e-003
3.731583e+003, 6.182524e-003
3.733511e+003, 6.016348e-003
3.735440e+003, 7.696562e-003
3.737368e+003, 9.766401e-003
3.739297e+003, 8.325694e-003
3.741225e+003, 6.203850e-003
3.743154e+003, 6.474247e-003
3.745082e+003, 7.948973e-003
3.747011e+003, 6.643968e-003
3.748939e+003, 5.823907e-003
3.750868e+003, 9.313377e-003
3.752796e+003, 1.149814e-002
3.754725e+003, 8.107840e-003
3.756653e+003, 6.627320e-003
3.758582e+003, 8.859275e-003
3.760510e+003, 9.230303e-003
3.762438e+003, 8.563183e-003
3.764367e+003, 7.887506e-003
3.766295e+003, 6.754599e-003
3.768224e+003, 8.278036e-003
3.770152e+003, 1.014278e-002
3.772081e+003, 1.032794e-002
3.774009e+003, 8.851383e-003
3.775938e+003, 8.396965e-003
3.777866e+003, 9.104730e-003
3.779795e+003, 8.186897e-003
3.781723e+003, 6.767547e-003
3.783652e+003, 7.220092e-003
3.785580e+003, 8.978277e-003
3.787509e+003, 1.020046e-002
3.789437e+003, 1.003510e-002
3.791365e+003, 9.173139e-003
3.793294e+003, 9.426810e-003
3.795222e+003, 9.252780e-003
3.797151e+003, 8.109177e-003
3.799079e+003, 1.010230e-002
3.801008e+003, 1.255880e-002
3.802936e+003, 1.185151e-002
3.804865e+003, 1.107438e-002
3.806793e+003, 1.107681e-002
3.808722e+003, 1.052021e-002
3.810650e+003, 8.105271e-003
3.812579e+003, 6.354381e-003
3.814507e+003, 8.922984e-003
3.816436e+003, 1.061317e-002
3.818364e+003, 1.102948e-002
3.820292e+003, 1.051561e-002
3.822221e+003, 1.119782e-002
3.824149e+003, 1.199215e-002
3.826078e+003, 1.096103e-002
3.828006e+003, 8.025056e-003
3.829935e+003, 7.862699e-003
3.831863e+003, 9.505038e-003
3.833792e+003, 9.185097e-003
3.835720e+003, 1.048799e-002
3.837649e+003, 1.132841e-002
3.839577e+003, 1.137138e-002
3.841506e+003, 9.659152e-003
3.843434e+003, 9.979383e-003
3.845363e+003, 1.031884e-002
3.847291e+003, 8.920211e-003
3.849219e+003, 1.004047e-002
3.851148e+003, 1.192555e-002
3.853076e+003, 1.305994e-002
3.855005e+003, 1.157668e-002
3.856933e+003, 8.971220e-003
3.858862e+003, 9.798604e-003
3.860790e+003, 1.337749e-002
3.862719e+003, 1.391656e-002
3.864647e+003, 1.360810e-002
3.866576e+003, 1.360805e-002
3.868504e+003, 1.293707e-002
3.870433e+003, 1.203861e-002
3.872361e+003, 1.289321e-002
3.874290e+003, 1.254316e-002
3.876218e+003, 9.923937e-003
3.878146e+003, 8.719320e-003
3.880075e+003, 9.389320e-003
3.882003e+003, 9.976918e-003
3.883932e+003, 1.067201e-002
3.885860e+003, 1.057093e-002
3.887789e+003, 1.055401e-002
3.889717e+003, 1.192206e-002
3.891646e+003, 1.051245e-002
3.893574e+003, 9.673943e-003
3.895503e+003, 1.193953e-002
3.897431e+003, 1.282743e-002
3.899360e+003, 1.199898e-002
3.901288e+003, 1.080464e-002
3.903217e+003, 9.094217e-003
3.905145e+003, 8.969797e-003
3.907073e+003, 8.970061e-003
3.909002e+003, 1.118294e-002
3.910930e+003, 1.386396e-002
3.912859e+003, 1.436692e-002
3.914787e+003, 1.344770e-002
3.916716e+003, 1.323393e-002
3.918644e+003, 1.196470e-002
3.920573e+003, 1.189222e-002
3.922501e+003, 1.176092e-002
3.924430e+003, 9.976999e-003
3.926358e+003, 1.124399e-002
3.928287e+003, 1.303128e-002
3.930215e+003, 1.344570e-002
3.932144e+003, 1.362236e-002
3.934072e+003, 1.236286e-002
3.936000e+003, 1.024597e-002
3.937929e+003, 1.070325e-002
3.939857e+003, 1.296075e-002
3.941786e+003, 1.232356e-002
3.943714e+003, 1.085034e-002
3.945643e+003, 1.125302e-002
3.947571e+003, 1.256971e-002
3.949500e+003, 1.294553e-002
3.951428e+003, 1.185464e-002
3.953357e+003, 1.062959e-002
3.955285e+003, 1.128897e-002
3.957214e+003, 1.381984e-002
3.959142e+003, 1.494583e-002
3.961071e+003, 1.338287e-002
3.962999e+003, 1.359002e-002
3.964927e+003, 1.566938e-002
3.966856e+003, 1.523179e-002
3.968784e+003, 1.449269e-002
3.970713e+003, 1.386048e-002
3.972641e+003, 1.400774e-002
3.974570e+003, 1.465287e-002
3.976498e+003, 1.331376e-002
3.978427e+003, 1.134812e-002
3.980355e+003, 1.034577e-002
3.982284e+003, 9.507821e-003
3.984212e+003, 1.122629e-002
3.986141e+003, 1.309797e-002
3.988069e+003, 1.158127e-002
3.989998e+003, 1.337508e-002
3.991926e+003, 1.424857e-002
3.993854e+003, 1.411429e-002
3.995783e+003, 1.315473e-002
3.997711e+003, 1.357621e-002
3.999640e+003, 1.508160e-002
4.001568e+003, 0.000000e+000
##END=



