##NAMES=Liroconite
##RRUFFID=R050535
##IDEAL CHEMISTRY=Cu^2+^_2_AlAs^5+^O_4_(OH)_4_&#183;4H_2_O
##LOCALITY=Wheal Gorland, St. Day, Cornwall, England
##OWNER=RRUFF
##SOURCE=University of Arizona Mineral Museum
##DESCRIPTION=Blue tabular crystals
##STATUS=The identification of this mineral has been confirmed by X-ray diffraction.
##URL=rruff.info/R050535
3.991926e+002, 4.319094e-001
4.011211e+002, 4.448335e-001
4.030496e+002, 4.448335e-001
4.049780e+002, 4.270962e-001
4.069065e+002, 4.144900e-001
4.088350e+002, 4.077878e-001
4.107634e+002, 4.019202e-001
4.126919e+002, 3.892791e-001
4.146204e+002, 3.738250e-001
4.165488e+002, 3.660498e-001
4.184773e+002, 3.642992e-001
4.204058e+002, 3.601784e-001
4.223342e+002, 3.528937e-001
4.242627e+002, 3.437707e-001
4.261912e+002, 3.317609e-001
4.281196e+002, 3.272780e-001
4.300481e+002, 3.201161e-001
4.319766e+002, 3.164255e-001
4.339050e+002, 3.213454e-001
4.358335e+002, 3.166828e-001
4.377620e+002, 3.093500e-001
4.396904e+002, 3.084100e-001
4.416189e+002, 3.069924e-001
4.435474e+002, 3.034549e-001
4.454758e+002, 3.065227e-001
4.474043e+002, 3.048533e-001
4.493328e+002, 3.024810e-001
4.512612e+002, 3.002330e-001
4.531897e+002, 2.999907e-001
4.551182e+002, 3.012505e-001
4.570466e+002, 2.980717e-001
4.589751e+002, 2.945018e-001
4.609036e+002, 2.940747e-001
4.628320e+002, 2.981105e-001
4.647605e+002, 3.014334e-001
4.666890e+002, 3.028873e-001
4.686174e+002, 3.043788e-001
4.705459e+002, 3.079493e-001
4.724744e+002, 3.107675e-001
4.744028e+002, 3.144510e-001
4.763313e+002, 3.177617e-001
4.782598e+002, 3.213557e-001
4.801882e+002, 3.262997e-001
4.821167e+002, 3.275240e-001
4.840452e+002, 3.293319e-001
4.859736e+002, 3.347191e-001
4.879021e+002, 3.363174e-001
4.898306e+002, 3.393609e-001
4.917590e+002, 3.443426e-001
4.936875e+002, 3.499366e-001
4.956160e+002, 3.546503e-001
4.975444e+002, 3.571659e-001
4.994729e+002, 3.597341e-001
5.014014e+002, 3.623303e-001
5.033298e+002, 3.666607e-001
5.052583e+002, 3.686320e-001
5.071868e+002, 3.670731e-001
5.091152e+002, 3.674097e-001
5.110437e+002, 3.688220e-001
5.129722e+002, 3.677399e-001
5.149006e+002, 3.630550e-001
5.168291e+002, 3.579251e-001
5.187576e+002, 3.540359e-001
5.206860e+002, 3.492627e-001
5.226145e+002, 3.424302e-001
5.245430e+002, 3.357446e-001
5.264714e+002, 3.275518e-001
5.283999e+002, 3.188855e-001
5.303284e+002, 3.121355e-001
5.322568e+002, 3.070703e-001
5.341853e+002, 3.011012e-001
5.361138e+002, 2.924389e-001
5.380422e+002, 2.834953e-001
5.399707e+002, 2.796306e-001
5.418992e+002, 2.755774e-001
5.438276e+002, 2.683944e-001
5.457561e+002, 2.619549e-001
5.476846e+002, 2.566319e-001
5.496130e+002, 2.532209e-001
5.515415e+002, 2.499022e-001
5.534700e+002, 2.450449e-001
5.553984e+002, 2.424692e-001
5.573269e+002, 2.404074e-001
5.592554e+002, 2.385742e-001
5.611838e+002, 2.377133e-001
5.631123e+002, 2.375601e-001
5.650408e+002, 2.373868e-001
5.669692e+002, 2.366383e-001
5.688977e+002, 2.353200e-001
5.708262e+002, 2.327628e-001
5.727546e+002, 2.299247e-001
5.746831e+002, 2.276129e-001
5.766116e+002, 2.250584e-001
5.785400e+002, 2.213179e-001
5.804685e+002, 2.154625e-001
5.823970e+002, 2.088525e-001
5.843254e+002, 2.036777e-001
5.862539e+002, 1.981222e-001
5.881824e+002, 1.923349e-001
5.901108e+002, 1.878820e-001
5.920393e+002, 1.843942e-001
5.939678e+002, 1.807291e-001
5.958962e+002, 1.768060e-001
5.978247e+002, 1.737288e-001
5.997532e+002, 1.713245e-001
6.016816e+002, 1.695463e-001
6.036101e+002, 1.677101e-001
6.055386e+002, 1.656541e-001
6.074670e+002, 1.642608e-001
6.093955e+002, 1.638213e-001
6.113240e+002, 1.634797e-001
6.132524e+002, 1.627262e-001
6.151809e+002, 1.611786e-001
6.171094e+002, 1.599222e-001
6.190378e+002, 1.592083e-001
6.209663e+002, 1.590811e-001
6.228948e+002, 1.582678e-001
6.248232e+002, 1.575626e-001
6.267517e+002, 1.574786e-001
6.286802e+002, 1.564108e-001
6.306086e+002, 1.544947e-001
6.325371e+002, 1.525114e-001
6.344656e+002, 1.508908e-001
6.363940e+002, 1.491913e-001
6.383225e+002, 1.466830e-001
6.402510e+002, 1.423022e-001
6.421794e+002, 1.382524e-001
6.441079e+002, 1.346072e-001
6.460364e+002, 1.302367e-001
6.479648e+002, 1.261447e-001
6.498933e+002, 1.222443e-001
6.518218e+002, 1.192608e-001
6.537502e+002, 1.170506e-001
6.556787e+002, 1.147620e-001
6.576072e+002, 1.126188e-001
6.595356e+002, 1.111095e-001
6.614641e+002, 1.098243e-001
6.633926e+002, 1.084524e-001
6.653210e+002, 1.082593e-001
6.672495e+002, 1.074956e-001
6.691780e+002, 1.067267e-001
6.711064e+002, 1.062103e-001
6.730349e+002, 1.061435e-001
6.749634e+002, 1.059408e-001
6.768918e+002, 1.058035e-001
6.788203e+002, 1.059091e-001
6.807488e+002, 1.057557e-001
6.826772e+002, 1.056762e-001
6.846057e+002, 1.058752e-001
6.865342e+002, 1.061159e-001
6.884626e+002, 1.069252e-001
6.903911e+002, 1.077024e-001
6.923196e+002, 1.082835e-001
6.942480e+002, 1.083892e-001
6.961765e+002, 1.078618e-001
6.981050e+002, 1.079837e-001
7.000334e+002, 1.085137e-001
7.019619e+002, 1.088378e-001
7.038904e+002, 1.093087e-001
7.058188e+002, 1.091599e-001
7.077473e+002, 1.092247e-001
7.096758e+002, 1.092946e-001
7.116042e+002, 1.093937e-001
7.135327e+002, 1.095647e-001
7.154612e+002, 1.099887e-001
7.173896e+002, 1.106357e-001
7.193181e+002, 1.107264e-001
7.212466e+002, 1.108314e-001
7.231750e+002, 1.112312e-001
7.251035e+002, 1.115083e-001
7.270320e+002, 1.113310e-001
7.289604e+002, 1.115369e-001
7.308889e+002, 1.118138e-001
7.328174e+002, 1.123126e-001
7.347458e+002, 1.126596e-001
7.366743e+002, 1.128483e-001
7.386028e+002, 1.134383e-001
7.405313e+002, 1.144207e-001
7.424597e+002, 1.153883e-001
7.443882e+002, 1.165438e-001
7.463167e+002, 1.175553e-001
7.482451e+002, 1.183377e-001
7.501736e+002, 1.197334e-001
7.521021e+002, 1.213911e-001
7.540305e+002, 1.229686e-001
7.559590e+002, 1.246175e-001
7.578875e+002, 1.271674e-001
7.598159e+002, 1.306351e-001
7.617444e+002, 1.337749e-001
7.636729e+002, 1.372547e-001
7.656013e+002, 1.413510e-001
7.675298e+002, 1.455910e-001
7.694583e+002, 1.503156e-001
7.713867e+002, 1.555633e-001
7.733152e+002, 1.611928e-001
7.752437e+002, 1.667635e-001
7.771721e+002, 1.732470e-001
7.791006e+002, 1.802686e-001
7.810291e+002, 1.874655e-001
7.829575e+002, 1.940808e-001
7.848860e+002, 1.995452e-001
7.868145e+002, 2.043672e-001
7.887429e+002, 2.082630e-001
7.906714e+002, 2.101216e-001
7.925999e+002, 2.099780e-001
7.945283e+002, 2.085220e-001
7.964568e+002, 2.058863e-001
7.983853e+002, 2.025929e-001
8.003137e+002, 1.987263e-001
8.022422e+002, 1.941888e-001
8.041707e+002, 1.890006e-001
8.060991e+002, 1.836819e-001
8.080276e+002, 1.783114e-001
8.099561e+002, 1.731807e-001
8.118845e+002, 1.687754e-001
8.138130e+002, 1.649090e-001
8.157415e+002, 1.615501e-001
8.176699e+002, 1.587050e-001
8.195984e+002, 1.565284e-001
8.215269e+002, 1.542673e-001
8.234553e+002, 1.509965e-001
8.253838e+002, 1.474012e-001
8.273123e+002, 1.439971e-001
8.292407e+002, 1.404940e-001
8.311692e+002, 1.365498e-001
8.330977e+002, 1.324413e-001
8.350261e+002, 1.282216e-001
8.369546e+002, 1.235491e-001
8.388831e+002, 1.187728e-001
8.408115e+002, 1.144113e-001
8.427400e+002, 1.100252e-001
8.446685e+002, 1.053592e-001
8.465969e+002, 1.006886e-001
8.485254e+002, 9.597490e-002
8.504539e+002, 9.138115e-002
8.523823e+002, 8.765972e-002
8.543108e+002, 8.498940e-002
8.562393e+002, 8.275785e-002
8.581677e+002, 8.168622e-002
8.600962e+002, 8.174689e-002
8.620247e+002, 8.293305e-002
8.639531e+002, 8.553458e-002
8.658816e+002, 8.851252e-002
8.678101e+002, 9.210652e-002
8.697385e+002, 9.638127e-002
8.716670e+002, 1.001722e-001
8.735955e+002, 1.029506e-001
8.755239e+002, 1.055167e-001
8.774524e+002, 1.075343e-001
8.793809e+002, 1.083952e-001
8.813093e+002, 1.082713e-001
8.832378e+002, 1.072199e-001
8.851663e+002, 1.048892e-001
8.870947e+002, 1.011056e-001
8.890232e+002, 9.634842e-002
8.909517e+002, 9.115728e-002
8.928801e+002, 8.482518e-002
8.948085e+002, 7.782956e-002
8.967370e+002, 7.086378e-002
8.986655e+002, 6.458286e-002
9.005939e+002, 5.920692e-002
9.025224e+002, 5.460770e-002
9.044509e+002, 5.088483e-002
9.063793e+002, 4.789477e-002
9.083078e+002, 4.494194e-002
9.102363e+002, 4.216107e-002
9.121647e+002, 4.035759e-002
9.140932e+002, 3.889327e-002
9.160217e+002, 3.746276e-002
9.179501e+002, 3.603282e-002
9.198786e+002, 3.503345e-002
9.218071e+002, 3.441635e-002
9.237355e+002, 3.394940e-002
9.256640e+002, 3.378488e-002
9.275925e+002, 3.378359e-002
9.295209e+002, 3.392905e-002
9.314494e+002, 3.378735e-002
9.333779e+002, 3.415944e-002
9.353063e+002, 3.471268e-002
9.372348e+002, 3.537656e-002
9.391633e+002, 3.608751e-002
9.410917e+002, 3.653967e-002
9.430202e+002, 3.658422e-002
9.449487e+002, 3.654980e-002
9.468771e+002, 3.599649e-002
9.488056e+002, 3.524624e-002
9.507341e+002, 3.471971e-002
9.526625e+002, 3.444738e-002
9.545910e+002, 3.444228e-002
9.565195e+002, 3.451984e-002
9.584479e+002, 3.504311e-002
9.603764e+002, 3.598897e-002
9.623049e+002, 3.713117e-002
9.642333e+002, 3.800753e-002
9.661618e+002, 3.885475e-002
9.680903e+002, 4.002807e-002
9.700187e+002, 4.104669e-002
9.719472e+002, 4.200147e-002
9.738757e+002, 4.312167e-002
9.758041e+002, 4.449314e-002
9.777326e+002, 4.625482e-002
9.796611e+002, 4.842834e-002
9.815895e+002, 5.070293e-002
9.835180e+002, 5.267352e-002
9.854465e+002, 5.495802e-002
9.873749e+002, 5.841714e-002
9.893034e+002, 6.264533e-002
9.912319e+002, 6.707178e-002
9.931603e+002, 7.211386e-002
9.950888e+002, 7.724309e-002
9.970173e+002, 8.176585e-002
9.989457e+002, 8.597321e-002
1.000874e+003, 8.956368e-002
1.002803e+003, 9.274821e-002
1.004731e+003, 9.591750e-002
1.006660e+003, 9.884233e-002
1.008588e+003, 1.011170e-001
1.010517e+003, 1.029761e-001
1.012445e+003, 1.045495e-001
1.014373e+003, 1.054758e-001
1.016302e+003, 1.061663e-001
1.018230e+003, 1.064955e-001
1.020159e+003, 1.061430e-001
1.022087e+003, 1.050622e-001
1.024016e+003, 1.033984e-001
1.025944e+003, 1.010967e-001
1.027873e+003, 9.816271e-002
1.029801e+003, 9.432634e-002
1.031730e+003, 9.031971e-002
1.033658e+003, 8.631960e-002
1.035587e+003, 8.154196e-002
1.037515e+003, 7.665013e-002
1.039444e+003, 7.195820e-002
1.041372e+003, 6.700616e-002
1.043301e+003, 6.214413e-002
1.045229e+003, 5.774312e-002
1.047157e+003, 5.349627e-002
1.049086e+003, 4.968825e-002
1.051014e+003, 4.632692e-002
1.052943e+003, 4.322066e-002
1.054871e+003, 4.004042e-002
1.056800e+003, 3.718113e-002
1.058728e+003, 3.500381e-002
1.060657e+003, 3.318508e-002
1.062585e+003, 3.137282e-002
1.064514e+003, 2.997823e-002
1.066442e+003, 2.899544e-002
1.068371e+003, 2.809652e-002
1.070299e+003, 2.731616e-002
1.072228e+003, 2.681843e-002
1.074156e+003, 2.653850e-002
1.076084e+003, 2.637130e-002
1.078013e+003, 2.648025e-002
1.079941e+003, 2.683380e-002
1.081870e+003, 2.755821e-002
1.083798e+003, 2.843681e-002
1.085727e+003, 2.947326e-002
1.087655e+003, 3.106325e-002
1.089584e+003, 3.282000e-002
1.091512e+003, 3.429840e-002
1.093441e+003, 3.563092e-002
1.095369e+003, 3.663960e-002
1.097298e+003, 3.682912e-002
1.099226e+003, 3.651809e-002
1.101155e+003, 3.558071e-002
1.103083e+003, 3.357935e-002
1.105011e+003, 3.108545e-002
1.106940e+003, 2.881373e-002
1.108868e+003, 2.661233e-002
1.110797e+003, 2.431287e-002
1.112725e+003, 2.233482e-002
1.114654e+003, 2.074061e-002
1.116582e+003, 1.948680e-002
1.118511e+003, 1.861286e-002
1.120439e+003, 1.784921e-002
1.122368e+003, 1.720725e-002
1.124296e+003, 1.635698e-002
1.126225e+003, 1.572949e-002
1.128153e+003, 1.553474e-002
1.130082e+003, 1.522955e-002
1.132010e+003, 1.483856e-002
1.133938e+003, 1.447391e-002
1.135867e+003, 1.434933e-002
1.137795e+003, 1.426766e-002
1.139724e+003, 1.431978e-002
1.141652e+003, 1.433848e-002
1.143581e+003, 1.427342e-002
1.145509e+003, 1.414250e-002
1.147438e+003, 1.418060e-002
1.149366e+003, 1.432529e-002
1.151295e+003, 1.452341e-002
1.153223e+003, 1.459482e-002
1.155152e+003, 1.462751e-002
1.157080e+003, 1.518127e-002
1.159009e+003, 1.589632e-002
1.160937e+003, 1.626096e-002
1.162865e+003, 1.665703e-002
1.164794e+003, 1.715341e-002
1.166722e+003, 1.759539e-002
1.168651e+003, 1.814145e-002
1.170579e+003, 1.875247e-002
1.172508e+003, 1.933518e-002
1.174436e+003, 2.025199e-002
1.176365e+003, 2.123104e-002
1.178293e+003, 2.182914e-002
1.180222e+003, 2.208520e-002
1.182150e+003, 2.226747e-002
1.184079e+003, 2.231752e-002
1.186007e+003, 2.171073e-002
1.187936e+003, 2.087579e-002
1.189864e+003, 1.983092e-002
1.191792e+003, 1.842721e-002
1.193721e+003, 1.710233e-002
1.195649e+003, 1.581285e-002
1.197578e+003, 1.462182e-002
1.199506e+003, 1.337159e-002
1.201435e+003, 1.224877e-002
1.203363e+003, 1.160742e-002
1.205292e+003, 1.108338e-002
1.207220e+003, 1.060149e-002
1.209149e+003, 1.009958e-002
1.211077e+003, 9.622375e-003
1.213006e+003, 9.359168e-003
1.214934e+003, 9.241975e-003
1.216863e+003, 8.994626e-003
1.218791e+003, 8.716383e-003
1.220719e+003, 8.500216e-003
1.222648e+003, 8.455853e-003
1.224576e+003, 8.569454e-003
1.226505e+003, 8.586926e-003
1.228433e+003, 8.510048e-003
1.230362e+003, 8.338058e-003
1.232290e+003, 8.056084e-003
1.234219e+003, 7.838422e-003
1.236147e+003, 7.944101e-003
1.238076e+003, 8.133591e-003
1.240004e+003, 8.182716e-003
1.241933e+003, 8.039679e-003
1.243861e+003, 8.021555e-003
1.245790e+003, 8.041165e-003
1.247718e+003, 7.888526e-003
1.249646e+003, 7.881744e-003
1.251575e+003, 8.113774e-003
1.253503e+003, 8.116104e-003
1.255432e+003, 8.081063e-003
1.257360e+003, 8.236437e-003
1.259289e+003, 8.321947e-003
1.261217e+003, 8.157460e-003
1.263146e+003, 7.969850e-003
1.265074e+003, 8.107563e-003
1.267003e+003, 8.396968e-003
1.268931e+003, 8.247548e-003
1.270860e+003, 8.152396e-003
1.272788e+003, 8.400381e-003
1.274717e+003, 8.444501e-003
1.276645e+003, 8.374032e-003
1.278573e+003, 8.461596e-003
1.280502e+003, 8.608691e-003
1.282430e+003, 8.693971e-003
1.284359e+003, 8.637353e-003
1.286287e+003, 8.768042e-003
1.288216e+003, 8.846859e-003
1.290144e+003, 8.627990e-003
1.292073e+003, 8.711988e-003
1.294001e+003, 8.816324e-003
1.295930e+003, 8.857647e-003
1.297858e+003, 8.904350e-003
1.299787e+003, 8.831270e-003
1.301715e+003, 8.921869e-003
1.303644e+003, 9.105154e-003
1.305572e+003, 9.048144e-003
1.307500e+003, 8.968546e-003
1.309429e+003, 8.958906e-003
1.311357e+003, 8.991716e-003
1.313286e+003, 8.852439e-003
1.315214e+003, 8.802089e-003
1.317143e+003, 8.896504e-003
1.319071e+003, 8.957248e-003
1.321000e+003, 9.005079e-003
1.322928e+003, 8.937901e-003
1.324857e+003, 8.838101e-003
1.326785e+003, 8.782478e-003
1.328714e+003, 8.883213e-003
1.330642e+003, 9.075548e-003
1.332571e+003, 9.038908e-003
1.334499e+003, 8.981941e-003
1.336427e+003, 8.944293e-003
1.338356e+003, 8.842767e-003
1.340284e+003, 8.832454e-003
1.342213e+003, 8.833130e-003
1.344141e+003, 8.664934e-003
1.346070e+003, 8.634345e-003
1.347998e+003, 8.696100e-003
1.349927e+003, 8.695289e-003
1.351855e+003, 8.675649e-003
1.353784e+003, 8.705599e-003
1.355712e+003, 8.756445e-003
1.357641e+003, 8.871512e-003
1.359569e+003, 8.967734e-003
1.361498e+003, 9.012285e-003
1.363426e+003, 9.100586e-003
1.365354e+003, 9.151445e-003
1.367283e+003, 9.132765e-003
1.369211e+003, 8.979641e-003
1.371140e+003, 8.813045e-003
1.373068e+003, 8.888421e-003
1.374997e+003, 9.032074e-003
1.376925e+003, 8.964892e-003
1.378854e+003, 9.067023e-003
1.380782e+003, 9.367836e-003
1.382711e+003, 9.467960e-003
1.384639e+003, 9.473650e-003
1.386568e+003, 9.511410e-003
1.388496e+003, 9.453534e-003
1.390424e+003, 9.452146e-003
1.392353e+003, 9.714156e-003
1.394281e+003, 9.962051e-003
1.396210e+003, 1.000623e-002
1.398138e+003, 9.907878e-003
1.400067e+003, 9.841983e-003
1.401995e+003, 9.954084e-003
1.403924e+003, 1.008524e-002
1.405852e+003, 1.037335e-002
1.407781e+003, 1.058387e-002
1.409709e+003, 1.037101e-002
1.411638e+003, 1.016650e-002
1.413566e+003, 1.015198e-002
1.415495e+003, 1.029660e-002
1.417423e+003, 1.050701e-002
1.419351e+003, 1.044177e-002
1.421280e+003, 1.029273e-002
1.423208e+003, 1.017528e-002
1.425137e+003, 1.021952e-002
1.427065e+003, 1.043233e-002
1.428994e+003, 1.065728e-002
1.430922e+003, 1.076850e-002
1.432851e+003, 1.065388e-002
1.434779e+003, 1.037481e-002
1.436708e+003, 1.041153e-002
1.438636e+003, 1.063768e-002
1.440565e+003, 1.063035e-002
1.442493e+003, 1.068013e-002
1.444422e+003, 1.071667e-002
1.446350e+003, 1.066909e-002
1.448278e+003, 1.054710e-002
1.450207e+003, 1.035706e-002
1.452135e+003, 1.040661e-002
1.454064e+003, 1.052761e-002
1.455992e+003, 1.038309e-002
1.457921e+003, 1.014886e-002
1.459849e+003, 1.006648e-002
1.461778e+003, 1.010097e-002
1.463706e+003, 1.013048e-002
1.465635e+003, 1.004878e-002
1.467563e+003, 9.822834e-003
1.469492e+003, 1.002403e-002
1.471420e+003, 1.048450e-002
1.473349e+003, 1.073573e-002
1.475277e+003, 1.080114e-002
1.477205e+003, 1.064821e-002
1.479134e+003, 1.059796e-002
1.481062e+003, 1.055131e-002
1.482991e+003, 1.066522e-002
1.484919e+003, 1.067504e-002
1.486848e+003, 1.072010e-002
1.488776e+003, 1.092657e-002
1.490705e+003, 1.084663e-002
1.492633e+003, 1.077264e-002
1.494562e+003, 1.082920e-002
1.496490e+003, 1.086151e-002
1.498419e+003, 1.088516e-002
1.500347e+003, 1.064869e-002
1.502276e+003, 1.071406e-002
1.504204e+003, 1.091808e-002
1.506132e+003, 1.076640e-002
1.508061e+003, 1.064094e-002
1.509989e+003, 1.078039e-002
1.511918e+003, 1.084914e-002
1.513846e+003, 1.090965e-002
1.515775e+003, 1.103430e-002
1.517703e+003, 1.122344e-002
1.519632e+003, 1.126642e-002
1.521560e+003, 1.118380e-002
1.523489e+003, 1.124816e-002
1.525417e+003, 1.145743e-002
1.527346e+003, 1.137379e-002
1.529274e+003, 1.128883e-002
1.531203e+003, 1.128951e-002
1.533131e+003, 1.141569e-002
1.535059e+003, 1.137770e-002
1.536988e+003, 1.138906e-002
1.538916e+003, 1.158591e-002
1.540845e+003, 1.174105e-002
1.542773e+003, 1.174357e-002
1.544702e+003, 1.186862e-002
1.546630e+003, 1.215172e-002
1.548559e+003, 1.231094e-002
1.550487e+003, 1.233095e-002
1.552416e+003, 1.230525e-002
1.554344e+003, 1.239007e-002
1.556273e+003, 1.241438e-002
1.558201e+003, 1.261442e-002
1.560130e+003, 1.292026e-002
1.562058e+003, 1.303739e-002
1.563986e+003, 1.299533e-002
1.565915e+003, 1.324183e-002
1.567843e+003, 1.336704e-002
1.569772e+003, 1.345668e-002
1.571700e+003, 1.357341e-002
1.573629e+003, 1.366480e-002
1.575557e+003, 1.377149e-002
1.577486e+003, 1.396121e-002
1.579414e+003, 1.406415e-002
1.581343e+003, 1.424462e-002
1.583271e+003, 1.433040e-002
1.585200e+003, 1.441448e-002
1.587128e+003, 1.456329e-002
1.589057e+003, 1.492661e-002
1.590985e+003, 1.524785e-002
1.592913e+003, 1.546942e-002
1.594842e+003, 1.540958e-002
1.596770e+003, 1.553065e-002
1.598699e+003, 1.587330e-002
1.600627e+003, 1.611572e-002
1.602556e+003, 1.629316e-002
1.604484e+003, 1.668571e-002
1.606413e+003, 1.697941e-002
1.608341e+003, 1.726031e-002
1.610270e+003, 1.770243e-002
1.612198e+003, 1.811892e-002
1.614127e+003, 1.852146e-002
1.616055e+003, 1.898688e-002
1.617984e+003, 1.955681e-002
1.619912e+003, 1.998216e-002
1.621840e+003, 2.046027e-002
1.623769e+003, 2.111334e-002
1.625697e+003, 2.177169e-002
1.627626e+003, 2.245082e-002
1.629554e+003, 2.312525e-002
1.631483e+003, 2.354141e-002
1.633411e+003, 2.394967e-002
1.635340e+003, 2.464555e-002
1.637268e+003, 2.538209e-002
1.639197e+003, 2.542389e-002
1.641125e+003, 2.502891e-002
1.643054e+003, 2.465323e-002
1.644982e+003, 2.415973e-002
1.646911e+003, 2.341333e-002
1.648839e+003, 2.261404e-002
1.650767e+003, 2.187165e-002
1.652696e+003, 2.096258e-002
1.654624e+003, 1.986501e-002
1.656553e+003, 1.893697e-002
1.658481e+003, 1.826670e-002
1.660410e+003, 1.761554e-002
1.662338e+003, 1.694950e-002
1.664267e+003, 1.623888e-002
1.666195e+003, 1.553450e-002
1.668124e+003, 1.484720e-002
1.670052e+003, 1.434909e-002
1.671981e+003, 1.367721e-002
1.673909e+003, 1.309695e-002
1.675838e+003, 1.265027e-002
1.677766e+003, 1.240766e-002
1.679694e+003, 1.206760e-002
1.681623e+003, 1.158697e-002
1.683551e+003, 1.118992e-002
1.685480e+003, 1.117506e-002
1.687408e+003, 1.101469e-002
1.689337e+003, 1.075661e-002
1.691265e+003, 1.053586e-002
1.693194e+003, 1.028279e-002
1.695122e+003, 9.940625e-003
1.697051e+003, 9.648664e-003
1.698979e+003, 9.431084e-003
1.700908e+003, 9.069865e-003
1.702836e+003, 8.606629e-003
1.704765e+003, 8.198112e-003
1.706693e+003, 8.054633e-003
1.708621e+003, 7.847565e-003
1.710550e+003, 7.627547e-003
1.712478e+003, 7.543084e-003
1.714407e+003, 7.559638e-003
1.716335e+003, 7.456041e-003
1.718264e+003, 7.306068e-003
1.720192e+003, 7.240298e-003
1.722121e+003, 7.223250e-003
1.724049e+003, 7.215805e-003
1.725978e+003, 7.077331e-003
1.727906e+003, 6.863728e-003
1.729835e+003, 6.560910e-003
1.731763e+003, 6.432733e-003
1.733692e+003, 6.163755e-003
1.735620e+003, 5.800205e-003
1.737548e+003, 5.569609e-003
1.739477e+003, 5.578201e-003
1.741405e+003, 5.631803e-003
1.743334e+003, 5.341785e-003
1.745262e+003, 5.271582e-003
1.747191e+003, 5.414816e-003
1.749119e+003, 5.700989e-003
1.751048e+003, 5.843592e-003
1.752976e+003, 5.845170e-003
1.754905e+003, 6.186743e-003
1.756833e+003, 6.614500e-003
1.758762e+003, 6.803039e-003
1.760690e+003, 6.759220e-003
1.762619e+003, 6.701037e-003
1.764547e+003, 6.834073e-003
1.766475e+003, 6.947150e-003
1.768404e+003, 6.964995e-003
1.770332e+003, 6.797150e-003
1.772261e+003, 6.672672e-003
1.774189e+003, 6.552030e-003
1.776118e+003, 6.609285e-003
1.778046e+003, 6.612414e-003
1.779975e+003, 6.594415e-003
1.781903e+003, 6.655781e-003
1.783832e+003, 6.772749e-003
1.785760e+003, 6.873961e-003
1.787689e+003, 6.956106e-003
1.789617e+003, 7.043890e-003
1.791546e+003, 7.153721e-003
1.793474e+003, 7.157763e-003
1.795402e+003, 7.119162e-003
1.797331e+003, 7.094170e-003
1.799259e+003, 7.018162e-003
1.801188e+003, 7.110843e-003
1.803116e+003, 7.064702e-003
1.805045e+003, 6.934592e-003
1.806973e+003, 6.857029e-003
1.808902e+003, 6.705478e-003
1.810830e+003, 6.820373e-003
1.812759e+003, 7.061469e-003
1.814687e+003, 6.950348e-003
1.816616e+003, 6.557344e-003
1.818544e+003, 6.703426e-003
1.820473e+003, 7.137822e-003
1.822401e+003, 7.311628e-003
1.824329e+003, 7.283762e-003
1.826258e+003, 6.968934e-003
1.828186e+003, 6.740980e-003
1.830115e+003, 6.799674e-003
1.832043e+003, 7.142537e-003
1.833972e+003, 7.170698e-003
1.835900e+003, 7.012606e-003
1.837829e+003, 7.140247e-003
1.839757e+003, 7.206406e-003
1.841686e+003, 7.324938e-003
1.843614e+003, 7.219477e-003
1.845543e+003, 7.236794e-003
1.847471e+003, 7.223722e-003
1.849400e+003, 6.869215e-003
1.851328e+003, 6.698749e-003
1.853256e+003, 6.811521e-003
1.855185e+003, 7.160222e-003
1.857113e+003, 7.387452e-003
1.859042e+003, 7.390620e-003
1.860970e+003, 7.278505e-003
1.862899e+003, 6.977587e-003
1.864827e+003, 6.660760e-003
1.866756e+003, 6.593104e-003
1.868684e+003, 7.049244e-003
1.870613e+003, 7.267016e-003
1.872541e+003, 7.226013e-003
1.874470e+003, 7.236491e-003
1.876398e+003, 7.116501e-003
1.878327e+003, 7.073694e-003
1.880255e+003, 7.189663e-003
1.882183e+003, 7.283424e-003
1.884112e+003, 6.932336e-003
1.886040e+003, 6.989675e-003
1.887969e+003, 7.277158e-003
1.889897e+003, 7.275675e-003
1.891826e+003, 7.158975e-003
1.893754e+003, 7.203778e-003
1.895683e+003, 7.469929e-003
1.897611e+003, 7.513686e-003
1.899540e+003, 7.325477e-003
1.901468e+003, 7.339698e-003
1.903397e+003, 7.553266e-003
1.905325e+003, 7.440570e-003
1.907254e+003, 7.274125e-003
1.909182e+003, 7.603471e-003
1.911110e+003, 7.405314e-003
1.913039e+003, 6.741351e-003
1.914967e+003, 6.572650e-003
1.916896e+003, 6.966846e-003
1.918824e+003, 7.094305e-003
1.920753e+003, 6.436164e-003
1.922681e+003, 6.657295e-003
1.924610e+003, 7.184475e-003
1.926538e+003, 6.827139e-003
1.928467e+003, 6.992335e-003
1.930395e+003, 7.527778e-003
1.932324e+003, 7.682651e-003
1.934252e+003, 7.209303e-003
1.936181e+003, 6.692524e-003
1.938109e+003, 7.135700e-003
1.940037e+003, 7.437638e-003
1.941966e+003, 6.869316e-003
1.943894e+003, 6.552231e-003
1.945823e+003, 6.852956e-003
1.947751e+003, 5.667553e-003
1.949680e+003, 4.880295e-003
1.951608e+003, 6.100812e-003
1.953537e+003, 6.915839e-003
1.955465e+003, 7.094440e-003
1.957394e+003, 6.934558e-003
1.959322e+003, 6.426714e-003
1.961251e+003, 5.882046e-003
1.963179e+003, 6.072419e-003
1.965108e+003, 6.504469e-003
1.967036e+003, 7.210651e-003
1.968964e+003, 7.377813e-003
1.970893e+003, 6.407983e-003
1.972821e+003, 5.588504e-003
1.974750e+003, 5.627675e-003
1.976678e+003, 6.801188e-003
1.978607e+003, 8.040085e-003
1.980535e+003, 8.483186e-003
1.982464e+003, 7.621848e-003
1.984392e+003, 7.095484e-003
1.986321e+003, 7.855630e-003
1.988249e+003, 8.394435e-003
1.990178e+003, 7.891428e-003
1.992106e+003, 5.800810e-003
1.994035e+003, 4.648780e-003
1.995963e+003, 5.677490e-003
1.997891e+003, 6.545403e-003
1.999820e+003, 6.754744e-003
2.001748e+003, 5.028126e-003
2.003677e+003, 3.851230e-003
2.005605e+003, 5.058966e-003
2.007534e+003, 6.543688e-003
2.009462e+003, 7.353245e-003
2.011391e+003, 7.420751e-003
2.013319e+003, 5.730466e-003
2.015248e+003, 5.036775e-003
2.017176e+003, 6.200960e-003
2.019105e+003, 6.777057e-003
2.021033e+003, 5.740068e-003
2.022962e+003, 6.088212e-003
2.024890e+003, 6.888773e-003
2.026818e+003, 6.022256e-003
2.028747e+003, 5.784390e-003
2.030675e+003, 6.705781e-003
2.032604e+003, 7.383205e-003
2.034532e+003, 7.121351e-003
2.036461e+003, 6.683876e-003
2.038389e+003, 6.981425e-003
2.040318e+003, 7.329049e-003
2.042246e+003, 6.578705e-003
2.044175e+003, 6.332734e-003
2.046103e+003, 7.631695e-003
2.048032e+003, 8.241266e-003
2.049960e+003, 8.777711e-003
2.051889e+003, 7.831338e-003
2.053817e+003, 6.793077e-003
2.055746e+003, 7.297610e-003
2.057674e+003, 7.139640e-003
2.059603e+003, 6.363666e-003
2.061531e+003, 6.356471e-003
2.063459e+003, 7.364568e-003
2.065388e+003, 7.686260e-003
2.067316e+003, 7.593052e-003
2.069245e+003, 8.417271e-003
2.071173e+003, 9.275383e-003
2.073102e+003, 8.953561e-003
2.075030e+003, 8.679165e-003
2.076959e+003, 8.449400e-003
2.078887e+003, 8.261629e-003
2.080816e+003, 8.541170e-003
2.082744e+003, 8.713780e-003
2.084673e+003, 8.725578e-003
2.086601e+003, 9.389098e-003
2.088530e+003, 8.888455e-003
2.090458e+003, 8.293274e-003
2.092386e+003, 8.239037e-003
2.094315e+003, 8.234208e-003
2.096243e+003, 8.372410e-003
2.098172e+003, 9.013197e-003
2.100100e+003, 8.733117e-003
2.102029e+003, 8.677711e-003
2.103957e+003, 9.311197e-003
2.105886e+003, 9.849949e-003
2.107814e+003, 9.628948e-003
2.109743e+003, 8.886121e-003
2.111671e+003, 8.649487e-003
2.113600e+003, 9.028928e-003
2.115528e+003, 9.266988e-003
2.117457e+003, 9.299789e-003
2.119385e+003, 9.402811e-003
2.121313e+003, 8.741062e-003
2.123242e+003, 8.073029e-003
2.125170e+003, 8.222018e-003
2.127099e+003, 7.691521e-003
2.129027e+003, 6.739264e-003
2.130956e+003, 6.790889e-003
2.132884e+003, 7.112055e-003
2.134813e+003, 6.799034e-003
2.136741e+003, 7.389002e-003
2.138670e+003, 8.457778e-003
2.140598e+003, 8.815107e-003
2.142527e+003, 7.891124e-003
2.144455e+003, 7.637192e-003
2.146384e+003, 7.763093e-003
2.148312e+003, 7.984227e-003
2.150240e+003, 8.312794e-003
2.152169e+003, 7.773348e-003
2.154097e+003, 6.826735e-003
2.156026e+003, 6.460141e-003
2.157954e+003, 7.539005e-003
2.159883e+003, 9.709989e-003
2.161811e+003, 1.039168e-002
2.163740e+003, 1.170016e-002
2.165668e+003, 1.004644e-002
2.167597e+003, 8.042110e-003
2.169525e+003, 8.069721e-003
2.171454e+003, 9.559167e-003
2.173382e+003, 1.029768e-002
2.175311e+003, 9.109282e-003
2.177239e+003, 9.592091e-003
2.179167e+003, 9.509311e-003
2.181096e+003, 9.458309e-003
2.183024e+003, 9.989581e-003
2.184953e+003, 9.480457e-003
2.186881e+003, 9.274131e-003
2.188810e+003, 9.821139e-003
2.190738e+003, 1.033623e-002
2.192667e+003, 9.724287e-003
2.194595e+003, 8.281926e-003
2.196524e+003, 8.233095e-003
2.198452e+003, 8.928533e-003
2.200381e+003, 8.788463e-003
2.202309e+003, 8.976190e-003
2.204238e+003, 8.919637e-003
2.206166e+003, 9.144101e-003
2.208094e+003, 9.294881e-003
2.210023e+003, 9.302801e-003
2.211951e+003, 9.183492e-003
2.213880e+003, 8.959785e-003
2.215808e+003, 9.420316e-003
2.217737e+003, 8.493390e-003
2.219665e+003, 7.509000e-003
2.221594e+003, 8.036979e-003
2.223522e+003, 8.969290e-003
2.225451e+003, 9.077105e-003
2.227379e+003, 8.556781e-003
2.229308e+003, 8.422001e-003
2.231236e+003, 8.889875e-003
2.233165e+003, 9.093413e-003
2.235093e+003, 9.401896e-003
2.237021e+003, 9.236255e-003
2.238950e+003, 8.697757e-003
2.240878e+003, 8.912230e-003
2.242807e+003, 9.393940e-003
2.244735e+003, 8.936210e-003
2.246664e+003, 8.145441e-003
2.248592e+003, 7.814672e-003
2.250521e+003, 8.033301e-003
2.252449e+003, 8.326237e-003
2.254378e+003, 8.805877e-003
2.256306e+003, 8.967903e-003
2.258235e+003, 8.815040e-003
2.260163e+003, 8.463657e-003
2.262092e+003, 8.333668e-003
2.264020e+003, 8.584088e-003
2.265948e+003, 9.159058e-003
2.267877e+003, 8.961138e-003
2.269805e+003, 8.442136e-003
2.271734e+003, 8.567528e-003
2.273662e+003, 9.268376e-003
2.275591e+003, 9.298672e-003
2.277519e+003, 9.678173e-003
2.279448e+003, 9.846763e-003
2.281376e+003, 9.200650e-003
2.283305e+003, 9.140210e-003
2.285233e+003, 9.362791e-003
2.287162e+003, 9.526990e-003
2.289090e+003, 9.563773e-003
2.291019e+003, 9.527701e-003
2.292947e+003, 9.300432e-003
2.294875e+003, 9.130430e-003
2.296804e+003, 9.348605e-003
2.298732e+003, 9.271118e-003
2.300661e+003, 9.380057e-003
2.302589e+003, 9.500573e-003
2.304518e+003, 9.191918e-003
2.306446e+003, 9.102819e-003
2.308375e+003, 9.576035e-003
2.310303e+003, 9.718595e-003
2.312232e+003, 9.887233e-003
2.314160e+003, 1.008581e-002
2.316089e+003, 1.013428e-002
2.318017e+003, 1.041964e-002
2.319946e+003, 1.031224e-002
2.321874e+003, 1.020673e-002
2.323802e+003, 1.035686e-002
2.325731e+003, 1.011729e-002
2.327659e+003, 1.005021e-002
2.329588e+003, 1.004851e-002
2.331516e+003, 9.808294e-003
2.333445e+003, 9.712632e-003
2.335373e+003, 1.008232e-002
2.337302e+003, 1.023064e-002
2.339230e+003, 9.747668e-003
2.341159e+003, 9.452146e-003
2.343087e+003, 9.663978e-003
2.345016e+003, 9.955406e-003
2.346944e+003, 9.633419e-003
2.348873e+003, 9.319559e-003
2.350801e+003, 9.695419e-003
2.352729e+003, 9.549107e-003
2.354658e+003, 9.080929e-003
2.356586e+003, 9.168737e-003
2.358515e+003, 9.263637e-003
2.360443e+003, 9.188061e-003
2.362372e+003, 9.173677e-003
2.364300e+003, 8.913921e-003
2.366229e+003, 8.385855e-003
2.368157e+003, 8.131092e-003
2.370086e+003, 8.085451e-003
2.372014e+003, 8.199936e-003
2.373942e+003, 8.534444e-003
2.375871e+003, 8.954407e-003
2.377799e+003, 8.538196e-003
2.379728e+003, 8.451055e-003
2.381656e+003, 8.593212e-003
2.383585e+003, 8.404130e-003
2.385513e+003, 8.225362e-003
2.387442e+003, 8.130215e-003
2.389370e+003, 7.909952e-003
2.391299e+003, 7.733680e-003
2.393227e+003, 7.840582e-003
2.395156e+003, 7.809713e-003
2.397084e+003, 7.955676e-003
2.399012e+003, 8.206419e-003
2.400941e+003, 7.944642e-003
2.402869e+003, 8.020778e-003
2.404798e+003, 8.235255e-003
2.406726e+003, 8.366499e-003
2.408655e+003, 8.635866e-003
2.410583e+003, 8.753537e-003
2.412512e+003, 8.419872e-003
2.414440e+003, 8.370688e-003
2.416369e+003, 8.253592e-003
2.418297e+003, 8.142909e-003
2.420226e+003, 8.537216e-003
2.422154e+003, 8.758811e-003
2.424083e+003, 8.709555e-003
2.426011e+003, 8.944429e-003
2.427939e+003, 8.723279e-003
2.429868e+003, 8.253491e-003
2.431796e+003, 8.431258e-003
2.433725e+003, 8.924033e-003
2.435653e+003, 8.681903e-003
2.437582e+003, 8.175422e-003
2.439510e+003, 8.420683e-003
2.441439e+003, 8.885850e-003
2.443367e+003, 8.992563e-003
2.445296e+003, 8.646073e-003
2.447224e+003, 8.945782e-003
2.449153e+003, 8.842429e-003
2.451081e+003, 8.600411e-003
2.453010e+003, 8.454197e-003
2.454938e+003, 8.552558e-003
2.456866e+003, 8.451156e-003
2.458795e+003, 8.252984e-003
2.460723e+003, 8.578511e-003
2.462652e+003, 8.921904e-003
2.464580e+003, 8.775243e-003
2.466509e+003, 8.593077e-003
2.468437e+003, 8.621568e-003
2.470366e+003, 8.179035e-003
2.472294e+003, 8.109723e-003
2.474223e+003, 9.045607e-003
2.476151e+003, 8.928836e-003
2.478080e+003, 8.608860e-003
2.480008e+003, 8.800399e-003
2.481937e+003, 8.701272e-003
2.483865e+003, 8.367546e-003
2.485793e+003, 8.066413e-003
2.487722e+003, 7.911639e-003
2.489650e+003, 7.992124e-003
2.491579e+003, 8.440312e-003
2.493507e+003, 8.759589e-003
2.495436e+003, 8.632215e-003
2.497364e+003, 8.713172e-003
2.499293e+003, 8.905196e-003
2.501221e+003, 8.911384e-003
2.503150e+003, 8.764491e-003
2.505078e+003, 8.523057e-003
2.507007e+003, 8.564048e-003
2.508935e+003, 8.534681e-003
2.510864e+003, 8.260786e-003
2.512792e+003, 8.098414e-003
2.514720e+003, 8.264298e-003
2.516649e+003, 8.494201e-003
2.518577e+003, 8.796172e-003
2.520506e+003, 8.416426e-003
2.522434e+003, 8.303034e-003
2.524363e+003, 8.227421e-003
2.526291e+003, 8.764288e-003
2.528220e+003, 8.858492e-003
2.530148e+003, 8.310633e-003
2.532077e+003, 8.076944e-003
2.534005e+003, 8.460211e-003
2.535934e+003, 8.644890e-003
2.537862e+003, 8.497039e-003
2.539791e+003, 8.421494e-003
2.541719e+003, 8.680111e-003
2.543647e+003, 9.000715e-003
2.545576e+003, 9.239200e-003
2.547504e+003, 9.505586e-003
2.549433e+003, 9.638467e-003
2.551361e+003, 9.153069e-003
2.553290e+003, 8.548502e-003
2.555218e+003, 8.706309e-003
2.557147e+003, 8.925826e-003
2.559075e+003, 8.694985e-003
2.561004e+003, 8.435548e-003
2.562932e+003, 8.299927e-003
2.564861e+003, 8.275712e-003
2.566789e+003, 8.390246e-003
2.568718e+003, 8.378221e-003
2.570646e+003, 8.393117e-003
2.572574e+003, 8.705396e-003
2.574503e+003, 9.000512e-003
2.576431e+003, 8.929107e-003
2.578360e+003, 9.032954e-003
2.580288e+003, 9.149380e-003
2.582217e+003, 9.172223e-003
2.584145e+003, 8.886020e-003
2.586074e+003, 9.058835e-003
2.588002e+003, 8.888793e-003
2.589931e+003, 8.748703e-003
2.591859e+003, 8.998110e-003
2.593788e+003, 9.079508e-003
2.595716e+003, 9.093549e-003
2.597645e+003, 9.349587e-003
2.599573e+003, 9.283609e-003
2.601501e+003, 9.134762e-003
2.603430e+003, 9.093921e-003
2.605358e+003, 8.936514e-003
2.607287e+003, 8.823696e-003
2.609215e+003, 8.954881e-003
2.611144e+003, 9.374370e-003
2.613072e+003, 9.426749e-003
2.615001e+003, 9.237642e-003
2.616929e+003, 9.018948e-003
2.618858e+003, 9.138789e-003
2.620786e+003, 9.116659e-003
2.622715e+003, 8.899514e-003
2.624643e+003, 8.785995e-003
2.626572e+003, 9.209584e-003
2.628500e+003, 9.479170e-003
2.630428e+003, 9.348944e-003
2.632357e+003, 9.470026e-003
2.634285e+003, 9.643176e-003
2.636214e+003, 9.382055e-003
2.638142e+003, 9.446931e-003
2.640071e+003, 9.469959e-003
2.641999e+003, 9.196419e-003
2.643928e+003, 9.324772e-003
2.645856e+003, 9.366617e-003
2.647785e+003, 9.427900e-003
2.649713e+003, 9.592769e-003
2.651642e+003, 9.530310e-003
2.653570e+003, 9.509345e-003
2.655499e+003, 9.419233e-003
2.657427e+003, 9.490785e-003
2.659355e+003, 9.350738e-003
2.661284e+003, 8.944057e-003
2.663212e+003, 8.788023e-003
2.665141e+003, 8.946898e-003
2.667069e+003, 9.171749e-003
2.668998e+003, 9.242381e-003
2.670926e+003, 9.153475e-003
2.672855e+003, 9.364923e-003
2.674783e+003, 9.480389e-003
2.676712e+003, 9.367192e-003
2.678640e+003, 9.190971e-003
2.680569e+003, 9.209483e-003
2.682497e+003, 9.453704e-003
2.684426e+003, 9.596969e-003
2.686354e+003, 9.196893e-003
2.688282e+003, 9.033157e-003
2.690211e+003, 9.256969e-003
2.692139e+003, 9.260523e-003
2.694068e+003, 9.103936e-003
2.695996e+003, 9.430001e-003
2.697925e+003, 9.798602e-003
2.699853e+003, 9.863642e-003
2.701782e+003, 9.747838e-003
2.703710e+003, 9.521039e-003
2.705639e+003, 9.797044e-003
2.707567e+003, 9.850297e-003
2.709496e+003, 9.649380e-003
2.711424e+003, 9.556815e-003
2.713353e+003, 9.957330e-003
2.715281e+003, 9.829137e-003
2.717209e+003, 9.332399e-003
2.719138e+003, 9.288430e-003
2.721066e+003, 9.812211e-003
2.722995e+003, 9.927353e-003
2.724923e+003, 9.818726e-003
2.726852e+003, 9.791986e-003
2.728780e+003, 9.568633e-003
2.730709e+003, 9.514702e-003
2.732637e+003, 9.711844e-003
2.734566e+003, 9.828381e-003
2.736494e+003, 9.995583e-003
2.738423e+003, 1.028455e-002
2.740351e+003, 1.020525e-002
2.742280e+003, 9.871759e-003
2.744208e+003, 1.010927e-002
2.746136e+003, 1.055261e-002
2.748065e+003, 1.065112e-002
2.749993e+003, 1.080439e-002
2.751922e+003, 1.090736e-002
2.753850e+003, 1.070251e-002
2.755779e+003, 1.045608e-002
2.757707e+003, 1.059200e-002
2.759636e+003, 1.058155e-002
2.761564e+003, 1.067982e-002
2.763493e+003, 1.082027e-002
2.765421e+003, 1.064241e-002
2.767350e+003, 1.047400e-002
2.769278e+003, 1.053875e-002
2.771207e+003, 1.082190e-002
2.773135e+003, 1.069104e-002
2.775063e+003, 1.061893e-002
2.776992e+003, 1.086751e-002
2.778920e+003, 1.085712e-002
2.780849e+003, 1.079984e-002
2.782777e+003, 1.076313e-002
2.784706e+003, 1.087925e-002
2.786634e+003, 1.072357e-002
2.788563e+003, 1.047742e-002
2.790491e+003, 1.082205e-002
2.792420e+003, 1.144033e-002
2.794348e+003, 1.161371e-002
2.796277e+003, 1.138706e-002
2.798205e+003, 1.104212e-002
2.800134e+003, 1.130245e-002
2.802062e+003, 1.151518e-002
2.803990e+003, 1.128237e-002
2.805919e+003, 1.119642e-002
2.807847e+003, 1.137941e-002
2.809776e+003, 1.144148e-002
2.811704e+003, 1.134633e-002
2.813633e+003, 1.163848e-002
2.815561e+003, 1.160020e-002
2.817490e+003, 1.127247e-002
2.819418e+003, 1.135452e-002
2.821347e+003, 1.166536e-002
2.823275e+003, 1.188141e-002
2.825204e+003, 1.217121e-002
2.827132e+003, 1.216515e-002
2.829061e+003, 1.184321e-002
2.830989e+003, 1.194868e-002
2.832917e+003, 1.169134e-002
2.834846e+003, 1.156649e-002
2.836774e+003, 1.201753e-002
2.838703e+003, 1.196396e-002
2.840631e+003, 1.131188e-002
2.842560e+003, 1.126671e-002
2.844488e+003, 1.140246e-002
2.846417e+003, 1.169171e-002
2.848345e+003, 1.227027e-002
2.850274e+003, 1.241079e-002
2.852202e+003, 1.226692e-002
2.854131e+003, 1.186248e-002
2.856059e+003, 1.180164e-002
2.857988e+003, 1.233524e-002
2.859916e+003, 1.235592e-002
2.861844e+003, 1.213720e-002
2.863773e+003, 1.253765e-002
2.865701e+003, 1.291986e-002
2.867630e+003, 1.265750e-002
2.869558e+003, 1.215186e-002
2.871487e+003, 1.243149e-002
2.873415e+003, 1.296542e-002
2.875344e+003, 1.313252e-002
2.877272e+003, 1.299677e-002
2.879201e+003, 1.299045e-002
2.881129e+003, 1.326344e-002
2.883058e+003, 1.304771e-002
2.884986e+003, 1.314097e-002
2.886915e+003, 1.321436e-002
2.888843e+003, 1.320267e-002
2.890771e+003, 1.304737e-002
2.892700e+003, 1.345510e-002
2.894628e+003, 1.399915e-002
2.896557e+003, 1.370126e-002
2.898485e+003, 1.348087e-002
2.900414e+003, 1.357903e-002
2.902342e+003, 1.331642e-002
2.904271e+003, 1.343103e-002
2.906199e+003, 1.370611e-002
2.908128e+003, 1.393158e-002
2.910056e+003, 1.412333e-002
2.911985e+003, 1.439914e-002
2.913913e+003, 1.448167e-002
2.915842e+003, 1.409390e-002
2.917770e+003, 1.401857e-002
2.919698e+003, 1.414722e-002
2.921627e+003, 1.414336e-002
2.923555e+003, 1.427110e-002
2.925484e+003, 1.424246e-002
2.927412e+003, 1.419077e-002
2.929341e+003, 1.429794e-002
2.931269e+003, 1.447663e-002
2.933198e+003, 1.495095e-002
2.935126e+003, 1.515545e-002
2.937055e+003, 1.472928e-002
2.938983e+003, 1.449750e-002
2.940912e+003, 1.511550e-002
2.942840e+003, 1.561546e-002
2.944769e+003, 1.535301e-002
2.946697e+003, 1.482770e-002
2.948625e+003, 1.477478e-002
2.950554e+003, 1.525071e-002
2.952482e+003, 1.552597e-002
2.954411e+003, 1.569110e-002
2.956339e+003, 1.583885e-002
2.958268e+003, 1.640672e-002
2.960196e+003, 1.675178e-002
2.962125e+003, 1.673697e-002
2.964053e+003, 1.666844e-002
2.965982e+003, 1.662457e-002
2.967910e+003, 1.663887e-002
2.969839e+003, 1.671751e-002
2.971767e+003, 1.670824e-002
2.973696e+003, 1.690794e-002
2.975624e+003, 1.690538e-002
2.977552e+003, 1.739889e-002
2.979481e+003, 1.795941e-002
2.981409e+003, 1.752482e-002
2.983338e+003, 1.739519e-002
2.985266e+003, 1.792999e-002
2.987195e+003, 1.857540e-002
2.989123e+003, 1.880778e-002
2.991052e+003, 1.859940e-002
2.992980e+003, 1.841341e-002
2.994909e+003, 1.823476e-002
2.996837e+003, 1.820171e-002
2.998766e+003, 1.848393e-002
3.000694e+003, 1.868000e-002
3.002623e+003, 1.874976e-002
3.004551e+003, 1.920456e-002
3.006479e+003, 1.932319e-002
3.008408e+003, 1.939749e-002
3.010336e+003, 1.966998e-002
3.012265e+003, 1.954207e-002
3.014193e+003, 1.918509e-002
3.016122e+003, 1.958336e-002
3.018050e+003, 1.992961e-002
3.019979e+003, 2.017877e-002
3.021907e+003, 2.045700e-002
3.023836e+003, 2.039431e-002
3.025764e+003, 2.046960e-002
3.027693e+003, 2.047926e-002
3.029621e+003, 2.039983e-002
3.031550e+003, 1.983201e-002
3.033478e+003, 1.942343e-002
3.035406e+003, 1.960987e-002
3.037335e+003, 2.001484e-002
3.039263e+003, 2.030005e-002
3.041192e+003, 2.060641e-002
3.043120e+003, 2.073434e-002
3.045049e+003, 2.093479e-002
3.046977e+003, 2.129603e-002
3.048906e+003, 2.153217e-002
3.050834e+003, 2.179476e-002
3.052763e+003, 2.190688e-002
3.054691e+003, 2.189615e-002
3.056620e+003, 2.199785e-002
3.058548e+003, 2.206274e-002
3.060477e+003, 2.232600e-002
3.062405e+003, 2.265241e-002
3.064333e+003, 2.241474e-002
3.066262e+003, 2.237534e-002
3.068190e+003, 2.281925e-002
3.070119e+003, 2.291167e-002
3.072047e+003, 2.306786e-002
3.073976e+003, 2.380092e-002
3.075904e+003, 2.406647e-002
3.077833e+003, 2.384687e-002
3.079761e+003, 2.390122e-002
3.081690e+003, 2.396191e-002
3.083618e+003, 2.460511e-002
3.085547e+003, 2.526623e-002
3.087475e+003, 2.536366e-002
3.089404e+003, 2.522196e-002
3.091332e+003, 2.543462e-002
3.093260e+003, 2.535777e-002
3.095189e+003, 2.542562e-002
3.097117e+003, 2.570059e-002
3.099046e+003, 2.588945e-002
3.100974e+003, 2.661789e-002
3.102903e+003, 2.696340e-002
3.104831e+003, 2.643006e-002
3.106760e+003, 2.679673e-002
3.108688e+003, 2.690850e-002
3.110617e+003, 2.657377e-002
3.112545e+003, 2.707141e-002
3.114474e+003, 2.762948e-002
3.116402e+003, 2.773920e-002
3.118331e+003, 2.815109e-002
3.120259e+003, 2.821243e-002
3.122188e+003, 2.817366e-002
3.124116e+003, 2.864898e-002
3.126044e+003, 2.934080e-002
3.127973e+003, 2.979811e-002
3.129901e+003, 2.964658e-002
3.131830e+003, 3.013686e-002
3.133758e+003, 3.019869e-002
3.135687e+003, 3.003075e-002
3.137615e+003, 3.008285e-002
3.139544e+003, 3.023972e-002
3.141472e+003, 3.047367e-002
3.143401e+003, 3.060793e-002
3.145329e+003, 3.079861e-002
3.147258e+003, 3.123536e-002
3.149186e+003, 3.111493e-002
3.151115e+003, 3.073704e-002
3.153043e+003, 3.103285e-002
3.154971e+003, 3.187376e-002
3.156900e+003, 3.239813e-002
3.158828e+003, 3.254210e-002
3.160757e+003, 3.311184e-002
3.162685e+003, 3.362639e-002
3.164614e+003, 3.399369e-002
3.166542e+003, 3.412213e-002
3.168471e+003, 3.418214e-002
3.170399e+003, 3.445125e-002
3.172328e+003, 3.453552e-002
3.174256e+003, 3.501401e-002
3.176185e+003, 3.530927e-002
3.178113e+003, 3.541919e-002
3.180042e+003, 3.517912e-002
3.181970e+003, 3.514427e-002
3.183898e+003, 3.566818e-002
3.185827e+003, 3.631371e-002
3.187755e+003, 3.692287e-002
3.189684e+003, 3.744431e-002
3.191612e+003, 3.794038e-002
3.193541e+003, 3.801053e-002
3.195469e+003, 3.794157e-002
3.197398e+003, 3.816563e-002
3.199326e+003, 3.797882e-002
3.201255e+003, 3.812863e-002
3.203183e+003, 3.878717e-002
3.205112e+003, 3.875714e-002
3.207040e+003, 3.863866e-002
3.208969e+003, 3.851217e-002
3.210897e+003, 3.875569e-002
3.212825e+003, 3.906054e-002
3.214754e+003, 3.916104e-002
3.216682e+003, 3.932323e-002
3.218611e+003, 4.000307e-002
3.220539e+003, 4.025695e-002
3.222468e+003, 3.986002e-002
3.224396e+003, 4.003420e-002
3.226325e+003, 3.983282e-002
3.228253e+003, 3.983627e-002
3.230182e+003, 4.007221e-002
3.232110e+003, 4.020901e-002
3.234039e+003, 4.024547e-002
3.235967e+003, 4.044864e-002
3.237896e+003, 4.022402e-002
3.239824e+003, 4.038802e-002
3.241752e+003, 4.052473e-002
3.243681e+003, 4.043624e-002
3.245609e+003, 4.000169e-002
3.247538e+003, 4.019323e-002
3.249466e+003, 4.045792e-002
3.251395e+003, 4.045970e-002
3.253323e+003, 4.037941e-002
3.255252e+003, 4.008032e-002
3.257180e+003, 3.989685e-002
3.259109e+003, 4.010582e-002
3.261037e+003, 3.965900e-002
3.262966e+003, 4.016532e-002
3.264894e+003, 4.121487e-002
3.266823e+003, 4.135662e-002
3.268751e+003, 4.131781e-002
3.270679e+003, 4.131186e-002
3.272608e+003, 4.111782e-002
3.274536e+003, 4.114161e-002
3.276465e+003, 4.071338e-002
3.278393e+003, 4.083312e-002
3.280322e+003, 4.085161e-002
3.282250e+003, 4.099178e-002
3.284179e+003, 4.177327e-002
3.286107e+003, 4.129871e-002
3.288036e+003, 4.080785e-002
3.289964e+003, 4.136208e-002
3.291893e+003, 4.162807e-002
3.293821e+003, 4.151671e-002
3.295750e+003, 4.159029e-002
3.297678e+003, 4.160440e-002
3.299606e+003, 4.159091e-002
3.301535e+003, 4.127091e-002
3.303463e+003, 4.104782e-002
3.305392e+003, 4.063562e-002
3.307320e+003, 4.057828e-002
3.309249e+003, 4.093629e-002
3.311177e+003, 4.127353e-002
3.313106e+003, 4.138242e-002
3.315034e+003, 4.077790e-002
3.316963e+003, 3.996416e-002
3.318891e+003, 3.982370e-002
3.320820e+003, 3.967059e-002
3.322748e+003, 3.989776e-002
3.324677e+003, 4.014606e-002
3.326605e+003, 3.990673e-002
3.328533e+003, 4.021100e-002
3.330462e+003, 4.001513e-002
3.332390e+003, 3.956891e-002
3.334319e+003, 3.904321e-002
3.336247e+003, 3.904513e-002
3.338176e+003, 3.955066e-002
3.340104e+003, 3.917265e-002
3.342033e+003, 3.847394e-002
3.343961e+003, 3.824527e-002
3.345890e+003, 3.795007e-002
3.347818e+003, 3.779558e-002
3.349747e+003, 3.757944e-002
3.351675e+003, 3.784945e-002
3.353604e+003, 3.779616e-002
3.355532e+003, 3.761330e-002
3.357460e+003, 3.727708e-002
3.359389e+003, 3.697666e-002
3.361317e+003, 3.683511e-002
3.363246e+003, 3.632437e-002
3.365174e+003, 3.638386e-002
3.367103e+003, 3.619046e-002
3.369031e+003, 3.568606e-002
3.370960e+003, 3.555866e-002
3.372888e+003, 3.630751e-002
3.374817e+003, 3.569685e-002
3.376745e+003, 3.462888e-002
3.378674e+003, 3.419866e-002
3.380602e+003, 3.397653e-002
3.382531e+003, 3.460272e-002
3.384459e+003, 3.487170e-002
3.386387e+003, 3.519776e-002
3.388316e+003, 3.457079e-002
3.390244e+003, 3.354409e-002
3.392173e+003, 3.306975e-002
3.394101e+003, 3.311158e-002
3.396030e+003, 3.348912e-002
3.397958e+003, 3.309628e-002
3.399887e+003, 3.272209e-002
3.401815e+003, 3.256678e-002
3.403744e+003, 3.279502e-002
3.405672e+003, 3.222010e-002
3.407601e+003, 3.191712e-002
3.409529e+003, 3.196584e-002
3.411458e+003, 3.245997e-002
3.413386e+003, 3.302817e-002
3.415314e+003, 3.262725e-002
3.417243e+003, 3.238928e-002
3.419171e+003, 3.277758e-002
3.421100e+003, 3.263100e-002
3.423028e+003, 3.173526e-002
3.424957e+003, 3.168208e-002
3.426885e+003, 3.225950e-002
3.428814e+003, 3.185437e-002
3.430742e+003, 3.158368e-002
3.432671e+003, 3.171201e-002
3.434599e+003, 3.169423e-002
3.436528e+003, 3.146415e-002
3.438456e+003, 3.120317e-002
3.440385e+003, 3.190282e-002
3.442313e+003, 3.209047e-002
3.444241e+003, 3.182324e-002
3.446170e+003, 3.129419e-002
3.448098e+003, 3.139519e-002
3.450027e+003, 3.192101e-002
3.451955e+003, 3.176566e-002
3.453884e+003, 3.191056e-002
3.455812e+003, 3.281853e-002
3.457741e+003, 3.229758e-002
3.459669e+003, 3.144911e-002
3.461598e+003, 3.156533e-002
3.463526e+003, 3.195899e-002
3.465455e+003, 3.251903e-002
3.467383e+003, 3.263157e-002
3.469312e+003, 3.238246e-002
3.471240e+003, 3.253600e-002
3.473168e+003, 3.277876e-002
3.475097e+003, 3.275850e-002
3.477025e+003, 3.319026e-002
3.478954e+003, 3.316773e-002
3.480882e+003, 3.278566e-002
3.482811e+003, 3.382485e-002
3.484739e+003, 3.407468e-002
3.486668e+003, 3.427800e-002
3.488596e+003, 3.481659e-002
3.490525e+003, 3.522392e-002
3.492453e+003, 3.576466e-002
3.494382e+003, 3.646965e-002
3.496310e+003, 3.647761e-002
3.498239e+003, 3.566854e-002
3.500167e+003, 3.500845e-002
3.502095e+003, 3.577553e-002
3.504024e+003, 3.633533e-002
3.505952e+003, 3.611285e-002
3.507881e+003, 3.584760e-002
3.509809e+003, 3.613799e-002
3.511738e+003, 3.675133e-002
3.513666e+003, 3.636454e-002
3.515595e+003, 3.523021e-002
3.517523e+003, 3.466132e-002
3.519452e+003, 3.430719e-002
3.521380e+003, 3.381769e-002
3.523309e+003, 3.299699e-002
3.525237e+003, 3.242634e-002
3.527166e+003, 3.190129e-002
3.529094e+003, 3.136641e-002
3.531022e+003, 3.005183e-002
3.532951e+003, 2.839245e-002
3.534879e+003, 2.779157e-002
3.536808e+003, 2.675866e-002
3.538736e+003, 2.614645e-002
3.540665e+003, 2.579005e-002
3.542593e+003, 2.490468e-002
3.544522e+003, 2.394817e-002
3.546450e+003, 2.216208e-002
3.548379e+003, 2.066388e-002
3.550307e+003, 2.049618e-002
3.552236e+003, 2.054534e-002
3.554164e+003, 1.960901e-002
3.556093e+003, 1.846631e-002
3.558021e+003, 1.708207e-002
3.559949e+003, 1.668740e-002
3.561878e+003, 1.659520e-002
3.563806e+003, 1.559061e-002
3.565735e+003, 1.537024e-002
3.567663e+003, 1.493570e-002
3.569592e+003, 1.349779e-002
3.571520e+003, 1.284927e-002
3.573449e+003, 1.341861e-002
3.575377e+003, 1.319267e-002
3.577306e+003, 1.268548e-002
3.579234e+003, 1.182044e-002
3.581163e+003, 1.094563e-002
3.583091e+003, 1.070849e-002
3.585020e+003, 1.058220e-002
3.586948e+003, 1.027247e-002
3.588876e+003, 9.558794e-003
3.590805e+003, 9.469179e-003
3.592733e+003, 9.399052e-003
3.594662e+003, 8.270241e-003
3.596590e+003, 7.926486e-003
3.598519e+003, 7.538735e-003
3.600447e+003, 6.523304e-003
3.602376e+003, 5.649325e-003
3.604304e+003, 5.937970e-003
3.606233e+003, 6.880054e-003
3.608161e+003, 6.986544e-003
3.610090e+003, 6.431052e-003
3.612018e+003, 5.860955e-003
3.613947e+003, 4.802563e-003
3.615875e+003, 5.222854e-003
3.617803e+003, 6.126486e-003
3.619732e+003, 5.386468e-003
3.621660e+003, 4.982642e-003
3.623589e+003, 4.947854e-003
3.625517e+003, 4.555820e-003
3.627446e+003, 4.462880e-003
3.629374e+003, 3.733108e-003
3.631303e+003, 2.782612e-003
3.633231e+003, 3.056811e-003
3.635160e+003, 4.176384e-003
3.637088e+003, 4.678621e-003
3.639017e+003, 4.208401e-003
3.640945e+003, 2.136661e-003
3.642874e+003, 2.232735e-003
3.644802e+003, 3.460385e-003
3.646730e+003, 3.594971e-003
3.648659e+003, 2.753301e-003
3.650587e+003, 2.712356e-003
3.652516e+003, 3.235968e-003
3.654444e+003, 2.826532e-003
3.656373e+003, 3.048202e-003
3.658301e+003, 3.247652e-003
3.660230e+003, 3.032787e-003
3.662158e+003, 3.705804e-003
3.664087e+003, 4.064996e-003
3.666015e+003, 3.047068e-003
3.667944e+003, 2.108858e-003
3.669872e+003, 2.671047e-003
3.671801e+003, 3.003459e-003
3.673729e+003, 2.580676e-003
3.675657e+003, 2.851479e-003
3.677586e+003, 2.491657e-003
3.679514e+003, 2.385764e-003
3.681443e+003, 3.199884e-003
3.683371e+003, 2.673614e-003
3.685300e+003, 1.799422e-003
3.687228e+003, 2.275700e-003
3.689157e+003, 2.613576e-003
3.691085e+003, 2.563011e-003
3.693014e+003, 3.056277e-003
3.694942e+003, 4.078474e-003
3.696871e+003, 4.122794e-003
3.698799e+003, 3.444554e-003
3.700728e+003, 2.614476e-003
3.702656e+003, 2.124308e-003
3.704584e+003, 2.493923e-003
3.706513e+003, 2.615542e-003
3.708441e+003, 2.603209e-003
3.710370e+003, 2.231902e-003
3.712298e+003, 1.378740e-003
3.714227e+003, 2.048298e-003
3.716155e+003, 3.112105e-003
3.718084e+003, 2.766806e-003
3.720012e+003, 2.327431e-003
3.721941e+003, 2.461299e-003
3.723869e+003, 2.918489e-003
3.725798e+003, 3.069458e-003
3.727726e+003, 3.259169e-003
3.729655e+003, 2.714456e-003
3.731583e+003, 2.699553e-003
3.733511e+003, 3.063885e-003
3.735440e+003, 3.232162e-003
3.737368e+003, 3.609237e-003
3.739297e+003, 2.934935e-003
3.741225e+003, 2.165730e-003
3.743154e+003, 2.519517e-003
3.745082e+003, 2.909883e-003
3.747011e+003, 2.731961e-003
3.748939e+003, 2.621542e-003
3.750868e+003, 2.216582e-003
3.752796e+003, 1.794564e-003
3.754725e+003, 1.723370e-003
3.756653e+003, 2.377168e-003
3.758582e+003, 2.888769e-003
3.760510e+003, 2.634510e-003
3.762438e+003, 2.792016e-003
3.764367e+003, 3.763187e-003
3.766295e+003, 3.999079e-003
3.768224e+003, 3.932738e-003
3.770152e+003, 3.885664e-003
3.772081e+003, 3.678169e-003
3.774009e+003, 3.912310e-003
3.775938e+003, 4.361258e-003
3.777866e+003, 4.087204e-003
3.779795e+003, 3.283373e-003
3.781723e+003, 2.535114e-003
3.783652e+003, 2.577443e-003
3.785580e+003, 2.844142e-003
3.787509e+003, 3.669080e-003
3.789437e+003, 4.309217e-003
3.791365e+003, 4.889879e-003
3.793294e+003, 4.099714e-003
3.795222e+003, 2.862319e-003
3.797151e+003, 3.422579e-003
3.799079e+003, 3.686289e-003
3.801008e+003, 3.062150e-003
3.802936e+003, 3.291085e-003
3.804865e+003, 4.030414e-003
3.806793e+003, 4.341043e-003
3.808722e+003, 4.110551e-003
3.810650e+003, 3.575227e-003
3.812579e+003, 4.012489e-003
3.814507e+003, 4.271973e-003
3.816436e+003, 3.621265e-003
3.818364e+003, 3.411826e-003
3.820292e+003, 4.033257e-003
3.822221e+003, 4.226100e-003
3.824149e+003, 4.020047e-003
3.826078e+003, 4.019211e-003
3.828006e+003, 3.732874e-003
3.829935e+003, 2.892538e-003
3.831863e+003, 2.716023e-003
3.833792e+003, 2.949613e-003
3.835720e+003, 2.922459e-003
3.837649e+003, 2.361677e-003
3.839577e+003, 2.780378e-003
3.841506e+003, 3.895359e-003
3.843434e+003, 4.647909e-003
3.845363e+003, 4.629858e-003
3.847291e+003, 3.930966e-003
3.849219e+003, 4.029879e-003
3.851148e+003, 4.208167e-003
3.853076e+003, 4.008443e-003
3.855005e+003, 3.698787e-003
3.856933e+003, 3.535907e-003
3.858862e+003, 3.902514e-003
3.860790e+003, 4.342951e-003
3.862719e+003, 4.063859e-003
3.864647e+003, 3.745741e-003
3.866576e+003, 3.992090e-003
3.868504e+003, 4.349711e-003
3.870433e+003, 3.810248e-003
3.872361e+003, 3.142843e-003
3.874290e+003, 3.149584e-003
3.876218e+003, 3.348279e-003
3.878146e+003, 4.041785e-003
3.880075e+003, 3.167808e-003
3.882003e+003, 2.881797e-003
3.883932e+003, 3.971759e-003
3.885860e+003, 3.728730e-003
3.887789e+003, 3.822482e-003
3.889717e+003, 4.260764e-003
3.891646e+003, 4.021753e-003
3.893574e+003, 3.422145e-003
3.895503e+003, 3.110871e-003
3.897431e+003, 3.344840e-003
3.899360e+003, 3.856512e-003
3.901288e+003, 4.433087e-003
3.903217e+003, 3.680307e-003
3.905145e+003, 3.082505e-003
3.907073e+003, 4.320261e-003
3.909002e+003, 4.797236e-003
3.910930e+003, 4.090515e-003
3.912859e+003, 3.524082e-003
3.914787e+003, 4.095867e-003
3.916716e+003, 4.514202e-003
3.918644e+003, 4.168489e-003
3.920573e+003, 3.848589e-003
3.922501e+003, 2.650678e-003
3.924430e+003, 2.288957e-003
3.926358e+003, 2.771341e-003
3.928287e+003, 3.468936e-003
3.930215e+003, 4.425656e-003
3.932144e+003, 4.827489e-003
3.934072e+003, 5.062955e-003
3.936000e+003, 4.468002e-003
3.937929e+003, 3.862028e-003
3.939857e+003, 3.948955e-003
3.941786e+003, 4.440217e-003
3.943714e+003, 4.097272e-003
3.945643e+003, 3.841135e-003
3.947571e+003, 4.095131e-003
3.949500e+003, 4.523242e-003
3.951428e+003, 3.868413e-003
3.953357e+003, 3.765526e-003
3.955285e+003, 4.185115e-003
3.957214e+003, 4.596839e-003
3.959142e+003, 4.899731e-003
3.961071e+003, 4.419497e-003
3.962999e+003, 3.615919e-003
3.964927e+003, 2.963758e-003
3.966856e+003, 3.527857e-003
3.968784e+003, 3.035289e-003
3.970713e+003, 3.324873e-003
3.972641e+003, 3.837792e-003
3.974570e+003, 3.589926e-003
3.976498e+003, 3.543791e-003
3.978427e+003, 3.319264e-003
3.980355e+003, 3.801758e-003
3.982284e+003, 5.118170e-003
3.984212e+003, 4.128948e-003
3.986141e+003, 3.034288e-003
3.988069e+003, 3.590394e-003
3.989998e+003, 3.982527e-003
3.991926e+003, 3.946113e-003
3.993854e+003, 4.515474e-003
3.995783e+003, 5.075962e-003
3.997711e+003, 4.368554e-003
3.999640e+003, 4.368554e-003
4.001568e+003, 0.000000e+000
##END=



