##NAMES=Livingstonite
##RRUFFID=R050427
##IDEAL CHEMISTRY=HgSb_4_S_8_
##LOCALITY=Huitzuco, Guerrero, Mexico
##OWNER=RRUFF
##SOURCE=University of Arizona Mineral Museum
##DESCRIPTION=Aggregate of blackish-gray elongated crystals
##STATUS=The identification of this mineral has been confirmed by X-ray diffraction and chemical analysis
##URL=rruff.info/R050427
##MEASURED CHEMISTRY=Hg_1.00_Sb_4.00_S_8.00_
399.1926, 0.2064218
401.1211, 0.2232197
403.0496, 0.2242928
404.9780, 0.2255922
406.9065, 0.2272129
408.8350, 0.2286891
410.7634, 0.2304396
412.6919, 0.2404218
414.6204, 0.2473216
416.5488, 0.2458781
418.4773, 0.2482728
420.4058, 0.2537738
422.3342, 0.2568504
424.2627, 0.2540860
426.1912, 0.2530018
428.1196, 0.2596906
430.0481, 0.2646085
431.9766, 0.2662939
433.9050, 0.2703545
435.8335, 0.2746501
437.7620, 0.2790812
439.6904, 0.2812078
441.6189, 0.2780747
443.5474, 0.2795306
445.4758, 0.2829733
447.4043, 0.2860347
449.3328, 0.2909183
451.2612, 0.2938006
453.1897, 0.2950167
455.1182, 0.2983058
457.0466, 0.2994129
458.9751, 0.3003785
460.9036, 0.3031942
462.8320, 0.3053385
464.7605, 0.3056190
466.6890, 0.3072716
468.6174, 0.3107421
470.5459, 0.3134037
472.4744, 0.3166213
474.4028, 0.3203215
476.3313, 0.3195397
478.2598, 0.3181480
480.1882, 0.3196082
482.1167, 0.3219227
484.0452, 0.3245720
485.9736, 0.3286427
487.9021, 0.3298417
489.8306, 0.3284935
491.7590, 0.3290934
493.6875, 0.3324576
495.6160, 0.3351848
497.5444, 0.3364717
499.4729, 0.3369045
501.4014, 0.3395914
503.3298, 0.3426840
505.2583, 0.3442253
507.1868, 0.3481624
509.1152, 0.3513734
511.0437, 0.3529396
512.9722, 0.3535281
514.9006, 0.3540557
516.8291, 0.3548948
518.7576, 0.3556368
520.6860, 0.3582784
522.6145, 0.3588477
524.5430, 0.3604985
526.4714, 0.3628117
528.3999, 0.3652295
530.3284, 0.3680001
532.2568, 0.3691060
534.1853, 0.3694471
536.1138, 0.3726432
538.0422, 0.3741764
539.9707, 0.3735963
541.8992, 0.3755901
543.8276, 0.3797883
545.7561, 0.3827906
547.6846, 0.3842091
549.6130, 0.3847308
551.5415, 0.3872948
553.4700, 0.3906669
555.3984, 0.3910536
557.3269, 0.3916906
559.2554, 0.3929131
561.1838, 0.3928824
563.1123, 0.3930798
565.0408, 0.3959246
566.9692, 0.3980708
568.8977, 0.3989713
570.8262, 0.4003151
572.7546, 0.4026527
574.6831, 0.4048963
576.6116, 0.4067609
578.5400, 0.4089467
580.4685, 0.4111602
582.3970, 0.4116203
584.3254, 0.4133601
586.2539, 0.4164185
588.1824, 0.4186537
590.1108, 0.4239793
592.0393, 0.4280429
593.9678, 0.4277743
595.8962, 0.4265846
597.8247, 0.4237303
599.7532, 0.4232319
601.6816, 0.4246897
603.6101, 0.4259035
605.5386, 0.4281864
607.4670, 0.4307830
609.3955, 0.4334210
611.3240, 0.4354033
613.2524, 0.4351928
615.1809, 0.4335152
617.1094, 0.4316082
619.0378, 0.4291565
620.9663, 0.4282717
622.8948, 0.4289714
624.8232, 0.4307107
626.7517, 0.4314939
628.6802, 0.4321192
630.6086, 0.4323693
632.5371, 0.4342417
634.4656, 0.4351259
636.3940, 0.4354849
638.3225, 0.4375917
640.2510, 0.4390227
642.1794, 0.4399422
644.1079, 0.4400052
646.0364, 0.4395546
647.9648, 0.4411692
649.8933, 0.4431257
651.8218, 0.4446351
653.7502, 0.4464099
655.6787, 0.4481252
657.6072, 0.4490778
659.5356, 0.4509243
661.4641, 0.4533988
663.3926, 0.4560010
665.3210, 0.4590610
667.2495, 0.4625047
669.1780, 0.4661452
671.1064, 0.4700373
673.0349, 0.4724040
674.9634, 0.4728778
676.8918, 0.4717692
678.8203, 0.4701498
680.7488, 0.4689882
682.6772, 0.4665589
684.6057, 0.4646644
686.5342, 0.4639735
688.4626, 0.4637606
690.3911, 0.4643239
692.3196, 0.4659046
694.2480, 0.4669043
696.1765, 0.4667346
698.1050, 0.4664945
700.0334, 0.4672645
701.9619, 0.4692945
703.8904, 0.4704669
705.8188, 0.4712396
707.7473, 0.4727440
709.6758, 0.4735463
711.6042, 0.4739540
713.5327, 0.4756616
715.4612, 0.4769756
717.3896, 0.4780777
719.3181, 0.4798670
721.2466, 0.4813973
723.1750, 0.4817760
725.1035, 0.4822263
727.0320, 0.4836355
728.9604, 0.4859356
730.8889, 0.4874540
732.8174, 0.4886375
734.7458, 0.4895079
736.6743, 0.4900245
738.6028, 0.4912226
740.5313, 0.4920196
742.4597, 0.4930666
744.3882, 0.4950271
746.3167, 0.4965411
748.2451, 0.4972635
750.1736, 0.4981283
752.1021, 0.4994700
754.0305, 0.5014953
755.9590, 0.5036451
757.8875, 0.5046301
759.8159, 0.5038921
761.7444, 0.5044044
763.6729, 0.5062010
765.6013, 0.5081457
767.5298, 0.5090992
769.4583, 0.5092970
771.3867, 0.5109600
773.3152, 0.5122665
775.2437, 0.5133381
777.1721, 0.5144035
779.1006, 0.5151590
781.0291, 0.5155702
782.9575, 0.5173019
784.8860, 0.5181590
786.8145, 0.5187892
788.7429, 0.5196901
790.6714, 0.5215557
792.5999, 0.5231626
794.5283, 0.5238667
796.4568, 0.5243425
798.3853, 0.5252827
800.3137, 0.5274814
802.2422, 0.5296263
804.1707, 0.5306288
806.0991, 0.5316234
808.0276, 0.5324657
809.9561, 0.5342832
811.8845, 0.5360177
813.8130, 0.5367164
815.7415, 0.5367519
817.6699, 0.5381857
819.5984, 0.5402632
821.5269, 0.5419660
823.4553, 0.5431278
825.3838, 0.5436478
827.3123, 0.5445087
829.2407, 0.5462418
831.1692, 0.5481640
833.0977, 0.5490482
835.0261, 0.5496172
836.9546, 0.5504211
838.8831, 0.5506889
840.8115, 0.5517565
842.7400, 0.5528676
844.6685, 0.5530412
846.5969, 0.5539818
848.5254, 0.5557019
850.4539, 0.5560926
852.3823, 0.5562415
854.3108, 0.5567018
856.2393, 0.5579461
858.1677, 0.5592575
860.0962, 0.5590875
862.0247, 0.5599998
863.9531, 0.5619703
865.8816, 0.5632032
867.8101, 0.5639313
869.7385, 0.5649737
871.6670, 0.5670128
873.5955, 0.5682885
875.5239, 0.5691754
877.4524, 0.5704309
879.3809, 0.5718982
881.3093, 0.5733448
883.2378, 0.5740958
885.1663, 0.5745586
887.0947, 0.5753557
889.0232, 0.5765902
890.9517, 0.5777782
892.8801, 0.5785367
894.8085, 0.5797857
896.7370, 0.5811457
898.6655, 0.5822610
900.5939, 0.5827569
902.5224, 0.5830517
904.4509, 0.5841998
906.3793, 0.5859466
908.3078, 0.5876700
910.2363, 0.5887505
912.1647, 0.5895497
914.0932, 0.5911050
916.0217, 0.5931287
917.9501, 0.5942323
919.8786, 0.5949385
921.8071, 0.5964011
923.7355, 0.5979064
925.6640, 0.5984752
927.5925, 0.5995542
929.5209, 0.6015718
931.4494, 0.6032176
933.3779, 0.6042075
935.3063, 0.6047125
937.2348, 0.6055623
939.1633, 0.6076362
941.0917, 0.6098391
943.0202, 0.6114917
944.9487, 0.6130878
946.8771, 0.6142543
948.8056, 0.6142316
950.7341, 0.6147665
952.6625, 0.6157829
954.5910, 0.6170253
956.5195, 0.6186316
958.4479, 0.6196429
960.3764, 0.6211330
962.3049, 0.6233355
964.2333, 0.6236386
966.1618, 0.6239276
968.0903, 0.6256664
970.0187, 0.6279124
971.9472, 0.6290886
973.8757, 0.6302327
975.8041, 0.6323208
977.7326, 0.6331999
979.6611, 0.6334808
981.5895, 0.6346697
983.5180, 0.6363051
985.4465, 0.6374744
987.3749, 0.6392463
989.3034, 0.6410398
991.2319, 0.6425740
993.1603, 0.6441869
995.0888, 0.6449003
997.0173, 0.6460856
998.9457, 0.6477039
1000.874, 0.6494876
1002.803, 0.6513837
1004.731, 0.6529390
1006.660, 0.6544319
1008.588, 0.6566485
1010.517, 0.6586564
1012.445, 0.6608841
1014.373, 0.6628708
1016.302, 0.6630394
1018.230, 0.6626749
1020.159, 0.6634835
1022.087, 0.6643480
1024.016, 0.6648819
1025.944, 0.6661210
1027.873, 0.6677561
1029.801, 0.6685745
1031.730, 0.6694376
1033.658, 0.6713887
1035.587, 0.6737350
1037.515, 0.6752980
1039.444, 0.6761779
1041.372, 0.6777512
1043.301, 0.6794997
1045.229, 0.6814293
1047.157, 0.6826484
1049.086, 0.6838261
1051.014, 0.6852590
1052.943, 0.6863425
1054.871, 0.6872118
1056.800, 0.6887896
1058.728, 0.6907956
1060.657, 0.6920316
1062.585, 0.6938307
1064.514, 0.6959045
1066.442, 0.6974921
1068.371, 0.6990249
1070.299, 0.6997030
1072.228, 0.7016352
1074.156, 0.7040857
1076.084, 0.7064511
1078.013, 0.7086283
1079.941, 0.7105019
1081.870, 0.7127970
1083.798, 0.7142346
1085.727, 0.7157304
1087.655, 0.7181664
1089.584, 0.7198046
1091.512, 0.7214857
1093.441, 0.7241423
1095.369, 0.7275745
1097.298, 0.7304370
1099.226, 0.7322055
1101.155, 0.7345836
1103.083, 0.7368087
1105.011, 0.7383202
1106.940, 0.7408223
1108.868, 0.7431121
1110.797, 0.7447183
1112.725, 0.7460283
1114.654, 0.7474857
1116.582, 0.7486005
1118.511, 0.7490111
1120.439, 0.7499683
1122.368, 0.7504942
1124.296, 0.7513509
1126.225, 0.7521872
1128.153, 0.7525969
1130.082, 0.7531570
1132.010, 0.7545952
1133.938, 0.7566932
1135.867, 0.7582046
1137.795, 0.7596556
1139.724, 0.7608878
1141.652, 0.7624006
1143.581, 0.7636008
1145.509, 0.7640246
1147.438, 0.7636203
1149.366, 0.7636797
1151.295, 0.7635343
1153.223, 0.7617682
1155.152, 0.7600826
1157.080, 0.7579122
1159.009, 0.7553793
1160.937, 0.7525040
1162.865, 0.7491520
1164.794, 0.7476023
1166.722, 0.7463656
1168.651, 0.7448063
1170.579, 0.7438209
1172.508, 0.7426150
1174.436, 0.7409090
1176.365, 0.7390285
1178.293, 0.7389907
1180.222, 0.7390921
1182.150, 0.7389085
1184.079, 0.7383070
1186.007, 0.7376562
1187.936, 0.7377776
1189.864, 0.7376263
1191.792, 0.7375202
1193.721, 0.7373714
1195.649, 0.7362043
1197.578, 0.7354512
1199.506, 0.7347612
1201.435, 0.7327000
1203.363, 0.7317083
1205.292, 0.7319164
1207.220, 0.7317188
1209.149, 0.7324670
1211.077, 0.7329453
1213.006, 0.7335729
1214.934, 0.7351515
1216.863, 0.7366443
1218.791, 0.7376376
1220.719, 0.7378927
1222.648, 0.7382591
1224.576, 0.7392570
1226.505, 0.7404876
1228.433, 0.7407120
1230.362, 0.7407149
1232.290, 0.7410883
1234.219, 0.7416064
1236.147, 0.7420930
1238.076, 0.7425241
1240.004, 0.7428157
1241.933, 0.7434267
1243.861, 0.7447366
1245.790, 0.7458298
1247.718, 0.7460245
1249.646, 0.7465037
1251.575, 0.7470567
1253.503, 0.7466519
1255.432, 0.7465360
1257.360, 0.7467234
1259.289, 0.7469878
1261.217, 0.7469497
1263.146, 0.7473186
1265.074, 0.7483469
1267.003, 0.7500402
1268.931, 0.7512665
1270.860, 0.7513214
1272.788, 0.7525738
1274.717, 0.7540026
1276.645, 0.7543141
1278.573, 0.7552254
1280.502, 0.7567139
1282.430, 0.7573931
1284.359, 0.7581800
1286.287, 0.7595454
1288.216, 0.7602048
1290.144, 0.7607856
1292.073, 0.7615060
1294.001, 0.7624302
1295.930, 0.7631789
1297.858, 0.7636226
1299.787, 0.7638081
1301.715, 0.7640218
1303.644, 0.7646257
1305.572, 0.7649650
1307.500, 0.7655008
1309.429, 0.7664385
1311.357, 0.7672171
1313.286, 0.7677821
1315.214, 0.7679356
1317.143, 0.7691087
1319.071, 0.7706648
1321.000, 0.7714767
1322.928, 0.7722386
1324.857, 0.7733291
1326.785, 0.7739782
1328.714, 0.7748057
1330.642, 0.7757359
1332.571, 0.7772545
1334.499, 0.7784501
1336.427, 0.7784880
1338.356, 0.7793634
1340.284, 0.7810447
1342.213, 0.7825893
1344.141, 0.7836118
1346.070, 0.7840764
1347.998, 0.7849867
1349.927, 0.7866019
1351.855, 0.7885624
1353.784, 0.7895973
1355.712, 0.7907402
1357.641, 0.7912307
1359.569, 0.7919989
1361.498, 0.7939443
1363.426, 0.7951236
1365.354, 0.7954729
1367.283, 0.7960347
1369.211, 0.7962312
1371.140, 0.7970452
1373.068, 0.7990817
1374.997, 0.8010696
1376.925, 0.8027275
1378.854, 0.8030327
1380.782, 0.8024341
1382.711, 0.8024436
1384.639, 0.8023605
1386.568, 0.8031611
1388.496, 0.8041949
1390.424, 0.8049592
1392.353, 0.8054302
1394.281, 0.8060220
1396.210, 0.8064565
1398.138, 0.8073831
1400.067, 0.8089479
1401.995, 0.8101375
1403.924, 0.8111134
1405.852, 0.8120660
1407.781, 0.8134721
1409.709, 0.8144131
1411.638, 0.8149847
1413.566, 0.8161338
1415.495, 0.8164203
1417.423, 0.8162671
1419.351, 0.8166753
1421.280, 0.8178487
1423.208, 0.8191971
1425.137, 0.8210042
1427.065, 0.8224779
1428.994, 0.8230455
1430.922, 0.8245193
1432.851, 0.8264738
1434.779, 0.8274701
1436.708, 0.8282754
1438.636, 0.8297225
1440.565, 0.8308785
1442.493, 0.8318183
1444.422, 0.8339781
1446.350, 0.8365130
1448.278, 0.8371091
1450.207, 0.8376775
1452.135, 0.8387554
1454.064, 0.8400278
1455.992, 0.8413080
1457.921, 0.8424398
1459.849, 0.8432345
1461.778, 0.8438790
1463.706, 0.8445520
1465.635, 0.8442591
1467.563, 0.8439260
1469.492, 0.8435158
1471.420, 0.8432079
1473.349, 0.8427489
1475.277, 0.8424422
1477.205, 0.8433889
1479.134, 0.8446004
1481.062, 0.8450119
1482.991, 0.8457446
1484.919, 0.8465689
1486.848, 0.8476033
1488.776, 0.8481055
1490.705, 0.8490431
1492.633, 0.8501235
1494.562, 0.8517959
1496.490, 0.8535516
1498.419, 0.8544030
1500.347, 0.8552464
1502.276, 0.8567855
1504.204, 0.8581840
1506.132, 0.8586047
1508.061, 0.8584718
1509.989, 0.8585145
1511.918, 0.8590975
1513.846, 0.8598389
1515.775, 0.8609673
1517.703, 0.8617492
1519.632, 0.8625184
1521.560, 0.8632663
1523.489, 0.8639228
1525.417, 0.8647126
1527.346, 0.8651561
1529.274, 0.8654068
1531.203, 0.8666536
1533.131, 0.8683169
1535.059, 0.8696662
1536.988, 0.8706778
1538.916, 0.8715148
1540.845, 0.8719903
1542.773, 0.8719535
1544.702, 0.8731914
1546.630, 0.8753783
1548.559, 0.8770030
1550.487, 0.8779258
1552.416, 0.8783080
1554.344, 0.8784886
1556.273, 0.8789619
1558.201, 0.8803486
1560.130, 0.8807079
1562.058, 0.8815615
1563.986, 0.8824548
1565.915, 0.8838680
1567.843, 0.8859376
1569.772, 0.8873513
1571.700, 0.8873433
1573.629, 0.8878368
1575.557, 0.8892474
1577.486, 0.8909549
1579.414, 0.8923739
1581.343, 0.8932843
1583.271, 0.8940220
1585.200, 0.8945822
1587.128, 0.8962710
1589.057, 0.8972387
1590.985, 0.8981809
1592.913, 0.8985521
1594.842, 0.8994445
1596.770, 0.8999092
1598.699, 0.9008132
1600.627, 0.9019900
1602.556, 0.9025453
1604.484, 0.9030570
1606.413, 0.9035850
1608.341, 0.9047709
1610.270, 0.9070656
1612.198, 0.9083838
1614.127, 0.9090370
1616.055, 0.9106199
1617.984, 0.9124752
1619.912, 0.9135129
1621.840, 0.9135783
1623.769, 0.9140826
1625.697, 0.9146324
1627.626, 0.9147223
1629.554, 0.9151970
1631.483, 0.9153870
1633.411, 0.9159554
1635.340, 0.9163466
1637.268, 0.9163716
1639.197, 0.9176472
1641.125, 0.9192579
1643.054, 0.9205512
1644.982, 0.9213898
1646.911, 0.9215256
1648.839, 0.9222951
1650.767, 0.9233338
1652.696, 0.9237360
1654.624, 0.9249812
1656.553, 0.9268384
1658.481, 0.9265183
1660.410, 0.9268189
1662.338, 0.9279572
1664.267, 0.9283447
1666.195, 0.9287708
1668.124, 0.9293554
1670.052, 0.9298431
1671.981, 0.9312755
1673.909, 0.9320711
1675.838, 0.9326271
1677.766, 0.9342630
1679.694, 0.9357073
1681.623, 0.9363043
1683.551, 0.9367641
1685.480, 0.9372712
1687.408, 0.9376511
1689.337, 0.9384163
1691.265, 0.9394616
1693.194, 0.9398345
1695.122, 0.9406000
1697.051, 0.9417666
1698.979, 0.9423304
1700.908, 0.9423900
1702.836, 0.9430452
1704.765, 0.9432753
1706.693, 0.9438012
1708.621, 0.9442382
1710.550, 0.9449841
1712.478, 0.9464141
1714.407, 0.9482985
1716.335, 0.9494246
1718.264, 0.9502750
1720.192, 0.9505957
1722.121, 0.9511452
1724.049, 0.9519461
1725.978, 0.9529433
1727.906, 0.9536067
1729.835, 0.9537222
1731.763, 0.9540999
1733.692, 0.9551905
1735.620, 0.9565586
1737.548, 0.9558774
1739.477, 0.9548147
1741.405, 0.9560423
1743.334, 0.9566976
1745.262, 0.9568276
1747.191, 0.9572458
1749.119, 0.9570825
1751.048, 0.9577054
1752.976, 0.9577786
1754.905, 0.9577066
1756.833, 0.9597780
1758.762, 0.9604582
1760.690, 0.9604195
1762.619, 0.9609731
1764.547, 0.9617489
1766.475, 0.9621427
1768.404, 0.9631588
1770.332, 0.9648964
1772.261, 0.9671339
1774.189, 0.9667130
1776.118, 0.9656777
1778.046, 0.9663531
1779.975, 0.9673612
1781.903, 0.9677787
1783.832, 0.9677665
1785.760, 0.9679953
1787.689, 0.9678472
1789.617, 0.9683317
1791.546, 0.9694163
1793.474, 0.9701630
1795.402, 0.9701589
1797.331, 0.9699196
1799.259, 0.9705572
1801.188, 0.9715598
1803.116, 0.9727998
1805.045, 0.9732898
1806.973, 0.9721832
1808.902, 0.9716063
1810.830, 0.9729726
1812.759, 0.9741474
1814.687, 0.9740384
1816.616, 0.9735202
1818.544, 0.9738631
1820.473, 0.9746053
1822.401, 0.9762496
1824.329, 0.9773850
1826.258, 0.9781302
1828.186, 0.9787424
1830.115, 0.9787015
1832.043, 0.9789602
1833.972, 0.9804438
1835.900, 0.9805156
1837.829, 0.9814037
1839.757, 0.9822285
1841.686, 0.9827408
1843.614, 0.9847960
1845.543, 0.9858698
1847.471, 0.9857186
1849.400, 0.9860715
1851.328, 0.9864274
1853.256, 0.9871308
1855.185, 0.9869262
1857.113, 0.9869770
1859.042, 0.9875522
1860.970, 0.9891363
1862.899, 0.9900224
1864.827, 0.9891196
1866.756, 0.9887227
1868.684, 0.9903132
1870.613, 0.9908937
1872.541, 0.9912311
1874.470, 0.9916251
1876.398, 0.9916713
1878.327, 0.9943483
1880.255, 0.9967495
1882.183, 0.9971143
1884.112, 0.9961609
1886.040, 0.9959447
1887.969, 0.9964788
1889.897, 0.9966785
1891.826, 0.9975517
1893.754, 0.9991959
1895.683, 0.9996245
1897.611, 0.9979411
1899.540, 0.9971507
1901.468, 0.9997242
1903.397, 1.002249
1905.325, 0.9996256
1907.254, 0.9978275
1909.182, 1.000013
1911.110, 1.000598
1913.039, 1.001501
1914.967, 1.001702
1916.896, 1.000826
1918.824, 1.000242
1920.753, 1.002502
1922.681, 1.004856
1924.610, 1.002338
1926.538, 1.000230
1928.467, 1.001178
1930.395, 1.001885
1932.324, 1.001472
1934.252, 0.9980392
1936.181, 0.9977070
1938.109, 1.000131
1940.037, 1.001300
1941.966, 1.000031
1943.894, 0.9942886
1945.823, 0.9932044
1947.751, 0.9969622
1949.680, 0.9959388
1951.608, 0.9935564
1953.537, 0.9925033
1955.465, 0.9924316
1957.394, 0.9938332
1959.322, 0.9887555
1961.251, 0.9877365
1963.179, 0.9860294
1965.108, 0.9823458
1967.036, 0.9843765
1968.964, 0.9826161
1970.893, 0.9809359
1972.821, 0.9815976
1974.750, 0.9829456
1976.678, 0.9823262
1978.607, 0.9814142
1980.535, 0.9868178
1982.464, 0.9906645
1984.392, 0.9902142
1986.321, 0.9899853
1988.249, 0.9914772
1990.178, 0.9920251
1992.106, 0.9979368
1994.035, 1.001593
1995.963, 0.9999362
1997.891, 1.002171
1999.820, 1.003240
2001.748, 1.000883
2003.677, 1.000198
2005.605, 0.9970194
2007.534, 0.9965796
2009.462, 0.9978779
2011.391, 0.9995575
2013.319, 1.000801
2015.248, 1.000854
2017.176, 1.001210
2019.105, 1.002573
2021.033, 1.001606
2022.962, 0.9982591
2024.890, 1.001844
2026.818, 1.001156
2028.747, 0.9965441
2030.675, 0.9987553
2032.604, 1.006511
2034.532, 1.013021
2036.461, 1.017443
2038.389, 1.019478
2040.318, 1.021198
2042.246, 1.022751
2044.175, 1.020233
2046.103, 1.021520
2048.032, 1.023154
2049.960, 1.026042
2051.889, 1.033269
2053.817, 1.038184
2055.746, 1.040940
2057.674, 1.042551
2059.603, 1.042903
2061.531, 1.044724
2063.459, 1.045066
2065.388, 1.045211
2067.316, 1.050841
2069.245, 1.059807
2071.173, 1.060666
2073.102, 1.058610
2075.030, 1.063842
2076.959, 1.069101
2078.887, 1.068680
2080.816, 1.069310
2082.744, 1.068221
2084.673, 1.066621
2086.601, 1.067406
2088.530, 1.069684
2090.458, 1.069297
2092.386, 1.069655
2094.315, 1.071424
2096.243, 1.074044
2098.172, 1.073266
2100.100, 1.074374
2102.029, 1.077076
2103.957, 1.079200
2105.886, 1.078736
2107.814, 1.076339
2109.743, 1.076414
2111.671, 1.077773
2113.600, 1.082271
2115.528, 1.082917
2117.457, 1.082246
2119.385, 1.083170
2121.313, 1.083443
2123.242, 1.083971
2125.170, 1.082646
2127.099, 1.080575
2129.027, 1.081243
2130.956, 1.082158
2132.884, 1.077398
2134.813, 1.074260
2136.741, 1.070675
2138.670, 1.069967
2140.598, 1.073135
2142.527, 1.069773
2144.455, 1.067471
2146.384, 1.067451
2148.312, 1.064144
2150.240, 1.059330
2152.169, 1.051407
2154.097, 1.045262
2156.026, 1.041360
2157.954, 1.037956
2159.883, 1.038927
2161.811, 1.045426
2163.740, 1.048698
2165.668, 1.058367
2167.597, 1.067243
2169.525, 1.070619
2171.454, 1.071048
2173.382, 1.068407
2175.311, 1.069087
2177.239, 1.073564
2179.167, 1.070295
2181.096, 1.067051
2183.024, 1.077279
2184.953, 1.084643
2186.881, 1.083979
2188.810, 1.087463
2190.738, 1.089952
2192.667, 1.088864
2194.595, 1.090183
2196.524, 1.090063
2198.452, 1.093826
2200.381, 1.099813
2202.309, 1.100806
2204.238, 1.099930
2206.166, 1.098164
2208.094, 1.098838
2210.023, 1.105109
2211.951, 1.108996
2213.880, 1.108304
2215.808, 1.105522
2217.737, 1.108415
2219.665, 1.112535
2221.594, 1.113741
2223.522, 1.118541
2225.451, 1.122767
2227.379, 1.125156
2229.308, 1.121902
2231.236, 1.119043
2233.165, 1.120924
2235.093, 1.123115
2237.021, 1.128272
2238.950, 1.130867
2240.878, 1.125404
2242.807, 1.126366
2244.735, 1.135030
2246.664, 1.138202
2248.592, 1.139423
2250.521, 1.140742
2252.449, 1.141309
2254.378, 1.142694
2256.306, 1.145081
2258.235, 1.146834
2260.163, 1.145009
2262.092, 1.146065
2264.020, 1.147614
2265.948, 1.149674
2267.877, 1.154792
2269.805, 1.158503
2271.734, 1.158310
2273.662, 1.155378
2275.591, 1.158262
2277.519, 1.160577
2279.448, 1.162492
2281.376, 1.162480
2283.305, 1.164528
2285.233, 1.169851
2287.162, 1.171730
2289.090, 1.171524
2291.019, 1.175277
2292.947, 1.177454
2294.875, 1.177081
2296.804, 1.177705
2298.732, 1.178809
2300.661, 1.180001
2302.589, 1.180315
2304.518, 1.182912
2306.446, 1.186709
2308.375, 1.187346
2310.303, 1.188669
2312.232, 1.191239
2314.160, 1.192886
2316.089, 1.193879
2318.017, 1.193272
2319.946, 1.195555
2321.874, 1.198781
2323.802, 1.203073
2325.731, 1.203474
2327.659, 1.202666
2329.588, 1.204021
2331.516, 1.205425
2333.445, 1.205744
2335.373, 1.208113
2337.302, 1.210330
2339.230, 1.209347
2341.159, 1.209911
2343.087, 1.210601
2345.016, 1.210129
2346.944, 1.209564
2348.873, 1.210832
2350.801, 1.213807
2352.729, 1.215420
2354.658, 1.216223
2356.586, 1.215587
2358.515, 1.215105
2360.443, 1.214702
2362.372, 1.214400
2364.300, 1.216078
2366.229, 1.217337
2368.157, 1.218790
2370.086, 1.218158
2372.014, 1.217597
2373.942, 1.218752
2375.871, 1.217764
2377.799, 1.217210
2379.728, 1.217585
2381.656, 1.218412
2383.585, 1.217602
2385.513, 1.217897
2387.442, 1.220857
2389.370, 1.221758
2391.299, 1.223054
2393.227, 1.225686
2395.156, 1.224486
2397.084, 1.222208
2399.012, 1.222184
2400.941, 1.223587
2402.869, 1.224412
2404.798, 1.226111
2406.726, 1.225855
2408.655, 1.225130
2410.583, 1.224966
2412.512, 1.223831
2414.440, 1.225535
2416.369, 1.228719
2418.297, 1.228773
2420.226, 1.229041
2422.154, 1.231269
2424.083, 1.233524
2426.011, 1.235448
2427.939, 1.235452
2429.868, 1.234735
2431.796, 1.234333
2433.725, 1.236744
2435.653, 1.239037
2437.582, 1.238461
2439.510, 1.238159
2441.439, 1.241708
2443.367, 1.243347
2445.296, 1.241476
2447.224, 1.243804
2449.153, 1.246876
2451.081, 1.246216
2453.010, 1.244946
2454.938, 1.246004
2456.866, 1.246645
2458.795, 1.246349
2460.723, 1.249363
2462.652, 1.252660
2464.580, 1.252830
2466.509, 1.251444
2468.437, 1.253185
2470.366, 1.253798
2472.294, 1.253721
2474.223, 1.255526
2476.151, 1.257668
2478.080, 1.257521
2480.008, 1.257570
2481.937, 1.258519
2483.865, 1.262000
2485.793, 1.262247
2487.722, 1.261693
2489.650, 1.261955
2491.579, 1.263220
2493.507, 1.265718
2495.436, 1.265412
2497.364, 1.263928
2499.293, 1.264270
2501.221, 1.265038
2503.150, 1.266006
2505.078, 1.266734
2507.007, 1.268227
2508.935, 1.270094
2510.864, 1.270362
2512.792, 1.269951
2514.720, 1.271150
2516.649, 1.270427
2518.577, 1.270943
2520.506, 1.277393
2522.434, 1.280238
2524.363, 1.277825
2526.291, 1.276948
2528.220, 1.278087
2530.148, 1.281075
2532.077, 1.284475
2534.005, 1.285583
2535.934, 1.284350
2537.862, 1.284624
2539.791, 1.285721
2541.719, 1.286089
2543.647, 1.288248
2545.576, 1.289231
2547.504, 1.286477
2549.433, 1.285589
2551.361, 1.287219
2553.290, 1.290642
2555.218, 1.292298
2557.147, 1.293005
2559.075, 1.296454
2561.004, 1.295726
2562.932, 1.294297
2564.861, 1.296183
2566.789, 1.298789
2568.718, 1.298833
2570.646, 1.299029
2572.574, 1.302025
2574.503, 1.302498
2576.431, 1.302185
2578.360, 1.306346
2580.288, 1.307172
2582.217, 1.307560
2584.145, 1.308805
2586.074, 1.309618
2588.002, 1.309261
2589.931, 1.309217
2591.859, 1.311326
2593.788, 1.311381
2595.716, 1.312034
2597.645, 1.314062
2599.573, 1.316583
2601.501, 1.317578
2603.430, 1.320569
2605.358, 1.320636
2607.287, 1.318313
2609.215, 1.321497
2611.144, 1.325500
2613.072, 1.325846
2615.001, 1.326287
2616.929, 1.325507
2618.858, 1.324925
2620.786, 1.327259
2622.715, 1.329158
2624.643, 1.330774
2626.572, 1.333982
2628.500, 1.338338
2630.428, 1.337033
2632.357, 1.332967
2634.285, 1.334790
2636.214, 1.337881
2638.142, 1.339120
2640.071, 1.341079
2641.999, 1.343277
2643.928, 1.345572
2645.856, 1.344541
2647.785, 1.344593
2649.713, 1.346821
2651.642, 1.347091
2653.570, 1.348540
2655.499, 1.349882
2657.427, 1.348771
2659.355, 1.349411
2661.284, 1.351609
2663.212, 1.353011
2665.141, 1.353214
2667.069, 1.352300
2668.998, 1.354282
2670.926, 1.355881
2672.855, 1.355237
2674.783, 1.356081
2676.712, 1.357185
2678.640, 1.358355
2680.569, 1.359936
2682.497, 1.362080
2684.426, 1.362209
2686.354, 1.363181
2688.282, 1.364955
2690.211, 1.363783
2692.139, 1.364481
2694.068, 1.368373
2695.996, 1.369078
2697.925, 1.366940
2699.853, 1.368737
2701.782, 1.370414
2703.710, 1.370211
2705.639, 1.371991
2707.567, 1.374402
2709.496, 1.375452
2711.424, 1.376156
2713.353, 1.375377
2715.281, 1.375367
2717.209, 1.376022
2719.138, 1.377524
2721.066, 1.377677
2722.995, 1.376731
2724.923, 1.377425
2726.852, 1.379567
2728.780, 1.380120
2730.709, 1.381412
2732.637, 1.382757
2734.566, 1.382935
2736.494, 1.383436
2738.423, 1.385541
2740.351, 1.387783
2742.280, 1.386608
2744.208, 1.385594
2746.136, 1.387900
2748.065, 1.389944
2749.993, 1.390603
2751.922, 1.394253
2753.850, 1.394432
2755.779, 1.393995
2757.707, 1.395228
2759.636, 1.396073
2761.564, 1.396995
2763.493, 1.397022
2765.421, 1.397468
2767.350, 1.399814
2769.278, 1.400416
2771.207, 1.399912
2773.135, 1.401768
2775.063, 1.402478
2776.992, 1.402687
2778.920, 1.403973
2780.849, 1.405586
2782.777, 1.406637
2784.706, 1.408055
2786.634, 1.406806
2788.563, 1.406573
2790.491, 1.409902
2792.420, 1.412047
2794.348, 1.410980
2796.277, 1.411103
2798.205, 1.416055
2800.134, 1.419661
2802.062, 1.419494
2803.990, 1.419029
2805.919, 1.419903
2807.847, 1.419454
2809.776, 1.418224
2811.704, 1.419991
2813.633, 1.421483
2815.561, 1.423498
2817.490, 1.426334
2819.418, 1.427008
2821.347, 1.426066
2823.275, 1.426145
2825.204, 1.429233
2827.132, 1.432407
2829.061, 1.434121
2830.989, 1.432650
2832.917, 1.433490
2834.846, 1.437359
2836.774, 1.439658
2838.703, 1.440969
2840.631, 1.442333
2842.560, 1.444792
2844.488, 1.448093
2846.417, 1.446943
2848.345, 1.444424
2850.274, 1.444272
2852.202, 1.443356
2854.131, 1.444570
2856.059, 1.445296
2857.988, 1.445105
2859.916, 1.445439
2861.844, 1.447842
2863.773, 1.451446
2865.701, 1.452584
2867.630, 1.452953
2869.558, 1.455768
2871.487, 1.456344
2873.415, 1.455044
2875.344, 1.456148
2877.272, 1.458390
2879.201, 1.460525
2881.129, 1.461459
2883.058, 1.463280
2884.986, 1.465647
2886.915, 1.464995
2888.843, 1.468096
2890.771, 1.469872
2892.700, 1.469831
2894.628, 1.472188
2896.557, 1.473361
2898.485, 1.472326
2900.414, 1.471120
2902.342, 1.473134
2904.271, 1.477138
2906.199, 1.478478
2908.128, 1.478570
2910.056, 1.475625
2911.985, 1.475361
2913.913, 1.479154
2915.842, 1.477973
2917.770, 1.475675
2919.698, 1.472198
2921.627, 1.472535
2923.555, 1.476343
2925.484, 1.473779
2927.412, 1.471199
2929.341, 1.471150
2931.269, 1.471897
2933.198, 1.474791
2935.126, 1.475953
2937.055, 1.474362
2938.983, 1.477867
2940.912, 1.479504
2942.840, 1.479566
2944.769, 1.482411
2946.697, 1.483531
2948.625, 1.485138
2950.554, 1.488269
2952.482, 1.491733
2954.411, 1.493526
2956.339, 1.491625
2958.268, 1.487036
2960.196, 1.486327
2962.125, 1.488618
2964.053, 1.488943
2965.982, 1.488253
2967.910, 1.486894
2969.839, 1.486726
2971.767, 1.487301
2973.696, 1.487682
2975.624, 1.490366
2977.552, 1.490586
2979.481, 1.488946
2981.409, 1.492015
2983.338, 1.494743
2985.266, 1.494675
2987.195, 1.496008
2989.123, 1.495310
2991.052, 1.493746
2992.980, 1.496126
2994.909, 1.498657
2996.837, 1.496847
2998.766, 1.497400
3000.694, 1.499782
3002.623, 1.500382
3004.551, 1.500633
3006.479, 1.504138
3008.408, 1.509209
3010.336, 1.506581
3012.265, 1.502220
3014.193, 1.505054
3016.122, 1.507401
3018.050, 1.507635
3019.979, 1.506521
3021.907, 1.507560
3023.836, 1.508746
3025.764, 1.510602
3027.693, 1.512192
3029.621, 1.513212
3031.550, 1.518363
3033.478, 1.518702
3035.406, 1.513428
3037.335, 1.515229
3039.263, 1.519796
3041.192, 1.519106
3043.120, 1.520922
3045.049, 1.521384
3046.977, 1.518982
3048.906, 1.520939
3050.834, 1.522270
3052.763, 1.523079
3054.691, 1.523354
3056.620, 1.526533
3058.548, 1.527685
3060.477, 1.529110
3062.405, 1.530250
3064.333, 1.532325
3066.262, 1.532660
3068.190, 1.532698
3070.119, 1.534215
3072.047, 1.533775
3073.976, 1.533779
3075.904, 1.535921
3077.833, 1.536401
3079.761, 1.538227
3081.690, 1.539419
3083.618, 1.537359
3085.547, 1.535779
3087.475, 1.536466
3089.404, 1.539287
3091.332, 1.544890
3093.260, 1.546080
3095.189, 1.545566
3097.117, 1.547723
3099.046, 1.549988
3100.974, 1.549089
3102.903, 1.552269
3104.831, 1.554184
3106.760, 1.553890
3108.688, 1.553535
3110.617, 1.556722
3112.545, 1.558422
3114.474, 1.558639
3116.402, 1.558942
3118.331, 1.561770
3120.259, 1.562831
3122.188, 1.558645
3124.116, 1.559212
3126.044, 1.564781
3127.973, 1.569226
3129.901, 1.568590
3131.830, 1.565810
3133.758, 1.565090
3135.687, 1.565271
3137.615, 1.567085
3139.544, 1.567765
3141.472, 1.566046
3143.401, 1.565027
3145.329, 1.565561
3147.258, 1.568864
3149.186, 1.573108
3151.115, 1.577207
3153.043, 1.580044
3154.971, 1.581164
3156.900, 1.582822
3158.828, 1.582691
3160.757, 1.579428
3162.685, 1.578053
3164.614, 1.580792
3166.542, 1.582808
3168.471, 1.587090
3170.399, 1.589417
3172.328, 1.588006
3174.256, 1.590194
3176.185, 1.594395
3178.113, 1.593641
3180.042, 1.592724
3181.970, 1.591910
3183.898, 1.592404
3185.827, 1.593111
3187.755, 1.594949
3189.684, 1.594844
3191.612, 1.597759
3193.541, 1.603034
3195.469, 1.605917
3197.398, 1.603614
3199.326, 1.602357
3201.255, 1.608201
3203.183, 1.607989
3205.112, 1.603967
3207.040, 1.604646
3208.969, 1.609715
3210.897, 1.610855
3212.825, 1.609285
3214.754, 1.609393
3216.682, 1.609562
3218.611, 1.611852
3220.539, 1.616458
3222.468, 1.619700
3224.396, 1.617821
3226.325, 1.616208
3228.253, 1.616591
3230.182, 1.620584
3232.110, 1.624193
3234.039, 1.620275
3235.967, 1.623716
3237.896, 1.627600
3239.824, 1.627640
3241.752, 1.632667
3243.681, 1.635252
3245.609, 1.631442
3247.538, 1.632615
3249.466, 1.635133
3251.395, 1.638108
3253.323, 1.637612
3255.252, 1.633299
3257.180, 1.636460
3259.109, 1.636323
3261.037, 1.635112
3262.966, 1.640942
3264.894, 1.642736
3266.823, 1.639782
3268.751, 1.642501
3270.679, 1.645881
3272.608, 1.646659
3274.536, 1.648567
3276.465, 1.652098
3278.393, 1.653571
3280.322, 1.655066
3282.250, 1.656513
3284.179, 1.656480
3286.107, 1.656548
3288.036, 1.654274
3289.964, 1.655189
3291.893, 1.660714
3293.821, 1.660413
3295.750, 1.658882
3297.678, 1.662283
3299.606, 1.658853
3301.535, 1.657708
3303.463, 1.663578
3305.392, 1.663347
3307.320, 1.662567
3309.249, 1.664441
3311.177, 1.665904
3313.106, 1.666251
3315.034, 1.668750
3316.963, 1.671973
3318.891, 1.669454
3320.820, 1.670017
3322.748, 1.671698
3324.677, 1.672224
3326.605, 1.677350
3328.533, 1.679199
3330.462, 1.680400
3332.390, 1.680902
3334.319, 1.677241
3336.247, 1.679997
3338.176, 1.684068
3340.104, 1.681555
3342.033, 1.684806
3343.961, 1.689927
3345.890, 1.688056
3347.818, 1.686107
3349.747, 1.688366
3351.675, 1.692187
3353.604, 1.694487
3355.532, 1.696227
3357.460, 1.698034
3359.389, 1.698345
3361.317, 1.693744
3363.246, 1.690693
3365.174, 1.690536
3367.103, 1.693527
3369.031, 1.696885
3370.960, 1.699777
3372.888, 1.698119
3374.817, 1.700576
3376.745, 1.702626
3378.674, 1.704061
3380.602, 1.708230
3382.531, 1.709247
3384.459, 1.707716
3386.387, 1.709421
3388.316, 1.712134
3390.244, 1.715215
3392.173, 1.716231
3394.101, 1.714450
3396.030, 1.713989
3397.958, 1.716177
3399.887, 1.722383
3401.815, 1.724756
3403.744, 1.720464
3405.672, 1.717985
3407.601, 1.720551
3409.529, 1.721440
3411.458, 1.726330
3413.386, 1.730248
3415.314, 1.732774
3417.243, 1.730531
3419.171, 1.727218
3421.100, 1.726580
3423.028, 1.725706
3424.957, 1.724327
3426.885, 1.724877
3428.814, 1.729167
3430.742, 1.733721
3432.671, 1.730631
3434.599, 1.728479
3436.528, 1.729241
3438.456, 1.735089
3440.385, 1.738529
3442.313, 1.740650
3444.241, 1.744079
3446.170, 1.742746
3448.098, 1.737226
3450.027, 1.737924
3451.955, 1.741174
3453.884, 1.740652
3455.812, 1.739650
3457.741, 1.743801
3459.669, 1.747473
3461.598, 1.746945
3463.526, 1.743543
3465.455, 1.746027
3467.383, 1.755560
3469.312, 1.756272
3471.240, 1.754612
3473.168, 1.749992
3475.097, 1.752004
3477.025, 1.758985
3478.954, 1.761758
3480.882, 1.760686
3482.811, 1.760643
3484.739, 1.765329
3486.668, 1.767625
3488.596, 1.766910
3490.525, 1.765959
3492.453, 1.768126
3494.382, 1.770595
3496.310, 1.768048
3498.239, 1.764820
3500.167, 1.768092
3502.095, 1.771479
3504.024, 1.772093
3505.952, 1.772834
3507.881, 1.770018
3509.809, 1.768227
3511.738, 1.773007
3513.666, 1.774521
3515.595, 1.781208
3517.523, 1.791285
3519.452, 1.791192
3521.380, 1.786862
3523.309, 1.790389
3525.237, 1.794010
3527.166, 1.794342
3529.094, 1.791573
3531.022, 1.790293
3532.951, 1.794132
3534.879, 1.791389
3536.808, 1.794178
3538.736, 1.798470
3540.665, 1.799028
3542.593, 1.798375
3544.522, 1.796944
3546.450, 1.793432
3548.379, 1.798291
3550.307, 1.798330
3552.236, 1.793630
3554.164, 1.796353
3556.093, 1.805202
3558.021, 1.808226
3559.949, 1.804629
3561.878, 1.803123
3563.806, 1.798008
3565.735, 1.796539
3567.663, 1.805239
3569.592, 1.807047
3571.520, 1.808503
3573.449, 1.804893
3575.377, 1.804704
3577.306, 1.808789
3579.234, 1.804043
3581.163, 1.800893
3583.091, 1.801334
3585.020, 1.800323
3586.948, 1.807407
3588.876, 1.811876
3590.805, 1.809623
3592.733, 1.808083
3594.662, 1.812171
3596.590, 1.813824
3598.519, 1.817775
3600.447, 1.817978
3602.376, 1.814427
3604.304, 1.815054
3606.233, 1.813473
3608.161, 1.820731
3610.090, 1.827610
3612.018, 1.825269
3613.947, 1.821987
3615.875, 1.825830
3617.803, 1.827091
3619.732, 1.824906
3621.660, 1.826461
3623.589, 1.826737
3625.517, 1.819885
3627.446, 1.823081
3629.374, 1.826070
3631.303, 1.826247
3633.231, 1.828889
3635.160, 1.828546
3637.088, 1.829152
3639.017, 1.825466
3640.945, 1.828986
3642.874, 1.827100
3644.802, 1.825729
3646.730, 1.832312
3648.659, 1.836573
3650.587, 1.842237
3652.516, 1.839458
3654.444, 1.840572
3656.373, 1.839030
3658.301, 1.835517
3660.230, 1.843402
3662.158, 1.850400
3664.087, 1.849596
3666.015, 1.845991
3667.944, 1.845291
3669.872, 1.846976
3671.801, 1.848145
3673.729, 1.851398
3675.657, 1.860050
3677.586, 1.865222
3679.514, 1.862264
3681.443, 1.859527
3683.371, 1.861769
3685.300, 1.862628
3687.228, 1.860631
3689.157, 1.862920
3691.085, 1.861658
3693.014, 1.861292
3694.942, 1.863764
3696.871, 1.868515
3698.799, 1.873958
3700.728, 1.874335
3702.656, 1.869572
3704.584, 1.868103
3706.513, 1.871935
3708.441, 1.868299
3710.370, 1.865551
3712.298, 1.869966
3714.227, 1.878881
3716.155, 1.878314
3718.084, 1.880991
3720.012, 1.890770
3721.941, 1.889496
3723.869, 1.888238
3725.798, 1.894999
3727.726, 1.898252
3729.655, 1.895846
3731.583, 1.895336
3733.511, 1.898649
3735.440, 1.898867
3737.368, 1.899824
3739.297, 1.899661
3741.225, 1.895971
3743.154, 1.895008
3745.082, 1.901375
3747.011, 1.903379
3748.939, 1.903152
3750.868, 1.909871
3752.796, 1.914060
3754.725, 1.911383
3756.653, 1.907050
3758.582, 1.906139
3760.510, 1.908777
3762.438, 1.912069
3764.367, 1.917356
3766.295, 1.922204
3768.224, 1.919497
3770.152, 1.914133
3772.081, 1.918404
3774.009, 1.926172
3775.938, 1.929075
3777.866, 1.926570
3779.795, 1.922550
3781.723, 1.925286
3783.652, 1.926334
3785.580, 1.933389
3787.509, 1.932499
3789.437, 1.924943
3791.365, 1.923578
3793.294, 1.923841
3795.222, 1.927018
3797.151, 1.931422
3799.079, 1.934235
3801.008, 1.938618
3802.936, 1.946242
3804.865, 1.949096
3806.793, 1.944712
3808.722, 1.938850
3810.650, 1.933954
3812.579, 1.935348
3814.507, 1.937764
3816.436, 1.936547
3818.364, 1.942818
3820.292, 1.941672
3822.221, 1.939372
3824.149, 1.951034
3826.078, 1.955920
3828.006, 1.955443
3829.935, 1.955470
3831.863, 1.952743
3833.792, 1.958532
3835.720, 1.962168
3837.649, 1.962623
3839.577, 1.959815
3841.506, 1.958440
3843.434, 1.970406
3845.363, 1.975936
3847.291, 1.974971
3849.219, 1.975744
3851.148, 1.972527
3853.076, 1.965449
3855.005, 1.968418
3856.933, 1.975951
3858.862, 1.968800
3860.790, 1.961247
3862.719, 1.965469
3864.647, 1.972211
3866.576, 1.976048
3868.504, 1.980607
3870.433, 1.987027
3872.361, 1.987960
3874.290, 1.982152
3876.218, 1.976289
3878.146, 1.974422
3880.075, 1.979745
3882.003, 1.982941
3883.932, 1.987097
3885.860, 1.985413
3887.789, 1.989401
3889.717, 1.999707
3891.646, 2.003412
3893.574, 1.998848
3895.503, 1.996205
3897.431, 1.995103
3899.360, 1.996836
3901.288, 1.997775
3903.217, 1.992777
3905.145, 1.992439
3907.073, 2.000316
3909.002, 1.997281
3910.930, 1.997907
3912.859, 2.001890
3914.787, 2.008022
3916.716, 2.012256
3918.644, 2.012725
3920.573, 2.010118
3922.501, 2.015916
3924.430, 2.012648
3926.358, 2.013682
3928.287, 2.017387
3930.215, 2.023957
3932.144, 2.023962
3934.072, 2.023429
3936.000, 2.035230
3937.929, 2.035062
3939.857, 2.029723
3941.786, 2.035927
3943.714, 2.035824
3945.643, 2.035475
3947.571, 2.034062
3949.500, 2.034170
3951.428, 2.038335
3953.357, 2.041227
3955.285, 2.030887
3957.214, 2.035002
3959.142, 2.048966
3961.071, 2.050535
3962.999, 2.056031
3964.927, 2.057747
3966.856, 2.052847
3968.784, 2.047008
3970.713, 2.041308
3972.641, 2.039981
3974.570, 2.046409
3976.498, 2.057573
3978.427, 2.052102
3980.355, 2.049031
3982.284, 2.055581
3984.212, 2.059436
3986.141, 2.065523
3988.069, 2.070011
3989.998, 2.062690
3991.926, 2.056220
3993.854, 2.066762
3995.783, 2.071710
3997.711, 2.065270
3999.640, 2.066267
##END=



