##NAMES=Magnesio-hastingsite
##RRUFFID=R040010
##IDEAL CHEMISTRY=NaCa_2_(Mg_4_Fe^3+^)Si_6_Al_2_O_22_(OH)_2_
##LOCALITY=Amity, New York, USA
##OWNER=RRUFF
##SOURCE=University of Arizona Mineral Museum
##DESCRIPTION=Group of black prismatic crystals
##STATUS=The identification of this mineral has been confirmed by X-ray diffraction and chemical analysis
##URL=rruff.info/R040010
##MEASURED CHEMISTRY=(Na_0.50_K_0.43_[box]_0.07_)_Σ=1_(Ca_1.77_Na_0.23_)_Σ=2_(Mg_1.74_Fe_1.22_Fe^3+^_0.79_Mn_0.57_Al_0.30_Zn_0.25_Ti_0.13_)_Σ=5_(Si_5.95_Al_2.05_)_Σ=8_O_22_((OH)_1.75_F_0.22_Cl_0.03_)_Σ=2_; OH estimated by charge balance
3.991926e+002, 0.000000e+000
4.011211e+002, 2.868888e-001
4.030496e+002, 2.882981e-001
4.049780e+002, 2.864831e-001
4.069065e+002, 2.859003e-001
4.088350e+002, 2.779284e-001
4.107634e+002, 2.743457e-001
4.126919e+002, 2.756099e-001
4.146204e+002, 2.812017e-001
4.165488e+002, 2.863497e-001
4.184773e+002, 2.880335e-001
4.204058e+002, 2.851864e-001
4.223342e+002, 2.839105e-001
4.242627e+002, 2.879011e-001
4.261912e+002, 2.930370e-001
4.281196e+002, 2.907580e-001
4.300481e+002, 2.928926e-001
4.319766e+002, 2.970198e-001
4.339050e+002, 2.994508e-001
4.358335e+002, 2.995725e-001
4.377620e+002, 3.006303e-001
4.396904e+002, 3.020400e-001
4.416189e+002, 3.025188e-001
4.435474e+002, 3.028760e-001
4.454758e+002, 3.045217e-001
4.474043e+002, 3.064317e-001
4.493328e+002, 3.087262e-001
4.512612e+002, 3.052627e-001
4.531897e+002, 2.988407e-001
4.551182e+002, 2.937442e-001
4.570466e+002, 2.894421e-001
4.589751e+002, 2.829668e-001
4.609036e+002, 2.748377e-001
4.628320e+002, 2.674837e-001
4.647605e+002, 2.612090e-001
4.666890e+002, 2.517419e-001
4.686174e+002, 2.436965e-001
4.705459e+002, 2.369118e-001
4.724744e+002, 2.275665e-001
4.744028e+002, 2.187257e-001
4.763313e+002, 2.125541e-001
4.782598e+002, 2.065007e-001
4.801882e+002, 2.002424e-001
4.821167e+002, 1.960951e-001
4.840452e+002, 1.945048e-001
4.859736e+002, 1.935353e-001
4.879021e+002, 1.928670e-001
4.898306e+002, 1.927736e-001
4.917590e+002, 1.935750e-001
4.936875e+002, 1.939985e-001
4.956160e+002, 1.942879e-001
4.975444e+002, 1.950028e-001
4.994729e+002, 1.953485e-001
5.014014e+002, 1.941121e-001
5.033298e+002, 1.939216e-001
5.052583e+002, 1.927837e-001
5.071868e+002, 1.907869e-001
5.091152e+002, 1.881364e-001
5.110437e+002, 1.855361e-001
5.129722e+002, 1.834758e-001
5.149006e+002, 1.803464e-001
5.168291e+002, 1.769142e-001
5.187576e+002, 1.735122e-001
5.206860e+002, 1.702423e-001
5.226145e+002, 1.677079e-001
5.245430e+002, 1.648123e-001
5.264714e+002, 1.615943e-001
5.283999e+002, 1.579616e-001
5.303284e+002, 1.537139e-001
5.322568e+002, 1.483099e-001
5.341853e+002, 1.423214e-001
5.361138e+002, 1.366984e-001
5.380422e+002, 1.307314e-001
5.399707e+002, 1.243421e-001
5.418992e+002, 1.184049e-001
5.438276e+002, 1.117915e-001
5.457561e+002, 1.055734e-001
5.476846e+002, 1.006200e-001
5.496130e+002, 9.554538e-002
5.515415e+002, 9.042796e-002
5.534700e+002, 8.598436e-002
5.553984e+002, 8.156670e-002
5.573269e+002, 7.733477e-002
5.592554e+002, 7.362980e-002
5.611838e+002, 7.050259e-002
5.631123e+002, 6.808963e-002
5.650408e+002, 6.539854e-002
5.669692e+002, 6.259507e-002
5.688977e+002, 6.027784e-002
5.708262e+002, 5.819774e-002
5.727546e+002, 5.626319e-002
5.746831e+002, 5.480272e-002
5.766116e+002, 5.386927e-002
5.785400e+002, 5.336689e-002
5.804685e+002, 5.336615e-002
5.823970e+002, 5.351501e-002
5.843254e+002, 5.403046e-002
5.862539e+002, 5.482265e-002
5.881824e+002, 5.550308e-002
5.901108e+002, 5.679813e-002
5.920393e+002, 5.853156e-002
5.939678e+002, 5.979377e-002
5.958962e+002, 6.158016e-002
5.978247e+002, 6.369444e-002
5.997532e+002, 6.575156e-002
6.016816e+002, 6.773271e-002
6.036101e+002, 6.923858e-002
6.055386e+002, 7.071347e-002
6.074670e+002, 7.173052e-002
6.093955e+002, 7.271232e-002
6.113240e+002, 7.349963e-002
6.132524e+002, 7.380413e-002
6.151809e+002, 7.377909e-002
6.171094e+002, 7.360829e-002
6.190378e+002, 7.344729e-002
6.209663e+002, 7.323817e-002
6.228948e+002, 7.293608e-002
6.248232e+002, 7.261990e-002
6.267517e+002, 7.235973e-002
6.286802e+002, 7.222787e-002
6.306086e+002, 7.199841e-002
6.325371e+002, 7.143281e-002
6.344656e+002, 7.116192e-002
6.363940e+002, 7.104153e-002
6.383225e+002, 7.061494e-002
6.402510e+002, 7.048517e-002
6.421794e+002, 7.068043e-002
6.441079e+002, 7.113679e-002
6.460364e+002, 7.212999e-002
6.479648e+002, 7.352150e-002
6.498933e+002, 7.488393e-002
6.518218e+002, 7.645687e-002
6.537502e+002, 7.820025e-002
6.556787e+002, 7.983037e-002
6.576072e+002, 8.147816e-002
6.595356e+002, 8.285243e-002
6.614641e+002, 8.410866e-002
6.633926e+002, 8.588625e-002
6.653210e+002, 8.786141e-002
6.672495e+002, 8.942209e-002
6.691780e+002, 9.007400e-002
6.711064e+002, 8.977024e-002
6.730349e+002, 8.885190e-002
6.749634e+002, 8.728458e-002
6.768918e+002, 8.502903e-002
6.788203e+002, 8.270755e-002
6.807488e+002, 8.055856e-002
6.826772e+002, 7.890844e-002
6.846057e+002, 7.750898e-002
6.865342e+002, 7.632242e-002
6.884626e+002, 7.564242e-002
6.903911e+002, 7.517067e-002
6.923196e+002, 7.426406e-002
6.942480e+002, 7.308840e-002
6.961765e+002, 7.178374e-002
6.981050e+002, 7.020485e-002
7.000334e+002, 6.872214e-002
7.019619e+002, 6.745050e-002
7.038904e+002, 6.615243e-002
7.058188e+002, 6.526361e-002
7.077473e+002, 6.528478e-002
7.096758e+002, 6.641223e-002
7.116042e+002, 6.774766e-002
7.135327e+002, 6.874970e-002
7.154612e+002, 6.991132e-002
7.173896e+002, 7.154062e-002
7.193181e+002, 7.352285e-002
7.212466e+002, 7.540391e-002
7.231750e+002, 7.727855e-002
7.251035e+002, 7.909494e-002
7.270320e+002, 8.019114e-002
7.289604e+002, 8.024487e-002
7.308889e+002, 7.971722e-002
7.328174e+002, 7.889191e-002
7.347458e+002, 7.770431e-002
7.366743e+002, 7.632139e-002
7.386028e+002, 7.518990e-002
7.405313e+002, 7.494722e-002
7.424597e+002, 7.509169e-002
7.443882e+002, 7.508271e-002
7.463167e+002, 7.541114e-002
7.482451e+002, 7.598391e-002
7.501736e+002, 7.698097e-002
7.521021e+002, 7.839437e-002
7.540305e+002, 8.015100e-002
7.559590e+002, 8.181353e-002
7.578875e+002, 8.350319e-002
7.598159e+002, 8.580934e-002
7.617444e+002, 8.860347e-002
7.636729e+002, 9.129649e-002
7.656013e+002, 9.386382e-002
7.675298e+002, 9.663627e-002
7.694583e+002, 9.932783e-002
7.713867e+002, 1.020852e-001
7.733152e+002, 1.049882e-001
7.752437e+002, 1.077518e-001
7.771721e+002, 1.101635e-001
7.791006e+002, 1.121566e-001
7.810291e+002, 1.141378e-001
7.829575e+002, 1.159925e-001
7.848860e+002, 1.173745e-001
7.868145e+002, 1.181196e-001
7.887429e+002, 1.182549e-001
7.906714e+002, 1.182805e-001
7.925999e+002, 1.178526e-001
7.945283e+002, 1.167925e-001
7.964568e+002, 1.155468e-001
7.983853e+002, 1.142857e-001
8.003137e+002, 1.124493e-001
8.022422e+002, 1.104555e-001
8.041707e+002, 1.090191e-001
8.060991e+002, 1.082104e-001
8.080276e+002, 1.082974e-001
8.099561e+002, 1.087913e-001
8.118845e+002, 1.101170e-001
8.138130e+002, 1.123116e-001
8.157415e+002, 1.152035e-001
8.176699e+002, 1.186680e-001
8.195984e+002, 1.229068e-001
8.215269e+002, 1.279076e-001
8.234553e+002, 1.336323e-001
8.253838e+002, 1.398276e-001
8.273123e+002, 1.466874e-001
8.292407e+002, 1.542213e-001
8.311692e+002, 1.622377e-001
8.330977e+002, 1.708406e-001
8.350261e+002, 1.801307e-001
8.369546e+002, 1.893888e-001
8.388831e+002, 1.990801e-001
8.408115e+002, 2.087984e-001
8.427400e+002, 2.184679e-001
8.446685e+002, 2.283633e-001
8.465969e+002, 2.376505e-001
8.485254e+002, 2.460439e-001
8.504539e+002, 2.538238e-001
8.523823e+002, 2.609861e-001
8.543108e+002, 2.670414e-001
8.562393e+002, 2.727762e-001
8.581677e+002, 2.777824e-001
8.600962e+002, 2.813571e-001
8.620247e+002, 2.841543e-001
8.639531e+002, 2.866569e-001
8.658816e+002, 2.883034e-001
8.678101e+002, 2.895898e-001
8.697385e+002, 2.909408e-001
8.716670e+002, 2.924870e-001
8.735955e+002, 2.939614e-001
8.755239e+002, 2.953813e-001
8.774524e+002, 2.978939e-001
8.793809e+002, 3.011530e-001
8.813093e+002, 3.048789e-001
8.832378e+002, 3.092089e-001
8.851663e+002, 3.135394e-001
8.870947e+002, 3.182663e-001
8.890232e+002, 3.235665e-001
8.909517e+002, 3.295426e-001
8.928801e+002, 3.359209e-001
8.948085e+002, 3.425039e-001
8.967370e+002, 3.495290e-001
8.986655e+002, 3.561755e-001
9.005939e+002, 3.625686e-001
9.025224e+002, 3.684293e-001
9.044509e+002, 3.735605e-001
9.063793e+002, 3.782549e-001
9.083078e+002, 3.822967e-001
9.102363e+002, 3.855118e-001
9.121647e+002, 3.873282e-001
9.140932e+002, 3.887035e-001
9.160217e+002, 3.898934e-001
9.179501e+002, 3.904917e-001
9.198786e+002, 3.909666e-001
9.218071e+002, 3.912776e-001
9.237355e+002, 3.909289e-001
9.256640e+002, 3.898234e-001
9.275925e+002, 3.878382e-001
9.295209e+002, 3.850423e-001
9.314494e+002, 3.819665e-001
9.333779e+002, 3.789473e-001
9.353063e+002, 3.752987e-001
9.372348e+002, 3.710503e-001
9.391633e+002, 3.666221e-001
9.410917e+002, 3.621378e-001
9.430202e+002, 3.574654e-001
9.449487e+002, 3.525572e-001
9.468771e+002, 3.477249e-001
9.488056e+002, 3.430122e-001
9.507341e+002, 3.382416e-001
9.526625e+002, 3.339146e-001
9.545910e+002, 3.298124e-001
9.565195e+002, 3.254942e-001
9.584479e+002, 3.212866e-001
9.603764e+002, 3.171022e-001
9.623049e+002, 3.126452e-001
9.642333e+002, 3.080631e-001
9.661618e+002, 3.032110e-001
9.680903e+002, 2.980639e-001
9.700187e+002, 2.923686e-001
9.719472e+002, 2.861726e-001
9.738757e+002, 2.798787e-001
9.758041e+002, 2.730989e-001
9.777326e+002, 2.656969e-001
9.796611e+002, 2.581119e-001
9.815895e+002, 2.503881e-001
9.835180e+002, 2.423035e-001
9.854465e+002, 2.344195e-001
9.873749e+002, 2.267324e-001
9.893034e+002, 2.190564e-001
9.912319e+002, 2.116238e-001
9.931603e+002, 2.046106e-001
9.950888e+002, 1.978484e-001
9.970173e+002, 1.914356e-001
9.989457e+002, 1.858701e-001
1.000874e+003, 1.810759e-001
1.002803e+003, 1.766859e-001
1.004731e+003, 1.729311e-001
1.006660e+003, 1.696984e-001
1.008588e+003, 1.671098e-001
1.010517e+003, 1.654077e-001
1.012445e+003, 1.640486e-001
1.014373e+003, 1.628804e-001
1.016302e+003, 1.619311e-001
1.018230e+003, 1.610583e-001
1.020159e+003, 1.602596e-001
1.022087e+003, 1.596766e-001
1.024016e+003, 1.589167e-001
1.025944e+003, 1.580137e-001
1.027873e+003, 1.571867e-001
1.029801e+003, 1.562495e-001
1.031730e+003, 1.551895e-001
1.033658e+003, 1.540958e-001
1.035587e+003, 1.529330e-001
1.037515e+003, 1.517721e-001
1.039444e+003, 1.507025e-001
1.041372e+003, 1.492793e-001
1.043301e+003, 1.476796e-001
1.045229e+003, 1.458384e-001
1.047157e+003, 1.436224e-001
1.049086e+003, 1.408992e-001
1.051014e+003, 1.377018e-001
1.052943e+003, 1.344860e-001
1.054871e+003, 1.312454e-001
1.056800e+003, 1.279715e-001
1.058728e+003, 1.246841e-001
1.060657e+003, 1.214148e-001
1.062585e+003, 1.181283e-001
1.064514e+003, 1.151250e-001
1.066442e+003, 1.123988e-001
1.068371e+003, 1.093800e-001
1.070299e+003, 1.065882e-001
1.072228e+003, 1.041078e-001
1.074156e+003, 1.015424e-001
1.076084e+003, 9.872419e-002
1.078013e+003, 9.599792e-002
1.079941e+003, 9.308527e-002
1.081870e+003, 8.998811e-002
1.083798e+003, 8.709098e-002
1.085727e+003, 8.393940e-002
1.087655e+003, 8.081204e-002
1.089584e+003, 7.754785e-002
1.091512e+003, 7.414714e-002
1.093441e+003, 7.067842e-002
1.095369e+003, 6.712208e-002
1.097298e+003, 6.368153e-002
1.099226e+003, 6.065199e-002
1.101155e+003, 5.783872e-002
1.103083e+003, 5.515288e-002
1.105011e+003, 5.248269e-002
1.106940e+003, 4.962110e-002
1.108868e+003, 4.676113e-002
1.110797e+003, 4.393392e-002
1.112725e+003, 4.120577e-002
1.114654e+003, 3.813986e-002
1.116582e+003, 3.501230e-002
1.118511e+003, 3.215905e-002
1.120439e+003, 2.958854e-002
1.122368e+003, 2.693199e-002
1.124296e+003, 2.442166e-002
1.126225e+003, 2.240133e-002
1.128153e+003, 2.058808e-002
1.130082e+003, 1.898074e-002
1.132010e+003, 1.763691e-002
1.133938e+003, 1.650193e-002
1.135867e+003, 1.549142e-002
1.137795e+003, 1.463030e-002
1.139724e+003, 1.392173e-002
1.141652e+003, 1.318754e-002
1.143581e+003, 1.255915e-002
1.145509e+003, 1.206329e-002
1.147438e+003, 1.160421e-002
1.149366e+003, 1.109295e-002
1.151295e+003, 1.067575e-002
1.153223e+003, 1.045224e-002
1.155152e+003, 1.024127e-002
1.157080e+003, 1.000291e-002
1.159009e+003, 9.592701e-003
1.160937e+003, 9.256916e-003
1.162865e+003, 8.975426e-003
1.164794e+003, 8.702527e-003
1.166722e+003, 8.333913e-003
1.168651e+003, 8.065049e-003
1.170579e+003, 7.884720e-003
1.172508e+003, 7.618504e-003
1.174436e+003, 7.411137e-003
1.176365e+003, 7.239069e-003
1.178293e+003, 7.149842e-003
1.180222e+003, 7.108320e-003
1.182150e+003, 6.902282e-003
1.184079e+003, 6.680364e-003
1.186007e+003, 6.619122e-003
1.187936e+003, 6.424181e-003
1.189864e+003, 6.076298e-003
1.191792e+003, 5.883764e-003
1.193721e+003, 5.964913e-003
1.195649e+003, 5.951865e-003
1.197578e+003, 5.723900e-003
1.199506e+003, 5.713231e-003
1.201435e+003, 5.646729e-003
1.203363e+003, 5.445599e-003
1.205292e+003, 5.280199e-003
1.207220e+003, 5.249864e-003
1.209149e+003, 5.329935e-003
1.211077e+003, 5.250558e-003
1.213006e+003, 5.121531e-003
1.214934e+003, 5.065107e-003
1.216863e+003, 4.970023e-003
1.218791e+003, 4.926275e-003
1.220719e+003, 5.033323e-003
1.222648e+003, 5.023311e-003
1.224576e+003, 4.987928e-003
1.226505e+003, 4.986552e-003
1.228433e+003, 4.792353e-003
1.230362e+003, 4.558560e-003
1.232290e+003, 4.614819e-003
1.234219e+003, 4.740020e-003
1.236147e+003, 4.733110e-003
1.238076e+003, 4.721303e-003
1.240004e+003, 4.560686e-003
1.241933e+003, 4.301931e-003
1.243861e+003, 4.333958e-003
1.245790e+003, 4.512742e-003
1.247718e+003, 4.534270e-003
1.249646e+003, 4.517620e-003
1.251575e+003, 4.516012e-003
1.253503e+003, 4.493302e-003
1.255432e+003, 4.589404e-003
1.257360e+003, 4.647832e-003
1.259289e+003, 4.503885e-003
1.261217e+003, 4.377964e-003
1.263146e+003, 4.532935e-003
1.265074e+003, 4.653340e-003
1.267003e+003, 4.734098e-003
1.268931e+003, 4.856306e-003
1.270860e+003, 4.800694e-003
1.272788e+003, 4.854766e-003
1.274717e+003, 4.852007e-003
1.276645e+003, 4.711296e-003
1.278573e+003, 4.575817e-003
1.280502e+003, 4.719652e-003
1.282430e+003, 4.784292e-003
1.284359e+003, 4.729629e-003
1.286287e+003, 4.651841e-003
1.288216e+003, 4.611967e-003
1.290144e+003, 4.791230e-003
1.292073e+003, 4.775314e-003
1.294001e+003, 4.651129e-003
1.295930e+003, 4.739719e-003
1.297858e+003, 4.799598e-003
1.299787e+003, 4.857506e-003
1.301715e+003, 4.916582e-003
1.303644e+003, 4.913897e-003
1.305572e+003, 4.746409e-003
1.307500e+003, 4.762143e-003
1.309429e+003, 4.836241e-003
1.311357e+003, 4.889017e-003
1.313286e+003, 4.917129e-003
1.315214e+003, 4.837363e-003
1.317143e+003, 4.863393e-003
1.319071e+003, 5.024285e-003
1.321000e+003, 5.157144e-003
1.322928e+003, 5.161638e-003
1.324857e+003, 5.036892e-003
1.326785e+003, 4.991479e-003
1.328714e+003, 5.137797e-003
1.330642e+003, 5.162320e-003
1.332571e+003, 5.135241e-003
1.334499e+003, 5.203193e-003
1.336427e+003, 5.240312e-003
1.338356e+003, 5.100347e-003
1.340284e+003, 5.111412e-003
1.342213e+003, 5.289579e-003
1.344141e+003, 5.515440e-003
1.346070e+003, 5.628988e-003
1.347998e+003, 5.724362e-003
1.349927e+003, 5.775428e-003
1.351855e+003, 5.911609e-003
1.353784e+003, 6.087239e-003
1.355712e+003, 6.061291e-003
1.357641e+003, 5.887373e-003
1.359569e+003, 6.028209e-003
1.361498e+003, 6.314879e-003
1.363426e+003, 6.200703e-003
1.365354e+003, 6.208329e-003
1.367283e+003, 6.331215e-003
1.369211e+003, 6.355065e-003
1.371140e+003, 6.335137e-003
1.373068e+003, 6.461211e-003
1.374997e+003, 6.717679e-003
1.376925e+003, 6.940679e-003
1.378854e+003, 6.736523e-003
1.380782e+003, 6.629298e-003
1.382711e+003, 6.911909e-003
1.384639e+003, 7.126291e-003
1.386568e+003, 7.228185e-003
1.388496e+003, 7.396196e-003
1.390424e+003, 7.530626e-003
1.392353e+003, 7.580533e-003
1.394281e+003, 7.699224e-003
1.396210e+003, 7.889784e-003
1.398138e+003, 8.065068e-003
1.400067e+003, 8.147994e-003
1.401995e+003, 8.280520e-003
1.403924e+003, 8.164382e-003
1.405852e+003, 8.170370e-003
1.407781e+003, 8.455322e-003
1.409709e+003, 8.576421e-003
1.411638e+003, 8.484850e-003
1.413566e+003, 8.363918e-003
1.415495e+003, 8.324949e-003
1.417423e+003, 8.353818e-003
1.419351e+003, 8.503642e-003
1.421280e+003, 8.600987e-003
1.423208e+003, 8.618388e-003
1.425137e+003, 8.727175e-003
1.427065e+003, 8.900691e-003
1.428994e+003, 8.929191e-003
1.430922e+003, 8.750045e-003
1.432851e+003, 8.683035e-003
1.434779e+003, 8.612579e-003
1.436708e+003, 8.465433e-003
1.438636e+003, 8.342234e-003
1.440565e+003, 8.330049e-003
1.442493e+003, 8.409258e-003
1.444422e+003, 8.416711e-003
1.446350e+003, 8.345227e-003
1.448278e+003, 8.208917e-003
1.450207e+003, 8.090876e-003
1.452135e+003, 8.035881e-003
1.454064e+003, 8.007527e-003
1.455992e+003, 7.941783e-003
1.457921e+003, 7.712872e-003
1.459849e+003, 7.845245e-003
1.461778e+003, 7.954050e-003
1.463706e+003, 7.944373e-003
1.465635e+003, 7.787768e-003
1.467563e+003, 7.723454e-003
1.469492e+003, 7.748262e-003
1.471420e+003, 7.782715e-003
1.473349e+003, 7.631730e-003
1.475277e+003, 7.654463e-003
1.477205e+003, 7.709171e-003
1.479134e+003, 7.961469e-003
1.481062e+003, 8.015987e-003
1.482991e+003, 8.094257e-003
1.484919e+003, 8.334607e-003
1.486848e+003, 8.310854e-003
1.488776e+003, 8.265788e-003
1.490705e+003, 8.320035e-003
1.492633e+003, 8.391448e-003
1.494562e+003, 8.444505e-003
1.496490e+003, 8.255773e-003
1.498419e+003, 8.442394e-003
1.500347e+003, 8.716557e-003
1.502276e+003, 8.853663e-003
1.504204e+003, 8.879669e-003
1.506132e+003, 8.745939e-003
1.508061e+003, 8.845829e-003
1.509989e+003, 9.008490e-003
1.511918e+003, 8.881872e-003
1.513846e+003, 8.804063e-003
1.515775e+003, 8.867700e-003
1.517703e+003, 8.994678e-003
1.519632e+003, 9.081343e-003
1.521560e+003, 8.887330e-003
1.523489e+003, 8.828405e-003
1.525417e+003, 8.996544e-003
1.527346e+003, 9.155233e-003
1.529274e+003, 9.012034e-003
1.531203e+003, 9.097395e-003
1.533131e+003, 9.299935e-003
1.535059e+003, 9.461179e-003
1.536988e+003, 9.558050e-003
1.538916e+003, 9.648062e-003
1.540845e+003, 9.681161e-003
1.542773e+003, 9.553796e-003
1.544702e+003, 9.564814e-003
1.546630e+003, 9.586277e-003
1.548559e+003, 9.743115e-003
1.550487e+003, 9.993109e-003
1.552416e+003, 1.014390e-002
1.554344e+003, 1.002393e-002
1.556273e+003, 1.005601e-002
1.558201e+003, 9.927734e-003
1.560130e+003, 9.746906e-003
1.562058e+003, 9.924140e-003
1.563986e+003, 1.018547e-002
1.565915e+003, 1.025153e-002
1.567843e+003, 1.020528e-002
1.569772e+003, 9.980050e-003
1.571700e+003, 1.008537e-002
1.573629e+003, 1.035437e-002
1.575557e+003, 1.050187e-002
1.577486e+003, 1.043908e-002
1.579414e+003, 1.064149e-002
1.581343e+003, 1.061910e-002
1.583271e+003, 1.053427e-002
1.585200e+003, 1.056245e-002
1.587128e+003, 1.070810e-002
1.589057e+003, 1.070246e-002
1.590985e+003, 1.062629e-002
1.592913e+003, 1.050040e-002
1.594842e+003, 1.046299e-002
1.596770e+003, 1.068047e-002
1.598699e+003, 1.074491e-002
1.600627e+003, 1.065801e-002
1.602556e+003, 1.057632e-002
1.604484e+003, 1.056593e-002
1.606413e+003, 1.079107e-002
1.608341e+003, 1.068534e-002
1.610270e+003, 1.053157e-002
1.612198e+003, 1.048022e-002
1.614127e+003, 1.048002e-002
1.616055e+003, 1.026831e-002
1.617984e+003, 9.927677e-003
1.619912e+003, 1.021927e-002
1.621840e+003, 1.034234e-002
1.623769e+003, 1.019668e-002
1.625697e+003, 1.007932e-002
1.627626e+003, 1.008298e-002
1.629554e+003, 1.020124e-002
1.631483e+003, 9.938066e-003
1.633411e+003, 1.003085e-002
1.635340e+003, 1.015890e-002
1.637268e+003, 9.990413e-003
1.639197e+003, 9.856489e-003
1.641125e+003, 9.923379e-003
1.643054e+003, 1.002724e-002
1.644982e+003, 9.934251e-003
1.646911e+003, 9.722156e-003
1.648839e+003, 9.992476e-003
1.650767e+003, 1.011995e-002
1.652696e+003, 9.659974e-003
1.654624e+003, 9.425232e-003
1.656553e+003, 9.640170e-003
1.658481e+003, 9.594924e-003
1.660410e+003, 9.487852e-003
1.662338e+003, 9.228572e-003
1.664267e+003, 9.041042e-003
1.666195e+003, 9.036615e-003
1.668124e+003, 9.052735e-003
1.670052e+003, 8.856955e-003
1.671981e+003, 8.659090e-003
1.673909e+003, 8.501167e-003
1.675838e+003, 8.381142e-003
1.677766e+003, 8.403491e-003
1.679694e+003, 8.234104e-003
1.681623e+003, 8.182012e-003
1.683551e+003, 8.146774e-003
1.685480e+003, 7.786722e-003
1.687408e+003, 7.776675e-003
1.689337e+003, 7.715386e-003
1.691265e+003, 7.546346e-003
1.693194e+003, 7.287244e-003
1.695122e+003, 7.129827e-003
1.697051e+003, 7.033578e-003
1.698979e+003, 7.245994e-003
1.700908e+003, 7.034021e-003
1.702836e+003, 7.285743e-003
1.704765e+003, 7.119842e-003
1.706693e+003, 6.672160e-003
1.708621e+003, 6.453021e-003
1.710550e+003, 6.477267e-003
1.712478e+003, 6.543177e-003
1.714407e+003, 6.629364e-003
1.716335e+003, 6.732101e-003
1.718264e+003, 6.490789e-003
1.720192e+003, 6.355543e-003
1.722121e+003, 6.501983e-003
1.724049e+003, 6.652159e-003
1.725978e+003, 6.561050e-003
1.727906e+003, 6.590602e-003
1.729835e+003, 6.661248e-003
1.731763e+003, 6.332323e-003
1.733692e+003, 6.172291e-003
1.735620e+003, 5.893177e-003
1.737548e+003, 5.587632e-003
1.739477e+003, 5.527429e-003
1.741405e+003, 5.593060e-003
1.743334e+003, 5.515874e-003
1.745262e+003, 5.278639e-003
1.747191e+003, 5.374439e-003
1.749119e+003, 5.506960e-003
1.751048e+003, 5.626525e-003
1.752976e+003, 5.719112e-003
1.754905e+003, 5.664308e-003
1.756833e+003, 5.672028e-003
1.758762e+003, 6.100385e-003
1.760690e+003, 6.295288e-003
1.762619e+003, 6.217990e-003
1.764547e+003, 6.350395e-003
1.766475e+003, 6.406689e-003
1.768404e+003, 6.441093e-003
1.770332e+003, 6.481635e-003
1.772261e+003, 6.124386e-003
1.774189e+003, 5.800095e-003
1.776118e+003, 6.096738e-003
1.778046e+003, 6.481085e-003
1.779975e+003, 6.484921e-003
1.781903e+003, 6.085531e-003
1.783832e+003, 5.646087e-003
1.785760e+003, 6.000337e-003
1.787689e+003, 6.613712e-003
1.789617e+003, 6.510988e-003
1.791546e+003, 5.989417e-003
1.793474e+003, 5.885719e-003
1.795402e+003, 6.441175e-003
1.797331e+003, 6.454099e-003
1.799259e+003, 6.240316e-003
1.801188e+003, 6.165639e-003
1.803116e+003, 5.879124e-003
1.805045e+003, 5.617776e-003
1.806973e+003, 5.661632e-003
1.808902e+003, 5.685491e-003
1.810830e+003, 5.748406e-003
1.812759e+003, 6.038264e-003
1.814687e+003, 5.887825e-003
1.816616e+003, 5.679224e-003
1.818544e+003, 5.460741e-003
1.820473e+003, 5.453446e-003
1.822401e+003, 5.800875e-003
1.824329e+003, 6.111429e-003
1.826258e+003, 5.863529e-003
1.828186e+003, 5.679657e-003
1.830115e+003, 5.695579e-003
1.832043e+003, 5.799516e-003
1.833972e+003, 5.751315e-003
1.835900e+003, 5.511441e-003
1.837829e+003, 5.469104e-003
1.839757e+003, 5.587007e-003
1.841686e+003, 5.555953e-003
1.843614e+003, 5.665915e-003
1.845543e+003, 5.669163e-003
1.847471e+003, 5.578018e-003
1.849400e+003, 5.680145e-003
1.851328e+003, 5.817389e-003
1.853256e+003, 5.496155e-003
1.855185e+003, 5.158933e-003
1.857113e+003, 5.218738e-003
1.859042e+003, 5.695649e-003
1.860970e+003, 5.684876e-003
1.862899e+003, 5.110306e-003
1.864827e+003, 5.118414e-003
1.866756e+003, 5.219878e-003
1.868684e+003, 5.129670e-003
1.870613e+003, 4.620756e-003
1.872541e+003, 4.495870e-003
1.874470e+003, 4.427680e-003
1.876398e+003, 4.628202e-003
1.878327e+003, 5.034356e-003
1.880255e+003, 5.079024e-003
1.882183e+003, 4.869360e-003
1.884112e+003, 4.565272e-003
1.886040e+003, 4.545763e-003
1.887969e+003, 4.823050e-003
1.889897e+003, 4.836537e-003
1.891826e+003, 4.932566e-003
1.893754e+003, 4.408632e-003
1.895683e+003, 4.119025e-003
1.897611e+003, 4.300915e-003
1.899540e+003, 4.823647e-003
1.901468e+003, 5.426693e-003
1.903397e+003, 5.234194e-003
1.905325e+003, 5.016178e-003
1.907254e+003, 4.706780e-003
1.909182e+003, 4.692747e-003
1.911110e+003, 4.312599e-003
1.913039e+003, 3.879475e-003
1.914967e+003, 3.803752e-003
1.916896e+003, 3.738054e-003
1.918824e+003, 3.851472e-003
1.920753e+003, 3.789932e-003
1.922681e+003, 3.597980e-003
1.924610e+003, 3.481663e-003
1.926538e+003, 3.722033e-003
1.928467e+003, 3.530621e-003
1.930395e+003, 3.293376e-003
1.932324e+003, 3.887396e-003
1.934252e+003, 4.387261e-003
1.936181e+003, 3.931157e-003
1.938109e+003, 3.862062e-003
1.940037e+003, 3.522052e-003
1.941966e+003, 3.247093e-003
1.943894e+003, 2.991105e-003
1.945823e+003, 2.857161e-003
1.947751e+003, 3.515120e-003
1.949680e+003, 3.536354e-003
1.951608e+003, 2.668757e-003
1.953537e+003, 2.065309e-003
1.955465e+003, 8.373064e-004
1.957394e+003, -3.881276e-004
1.959322e+003, -8.964584e-004
1.961251e+003, -4.933788e-005
1.963179e+003, 1.300200e-003
1.965108e+003, 1.509431e-003
1.967036e+003, 2.239903e-003
1.968964e+003, 3.896354e-003
1.970893e+003, 2.996865e-003
1.972821e+003, -7.497752e-004
1.974750e+003, -1.554760e-003
1.976678e+003, 2.378565e-004
1.978607e+003, 3.190569e-003
1.980535e+003, 4.192891e-003
1.982464e+003, 3.243537e-003
1.984392e+003, 2.372135e-003
1.986321e+003, 4.435985e-003
1.988249e+003, 6.521111e-003
1.990178e+003, 4.144949e-003
1.992106e+003, 2.762670e-003
1.994035e+003, 2.936975e-003
1.995963e+003, 3.015756e-003
1.997891e+003, 2.450754e-003
1.999820e+003, 2.043196e-003
2.001748e+003, 1.703198e-003
2.003677e+003, 1.886439e-003
2.005605e+003, 2.214314e-003
2.007534e+003, 3.045816e-003
2.009462e+003, 2.432631e-003
2.011391e+003, 1.273665e-003
2.013319e+003, 9.966841e-004
2.015248e+003, 1.504618e-003
2.017176e+003, 2.248756e-003
2.019105e+003, 3.341448e-003
2.021033e+003, 3.850414e-003
2.022962e+003, 4.038346e-003
2.024890e+003, 3.679455e-003
2.026818e+003, 2.883158e-003
2.028747e+003, 2.342419e-003
2.030675e+003, 3.229437e-003
2.032604e+003, 2.595219e-003
2.034532e+003, 2.595519e-003
2.036461e+003, 2.591220e-003
2.038389e+003, 3.435182e-003
2.040318e+003, 4.882203e-003
2.042246e+003, 4.884282e-003
2.044175e+003, 3.675263e-003
2.046103e+003, 3.697648e-003
2.048032e+003, 4.398314e-003
2.049960e+003, 5.835775e-003
2.051889e+003, 4.457942e-003
2.053817e+003, 1.359160e-003
2.055746e+003, 1.945765e-003
2.057674e+003, 4.185017e-003
2.059603e+003, 4.369353e-003
2.061531e+003, 4.320181e-003
2.063459e+003, 6.295880e-003
2.065388e+003, 6.962713e-003
2.067316e+003, 6.103931e-003
2.069245e+003, 4.955927e-003
2.071173e+003, 5.218054e-003
2.073102e+003, 4.698856e-003
2.075030e+003, 4.754671e-003
2.076959e+003, 5.677780e-003
2.078887e+003, 6.160151e-003
2.080816e+003, 6.232996e-003
2.082744e+003, 5.809253e-003
2.084673e+003, 6.103287e-003
2.086601e+003, 6.246192e-003
2.088530e+003, 5.718466e-003
2.090458e+003, 5.720911e-003
2.092386e+003, 5.913157e-003
2.094315e+003, 5.915902e-003
2.096243e+003, 5.857961e-003
2.098172e+003, 5.543008e-003
2.100100e+003, 6.311936e-003
2.102029e+003, 7.109362e-003
2.103957e+003, 6.112934e-003
2.105886e+003, 5.598908e-003
2.107814e+003, 5.970558e-003
2.109743e+003, 6.782665e-003
2.111671e+003, 7.203189e-003
2.113600e+003, 7.613713e-003
2.115528e+003, 7.778085e-003
2.117457e+003, 6.928881e-003
2.119385e+003, 5.486892e-003
2.121313e+003, 5.349623e-003
2.123242e+003, 5.733379e-003
2.125170e+003, 5.247427e-003
2.127099e+003, 5.211164e-003
2.129027e+003, 5.322945e-003
2.130956e+003, 5.125323e-003
2.132884e+003, 4.447963e-003
2.134813e+003, 4.515163e-003
2.136741e+003, 5.162930e-003
2.138670e+003, 4.158700e-003
2.140598e+003, 3.015587e-003
2.142527e+003, 3.124255e-003
2.144455e+003, 3.759246e-003
2.146384e+003, 4.073991e-003
2.148312e+003, 4.515180e-003
2.150240e+003, 3.715281e-003
2.152169e+003, 1.758162e-003
2.154097e+003, -6.265187e-004
2.156026e+003, -1.389158e-003
2.157954e+003, 1.022024e-003
2.159883e+003, 4.922186e-003
2.161811e+003, 7.407866e-003
2.163740e+003, 6.821112e-003
2.165668e+003, 6.504106e-003
2.167597e+003, 6.638871e-003
2.169525e+003, 5.592617e-003
2.171454e+003, 4.625534e-003
2.173382e+003, 5.989368e-003
2.175311e+003, 5.934466e-003
2.177239e+003, 5.945699e-003
2.179167e+003, 6.313109e-003
2.181096e+003, 6.050438e-003
2.183024e+003, 8.344104e-003
2.184953e+003, 9.415023e-003
2.186881e+003, 7.882573e-003
2.188810e+003, 7.515565e-003
2.190738e+003, 8.428456e-003
2.192667e+003, 8.377856e-003
2.194595e+003, 9.150963e-003
2.196524e+003, 9.557044e-003
2.198452e+003, 8.994557e-003
2.200381e+003, 1.014400e-002
2.202309e+003, 1.092428e-002
2.204238e+003, 1.023243e-002
2.206166e+003, 8.706088e-003
2.208094e+003, 6.984288e-003
2.210023e+003, 7.439959e-003
2.211951e+003, 9.877271e-003
2.213880e+003, 9.655870e-003
2.215808e+003, 8.971620e-003
2.217737e+003, 9.148354e-003
2.219665e+003, 9.303075e-003
2.221594e+003, 9.312203e-003
2.223522e+003, 9.058397e-003
2.225451e+003, 8.834261e-003
2.227379e+003, 9.625024e-003
2.229308e+003, 9.476766e-003
2.231236e+003, 9.456722e-003
2.233165e+003, 9.277631e-003
2.235093e+003, 8.910245e-003
2.237021e+003, 9.887476e-003
2.238950e+003, 9.414453e-003
2.240878e+003, 9.919010e-003
2.242807e+003, 1.061504e-002
2.244735e+003, 1.060048e-002
2.246664e+003, 1.015060e-002
2.248592e+003, 1.055581e-002
2.250521e+003, 1.155820e-002
2.252449e+003, 1.098384e-002
2.254378e+003, 1.115433e-002
2.256306e+003, 1.032143e-002
2.258235e+003, 9.757578e-003
2.260163e+003, 1.035271e-002
2.262092e+003, 1.142003e-002
2.264020e+003, 1.174367e-002
2.265948e+003, 1.154785e-002
2.267877e+003, 1.118697e-002
2.269805e+003, 1.105831e-002
2.271734e+003, 1.192832e-002
2.273662e+003, 1.287166e-002
2.275591e+003, 1.296672e-002
2.277519e+003, 1.236942e-002
2.279448e+003, 1.151990e-002
2.281376e+003, 1.091275e-002
2.283305e+003, 1.175146e-002
2.285233e+003, 1.271591e-002
2.287162e+003, 1.323917e-002
2.289090e+003, 1.305322e-002
2.291019e+003, 1.264176e-002
2.292947e+003, 1.225956e-002
2.294875e+003, 1.281853e-002
2.296804e+003, 1.335499e-002
2.298732e+003, 1.299654e-002
2.300661e+003, 1.273372e-002
2.302589e+003, 1.297762e-002
2.304518e+003, 1.325404e-002
2.306446e+003, 1.258680e-002
2.308375e+003, 1.190245e-002
2.310303e+003, 1.201591e-002
2.312232e+003, 1.259793e-002
2.314160e+003, 1.282400e-002
2.316089e+003, 1.266759e-002
2.318017e+003, 1.278096e-002
2.319946e+003, 1.379783e-002
2.321874e+003, 1.466566e-002
2.323802e+003, 1.428375e-002
2.325731e+003, 1.285389e-002
2.327659e+003, 1.229903e-002
2.329588e+003, 1.263972e-002
2.331516e+003, 1.317590e-002
2.333445e+003, 1.322775e-002
2.335373e+003, 1.279370e-002
2.337302e+003, 1.301228e-002
2.339230e+003, 1.281264e-002
2.341159e+003, 1.236281e-002
2.343087e+003, 1.230059e-002
2.345016e+003, 1.186879e-002
2.346944e+003, 1.154668e-002
2.348873e+003, 1.197551e-002
2.350801e+003, 1.241047e-002
2.352729e+003, 1.249328e-002
2.354658e+003, 1.270552e-002
2.356586e+003, 1.315121e-002
2.358515e+003, 1.272386e-002
2.360443e+003, 1.245727e-002
2.362372e+003, 1.301348e-002
2.364300e+003, 1.314312e-002
2.366229e+003, 1.291509e-002
2.368157e+003, 1.303106e-002
2.370086e+003, 1.257092e-002
2.372014e+003, 1.209301e-002
2.373942e+003, 1.209161e-002
2.375871e+003, 1.188736e-002
2.377799e+003, 1.164464e-002
2.379728e+003, 1.188351e-002
2.381656e+003, 1.155965e-002
2.383585e+003, 1.116586e-002
2.385513e+003, 1.104082e-002
2.387442e+003, 1.120798e-002
2.389370e+003, 1.171989e-002
2.391299e+003, 1.187899e-002
2.393227e+003, 1.194313e-002
2.395156e+003, 1.238703e-002
2.397084e+003, 1.278892e-002
2.399012e+003, 1.209244e-002
2.400941e+003, 1.177506e-002
2.402869e+003, 1.192551e-002
2.404798e+003, 1.168161e-002
2.406726e+003, 1.154867e-002
2.408655e+003, 1.142238e-002
2.410583e+003, 1.222456e-002
2.412512e+003, 1.318807e-002
2.414440e+003, 1.320190e-002
2.416369e+003, 1.314582e-002
2.418297e+003, 1.272564e-002
2.420226e+003, 1.230390e-002
2.422154e+003, 1.256013e-002
2.424083e+003, 1.238855e-002
2.426011e+003, 1.240321e-002
2.427939e+003, 1.304931e-002
2.429868e+003, 1.243019e-002
2.431796e+003, 1.124052e-002
2.433725e+003, 1.192450e-002
2.435653e+003, 1.304447e-002
2.437582e+003, 1.283347e-002
2.439510e+003, 1.266636e-002
2.441439e+003, 1.319446e-002
2.443367e+003, 1.340412e-002
2.445296e+003, 1.308350e-002
2.447224e+003, 1.276894e-002
2.449153e+003, 1.289581e-002
2.451081e+003, 1.272193e-002
2.453010e+003, 1.264528e-002
2.454938e+003, 1.281777e-002
2.456866e+003, 1.356158e-002
2.458795e+003, 1.361029e-002
2.460723e+003, 1.265621e-002
2.462652e+003, 1.299592e-002
2.464580e+003, 1.289996e-002
2.466509e+003, 1.220691e-002
2.468437e+003, 1.251274e-002
2.470366e+003, 1.352838e-002
2.472294e+003, 1.367089e-002
2.474223e+003, 1.251210e-002
2.476151e+003, 1.193694e-002
2.478080e+003, 1.262661e-002
2.480008e+003, 1.261249e-002
2.481937e+003, 1.265481e-002
2.483865e+003, 1.305226e-002
2.485793e+003, 1.293936e-002
2.487722e+003, 1.304207e-002
2.489650e+003, 1.360156e-002
2.491579e+003, 1.321547e-002
2.493507e+003, 1.216777e-002
2.495436e+003, 1.208967e-002
2.497364e+003, 1.266263e-002
2.499293e+003, 1.254203e-002
2.501221e+003, 1.256782e-002
2.503150e+003, 1.340463e-002
2.505078e+003, 1.395798e-002
2.507007e+003, 1.375942e-002
2.508935e+003, 1.382808e-002
2.510864e+003, 1.377451e-002
2.512792e+003, 1.376634e-002
2.514720e+003, 1.386133e-002
2.516649e+003, 1.361505e-002
2.518577e+003, 1.340311e-002
2.520506e+003, 1.380943e-002
2.522434e+003, 1.271493e-002
2.524363e+003, 1.185725e-002
2.526291e+003, 1.250625e-002
2.528220e+003, 1.306826e-002
2.530148e+003, 1.377632e-002
2.532077e+003, 1.402502e-002
2.534005e+003, 1.396060e-002
2.535934e+003, 1.364013e-002
2.537862e+003, 1.322363e-002
2.539791e+003, 1.338692e-002
2.541719e+003, 1.361821e-002
2.543647e+003, 1.378831e-002
2.545576e+003, 1.370965e-002
2.547504e+003, 1.406297e-002
2.549433e+003, 1.358739e-002
2.551361e+003, 1.216960e-002
2.553290e+003, 1.279979e-002
2.555218e+003, 1.434601e-002
2.557147e+003, 1.422265e-002
2.559075e+003, 1.412093e-002
2.561004e+003, 1.372459e-002
2.562932e+003, 1.341160e-002
2.564861e+003, 1.396479e-002
2.566789e+003, 1.403199e-002
2.568718e+003, 1.404365e-002
2.570646e+003, 1.477050e-002
2.572574e+003, 1.523958e-002
2.574503e+003, 1.418616e-002
2.576431e+003, 1.361364e-002
2.578360e+003, 1.431087e-002
2.580288e+003, 1.463959e-002
2.582217e+003, 1.523076e-002
2.584145e+003, 1.565915e-002
2.586074e+003, 1.487892e-002
2.588002e+003, 1.431190e-002
2.589931e+003, 1.477253e-002
2.591859e+003, 1.502492e-002
2.593788e+003, 1.497897e-002
2.595716e+003, 1.540597e-002
2.597645e+003, 1.499257e-002
2.599573e+003, 1.506346e-002
2.601501e+003, 1.579490e-002
2.603430e+003, 1.547696e-002
2.605358e+003, 1.492260e-002
2.607287e+003, 1.448538e-002
2.609215e+003, 1.390099e-002
2.611144e+003, 1.468757e-002
2.613072e+003, 1.539580e-002
2.615001e+003, 1.535074e-002
2.616929e+003, 1.493060e-002
2.618858e+003, 1.493236e-002
2.620786e+003, 1.517116e-002
2.622715e+003, 1.486469e-002
2.624643e+003, 1.465324e-002
2.626572e+003, 1.476795e-002
2.628500e+003, 1.530490e-002
2.630428e+003, 1.561958e-002
2.632357e+003, 1.567110e-002
2.634285e+003, 1.542131e-002
2.636214e+003, 1.537549e-002
2.638142e+003, 1.562629e-002
2.640071e+003, 1.544073e-002
2.641999e+003, 1.474855e-002
2.643928e+003, 1.452026e-002
2.645856e+003, 1.507665e-002
2.647785e+003, 1.513930e-002
2.649713e+003, 1.520766e-002
2.651642e+003, 1.515374e-002
2.653570e+003, 1.468221e-002
2.655499e+003, 1.477475e-002
2.657427e+003, 1.533483e-002
2.659355e+003, 1.561058e-002
2.661284e+003, 1.542845e-002
2.663212e+003, 1.506311e-002
2.665141e+003, 1.520002e-002
2.667069e+003, 1.527752e-002
2.668998e+003, 1.500745e-002
2.670926e+003, 1.464648e-002
2.672855e+003, 1.513362e-002
2.674783e+003, 1.518436e-002
2.676712e+003, 1.501455e-002
2.678640e+003, 1.468356e-002
2.680569e+003, 1.475850e-002
2.682497e+003, 1.509304e-002
2.684426e+003, 1.494111e-002
2.686354e+003, 1.489779e-002
2.688282e+003, 1.567848e-002
2.690211e+003, 1.537714e-002
2.692139e+003, 1.464302e-002
2.694068e+003, 1.468852e-002
2.695996e+003, 1.487787e-002
2.697925e+003, 1.489831e-002
2.699853e+003, 1.480515e-002
2.701782e+003, 1.483108e-002
2.703710e+003, 1.514119e-002
2.705639e+003, 1.528829e-002
2.707567e+003, 1.507227e-002
2.709496e+003, 1.482343e-002
2.711424e+003, 1.467110e-002
2.713353e+003, 1.493920e-002
2.715281e+003, 1.518521e-002
2.717209e+003, 1.521845e-002
2.719138e+003, 1.537361e-002
2.721066e+003, 1.566374e-002
2.722995e+003, 1.546362e-002
2.724923e+003, 1.545953e-002
2.726852e+003, 1.577818e-002
2.728780e+003, 1.526340e-002
2.730709e+003, 1.577795e-002
2.732637e+003, 1.691059e-002
2.734566e+003, 1.683723e-002
2.736494e+003, 1.610184e-002
2.738423e+003, 1.549598e-002
2.740351e+003, 1.509668e-002
2.742280e+003, 1.531174e-002
2.744208e+003, 1.602425e-002
2.746136e+003, 1.628701e-002
2.748065e+003, 1.572202e-002
2.749993e+003, 1.535614e-002
2.751922e+003, 1.518049e-002
2.753850e+003, 1.549820e-002
2.755779e+003, 1.550296e-002
2.757707e+003, 1.587480e-002
2.759636e+003, 1.600909e-002
2.761564e+003, 1.637936e-002
2.763493e+003, 1.648695e-002
2.765421e+003, 1.606674e-002
2.767350e+003, 1.573351e-002
2.769278e+003, 1.574681e-002
2.771207e+003, 1.589995e-002
2.773135e+003, 1.604477e-002
2.775063e+003, 1.626364e-002
2.776992e+003, 1.622650e-002
2.778920e+003, 1.602810e-002
2.780849e+003, 1.602136e-002
2.782777e+003, 1.658799e-002
2.784706e+003, 1.697237e-002
2.786634e+003, 1.684968e-002
2.788563e+003, 1.687191e-002
2.790491e+003, 1.673301e-002
2.792420e+003, 1.648336e-002
2.794348e+003, 1.645454e-002
2.796277e+003, 1.671271e-002
2.798205e+003, 1.716218e-002
2.800134e+003, 1.691810e-002
2.802062e+003, 1.672283e-002
2.803990e+003, 1.692959e-002
2.805919e+003, 1.671501e-002
2.807847e+003, 1.674738e-002
2.809776e+003, 1.688635e-002
2.811704e+003, 1.711911e-002
2.813633e+003, 1.714018e-002
2.815561e+003, 1.734596e-002
2.817490e+003, 1.734700e-002
2.819418e+003, 1.639008e-002
2.821347e+003, 1.583000e-002
2.823275e+003, 1.599086e-002
2.825204e+003, 1.665210e-002
2.827132e+003, 1.674545e-002
2.829061e+003, 1.659600e-002
2.830989e+003, 1.666446e-002
2.832917e+003, 1.689914e-002
2.834846e+003, 1.701548e-002
2.836774e+003, 1.640772e-002
2.838703e+003, 1.632268e-002
2.840631e+003, 1.685077e-002
2.842560e+003, 1.745389e-002
2.844488e+003, 1.715989e-002
2.846417e+003, 1.675249e-002
2.848345e+003, 1.631952e-002
2.850274e+003, 1.622992e-002
2.852202e+003, 1.693976e-002
2.854131e+003, 1.666965e-002
2.856059e+003, 1.643706e-002
2.857988e+003, 1.668319e-002
2.859916e+003, 1.682935e-002
2.861844e+003, 1.690381e-002
2.863773e+003, 1.751713e-002
2.865701e+003, 1.699271e-002
2.867630e+003, 1.690064e-002
2.869558e+003, 1.732391e-002
2.871487e+003, 1.789845e-002
2.873415e+003, 1.813473e-002
2.875344e+003, 1.826765e-002
2.877272e+003, 1.869497e-002
2.879201e+003, 1.880556e-002
2.881129e+003, 1.870909e-002
2.883058e+003, 1.878185e-002
2.884986e+003, 1.856007e-002
2.886915e+003, 1.803675e-002
2.888843e+003, 1.732101e-002
2.890771e+003, 1.701799e-002
2.892700e+003, 1.721764e-002
2.894628e+003, 1.751121e-002
2.896557e+003, 1.705196e-002
2.898485e+003, 1.618168e-002
2.900414e+003, 1.699859e-002
2.902342e+003, 1.844734e-002
2.904271e+003, 1.844245e-002
2.906199e+003, 1.719132e-002
2.908128e+003, 1.650712e-002
2.910056e+003, 1.628277e-002
2.911985e+003, 1.683406e-002
2.913913e+003, 1.742131e-002
2.915842e+003, 1.751649e-002
2.917770e+003, 1.751328e-002
2.919698e+003, 1.793802e-002
2.921627e+003, 1.749974e-002
2.923555e+003, 1.736353e-002
2.925484e+003, 1.740114e-002
2.927412e+003, 1.666619e-002
2.929341e+003, 1.665699e-002
2.931269e+003, 1.717843e-002
2.933198e+003, 1.693196e-002
2.935126e+003, 1.751705e-002
2.937055e+003, 1.858612e-002
2.938983e+003, 1.912075e-002
2.940912e+003, 1.862976e-002
2.942840e+003, 1.779523e-002
2.944769e+003, 1.779184e-002
2.946697e+003, 1.796871e-002
2.948625e+003, 1.839311e-002
2.950554e+003, 1.865198e-002
2.952482e+003, 1.903838e-002
2.954411e+003, 1.936524e-002
2.956339e+003, 1.933742e-002
2.958268e+003, 1.877431e-002
2.960196e+003, 1.907988e-002
2.962125e+003, 1.969688e-002
2.964053e+003, 1.911292e-002
2.965982e+003, 1.816931e-002
2.967910e+003, 1.822707e-002
2.969839e+003, 1.892251e-002
2.971767e+003, 1.987611e-002
2.973696e+003, 2.042886e-002
2.975624e+003, 2.012406e-002
2.977552e+003, 2.028951e-002
2.979481e+003, 2.070882e-002
2.981409e+003, 2.110801e-002
2.983338e+003, 2.030512e-002
2.985266e+003, 1.948513e-002
2.987195e+003, 1.987268e-002
2.989123e+003, 1.990421e-002
2.991052e+003, 2.019534e-002
2.992980e+003, 2.028234e-002
2.994909e+003, 2.009737e-002
2.996837e+003, 2.022391e-002
2.998766e+003, 2.084463e-002
3.000694e+003, 2.008175e-002
3.002623e+003, 2.004658e-002
3.004551e+003, 2.132063e-002
3.006479e+003, 2.156438e-002
3.008408e+003, 2.104027e-002
3.010336e+003, 2.043538e-002
3.012265e+003, 2.073312e-002
3.014193e+003, 2.072834e-002
3.016122e+003, 2.106391e-002
3.018050e+003, 2.146169e-002
3.019979e+003, 2.165803e-002
3.021907e+003, 2.149906e-002
3.023836e+003, 2.123572e-002
3.025764e+003, 2.168624e-002
3.027693e+003, 2.144156e-002
3.029621e+003, 2.115425e-002
3.031550e+003, 2.186088e-002
3.033478e+003, 2.364592e-002
3.035406e+003, 2.432438e-002
3.037335e+003, 2.320059e-002
3.039263e+003, 2.279720e-002
3.041192e+003, 2.204648e-002
3.043120e+003, 2.173010e-002
3.045049e+003, 2.235894e-002
3.046977e+003, 2.215577e-002
3.048906e+003, 2.237316e-002
3.050834e+003, 2.307734e-002
3.052763e+003, 2.269119e-002
3.054691e+003, 2.230705e-002
3.056620e+003, 2.244464e-002
3.058548e+003, 2.258480e-002
3.060477e+003, 2.219635e-002
3.062405e+003, 2.262501e-002
3.064333e+003, 2.283128e-002
3.066262e+003, 2.273363e-002
3.068190e+003, 2.322113e-002
3.070119e+003, 2.289957e-002
3.072047e+003, 2.209926e-002
3.073976e+003, 2.258650e-002
3.075904e+003, 2.342491e-002
3.077833e+003, 2.396889e-002
3.079761e+003, 2.366651e-002
3.081690e+003, 2.339903e-002
3.083618e+003, 2.334506e-002
3.085547e+003, 2.348976e-002
3.087475e+003, 2.436547e-002
3.089404e+003, 2.489464e-002
3.091332e+003, 2.492017e-002
3.093260e+003, 2.399676e-002
3.095189e+003, 2.342115e-002
3.097117e+003, 2.349640e-002
3.099046e+003, 2.411685e-002
3.100974e+003, 2.515887e-002
3.102903e+003, 2.476746e-002
3.104831e+003, 2.374313e-002
3.106760e+003, 2.349584e-002
3.108688e+003, 2.425680e-002
3.110617e+003, 2.422440e-002
3.112545e+003, 2.381828e-002
3.114474e+003, 2.351517e-002
3.116402e+003, 2.457995e-002
3.118331e+003, 2.476224e-002
3.120259e+003, 2.406159e-002
3.122188e+003, 2.399849e-002
3.124116e+003, 2.390804e-002
3.126044e+003, 2.488661e-002
3.127973e+003, 2.616617e-002
3.129901e+003, 2.681400e-002
3.131830e+003, 2.682156e-002
3.133758e+003, 2.649691e-002
3.135687e+003, 2.632125e-002
3.137615e+003, 2.515077e-002
3.139544e+003, 2.412944e-002
3.141472e+003, 2.478583e-002
3.143401e+003, 2.578562e-002
3.145329e+003, 2.585176e-002
3.147258e+003, 2.512218e-002
3.149186e+003, 2.477404e-002
3.151115e+003, 2.487021e-002
3.153043e+003, 2.517546e-002
3.154971e+003, 2.481783e-002
3.156900e+003, 2.541223e-002
3.158828e+003, 2.617523e-002
3.160757e+003, 2.645296e-002
3.162685e+003, 2.643340e-002
3.164614e+003, 2.720889e-002
3.166542e+003, 2.728162e-002
3.168471e+003, 2.660752e-002
3.170399e+003, 2.654792e-002
3.172328e+003, 2.682935e-002
3.174256e+003, 2.732581e-002
3.176185e+003, 2.798026e-002
3.178113e+003, 2.773798e-002
3.180042e+003, 2.752787e-002
3.181970e+003, 2.759156e-002
3.183898e+003, 2.774759e-002
3.185827e+003, 2.760672e-002
3.187755e+003, 2.801986e-002
3.189684e+003, 2.731711e-002
3.191612e+003, 2.700614e-002
3.193541e+003, 2.745179e-002
3.195469e+003, 2.734644e-002
3.197398e+003, 2.729504e-002
3.199326e+003, 2.720556e-002
3.201255e+003, 2.671051e-002
3.203183e+003, 2.731901e-002
3.205112e+003, 2.764528e-002
3.207040e+003, 2.741384e-002
3.208969e+003, 2.795631e-002
3.210897e+003, 2.952489e-002
3.212825e+003, 2.904175e-002
3.214754e+003, 2.814187e-002
3.216682e+003, 2.849329e-002
3.218611e+003, 2.871958e-002
3.220539e+003, 2.841585e-002
3.222468e+003, 2.720717e-002
3.224396e+003, 2.665415e-002
3.226325e+003, 2.789226e-002
3.228253e+003, 2.866687e-002
3.230182e+003, 2.883747e-002
3.232110e+003, 2.890145e-002
3.234039e+003, 2.865584e-002
3.235967e+003, 2.771586e-002
3.237896e+003, 2.667667e-002
3.239824e+003, 2.724245e-002
3.241752e+003, 2.824011e-002
3.243681e+003, 2.973621e-002
3.245609e+003, 2.966398e-002
3.247538e+003, 2.854918e-002
3.249466e+003, 2.830277e-002
3.251395e+003, 2.859985e-002
3.253323e+003, 2.856014e-002
3.255252e+003, 2.904632e-002
3.257180e+003, 2.906184e-002
3.259109e+003, 2.842150e-002
3.261037e+003, 2.844453e-002
3.262966e+003, 2.808761e-002
3.264894e+003, 2.845447e-002
3.266823e+003, 2.980412e-002
3.268751e+003, 2.892820e-002
3.270679e+003, 2.808809e-002
3.272608e+003, 2.843746e-002
3.274536e+003, 2.863491e-002
3.276465e+003, 2.861725e-002
3.278393e+003, 2.868266e-002
3.280322e+003, 2.865434e-002
3.282250e+003, 2.836186e-002
3.284179e+003, 2.812535e-002
3.286107e+003, 2.792158e-002
3.288036e+003, 2.841834e-002
3.289964e+003, 3.042014e-002
3.291893e+003, 3.054055e-002
3.293821e+003, 2.914618e-002
3.295750e+003, 2.909175e-002
3.297678e+003, 2.913730e-002
3.299606e+003, 2.909883e-002
3.301535e+003, 2.895579e-002
3.303463e+003, 2.909692e-002
3.305392e+003, 2.976398e-002
3.307320e+003, 3.001625e-002
3.309249e+003, 3.035039e-002
3.311177e+003, 3.032914e-002
3.313106e+003, 3.055715e-002
3.315034e+003, 3.037349e-002
3.316963e+003, 3.177035e-002
3.318891e+003, 3.286247e-002
3.320820e+003, 3.253371e-002
3.322748e+003, 3.202276e-002
3.324677e+003, 3.047601e-002
3.326605e+003, 3.066314e-002
3.328533e+003, 3.199702e-002
3.330462e+003, 3.134742e-002
3.332390e+003, 3.006816e-002
3.334319e+003, 2.994961e-002
3.336247e+003, 3.082558e-002
3.338176e+003, 3.147800e-002
3.340104e+003, 3.059971e-002
3.342033e+003, 2.979637e-002
3.343961e+003, 3.033612e-002
3.345890e+003, 3.115200e-002
3.347818e+003, 2.939316e-002
3.349747e+003, 2.814652e-002
3.351675e+003, 2.844984e-002
3.353604e+003, 2.870242e-002
3.355532e+003, 2.814108e-002
3.357460e+003, 2.820340e-002
3.359389e+003, 2.904582e-002
3.361317e+003, 2.974631e-002
3.363246e+003, 3.025195e-002
3.365174e+003, 3.102233e-002
3.367103e+003, 3.147297e-002
3.369031e+003, 3.084578e-002
3.370960e+003, 2.942124e-002
3.372888e+003, 2.916862e-002
3.374817e+003, 2.982576e-002
3.376745e+003, 3.043239e-002
3.378674e+003, 3.033827e-002
3.380602e+003, 3.140278e-002
3.382531e+003, 3.207682e-002
3.384459e+003, 3.194584e-002
3.386387e+003, 3.195634e-002
3.388316e+003, 3.179266e-002
3.390244e+003, 3.101778e-002
3.392173e+003, 3.119848e-002
3.394101e+003, 3.259873e-002
3.396030e+003, 3.254625e-002
3.397958e+003, 3.080655e-002
3.399887e+003, 3.011012e-002
3.401815e+003, 3.188049e-002
3.403744e+003, 3.294202e-002
3.405672e+003, 3.125579e-002
3.407601e+003, 3.079320e-002
3.409529e+003, 3.108767e-002
3.411458e+003, 3.094024e-002
3.413386e+003, 3.072732e-002
3.415314e+003, 3.019875e-002
3.417243e+003, 3.140777e-002
3.419171e+003, 3.198234e-002
3.421100e+003, 3.067137e-002
3.423028e+003, 2.974164e-002
3.424957e+003, 3.063718e-002
3.426885e+003, 3.147850e-002
3.428814e+003, 3.128094e-002
3.430742e+003, 3.097779e-002
3.432671e+003, 2.990355e-002
3.434599e+003, 3.016733e-002
3.436528e+003, 3.059691e-002
3.438456e+003, 2.982355e-002
3.440385e+003, 3.071430e-002
3.442313e+003, 3.069327e-002
3.444241e+003, 3.025091e-002
3.446170e+003, 3.072666e-002
3.448098e+003, 3.083435e-002
3.450027e+003, 3.059584e-002
3.451955e+003, 3.037669e-002
3.453884e+003, 2.955128e-002
3.455812e+003, 2.981994e-002
3.457741e+003, 3.018085e-002
3.459669e+003, 3.014041e-002
3.461598e+003, 2.998969e-002
3.463526e+003, 2.944444e-002
3.465455e+003, 2.749860e-002
3.467383e+003, 2.703592e-002
3.469312e+003, 2.981144e-002
3.471240e+003, 3.128131e-002
3.473168e+003, 3.053555e-002
3.475097e+003, 2.926472e-002
3.477025e+003, 2.932489e-002
3.478954e+003, 2.957067e-002
3.480882e+003, 2.963273e-002
3.482811e+003, 2.894277e-002
3.484739e+003, 2.846018e-002
3.486668e+003, 2.824121e-002
3.488596e+003, 2.793295e-002
3.490525e+003, 2.844825e-002
3.492453e+003, 2.855611e-002
3.494382e+003, 2.805610e-002
3.496310e+003, 2.852216e-002
3.498239e+003, 2.918111e-002
3.500167e+003, 3.003126e-002
3.502095e+003, 3.017090e-002
3.504024e+003, 2.954913e-002
3.505952e+003, 3.095839e-002
3.507881e+003, 3.125220e-002
3.509809e+003, 2.942236e-002
3.511738e+003, 2.921823e-002
3.513666e+003, 3.048198e-002
3.515595e+003, 3.034615e-002
3.517523e+003, 2.921650e-002
3.519452e+003, 2.915142e-002
3.521380e+003, 2.863078e-002
3.523309e+003, 2.869481e-002
3.525237e+003, 2.945063e-002
3.527166e+003, 2.857331e-002
3.529094e+003, 2.869505e-002
3.531022e+003, 2.966362e-002
3.532951e+003, 2.979520e-002
3.534879e+003, 2.991337e-002
3.536808e+003, 2.887587e-002
3.538736e+003, 2.903253e-002
3.540665e+003, 2.926435e-002
3.542593e+003, 2.902646e-002
3.544522e+003, 2.957211e-002
3.546450e+003, 2.977592e-002
3.548379e+003, 3.012349e-002
3.550307e+003, 3.067327e-002
3.552236e+003, 2.886485e-002
3.554164e+003, 2.747461e-002
3.556093e+003, 2.828606e-002
3.558021e+003, 2.900140e-002
3.559949e+003, 2.889298e-002
3.561878e+003, 2.786753e-002
3.563806e+003, 2.757096e-002
3.565735e+003, 2.834017e-002
3.567663e+003, 2.788473e-002
3.569592e+003, 2.637831e-002
3.571520e+003, 2.711429e-002
3.573449e+003, 2.684665e-002
3.575377e+003, 2.513093e-002
3.577306e+003, 2.619217e-002
3.579234e+003, 2.735511e-002
3.581163e+003, 2.755476e-002
3.583091e+003, 2.851543e-002
3.585020e+003, 2.870947e-002
3.586948e+003, 2.774726e-002
3.588876e+003, 2.807890e-002
3.590805e+003, 2.830482e-002
3.592733e+003, 2.773823e-002
3.594662e+003, 2.678188e-002
3.596590e+003, 2.593891e-002
3.598519e+003, 2.631858e-002
3.600447e+003, 2.585742e-002
3.602376e+003, 2.619084e-002
3.604304e+003, 2.728501e-002
3.606233e+003, 2.660708e-002
3.608161e+003, 2.446178e-002
3.610090e+003, 2.285869e-002
3.612018e+003, 2.447570e-002
3.613947e+003, 2.531724e-002
3.615875e+003, 2.452965e-002
3.617803e+003, 2.450793e-002
3.619732e+003, 2.518003e-002
3.621660e+003, 2.505494e-002
3.623589e+003, 2.396293e-002
3.625517e+003, 2.368114e-002
3.627446e+003, 2.502350e-002
3.629374e+003, 2.362583e-002
3.631303e+003, 2.350252e-002
3.633231e+003, 2.486362e-002
3.635160e+003, 2.473843e-002
3.637088e+003, 2.495445e-002
3.639017e+003, 2.594287e-002
3.640945e+003, 2.540764e-002
3.642874e+003, 2.485083e-002
3.644802e+003, 2.515214e-002
3.646730e+003, 2.510878e-002
3.648659e+003, 2.376665e-002
3.650587e+003, 2.487885e-002
3.652516e+003, 2.492094e-002
3.654444e+003, 2.477138e-002
3.656373e+003, 2.504668e-002
3.658301e+003, 2.750058e-002
3.660230e+003, 2.777415e-002
3.662158e+003, 2.642115e-002
3.664087e+003, 2.589394e-002
3.666015e+003, 2.499257e-002
3.667944e+003, 2.477043e-002
3.669872e+003, 2.583374e-002
3.671801e+003, 2.640811e-002
3.673729e+003, 2.504965e-002
3.675657e+003, 2.315202e-002
3.677586e+003, 2.535224e-002
3.679514e+003, 2.419149e-002
3.681443e+003, 2.395536e-002
3.683371e+003, 2.606212e-002
3.685300e+003, 2.671768e-002
3.687228e+003, 2.462109e-002
3.689157e+003, 2.297691e-002
3.691085e+003, 2.358450e-002
3.693014e+003, 2.111205e-002
3.694942e+003, 2.224607e-002
3.696871e+003, 2.297579e-002
3.698799e+003, 2.101893e-002
3.700728e+003, 1.816730e-002
3.702656e+003, 1.850974e-002
3.704584e+003, 2.187715e-002
3.706513e+003, 2.310938e-002
3.708441e+003, 2.325311e-002
3.710370e+003, 2.200601e-002
3.712298e+003, 2.062120e-002
3.714227e+003, 2.084952e-002
3.716155e+003, 2.100440e-002
3.718084e+003, 2.190738e-002
3.720012e+003, 2.160656e-002
3.721941e+003, 2.189205e-002
3.723869e+003, 2.229035e-002
3.725798e+003, 2.202841e-002
3.727726e+003, 2.153227e-002
3.729655e+003, 2.125826e-002
3.731583e+003, 2.096869e-002
3.733511e+003, 2.250202e-002
3.735440e+003, 2.188485e-002
3.737368e+003, 2.153677e-002
3.739297e+003, 2.219040e-002
3.741225e+003, 2.210836e-002
3.743154e+003, 2.185640e-002
3.745082e+003, 1.903495e-002
3.747011e+003, 2.138657e-002
3.748939e+003, 2.048796e-002
3.750868e+003, 2.209751e-002
3.752796e+003, 2.250588e-002
3.754725e+003, 2.247398e-002
3.756653e+003, 2.184619e-002
3.758582e+003, 2.224714e-002
3.760510e+003, 2.180289e-002
3.762438e+003, 2.525545e-002
3.764367e+003, 2.628910e-002
3.766295e+003, 2.372009e-002
3.768224e+003, 2.295081e-002
3.770152e+003, 2.287797e-002
3.772081e+003, 2.422893e-002
3.774009e+003, 2.458740e-002
3.775938e+003, 2.593507e-002
3.777866e+003, 2.430817e-002
3.779795e+003, 2.135089e-002
3.781723e+003, 2.099510e-002
3.783652e+003, 2.278687e-002
3.785580e+003, 2.393635e-002
3.787509e+003, 2.263117e-002
3.789437e+003, 2.378860e-002
3.791365e+003, 2.447855e-002
3.793294e+003, 2.210743e-002
3.795222e+003, 2.096820e-002
3.797151e+003, 2.077536e-002
3.799079e+003, 2.208442e-002
3.801008e+003, 2.166009e-002
3.802936e+003, 2.287417e-002
3.804865e+003, 2.438336e-002
3.806793e+003, 2.267643e-002
3.808722e+003, 2.245185e-002
3.810650e+003, 2.277412e-002
3.812579e+003, 2.072005e-002
3.814507e+003, 2.108052e-002
3.816436e+003, 2.208719e-002
3.818364e+003, 2.407645e-002
3.820292e+003, 2.350430e-002
3.822221e+003, 2.208948e-002
3.824149e+003, 2.497531e-002
3.826078e+003, 2.507272e-002
3.828006e+003, 2.284779e-002
3.829935e+003, 2.313220e-002
3.831863e+003, 2.262770e-002
3.833792e+003, 2.282305e-002
3.835720e+003, 2.249183e-002
3.837649e+003, 2.202712e-002
3.839577e+003, 2.170269e-002
3.841506e+003, 2.253589e-002
3.843434e+003, 2.227854e-002
3.845363e+003, 2.125615e-002
3.847291e+003, 2.110374e-002
3.849219e+003, 2.221896e-002
3.851148e+003, 2.346374e-002
3.853076e+003, 2.407239e-002
3.855005e+003, 2.421095e-002
3.856933e+003, 2.437513e-002
3.858862e+003, 2.298633e-002
3.860790e+003, 2.612181e-002
3.862719e+003, 2.581769e-002
3.864647e+003, 2.348408e-002
3.866576e+003, 2.412249e-002
3.868504e+003, 2.540471e-002
3.870433e+003, 2.226314e-002
3.872361e+003, 2.194084e-002
3.874290e+003, 2.174809e-002
3.876218e+003, 2.278884e-002
3.878146e+003, 2.313012e-002
3.880075e+003, 2.180349e-002
3.882003e+003, 2.126772e-002
3.883932e+003, 2.312655e-002
3.885860e+003, 2.447245e-002
3.887789e+003, 2.571330e-002
3.889717e+003, 2.447549e-002
3.891646e+003, 2.300864e-002
3.893574e+003, 2.559404e-002
3.895503e+003, 2.482559e-002
3.897431e+003, 2.432508e-002
3.899360e+003, 2.429889e-002
3.901288e+003, 2.375508e-002
3.903217e+003, 2.238839e-002
3.905145e+003, 2.156659e-002
3.907073e+003, 2.425472e-002
3.909002e+003, 2.338449e-002
3.910930e+003, 2.129335e-002
3.912859e+003, 2.138459e-002
3.914787e+003, 2.136744e-002
3.916716e+003, 2.240501e-002
3.918644e+003, 2.462782e-002
3.920573e+003, 2.391874e-002
3.922501e+003, 2.390697e-002
3.924430e+003, 2.458615e-002
3.926358e+003, 2.366828e-002
3.928287e+003, 2.370353e-002
3.930215e+003, 2.307754e-002
3.932144e+003, 2.341260e-002
3.934072e+003, 2.392912e-002
3.936000e+003, 2.421015e-002
3.937929e+003, 2.479983e-002
3.939857e+003, 2.357627e-002
3.941786e+003, 2.228484e-002
3.943714e+003, 2.272252e-002
3.945643e+003, 2.521946e-002
3.947571e+003, 2.650949e-002
3.949500e+003, 2.430344e-002
3.951428e+003, 2.320718e-002
3.953357e+003, 2.529183e-002
3.955285e+003, 2.486305e-002
3.957214e+003, 2.368169e-002
3.959142e+003, 2.261603e-002
3.961071e+003, 2.447107e-002
3.962999e+003, 2.451650e-002
3.964927e+003, 2.372940e-002
3.966856e+003, 2.456761e-002
3.968784e+003, 2.382554e-002
3.970713e+003, 2.357096e-002
3.972641e+003, 2.494671e-002
3.974570e+003, 2.580089e-002
3.976498e+003, 2.561035e-002
3.978427e+003, 2.721394e-002
3.980355e+003, 2.703363e-002
3.982284e+003, 2.601224e-002
3.984212e+003, 2.623324e-002
3.986141e+003, 2.534312e-002
3.988069e+003, 2.496117e-002
3.989998e+003, 2.630687e-002
3.991926e+003, 2.533996e-002
3.993854e+003, 2.471245e-002
3.995783e+003, 2.310494e-002
3.997711e+003, 2.360980e-002
3.999640e+003, 2.362525e-002
##END=



