##NAMES=Magnesite
##RRUFFID=R050443
##IDEAL CHEMISTRY=MgCO_3_
##LOCALITY=Brumado, Bahia, Brazil
##OWNER=RRUFF
##SOURCE=Eugene Schlepp
##DESCRIPTION=Group of colorless crystals
##STATUS=The identification of this mineral has been confirmed by X-ray diffraction and chemical analysis
##URL=rruff.info/R050443
##MEASURED CHEMISTRY=Mg_1.00_CO_3_
3.991926e+002, 0.000000e+000
4.011211e+002, 1.602930e-001
4.030496e+002, 1.611050e-001
4.049780e+002, 1.584379e-001
4.069065e+002, 1.506468e-001
4.088350e+002, 1.438395e-001
4.107634e+002, 1.381218e-001
4.126919e+002, 1.348164e-001
4.146204e+002, 1.311170e-001
4.165488e+002, 1.274829e-001
4.184773e+002, 1.224635e-001
4.204058e+002, 1.160613e-001
4.223342e+002, 1.095039e-001
4.242627e+002, 1.040724e-001
4.261912e+002, 1.005791e-001
4.281196e+002, 9.944286e-002
4.300481e+002, 9.586772e-002
4.319766e+002, 8.910048e-002
4.339050e+002, 8.507364e-002
4.358335e+002, 8.209011e-002
4.377620e+002, 7.733044e-002
4.396904e+002, 7.463108e-002
4.416189e+002, 7.398506e-002
4.435474e+002, 6.996931e-002
4.454758e+002, 6.574683e-002
4.474043e+002, 6.324472e-002
4.493328e+002, 6.048344e-002
4.512612e+002, 5.747806e-002
4.531897e+002, 5.412949e-002
4.551182e+002, 5.142943e-002
4.570466e+002, 4.836105e-002
4.589751e+002, 4.523109e-002
4.609036e+002, 4.164481e-002
4.628320e+002, 3.850645e-002
4.647605e+002, 3.632148e-002
4.666890e+002, 3.405796e-002
4.686174e+002, 3.154033e-002
4.705459e+002, 2.915715e-002
4.724744e+002, 2.714863e-002
4.744028e+002, 2.516730e-002
4.763313e+002, 2.353112e-002
4.782598e+002, 2.202234e-002
4.801882e+002, 1.997991e-002
4.821167e+002, 1.851842e-002
4.840452e+002, 1.751394e-002
4.859736e+002, 1.650930e-002
4.879021e+002, 1.620261e-002
4.898306e+002, 1.557661e-002
4.917590e+002, 1.496642e-002
4.936875e+002, 1.486380e-002
4.956160e+002, 1.453170e-002
4.975444e+002, 1.427238e-002
4.994729e+002, 1.418557e-002
5.014014e+002, 1.345709e-002
5.033298e+002, 1.285750e-002
5.052583e+002, 1.284097e-002
5.071868e+002, 1.317434e-002
5.091152e+002, 1.290904e-002
5.110437e+002, 1.234758e-002
5.129722e+002, 1.193759e-002
5.149006e+002, 1.236502e-002
5.168291e+002, 1.255589e-002
5.187576e+002, 1.203137e-002
5.206860e+002, 1.161684e-002
5.226145e+002, 1.161424e-002
5.245430e+002, 1.199229e-002
5.264714e+002, 1.198946e-002
5.283999e+002, 1.176298e-002
5.303284e+002, 1.184012e-002
5.322568e+002, 1.154211e-002
5.341853e+002, 1.122020e-002
5.361138e+002, 1.064739e-002
5.380422e+002, 1.042133e-002
5.399707e+002, 1.078092e-002
5.418992e+002, 1.094766e-002
5.438276e+002, 1.044107e-002
5.457561e+002, 1.005725e-002
5.476846e+002, 1.027250e-002
5.496130e+002, 1.073217e-002
5.515415e+002, 1.069693e-002
5.534700e+002, 1.056211e-002
5.553984e+002, 1.038734e-002
5.573269e+002, 1.050683e-002
5.592554e+002, 1.093185e-002
5.611838e+002, 1.132252e-002
5.631123e+002, 1.132720e-002
5.650408e+002, 1.097518e-002
5.669692e+002, 1.058637e-002
5.688977e+002, 1.068633e-002
5.708262e+002, 1.085036e-002
5.727546e+002, 1.140920e-002
5.746831e+002, 1.155528e-002
5.766116e+002, 1.124681e-002
5.785400e+002, 1.109690e-002
5.804685e+002, 1.140054e-002
5.823970e+002, 1.158409e-002
5.843254e+002, 1.131022e-002
5.862539e+002, 1.120972e-002
5.881824e+002, 1.139059e-002
5.901108e+002, 1.124081e-002
5.920393e+002, 1.152950e-002
5.939678e+002, 1.182945e-002
5.958962e+002, 1.155883e-002
5.978247e+002, 1.143261e-002
5.997532e+002, 1.150100e-002
6.016816e+002, 1.113197e-002
6.036101e+002, 1.055798e-002
6.055386e+002, 1.061489e-002
6.074670e+002, 1.064046e-002
6.093955e+002, 1.077557e-002
6.113240e+002, 1.100844e-002
6.132524e+002, 1.071667e-002
6.151809e+002, 1.061839e-002
6.171094e+002, 1.069312e-002
6.190378e+002, 1.063412e-002
6.209663e+002, 1.050078e-002
6.228948e+002, 1.024150e-002
6.248232e+002, 9.970318e-003
6.267517e+002, 9.849035e-003
6.286802e+002, 9.713662e-003
6.306086e+002, 9.714160e-003
6.325371e+002, 9.659183e-003
6.344656e+002, 9.705316e-003
6.363940e+002, 9.801296e-003
6.383225e+002, 9.739417e-003
6.402510e+002, 9.354384e-003
6.421794e+002, 9.210821e-003
6.441079e+002, 9.303336e-003
6.460364e+002, 9.631888e-003
6.479648e+002, 9.778119e-003
6.498933e+002, 9.869847e-003
6.518218e+002, 9.842851e-003
6.537502e+002, 1.005546e-002
6.556787e+002, 1.023181e-002
6.576072e+002, 1.012829e-002
6.595356e+002, 1.002314e-002
6.614641e+002, 1.002377e-002
6.633926e+002, 1.006756e-002
6.653210e+002, 9.959335e-003
6.672495e+002, 1.009145e-002
6.691780e+002, 1.037749e-002
6.711064e+002, 1.018981e-002
6.730349e+002, 1.009486e-002
6.749634e+002, 1.019494e-002
6.768918e+002, 1.067862e-002
6.788203e+002, 1.097521e-002
6.807488e+002, 1.099509e-002
6.826772e+002, 1.106494e-002
6.846057e+002, 1.116495e-002
6.865342e+002, 1.139302e-002
6.884626e+002, 1.162170e-002
6.903911e+002, 1.174126e-002
6.923196e+002, 1.204291e-002
6.942480e+002, 1.227876e-002
6.961765e+002, 1.232000e-002
6.981050e+002, 1.233142e-002
7.000334e+002, 1.257487e-002
7.019619e+002, 1.279756e-002
7.038904e+002, 1.315918e-002
7.058188e+002, 1.371580e-002
7.077473e+002, 1.389131e-002
7.096758e+002, 1.390252e-002
7.116042e+002, 1.424529e-002
7.135327e+002, 1.461860e-002
7.154612e+002, 1.499753e-002
7.173896e+002, 1.544365e-002
7.193181e+002, 1.626231e-002
7.212466e+002, 1.704321e-002
7.231750e+002, 1.769623e-002
7.251035e+002, 1.843870e-002
7.270320e+002, 1.979142e-002
7.289604e+002, 2.180146e-002
7.308889e+002, 2.401510e-002
7.328174e+002, 2.662317e-002
7.347458e+002, 3.076688e-002
7.366743e+002, 3.657525e-002
7.386028e+002, 4.545197e-002
7.405313e+002, 5.907561e-002
7.424597e+002, 7.974765e-002
7.443882e+002, 1.085439e-001
7.463167e+002, 1.366848e-001
7.482451e+002, 1.421400e-001
7.501736e+002, 1.160662e-001
7.521021e+002, 7.871107e-002
7.540305e+002, 5.007450e-002
7.559590e+002, 3.289128e-002
7.578875e+002, 2.345740e-002
7.598159e+002, 1.805912e-002
7.617444e+002, 1.469611e-002
7.636729e+002, 1.276157e-002
7.656013e+002, 1.171221e-002
7.675298e+002, 1.103786e-002
7.694583e+002, 1.056661e-002
7.713867e+002, 1.004232e-002
7.733152e+002, 9.873128e-003
7.752437e+002, 9.984152e-003
7.771721e+002, 9.967491e-003
7.791006e+002, 9.869292e-003
7.810291e+002, 1.013237e-002
7.829575e+002, 1.028175e-002
7.848860e+002, 1.053646e-002
7.868145e+002, 1.049999e-002
7.887429e+002, 1.042342e-002
7.906714e+002, 1.038108e-002
7.925999e+002, 1.056666e-002
7.945283e+002, 1.078979e-002
7.964568e+002, 1.088260e-002
7.983853e+002, 1.099598e-002
8.003137e+002, 1.128078e-002
8.022422e+002, 1.147246e-002
8.041707e+002, 1.164546e-002
8.060991e+002, 1.201619e-002
8.080276e+002, 1.259414e-002
8.099561e+002, 1.292786e-002
8.118845e+002, 1.314943e-002
8.138130e+002, 1.337076e-002
8.157415e+002, 1.376243e-002
8.176699e+002, 1.425179e-002
8.195984e+002, 1.497257e-002
8.215269e+002, 1.549696e-002
8.234553e+002, 1.584066e-002
8.253838e+002, 1.629101e-002
8.273123e+002, 1.705983e-002
8.292407e+002, 1.768128e-002
8.311692e+002, 1.841503e-002
8.330977e+002, 1.919543e-002
8.350261e+002, 2.063945e-002
8.369546e+002, 2.226569e-002
8.388831e+002, 2.407957e-002
8.408115e+002, 2.563613e-002
8.427400e+002, 2.755033e-002
8.446685e+002, 2.984407e-002
8.465969e+002, 3.321460e-002
8.485254e+002, 3.717007e-002
8.504539e+002, 4.307804e-002
8.523823e+002, 5.284582e-002
8.543108e+002, 6.823248e-002
8.562393e+002, 6.867362e-002
8.581677e+002, 5.907238e-002
8.600962e+002, 6.518259e-002
8.620247e+002, 7.824828e-002
8.639531e+002, 9.306861e-002
8.658816e+002, 1.095135e-001
8.678101e+002, 1.290771e-001
8.697385e+002, 1.521401e-001
8.716670e+002, 1.795552e-001
8.735955e+002, 2.098442e-001
8.755239e+002, 2.386988e-001
8.774524e+002, 2.571425e-001
8.793809e+002, 2.640964e-001
8.813093e+002, 2.624717e-001
8.832378e+002, 2.551258e-001
8.851663e+002, 2.426356e-001
8.870947e+002, 2.257414e-001
8.890232e+002, 2.034179e-001
8.909517e+002, 1.770741e-001
8.928801e+002, 1.495348e-001
8.948085e+002, 1.230346e-001
8.967370e+002, 9.803165e-002
8.986655e+002, 7.532851e-002
9.005939e+002, 5.533184e-002
9.025224e+002, 3.950950e-002
9.044509e+002, 2.868105e-002
9.063793e+002, 2.230257e-002
9.083078e+002, 1.891765e-002
9.102363e+002, 1.721566e-002
9.121647e+002, 1.654770e-002
9.140932e+002, 1.640869e-002
9.160217e+002, 1.632181e-002
9.179501e+002, 1.606844e-002
9.198786e+002, 1.577392e-002
9.218071e+002, 1.566438e-002
9.237355e+002, 1.561439e-002
9.256640e+002, 1.585970e-002
9.275925e+002, 1.598531e-002
9.295209e+002, 1.602796e-002
9.314494e+002, 1.607994e-002
9.333779e+002, 1.616728e-002
9.353063e+002, 1.613678e-002
9.372348e+002, 1.621427e-002
9.391633e+002, 1.638136e-002
9.410917e+002, 1.647664e-002
9.430202e+002, 1.650672e-002
9.449487e+002, 1.661185e-002
9.468771e+002, 1.674107e-002
9.488056e+002, 1.690306e-002
9.507341e+002, 1.701791e-002
9.526625e+002, 1.719851e-002
9.545910e+002, 1.732136e-002
9.565195e+002, 1.756191e-002
9.584479e+002, 1.781635e-002
9.603764e+002, 1.784126e-002
9.623049e+002, 1.788379e-002
9.642333e+002, 1.808969e-002
9.661618e+002, 1.823751e-002
9.680903e+002, 1.831749e-002
9.700187e+002, 1.846635e-002
9.719472e+002, 1.870090e-002
9.738757e+002, 1.889902e-002
9.758041e+002, 1.896793e-002
9.777326e+002, 1.899073e-002
9.796611e+002, 1.931750e-002
9.815895e+002, 1.963991e-002
9.835180e+002, 1.986095e-002
9.854465e+002, 1.995876e-002
9.873749e+002, 2.015896e-002
9.893034e+002, 2.017227e-002
9.912319e+002, 2.021754e-002
9.931603e+002, 2.064768e-002
9.950888e+002, 2.085086e-002
9.970173e+002, 2.093921e-002
9.989457e+002, 2.107432e-002
1.000874e+003, 2.139465e-002
1.002803e+003, 2.165843e-002
1.004731e+003, 2.173398e-002
1.006660e+003, 2.184662e-002
1.008588e+003, 2.227171e-002
1.010517e+003, 2.271570e-002
1.012445e+003, 2.295711e-002
1.014373e+003, 2.312780e-002
1.016302e+003, 2.348337e-002
1.018230e+003, 2.374448e-002
1.020159e+003, 2.376591e-002
1.022087e+003, 2.411534e-002
1.024016e+003, 2.457239e-002
1.025944e+003, 2.486312e-002
1.027873e+003, 2.509549e-002
1.029801e+003, 2.518038e-002
1.031730e+003, 2.543065e-002
1.033658e+003, 2.596805e-002
1.035587e+003, 2.637970e-002
1.037515e+003, 2.654759e-002
1.039444e+003, 2.678076e-002
1.041372e+003, 2.703467e-002
1.043301e+003, 2.744117e-002
1.045229e+003, 2.775386e-002
1.047157e+003, 2.812118e-002
1.049086e+003, 2.849690e-002
1.051014e+003, 2.865579e-002
1.052943e+003, 2.892677e-002
1.054871e+003, 2.950852e-002
1.056800e+003, 2.989184e-002
1.058728e+003, 3.003080e-002
1.060657e+003, 3.021786e-002
1.062585e+003, 3.062747e-002
1.064514e+003, 3.126547e-002
1.066442e+003, 3.182492e-002
1.068371e+003, 3.217373e-002
1.070299e+003, 3.249861e-002
1.072228e+003, 3.289539e-002
1.074156e+003, 3.349871e-002
1.076084e+003, 3.423341e-002
1.078013e+003, 3.473198e-002
1.079941e+003, 3.522397e-002
1.081870e+003, 3.596460e-002
1.083798e+003, 3.657194e-002
1.085727e+003, 3.696256e-002
1.087655e+003, 3.731588e-002
1.089584e+003, 3.771520e-002
1.091512e+003, 3.816352e-002
1.093441e+003, 3.855543e-002
1.095369e+003, 3.889917e-002
1.097298e+003, 3.920700e-002
1.099226e+003, 3.946991e-002
1.101155e+003, 3.990836e-002
1.103083e+003, 4.035800e-002
1.105011e+003, 4.041716e-002
1.106940e+003, 4.057616e-002
1.108868e+003, 4.078930e-002
1.110797e+003, 4.068841e-002
1.112725e+003, 4.067268e-002
1.114654e+003, 4.095519e-002
1.116582e+003, 4.131017e-002
1.118511e+003, 4.159736e-002
1.120439e+003, 4.194574e-002
1.122368e+003, 4.238402e-002
1.124296e+003, 4.301506e-002
1.126225e+003, 4.360075e-002
1.128153e+003, 4.407246e-002
1.130082e+003, 4.465917e-002
1.132010e+003, 4.525037e-002
1.133938e+003, 4.566082e-002
1.135867e+003, 4.620431e-002
1.137795e+003, 4.686869e-002
1.139724e+003, 4.727801e-002
1.141652e+003, 4.785137e-002
1.143581e+003, 4.834206e-002
1.145509e+003, 4.841614e-002
1.147438e+003, 4.880346e-002
1.149366e+003, 4.956342e-002
1.151295e+003, 5.020902e-002
1.153223e+003, 5.076823e-002
1.155152e+003, 5.118078e-002
1.157080e+003, 5.167821e-002
1.159009e+003, 5.230070e-002
1.160937e+003, 5.286856e-002
1.162865e+003, 5.346268e-002
1.164794e+003, 5.399187e-002
1.166722e+003, 5.471351e-002
1.168651e+003, 5.541344e-002
1.170579e+003, 5.586463e-002
1.172508e+003, 5.660491e-002
1.174436e+003, 5.750361e-002
1.176365e+003, 5.852636e-002
1.178293e+003, 5.965092e-002
1.180222e+003, 6.068888e-002
1.182150e+003, 6.153538e-002
1.184079e+003, 6.217541e-002
1.186007e+003, 6.299482e-002
1.187936e+003, 6.397965e-002
1.189864e+003, 6.477386e-002
1.191792e+003, 6.565264e-002
1.193721e+003, 6.644509e-002
1.195649e+003, 6.723914e-002
1.197578e+003, 6.823775e-002
1.199506e+003, 6.915894e-002
1.201435e+003, 7.016766e-002
1.203363e+003, 7.123319e-002
1.205292e+003, 7.241789e-002
1.207220e+003, 7.338362e-002
1.209149e+003, 7.416338e-002
1.211077e+003, 7.527829e-002
1.213006e+003, 7.647341e-002
1.214934e+003, 7.765574e-002
1.216863e+003, 7.894060e-002
1.218791e+003, 8.033540e-002
1.220719e+003, 8.182649e-002
1.222648e+003, 8.311049e-002
1.224576e+003, 8.406320e-002
1.226505e+003, 8.475041e-002
1.228433e+003, 8.538248e-002
1.230362e+003, 8.602168e-002
1.232290e+003, 8.700771e-002
1.234219e+003, 8.828064e-002
1.236147e+003, 8.958687e-002
1.238076e+003, 9.093079e-002
1.240004e+003, 9.200054e-002
1.241933e+003, 9.302025e-002
1.243861e+003, 9.423051e-002
1.245790e+003, 9.539776e-002
1.247718e+003, 9.622480e-002
1.249646e+003, 9.723697e-002
1.251575e+003, 9.820016e-002
1.253503e+003, 9.903622e-002
1.255432e+003, 1.000922e-001
1.257360e+003, 1.014257e-001
1.259289e+003, 1.027623e-001
1.261217e+003, 1.039594e-001
1.263146e+003, 1.051635e-001
1.265074e+003, 1.062219e-001
1.267003e+003, 1.076731e-001
1.268931e+003, 1.094717e-001
1.270860e+003, 1.115089e-001
1.272788e+003, 1.133976e-001
1.274717e+003, 1.154070e-001
1.276645e+003, 1.174205e-001
1.278573e+003, 1.192225e-001
1.280502e+003, 1.210830e-001
1.282430e+003, 1.230609e-001
1.284359e+003, 1.249034e-001
1.286287e+003, 1.269122e-001
1.288216e+003, 1.292745e-001
1.290144e+003, 1.315734e-001
1.292073e+003, 1.339318e-001
1.294001e+003, 1.362959e-001
1.295930e+003, 1.386673e-001
1.297858e+003, 1.412608e-001
1.299787e+003, 1.437015e-001
1.301715e+003, 1.459852e-001
1.303644e+003, 1.485741e-001
1.305572e+003, 1.512968e-001
1.307500e+003, 1.543383e-001
1.309429e+003, 1.573086e-001
1.311357e+003, 1.598875e-001
1.313286e+003, 1.627675e-001
1.315214e+003, 1.658994e-001
1.317143e+003, 1.689591e-001
1.319071e+003, 1.719752e-001
1.321000e+003, 1.750962e-001
1.322928e+003, 1.785549e-001
1.324857e+003, 1.821592e-001
1.326785e+003, 1.855271e-001
1.328714e+003, 1.888660e-001
1.330642e+003, 1.925884e-001
1.332571e+003, 1.966387e-001
1.334499e+003, 2.006597e-001
1.336427e+003, 2.048627e-001
1.338356e+003, 2.090732e-001
1.340284e+003, 2.134196e-001
1.342213e+003, 2.178469e-001
1.344141e+003, 2.223511e-001
1.346070e+003, 2.272910e-001
1.347998e+003, 2.322906e-001
1.349927e+003, 2.373799e-001
1.351855e+003, 2.428522e-001
1.353784e+003, 2.482256e-001
1.355712e+003, 2.535737e-001
1.357641e+003, 2.591544e-001
1.359569e+003, 2.648135e-001
1.361498e+003, 2.705688e-001
1.363426e+003, 2.770859e-001
1.365354e+003, 2.830219e-001
1.367283e+003, 2.876056e-001
1.369211e+003, 2.921613e-001
1.371140e+003, 2.973420e-001
1.373068e+003, 3.028650e-001
1.374997e+003, 3.089885e-001
1.376925e+003, 3.158080e-001
1.378854e+003, 3.230835e-001
1.380782e+003, 3.309225e-001
1.382711e+003, 3.391353e-001
1.384639e+003, 3.474050e-001
1.386568e+003, 3.559302e-001
1.388496e+003, 3.649307e-001
1.390424e+003, 3.740676e-001
1.392353e+003, 3.835629e-001
1.394281e+003, 3.937398e-001
1.396210e+003, 4.043068e-001
1.398138e+003, 4.152010e-001
1.400067e+003, 4.269013e-001
1.401995e+003, 4.387924e-001
1.403924e+003, 4.509683e-001
1.405852e+003, 4.633154e-001
1.407781e+003, 4.751116e-001
1.409709e+003, 4.863285e-001
1.411638e+003, 4.970462e-001
1.413566e+003, 5.060261e-001
1.415495e+003, 5.125408e-001
1.417423e+003, 5.176100e-001
1.419351e+003, 5.235525e-001
1.421280e+003, 5.320161e-001
1.423208e+003, 5.406134e-001
1.425137e+003, 5.478130e-001
1.427065e+003, 5.543913e-001
1.428994e+003, 5.596620e-001
1.430922e+003, 5.620659e-001
1.432851e+003, 5.607556e-001
1.434779e+003, 5.561508e-001
1.436708e+003, 5.491874e-001
1.438636e+003, 5.397135e-001
1.440565e+003, 5.288662e-001
1.442493e+003, 5.169491e-001
1.444422e+003, 5.058546e-001
1.446350e+003, 4.974346e-001
1.448278e+003, 4.905943e-001
1.450207e+003, 4.835949e-001
1.452135e+003, 4.758044e-001
1.454064e+003, 4.667443e-001
1.455992e+003, 4.571562e-001
1.457921e+003, 4.478943e-001
1.459849e+003, 4.388618e-001
1.461778e+003, 4.295616e-001
1.463706e+003, 4.206515e-001
1.465635e+003, 4.118606e-001
1.467563e+003, 4.030147e-001
1.469492e+003, 3.945061e-001
1.471420e+003, 3.862995e-001
1.473349e+003, 3.776590e-001
1.475277e+003, 3.693335e-001
1.477205e+003, 3.614606e-001
1.479134e+003, 3.533673e-001
1.481062e+003, 3.456100e-001
1.482991e+003, 3.376580e-001
1.484919e+003, 3.293900e-001
1.486848e+003, 3.216633e-001
1.488776e+003, 3.143485e-001
1.490705e+003, 3.070685e-001
1.492633e+003, 2.995964e-001
1.494562e+003, 2.921376e-001
1.496490e+003, 2.850100e-001
1.498419e+003, 2.780945e-001
1.500347e+003, 2.714494e-001
1.502276e+003, 2.649908e-001
1.504204e+003, 2.584009e-001
1.506132e+003, 2.516444e-001
1.508061e+003, 2.449175e-001
1.509989e+003, 2.389689e-001
1.511918e+003, 2.329590e-001
1.513846e+003, 2.266802e-001
1.515775e+003, 2.205430e-001
1.517703e+003, 2.145687e-001
1.519632e+003, 2.085489e-001
1.521560e+003, 2.024895e-001
1.523489e+003, 1.960995e-001
1.525417e+003, 1.900137e-001
1.527346e+003, 1.838842e-001
1.529274e+003, 1.776935e-001
1.531203e+003, 1.717229e-001
1.533131e+003, 1.659325e-001
1.535059e+003, 1.602068e-001
1.536988e+003, 1.545629e-001
1.538916e+003, 1.487438e-001
1.540845e+003, 1.432776e-001
1.542773e+003, 1.380544e-001
1.544702e+003, 1.327231e-001
1.546630e+003, 1.276337e-001
1.548559e+003, 1.226979e-001
1.550487e+003, 1.176959e-001
1.552416e+003, 1.125937e-001
1.554344e+003, 1.078220e-001
1.556273e+003, 1.033736e-001
1.558201e+003, 9.878080e-002
1.560130e+003, 9.438569e-002
1.562058e+003, 9.019266e-002
1.563986e+003, 8.592200e-002
1.565915e+003, 8.157512e-002
1.567843e+003, 7.725289e-002
1.569772e+003, 7.296165e-002
1.571700e+003, 6.870166e-002
1.573629e+003, 6.416493e-002
1.575557e+003, 5.982223e-002
1.577486e+003, 5.582220e-002
1.579414e+003, 5.126111e-002
1.581343e+003, 4.612029e-002
1.583271e+003, 4.086843e-002
1.585200e+003, 3.583320e-002
1.587128e+003, 3.094932e-002
1.589057e+003, 2.606219e-002
1.590985e+003, 2.110492e-002
1.592913e+003, 1.663173e-002
1.594842e+003, 1.355720e-002
1.596770e+003, 1.186525e-002
1.598699e+003, 1.125748e-002
1.600627e+003, 1.082172e-002
1.602556e+003, 1.031208e-002
1.604484e+003, 1.012808e-002
1.606413e+003, 1.037140e-002
1.608341e+003, 1.043436e-002
1.610270e+003, 1.055549e-002
1.612198e+003, 1.067561e-002
1.614127e+003, 1.066078e-002
1.616055e+003, 1.068854e-002
1.617984e+003, 1.084134e-002
1.619912e+003, 1.079379e-002
1.621840e+003, 1.067712e-002
1.623769e+003, 1.045467e-002
1.625697e+003, 1.027565e-002
1.627626e+003, 9.866543e-003
1.629554e+003, 9.644514e-003
1.631483e+003, 9.815598e-003
1.633411e+003, 9.737685e-003
1.635340e+003, 9.692078e-003
1.637268e+003, 9.774527e-003
1.639197e+003, 9.522716e-003
1.641125e+003, 8.742242e-003
1.643054e+003, 8.031213e-003
1.644982e+003, 7.471594e-003
1.646911e+003, 6.971799e-003
1.648839e+003, 6.553497e-003
1.650767e+003, 6.184984e-003
1.652696e+003, 5.999899e-003
1.654624e+003, 5.831086e-003
1.656553e+003, 5.666288e-003
1.658481e+003, 5.511397e-003
1.660410e+003, 5.492996e-003
1.662338e+003, 5.653902e-003
1.664267e+003, 5.407659e-003
1.666195e+003, 5.048443e-003
1.668124e+003, 5.171362e-003
1.670052e+003, 5.330773e-003
1.671981e+003, 5.220235e-003
1.673909e+003, 5.077081e-003
1.675838e+003, 4.851385e-003
1.677766e+003, 4.818402e-003
1.679694e+003, 5.032637e-003
1.681623e+003, 5.097202e-003
1.683551e+003, 5.091945e-003
1.685480e+003, 5.016254e-003
1.687408e+003, 4.760085e-003
1.689337e+003, 4.847305e-003
1.691265e+003, 5.091747e-003
1.693194e+003, 5.086321e-003
1.695122e+003, 4.739399e-003
1.697051e+003, 4.640354e-003
1.698979e+003, 4.751740e-003
1.700908e+003, 4.901854e-003
1.702836e+003, 4.787317e-003
1.704765e+003, 4.772587e-003
1.706693e+003, 4.681104e-003
1.708621e+003, 4.580190e-003
1.710550e+003, 4.345567e-003
1.712478e+003, 3.850845e-003
1.714407e+003, 3.697713e-003
1.716335e+003, 3.823412e-003
1.718264e+003, 4.057606e-003
1.720192e+003, 4.141761e-003
1.722121e+003, 3.877765e-003
1.724049e+003, 3.677424e-003
1.725978e+003, 3.679949e-003
1.727906e+003, 3.511165e-003
1.729835e+003, 3.251118e-003
1.731763e+003, 3.204949e-003
1.733692e+003, 3.189908e-003
1.735620e+003, 2.992074e-003
1.737548e+003, 2.826615e-003
1.739477e+003, 2.753905e-003
1.741405e+003, 2.361553e-003
1.743334e+003, 2.057237e-003
1.745262e+003, 2.229974e-003
1.747191e+003, 2.424391e-003
1.749119e+003, 2.574977e-003
1.751048e+003, 2.667533e-003
1.752976e+003, 2.482396e-003
1.754905e+003, 2.371965e-003
1.756833e+003, 2.629947e-003
1.758762e+003, 2.689085e-003
1.760690e+003, 2.538240e-003
1.762619e+003, 2.528610e-003
1.764547e+003, 2.585212e-003
1.766475e+003, 2.797477e-003
1.768404e+003, 2.936643e-003
1.770332e+003, 3.008902e-003
1.772261e+003, 3.195435e-003
1.774189e+003, 3.088731e-003
1.776118e+003, 3.154093e-003
1.778046e+003, 3.262618e-003
1.779975e+003, 3.329956e-003
1.781903e+003, 3.526734e-003
1.783832e+003, 3.673333e-003
1.785760e+003, 3.923271e-003
1.787689e+003, 4.096437e-003
1.789617e+003, 4.096291e-003
1.791546e+003, 4.458522e-003
1.793474e+003, 4.528707e-003
1.795402e+003, 4.472242e-003
1.797331e+003, 4.953753e-003
1.799259e+003, 5.155121e-003
1.801188e+003, 5.573546e-003
1.803116e+003, 6.281832e-003
1.805045e+003, 6.709319e-003
1.806973e+003, 7.282650e-003
1.808902e+003, 7.487128e-003
1.810830e+003, 7.747922e-003
1.812759e+003, 8.527009e-003
1.814687e+003, 9.015548e-003
1.816616e+003, 9.661423e-003
1.818544e+003, 1.103755e-002
1.820473e+003, 1.180940e-002
1.822401e+003, 1.156519e-002
1.824329e+003, 1.148642e-002
1.826258e+003, 1.179707e-002
1.828186e+003, 1.157682e-002
1.830115e+003, 1.136010e-002
1.832043e+003, 1.116650e-002
1.833972e+003, 1.085734e-002
1.835900e+003, 1.041241e-002
1.837829e+003, 9.692318e-003
1.839757e+003, 9.190362e-003
1.841686e+003, 8.810681e-003
1.843614e+003, 8.090428e-003
1.845543e+003, 7.531447e-003
1.847471e+003, 7.190132e-003
1.849400e+003, 6.503948e-003
1.851328e+003, 5.778090e-003
1.853256e+003, 5.601397e-003
1.855185e+003, 5.562968e-003
1.857113e+003, 4.910552e-003
1.859042e+003, 4.464307e-003
1.860970e+003, 4.193311e-003
1.862899e+003, 3.696645e-003
1.864827e+003, 3.455664e-003
1.866756e+003, 3.421521e-003
1.868684e+003, 3.261123e-003
1.870613e+003, 3.240422e-003
1.872541e+003, 3.645517e-003
1.874470e+003, 3.974197e-003
1.876398e+003, 3.520334e-003
1.878327e+003, 2.983947e-003
1.880255e+003, 2.915919e-003
1.882183e+003, 2.367242e-003
1.884112e+003, 2.251595e-003
1.886040e+003, 2.638512e-003
1.887969e+003, 3.096729e-003
1.889897e+003, 2.709402e-003
1.891826e+003, 2.461941e-003
1.893754e+003, 2.348616e-003
1.895683e+003, 2.104193e-003
1.897611e+003, 1.937930e-003
1.899540e+003, 2.312407e-003
1.901468e+003, 3.044670e-003
1.903397e+003, 3.010752e-003
1.905325e+003, 2.764723e-003
1.907254e+003, 3.798849e-003
1.909182e+003, 3.703667e-003
1.911110e+003, 3.262815e-003
1.913039e+003, 3.861213e-003
1.914967e+003, 3.818953e-003
1.916896e+003, 3.481460e-003
1.918824e+003, 3.061815e-003
1.920753e+003, 2.357642e-003
1.922681e+003, 2.527523e-003
1.924610e+003, 2.370201e-003
1.926538e+003, 2.458052e-003
1.928467e+003, 2.555214e-003
1.930395e+003, 2.376480e-003
1.932324e+003, 1.690892e-003
1.934252e+003, 2.198107e-003
1.936181e+003, 2.886781e-003
1.938109e+003, 2.597226e-003
1.940037e+003, 2.453788e-003
1.941966e+003, 2.132261e-003
1.943894e+003, 2.072118e-003
1.945823e+003, 2.159764e-003
1.947751e+003, 2.942367e-003
1.949680e+003, 4.395155e-003
1.951608e+003, 3.724120e-003
1.953537e+003, 2.702858e-003
1.955465e+003, 1.045084e-003
1.957394e+003, 3.027627e-004
1.959322e+003, 1.076274e-003
1.961251e+003, 2.547202e-003
1.963179e+003, 3.256751e-003
1.965108e+003, 3.659653e-003
1.967036e+003, 2.906113e-003
1.968964e+003, 1.190050e-003
1.970893e+003, 1.417386e-003
1.972821e+003, 2.865493e-003
1.974750e+003, 2.157508e-003
1.976678e+003, 1.780761e-003
1.978607e+003, 3.591409e-003
1.980535e+003, 4.570092e-003
1.982464e+003, 4.488786e-003
1.984392e+003, 3.842149e-003
1.986321e+003, 2.435769e-003
1.988249e+003, 2.189380e-003
1.990178e+003, 1.934312e-003
1.992106e+003, 2.648868e-003
1.994035e+003, 3.456184e-003
1.995963e+003, 4.030174e-003
1.997891e+003, 2.777500e-003
1.999820e+003, 1.628707e-003
2.001748e+003, 1.101441e-003
2.003677e+003, 4.961924e-004
2.005605e+003, 2.221324e-003
2.007534e+003, 3.103272e-003
2.009462e+003, 2.740011e-003
2.011391e+003, 4.977467e-003
2.013319e+003, 4.835156e-003
2.015248e+003, 2.758585e-003
2.017176e+003, 3.290083e-003
2.019105e+003, 4.047166e-003
2.021033e+003, 2.069229e-003
2.022962e+003, 2.100765e-003
2.024890e+003, 4.004164e-003
2.026818e+003, 4.975990e-003
2.028747e+003, 3.771824e-003
2.030675e+003, 3.388928e-003
2.032604e+003, 3.803950e-003
2.034532e+003, 4.499343e-003
2.036461e+003, 5.734280e-003
2.038389e+003, 7.038142e-003
2.040318e+003, 5.547160e-003
2.042246e+003, 3.161435e-003
2.044175e+003, 2.910412e-003
2.046103e+003, 4.305982e-003
2.048032e+003, 6.074209e-003
2.049960e+003, 6.934668e-003
2.051889e+003, 5.269574e-003
2.053817e+003, 3.911478e-003
2.055746e+003, 4.026117e-003
2.057674e+003, 3.796334e-003
2.059603e+003, 4.058914e-003
2.061531e+003, 4.465386e-003
2.063459e+003, 4.255744e-003
2.065388e+003, 3.221583e-003
2.067316e+003, 2.950300e-003
2.069245e+003, 3.997335e-003
2.071173e+003, 5.357056e-003
2.073102e+003, 4.542055e-003
2.075030e+003, 5.334664e-003
2.076959e+003, 5.436954e-003
2.078887e+003, 5.557546e-003
2.080816e+003, 6.637819e-003
2.082744e+003, 6.953197e-003
2.084673e+003, 5.576394e-003
2.086601e+003, 5.000211e-003
2.088530e+003, 4.788714e-003
2.090458e+003, 4.149062e-003
2.092386e+003, 2.892455e-003
2.094315e+003, 3.933304e-003
2.096243e+003, 5.106568e-003
2.098172e+003, 4.719670e-003
2.100100e+003, 4.327495e-003
2.102029e+003, 3.776509e-003
2.103957e+003, 4.310325e-003
2.105886e+003, 4.633227e-003
2.107814e+003, 3.645320e-003
2.109743e+003, 3.067494e-003
2.111671e+003, 4.371039e-003
2.113600e+003, 5.382921e-003
2.115528e+003, 5.318094e-003
2.117457e+003, 4.430725e-003
2.119385e+003, 3.952364e-003
2.121313e+003, 3.186860e-003
2.123242e+003, 2.056648e-003
2.125170e+003, 1.864247e-003
2.127099e+003, 2.453933e-003
2.129027e+003, 3.197276e-003
2.130956e+003, 2.104943e-003
2.132884e+003, 9.587754e-004
2.134813e+003, 1.173733e-003
2.136741e+003, 2.222446e-003
2.138670e+003, 2.586041e-003
2.140598e+003, 1.620008e-003
2.142527e+003, 1.689384e-003
2.144455e+003, 1.916375e-003
2.146384e+003, 1.446175e-003
2.148312e+003, 1.806550e-003
2.150240e+003, 1.100899e-003
2.152169e+003, 4.760707e-004
2.154097e+003, 1.464157e-003
2.156026e+003, 1.006224e-003
2.157954e+003, 9.863480e-004
2.159883e+003, 5.592274e-003
2.161811e+003, 6.084085e-003
2.163740e+003, 5.199320e-003
2.165668e+003, 5.190042e-003
2.167597e+003, 5.130940e-003
2.169525e+003, 5.620328e-003
2.171454e+003, 4.604596e-003
2.173382e+003, 4.126715e-003
2.175311e+003, 3.848421e-003
2.177239e+003, 4.389326e-003
2.179167e+003, 5.796713e-003
2.181096e+003, 7.431224e-003
2.183024e+003, 6.414578e-003
2.184953e+003, 5.204653e-003
2.186881e+003, 6.186279e-003
2.188810e+003, 6.180733e-003
2.190738e+003, 4.946961e-003
2.192667e+003, 5.744629e-003
2.194595e+003, 6.492440e-003
2.196524e+003, 6.185015e-003
2.198452e+003, 5.600171e-003
2.200381e+003, 5.183275e-003
2.202309e+003, 6.252019e-003
2.204238e+003, 8.026494e-003
2.206166e+003, 7.981092e-003
2.208094e+003, 7.129841e-003
2.210023e+003, 5.995194e-003
2.211951e+003, 5.947752e-003
2.213880e+003, 5.530653e-003
2.215808e+003, 5.488088e-003
2.217737e+003, 6.953435e-003
2.219665e+003, 7.799482e-003
2.221594e+003, 6.362867e-003
2.223522e+003, 6.063206e-003
2.225451e+003, 6.560175e-003
2.227379e+003, 6.482089e-003
2.229308e+003, 5.702002e-003
2.231236e+003, 5.894152e-003
2.233165e+003, 6.582654e-003
2.235093e+003, 7.104518e-003
2.237021e+003, 5.712587e-003
2.238950e+003, 5.896763e-003
2.240878e+003, 6.008248e-003
2.242807e+003, 5.343145e-003
2.244735e+003, 6.562140e-003
2.246664e+003, 7.188780e-003
2.248592e+003, 5.928087e-003
2.250521e+003, 4.988829e-003
2.252449e+003, 5.714648e-003
2.254378e+003, 6.701005e-003
2.256306e+003, 6.965356e-003
2.258235e+003, 7.282487e-003
2.260163e+003, 7.062607e-003
2.262092e+003, 5.715710e-003
2.264020e+003, 5.429367e-003
2.265948e+003, 5.279517e-003
2.267877e+003, 5.893042e-003
2.269805e+003, 6.721776e-003
2.271734e+003, 6.711816e-003
2.273662e+003, 6.753713e-003
2.275591e+003, 6.936413e-003
2.277519e+003, 7.283359e-003
2.279448e+003, 7.155973e-003
2.281376e+003, 7.037535e-003
2.283305e+003, 7.303564e-003
2.285233e+003, 8.119834e-003
2.287162e+003, 7.758894e-003
2.289090e+003, 7.289717e-003
2.291019e+003, 7.390376e-003
2.292947e+003, 7.519130e-003
2.294875e+003, 7.633172e-003
2.296804e+003, 7.866675e-003
2.298732e+003, 7.570034e-003
2.300661e+003, 7.670915e-003
2.302589e+003, 7.144891e-003
2.304518e+003, 6.844791e-003
2.306446e+003, 6.951159e-003
2.308375e+003, 7.624812e-003
2.310303e+003, 8.239409e-003
2.312232e+003, 8.044532e-003
2.314160e+003, 7.754983e-003
2.316089e+003, 7.803511e-003
2.318017e+003, 7.820628e-003
2.319946e+003, 7.924263e-003
2.321874e+003, 8.014013e-003
2.323802e+003, 8.094133e-003
2.325731e+003, 7.054173e-003
2.327659e+003, 6.133300e-003
2.329588e+003, 5.940645e-003
2.331516e+003, 6.406065e-003
2.333445e+003, 6.451058e-003
2.335373e+003, 6.502013e-003
2.337302e+003, 6.468161e-003
2.339230e+003, 6.501322e-003
2.341159e+003, 6.291883e-003
2.343087e+003, 6.123488e-003
2.345016e+003, 6.283254e-003
2.346944e+003, 6.318307e-003
2.348873e+003, 5.930016e-003
2.350801e+003, 5.943076e-003
2.352729e+003, 6.215665e-003
2.354658e+003, 5.889968e-003
2.356586e+003, 5.572952e-003
2.358515e+003, 5.791064e-003
2.360443e+003, 6.002172e-003
2.362372e+003, 5.936276e-003
2.364300e+003, 5.056165e-003
2.366229e+003, 4.759719e-003
2.368157e+003, 5.199467e-003
2.370086e+003, 5.512549e-003
2.372014e+003, 5.053265e-003
2.373942e+003, 5.007375e-003
2.375871e+003, 5.684212e-003
2.377799e+003, 6.292904e-003
2.379728e+003, 6.071370e-003
2.381656e+003, 5.970592e-003
2.383585e+003, 5.979616e-003
2.385513e+003, 5.180846e-003
2.387442e+003, 4.621722e-003
2.389370e+003, 5.289574e-003
2.391299e+003, 5.981721e-003
2.393227e+003, 5.670570e-003
2.395156e+003, 5.065033e-003
2.397084e+003, 5.393791e-003
2.399012e+003, 6.061458e-003
2.400941e+003, 6.623979e-003
2.402869e+003, 6.626321e-003
2.404798e+003, 6.711783e-003
2.406726e+003, 6.793395e-003
2.408655e+003, 6.031011e-003
2.410583e+003, 5.592143e-003
2.412512e+003, 5.652100e-003
2.414440e+003, 5.479028e-003
2.416369e+003, 5.956339e-003
2.418297e+003, 6.242225e-003
2.420226e+003, 6.293714e-003
2.422154e+003, 6.307789e-003
2.424083e+003, 6.335245e-003
2.426011e+003, 5.572601e-003
2.427939e+003, 5.723956e-003
2.429868e+003, 6.866541e-003
2.431796e+003, 6.507116e-003
2.433725e+003, 5.673393e-003
2.435653e+003, 6.302215e-003
2.437582e+003, 6.530957e-003
2.439510e+003, 6.098503e-003
2.441439e+003, 6.492075e-003
2.443367e+003, 6.954822e-003
2.445296e+003, 7.005144e-003
2.447224e+003, 6.432344e-003
2.449153e+003, 6.178393e-003
2.451081e+003, 6.900863e-003
2.453010e+003, 6.944357e-003
2.454938e+003, 6.744951e-003
2.456866e+003, 7.041010e-003
2.458795e+003, 7.229189e-003
2.460723e+003, 7.135790e-003
2.462652e+003, 7.025222e-003
2.464580e+003, 7.063000e-003
2.466509e+003, 7.168713e-003
2.468437e+003, 7.011315e-003
2.470366e+003, 6.419019e-003
2.472294e+003, 6.534113e-003
2.474223e+003, 6.501982e-003
2.476151e+003, 6.276296e-003
2.478080e+003, 6.425094e-003
2.480008e+003, 6.885344e-003
2.481937e+003, 6.655392e-003
2.483865e+003, 6.349106e-003
2.485793e+003, 6.688562e-003
2.487722e+003, 6.755321e-003
2.489650e+003, 6.459936e-003
2.491579e+003, 6.555816e-003
2.493507e+003, 7.149336e-003
2.495436e+003, 7.668020e-003
2.497364e+003, 7.512257e-003
2.499293e+003, 7.583659e-003
2.501221e+003, 8.061598e-003
2.503150e+003, 7.689184e-003
2.505078e+003, 7.813515e-003
2.507007e+003, 8.939750e-003
2.508935e+003, 9.408183e-003
2.510864e+003, 9.850565e-003
2.512792e+003, 9.747288e-003
2.514720e+003, 1.042779e-002
2.516649e+003, 1.149159e-002
2.518577e+003, 1.227729e-002
2.520506e+003, 1.286033e-002
2.522434e+003, 1.361619e-002
2.524363e+003, 1.430001e-002
2.526291e+003, 1.487165e-002
2.528220e+003, 1.496337e-002
2.530148e+003, 1.515062e-002
2.532077e+003, 1.551103e-002
2.534005e+003, 1.529707e-002
2.535934e+003, 1.547120e-002
2.537862e+003, 1.578868e-002
2.539791e+003, 1.502293e-002
2.541719e+003, 1.452338e-002
2.543647e+003, 1.495085e-002
2.545576e+003, 1.550711e-002
2.547504e+003, 1.560478e-002
2.549433e+003, 1.572093e-002
2.551361e+003, 1.595494e-002
2.553290e+003, 1.483287e-002
2.555218e+003, 1.384879e-002
2.557147e+003, 1.356220e-002
2.559075e+003, 1.336320e-002
2.561004e+003, 1.373650e-002
2.562932e+003, 1.385394e-002
2.564861e+003, 1.317686e-002
2.566789e+003, 1.311314e-002
2.568718e+003, 1.317484e-002
2.570646e+003, 1.172048e-002
2.572574e+003, 1.034991e-002
2.574503e+003, 1.017901e-002
2.576431e+003, 1.019426e-002
2.578360e+003, 9.684229e-003
2.580288e+003, 9.656598e-003
2.582217e+003, 9.937593e-003
2.584145e+003, 9.678762e-003
2.586074e+003, 9.912953e-003
2.588002e+003, 9.434761e-003
2.589931e+003, 8.854417e-003
2.591859e+003, 9.063278e-003
2.593788e+003, 1.006464e-002
2.595716e+003, 1.052765e-002
2.597645e+003, 1.026337e-002
2.599573e+003, 1.059471e-002
2.601501e+003, 1.026213e-002
2.603430e+003, 9.654666e-003
2.605358e+003, 1.005374e-002
2.607287e+003, 1.015953e-002
2.609215e+003, 9.607332e-003
2.611144e+003, 9.162646e-003
2.613072e+003, 9.097356e-003
2.615001e+003, 9.032232e-003
2.616929e+003, 9.322729e-003
2.618858e+003, 9.909823e-003
2.620786e+003, 1.009883e-002
2.622715e+003, 8.746508e-003
2.624643e+003, 8.649058e-003
2.626572e+003, 9.133824e-003
2.628500e+003, 8.586009e-003
2.630428e+003, 8.475096e-003
2.632357e+003, 9.121114e-003
2.634285e+003, 9.802208e-003
2.636214e+003, 9.950145e-003
2.638142e+003, 1.009096e-002
2.640071e+003, 1.047069e-002
2.641999e+003, 1.042973e-002
2.643928e+003, 9.575656e-003
2.645856e+003, 9.147720e-003
2.647785e+003, 8.621900e-003
2.649713e+003, 8.142057e-003
2.651642e+003, 8.363429e-003
2.653570e+003, 9.307981e-003
2.655499e+003, 9.268355e-003
2.657427e+003, 8.466789e-003
2.659355e+003, 8.258642e-003
2.661284e+003, 7.936847e-003
2.663212e+003, 7.727113e-003
2.665141e+003, 7.626021e-003
2.667069e+003, 7.701748e-003
2.668998e+003, 7.513149e-003
2.670926e+003, 7.388472e-003
2.672855e+003, 6.865509e-003
2.674783e+003, 6.537478e-003
2.676712e+003, 6.341436e-003
2.678640e+003, 6.375328e-003
2.680569e+003, 6.158296e-003
2.682497e+003, 6.032539e-003
2.684426e+003, 6.441990e-003
2.686354e+003, 6.229736e-003
2.688282e+003, 5.934450e-003
2.690211e+003, 6.340744e-003
2.692139e+003, 6.309329e-003
2.694068e+003, 5.476990e-003
2.695996e+003, 5.473427e-003
2.697925e+003, 5.415172e-003
2.699853e+003, 5.182907e-003
2.701782e+003, 5.313389e-003
2.703710e+003, 5.392618e-003
2.705639e+003, 5.713275e-003
2.707567e+003, 5.794220e-003
2.709496e+003, 5.432846e-003
2.711424e+003, 4.942473e-003
2.713353e+003, 4.471243e-003
2.715281e+003, 4.768469e-003
2.717209e+003, 5.466485e-003
2.719138e+003, 5.807586e-003
2.721066e+003, 5.801103e-003
2.722995e+003, 6.060465e-003
2.724923e+003, 6.051074e-003
2.726852e+003, 5.670709e-003
2.728780e+003, 4.806580e-003
2.730709e+003, 4.766382e-003
2.732637e+003, 5.347174e-003
2.734566e+003, 5.604777e-003
2.736494e+003, 5.509144e-003
2.738423e+003, 5.191616e-003
2.740351e+003, 4.953761e-003
2.742280e+003, 4.765919e-003
2.744208e+003, 5.368171e-003
2.746136e+003, 5.240425e-003
2.748065e+003, 4.311399e-003
2.749993e+003, 4.468732e-003
2.751922e+003, 5.049597e-003
2.753850e+003, 5.341711e-003
2.755779e+003, 5.470588e-003
2.757707e+003, 5.241178e-003
2.759636e+003, 5.297235e-003
2.761564e+003, 5.533073e-003
2.763493e+003, 5.304953e-003
2.765421e+003, 4.960192e-003
2.767350e+003, 5.324643e-003
2.769278e+003, 4.630637e-003
2.771207e+003, 4.105830e-003
2.773135e+003, 4.701667e-003
2.775063e+003, 4.787224e-003
2.776992e+003, 4.619617e-003
2.778920e+003, 4.671490e-003
2.780849e+003, 4.863515e-003
2.782777e+003, 5.152662e-003
2.784706e+003, 5.111309e-003
2.786634e+003, 4.688590e-003
2.788563e+003, 4.529261e-003
2.790491e+003, 3.965965e-003
2.792420e+003, 4.033163e-003
2.794348e+003, 4.222324e-003
2.796277e+003, 4.266063e-003
2.798205e+003, 4.264555e-003
2.800134e+003, 4.178172e-003
2.802062e+003, 5.047662e-003
2.803990e+003, 5.252484e-003
2.805919e+003, 4.748541e-003
2.807847e+003, 3.801432e-003
2.809776e+003, 3.320104e-003
2.811704e+003, 3.831120e-003
2.813633e+003, 3.809161e-003
2.815561e+003, 3.344297e-003
2.817490e+003, 3.030586e-003
2.819418e+003, 3.255569e-003
2.821347e+003, 3.266276e-003
2.823275e+003, 3.296859e-003
2.825204e+003, 3.483617e-003
2.827132e+003, 3.592640e-003
2.829061e+003, 3.495562e-003
2.830989e+003, 3.374806e-003
2.832917e+003, 3.332781e-003
2.834846e+003, 2.696285e-003
2.836774e+003, 2.813505e-003
2.838703e+003, 3.511591e-003
2.840631e+003, 3.863225e-003
2.842560e+003, 3.998496e-003
2.844488e+003, 3.421687e-003
2.846417e+003, 2.748592e-003
2.848345e+003, 2.795967e-003
2.850274e+003, 2.670094e-003
2.852202e+003, 2.181925e-003
2.854131e+003, 2.511715e-003
2.856059e+003, 3.079792e-003
2.857988e+003, 3.019507e-003
2.859916e+003, 3.087424e-003
2.861844e+003, 3.262138e-003
2.863773e+003, 3.569452e-003
2.865701e+003, 4.053909e-003
2.867630e+003, 3.999295e-003
2.869558e+003, 3.669228e-003
2.871487e+003, 4.189400e-003
2.873415e+003, 4.662892e-003
2.875344e+003, 5.126046e-003
2.877272e+003, 5.717680e-003
2.879201e+003, 6.034834e-003
2.881129e+003, 5.772849e-003
2.883058e+003, 5.983819e-003
2.884986e+003, 6.154146e-003
2.886915e+003, 5.825385e-003
2.888843e+003, 5.440119e-003
2.890771e+003, 5.994711e-003
2.892700e+003, 6.510371e-003
2.894628e+003, 5.874385e-003
2.896557e+003, 6.433306e-003
2.898485e+003, 6.572804e-003
2.900414e+003, 6.628498e-003
2.902342e+003, 6.895612e-003
2.904271e+003, 6.906194e-003
2.906199e+003, 7.182987e-003
2.908128e+003, 7.135075e-003
2.910056e+003, 7.017933e-003
2.911985e+003, 7.579139e-003
2.913913e+003, 8.146976e-003
2.915842e+003, 8.190939e-003
2.917770e+003, 8.247188e-003
2.919698e+003, 7.184505e-003
2.921627e+003, 6.250125e-003
2.923555e+003, 6.500941e-003
2.925484e+003, 6.473588e-003
2.927412e+003, 5.504730e-003
2.929341e+003, 5.764967e-003
2.931269e+003, 6.723822e-003
2.933198e+003, 6.993713e-003
2.935126e+003, 6.495064e-003
2.937055e+003, 6.229958e-003
2.938983e+003, 5.684563e-003
2.940912e+003, 5.285068e-003
2.942840e+003, 6.029874e-003
2.944769e+003, 6.647031e-003
2.946697e+003, 6.668556e-003
2.948625e+003, 6.250429e-003
2.950554e+003, 5.670959e-003
2.952482e+003, 5.189077e-003
2.954411e+003, 5.372990e-003
2.956339e+003, 5.873312e-003
2.958268e+003, 5.924921e-003
2.960196e+003, 5.550326e-003
2.962125e+003, 5.347252e-003
2.964053e+003, 5.525283e-003
2.965982e+003, 5.566187e-003
2.967910e+003, 6.280173e-003
2.969839e+003, 7.363297e-003
2.971767e+003, 7.890293e-003
2.973696e+003, 7.575058e-003
2.975624e+003, 7.020144e-003
2.977552e+003, 6.537322e-003
2.979481e+003, 7.255715e-003
2.981409e+003, 6.921398e-003
2.983338e+003, 6.878934e-003
2.985266e+003, 6.840932e-003
2.987195e+003, 6.460076e-003
2.989123e+003, 7.201239e-003
2.991052e+003, 8.501840e-003
2.992980e+003, 8.586984e-003
2.994909e+003, 8.096844e-003
2.996837e+003, 7.718806e-003
2.998766e+003, 6.990839e-003
3.000694e+003, 7.589473e-003
3.002623e+003, 8.055917e-003
3.004551e+003, 7.324042e-003
3.006479e+003, 6.746521e-003
3.008408e+003, 8.011375e-003
3.010336e+003, 8.724396e-003
3.012265e+003, 8.467293e-003
3.014193e+003, 8.646877e-003
3.016122e+003, 8.275594e-003
3.018050e+003, 7.724328e-003
3.019979e+003, 7.977283e-003
3.021907e+003, 8.359465e-003
3.023836e+003, 8.065152e-003
3.025764e+003, 8.170665e-003
3.027693e+003, 8.650099e-003
3.029621e+003, 7.964036e-003
3.031550e+003, 7.982735e-003
3.033478e+003, 8.655272e-003
3.035406e+003, 7.776986e-003
3.037335e+003, 8.003050e-003
3.039263e+003, 9.236314e-003
3.041192e+003, 9.317351e-003
3.043120e+003, 8.554459e-003
3.045049e+003, 7.922263e-003
3.046977e+003, 8.848469e-003
3.048906e+003, 1.019468e-002
3.050834e+003, 9.285291e-003
3.052763e+003, 8.462667e-003
3.054691e+003, 8.819857e-003
3.056620e+003, 9.484556e-003
3.058548e+003, 1.012541e-002
3.060477e+003, 1.085810e-002
3.062405e+003, 1.026797e-002
3.064333e+003, 9.450762e-003
3.066262e+003, 9.094932e-003
3.068190e+003, 9.198505e-003
3.070119e+003, 8.752800e-003
3.072047e+003, 8.164322e-003
3.073976e+003, 9.010698e-003
3.075904e+003, 8.957878e-003
3.077833e+003, 8.004620e-003
3.079761e+003, 8.441002e-003
3.081690e+003, 9.882730e-003
3.083618e+003, 9.629779e-003
3.085547e+003, 8.310015e-003
3.087475e+003, 7.002254e-003
3.089404e+003, 7.523301e-003
3.091332e+003, 8.347979e-003
3.093260e+003, 9.157516e-003
3.095189e+003, 1.016959e-002
3.097117e+003, 9.866798e-003
3.099046e+003, 8.680015e-003
3.100974e+003, 7.039205e-003
3.102903e+003, 6.963360e-003
3.104831e+003, 8.059978e-003
3.106760e+003, 9.272936e-003
3.108688e+003, 9.076284e-003
3.110617e+003, 9.119454e-003
3.112545e+003, 9.888223e-003
3.114474e+003, 1.071896e-002
3.116402e+003, 1.105019e-002
3.118331e+003, 1.005034e-002
3.120259e+003, 9.837881e-003
3.122188e+003, 9.938175e-003
3.124116e+003, 1.050833e-002
3.126044e+003, 1.105109e-002
3.127973e+003, 1.087908e-002
3.129901e+003, 1.055449e-002
3.131830e+003, 1.094719e-002
3.133758e+003, 1.071000e-002
3.135687e+003, 1.061553e-002
3.137615e+003, 1.065731e-002
3.139544e+003, 1.088527e-002
3.141472e+003, 1.078587e-002
3.143401e+003, 1.120606e-002
3.145329e+003, 1.175601e-002
3.147258e+003, 1.095835e-002
3.149186e+003, 1.100737e-002
3.151115e+003, 1.119225e-002
3.153043e+003, 1.295825e-002
3.154971e+003, 1.434945e-002
3.156900e+003, 1.356630e-002
3.158828e+003, 1.171817e-002
3.160757e+003, 1.110812e-002
3.162685e+003, 1.236639e-002
3.164614e+003, 1.376768e-002
3.166542e+003, 1.225879e-002
3.168471e+003, 1.130093e-002
3.170399e+003, 1.258738e-002
3.172328e+003, 1.282840e-002
3.174256e+003, 1.295802e-002
3.176185e+003, 1.404013e-002
3.178113e+003, 1.447208e-002
3.180042e+003, 1.414252e-002
3.181970e+003, 1.393745e-002
3.183898e+003, 1.372839e-002
3.185827e+003, 1.405033e-002
3.187755e+003, 1.431279e-002
3.189684e+003, 1.399117e-002
3.191612e+003, 1.395216e-002
3.193541e+003, 1.349155e-002
3.195469e+003, 1.499145e-002
3.197398e+003, 1.437584e-002
3.199326e+003, 1.290272e-002
3.201255e+003, 1.357088e-002
3.203183e+003, 1.378242e-002
3.205112e+003, 1.407383e-002
3.207040e+003, 1.485011e-002
3.208969e+003, 1.486851e-002
3.210897e+003, 1.496570e-002
3.212825e+003, 1.503587e-002
3.214754e+003, 1.411399e-002
3.216682e+003, 1.347278e-002
3.218611e+003, 1.416939e-002
3.220539e+003, 1.447117e-002
3.222468e+003, 1.481323e-002
3.224396e+003, 1.414432e-002
3.226325e+003, 1.406502e-002
3.228253e+003, 1.459953e-002
3.230182e+003, 1.502626e-002
3.232110e+003, 1.544598e-002
3.234039e+003, 1.506713e-002
3.235967e+003, 1.508900e-002
3.237896e+003, 1.653398e-002
3.239824e+003, 1.590811e-002
3.241752e+003, 1.384829e-002
3.243681e+003, 1.336319e-002
3.245609e+003, 1.355588e-002
3.247538e+003, 1.351013e-002
3.249466e+003, 1.524182e-002
3.251395e+003, 1.508594e-002
3.253323e+003, 1.399059e-002
3.255252e+003, 1.392971e-002
3.257180e+003, 1.565778e-002
3.259109e+003, 1.553597e-002
3.261037e+003, 1.563012e-002
3.262966e+003, 1.630189e-002
3.264894e+003, 1.532352e-002
3.266823e+003, 1.429957e-002
3.268751e+003, 1.520955e-002
3.270679e+003, 1.618567e-002
3.272608e+003, 1.658518e-002
3.274536e+003, 1.594162e-002
3.276465e+003, 1.558836e-002
3.278393e+003, 1.606024e-002
3.280322e+003, 1.577014e-002
3.282250e+003, 1.580854e-002
3.284179e+003, 1.532926e-002
3.286107e+003, 1.537011e-002
3.288036e+003, 1.571407e-002
3.289964e+003, 1.574436e-002
3.291893e+003, 1.643662e-002
3.293821e+003, 1.653875e-002
3.295750e+003, 1.560091e-002
3.297678e+003, 1.470874e-002
3.299606e+003, 1.600786e-002
3.301535e+003, 1.650750e-002
3.303463e+003, 1.737265e-002
3.305392e+003, 1.784026e-002
3.307320e+003, 1.783359e-002
3.309249e+003, 1.703748e-002
3.311177e+003, 1.540519e-002
3.313106e+003, 1.523967e-002
3.315034e+003, 1.570425e-002
3.316963e+003, 1.555516e-002
3.318891e+003, 1.513523e-002
3.320820e+003, 1.512848e-002
3.322748e+003, 1.541556e-002
3.324677e+003, 1.570466e-002
3.326605e+003, 1.550893e-002
3.328533e+003, 1.594195e-002
3.330462e+003, 1.471292e-002
3.332390e+003, 1.416597e-002
3.334319e+003, 1.592863e-002
3.336247e+003, 1.636349e-002
3.338176e+003, 1.644235e-002
3.340104e+003, 1.656613e-002
3.342033e+003, 1.664277e-002
3.343961e+003, 1.729776e-002
3.345890e+003, 1.755780e-002
3.347818e+003, 1.662129e-002
3.349747e+003, 1.622343e-002
3.351675e+003, 1.634820e-002
3.353604e+003, 1.651021e-002
3.355532e+003, 1.601860e-002
3.357460e+003, 1.661992e-002
3.359389e+003, 1.820397e-002
3.361317e+003, 1.783196e-002
3.363246e+003, 1.731972e-002
3.365174e+003, 1.715165e-002
3.367103e+003, 1.670617e-002
3.369031e+003, 1.702319e-002
3.370960e+003, 1.624783e-002
3.372888e+003, 1.499722e-002
3.374817e+003, 1.578469e-002
3.376745e+003, 1.653019e-002
3.378674e+003, 1.693536e-002
3.380602e+003, 1.697911e-002
3.382531e+003, 1.645943e-002
3.384459e+003, 1.638363e-002
3.386387e+003, 1.595099e-002
3.388316e+003, 1.606856e-002
3.390244e+003, 1.691057e-002
3.392173e+003, 1.646639e-002
3.394101e+003, 1.578681e-002
3.396030e+003, 1.696957e-002
3.397958e+003, 1.718225e-002
3.399887e+003, 1.641655e-002
3.401815e+003, 1.686382e-002
3.403744e+003, 1.807915e-002
3.405672e+003, 1.679964e-002
3.407601e+003, 1.786923e-002
3.409529e+003, 1.726053e-002
3.411458e+003, 1.619398e-002
3.413386e+003, 1.658963e-002
3.415314e+003, 1.663081e-002
3.417243e+003, 1.638990e-002
3.419171e+003, 1.650833e-002
3.421100e+003, 1.717396e-002
3.423028e+003, 1.775203e-002
3.424957e+003, 1.730549e-002
3.426885e+003, 1.703323e-002
3.428814e+003, 1.691473e-002
3.430742e+003, 1.586209e-002
3.432671e+003, 1.526572e-002
3.434599e+003, 1.604825e-002
3.436528e+003, 1.696499e-002
3.438456e+003, 1.813705e-002
3.440385e+003, 1.837529e-002
3.442313e+003, 1.781333e-002
3.444241e+003, 1.797711e-002
3.446170e+003, 1.734736e-002
3.448098e+003, 1.681814e-002
3.450027e+003, 1.679149e-002
3.451955e+003, 1.678080e-002
3.453884e+003, 1.750243e-002
3.455812e+003, 1.686350e-002
3.457741e+003, 1.744583e-002
3.459669e+003, 1.815901e-002
3.461598e+003, 1.749545e-002
3.463526e+003, 1.637416e-002
3.465455e+003, 1.618906e-002
3.467383e+003, 1.682608e-002
3.469312e+003, 1.737469e-002
3.471240e+003, 1.754118e-002
3.473168e+003, 1.782198e-002
3.475097e+003, 1.657213e-002
3.477025e+003, 1.670902e-002
3.478954e+003, 1.607671e-002
3.480882e+003, 1.512717e-002
3.482811e+003, 1.614417e-002
3.484739e+003, 1.741687e-002
3.486668e+003, 1.696057e-002
3.488596e+003, 1.746587e-002
3.490525e+003, 1.856558e-002
3.492453e+003, 1.933608e-002
3.494382e+003, 1.812400e-002
3.496310e+003, 1.748903e-002
3.498239e+003, 1.635802e-002
3.500167e+003, 1.589794e-002
3.502095e+003, 1.577434e-002
3.504024e+003, 1.700193e-002
3.505952e+003, 1.788252e-002
3.507881e+003, 1.812936e-002
3.509809e+003, 1.707245e-002
3.511738e+003, 1.674756e-002
3.513666e+003, 1.638752e-002
3.515595e+003, 1.588247e-002
3.517523e+003, 1.571532e-002
3.519452e+003, 1.597498e-002
3.521380e+003, 1.709934e-002
3.523309e+003, 1.623620e-002
3.525237e+003, 1.610421e-002
3.527166e+003, 1.646522e-002
3.529094e+003, 1.506224e-002
3.531022e+003, 1.546613e-002
3.532951e+003, 1.672485e-002
3.534879e+003, 1.689740e-002
3.536808e+003, 1.699053e-002
3.538736e+003, 1.767705e-002
3.540665e+003, 1.698578e-002
3.542593e+003, 1.574667e-002
3.544522e+003, 1.661525e-002
3.546450e+003, 1.767392e-002
3.548379e+003, 1.834320e-002
3.550307e+003, 1.829864e-002
3.552236e+003, 1.612727e-002
3.554164e+003, 1.564494e-002
3.556093e+003, 1.559631e-002
3.558021e+003, 1.573222e-002
3.559949e+003, 1.561565e-002
3.561878e+003, 1.593867e-002
3.563806e+003, 1.724000e-002
3.565735e+003, 1.610076e-002
3.567663e+003, 1.411250e-002
3.569592e+003, 1.532657e-002
3.571520e+003, 1.671658e-002
3.573449e+003, 1.751703e-002
3.575377e+003, 1.703384e-002
3.577306e+003, 1.724760e-002
3.579234e+003, 1.741575e-002
3.581163e+003, 1.654393e-002
3.583091e+003, 1.621530e-002
3.585020e+003, 1.456297e-002
3.586948e+003, 1.370218e-002
3.588876e+003, 1.466238e-002
3.590805e+003, 1.426532e-002
3.592733e+003, 1.385195e-002
3.594662e+003, 1.641033e-002
3.596590e+003, 1.817016e-002
3.598519e+003, 1.821066e-002
3.600447e+003, 1.718100e-002
3.602376e+003, 1.709832e-002
3.604304e+003, 1.677807e-002
3.606233e+003, 1.774251e-002
3.608161e+003, 1.797279e-002
3.610090e+003, 1.637948e-002
3.612018e+003, 1.655646e-002
3.613947e+003, 1.561946e-002
3.615875e+003, 1.365324e-002
3.617803e+003, 1.350391e-002
3.619732e+003, 1.403186e-002
3.621660e+003, 1.416823e-002
3.623589e+003, 1.417655e-002
3.625517e+003, 1.445982e-002
3.627446e+003, 1.380244e-002
3.629374e+003, 1.535472e-002
3.631303e+003, 1.619836e-002
3.633231e+003, 1.259599e-002
3.635160e+003, 1.326689e-002
3.637088e+003, 1.481240e-002
3.639017e+003, 1.400942e-002
3.640945e+003, 1.438139e-002
3.642874e+003, 1.579098e-002
3.644802e+003, 1.769600e-002
3.646730e+003, 1.776674e-002
3.648659e+003, 1.535881e-002
3.650587e+003, 1.308787e-002
3.652516e+003, 1.322223e-002
3.654444e+003, 1.462987e-002
3.656373e+003, 1.434700e-002
3.658301e+003, 1.480623e-002
3.660230e+003, 1.560096e-002
3.662158e+003, 1.538735e-002
3.664087e+003, 1.508566e-002
3.666015e+003, 1.588873e-002
3.667944e+003, 1.457425e-002
3.669872e+003, 1.487438e-002
3.671801e+003, 1.499445e-002
3.673729e+003, 1.440744e-002
3.675657e+003, 1.390392e-002
3.677586e+003, 1.689458e-002
3.679514e+003, 1.794299e-002
3.681443e+003, 1.827083e-002
3.683371e+003, 1.776887e-002
3.685300e+003, 1.766325e-002
3.687228e+003, 1.548230e-002
3.689157e+003, 1.263531e-002
3.691085e+003, 1.394708e-002
3.693014e+003, 1.519886e-002
3.694942e+003, 1.458837e-002
3.696871e+003, 1.339434e-002
3.698799e+003, 1.481758e-002
3.700728e+003, 1.707635e-002
3.702656e+003, 1.722821e-002
3.704584e+003, 1.675104e-002
3.706513e+003, 1.590325e-002
3.708441e+003, 1.573148e-002
3.710370e+003, 1.508572e-002
3.712298e+003, 1.392418e-002
3.714227e+003, 1.378146e-002
3.716155e+003, 1.471942e-002
3.718084e+003, 1.372680e-002
3.720012e+003, 1.368993e-002
3.721941e+003, 1.523748e-002
3.723869e+003, 1.588758e-002
3.725798e+003, 1.635021e-002
3.727726e+003, 1.528113e-002
3.729655e+003, 1.422592e-002
3.731583e+003, 1.508450e-002
3.733511e+003, 1.537895e-002
3.735440e+003, 1.321647e-002
3.737368e+003, 1.421887e-002
3.739297e+003, 1.764357e-002
3.741225e+003, 1.759791e-002
3.743154e+003, 1.596438e-002
3.745082e+003, 1.237735e-002
3.747011e+003, 1.561935e-002
3.748939e+003, 1.497150e-002
3.750868e+003, 1.163396e-002
3.752796e+003, 1.250758e-002
3.754725e+003, 1.561485e-002
3.756653e+003, 1.378374e-002
3.758582e+003, 1.538559e-002
3.760510e+003, 1.720669e-002
3.762438e+003, 1.761536e-002
3.764367e+003, 1.602636e-002
3.766295e+003, 1.532293e-002
3.768224e+003, 1.402605e-002
3.770152e+003, 1.192305e-002
3.772081e+003, 1.301769e-002
3.774009e+003, 1.462576e-002
3.775938e+003, 1.547557e-002
3.777866e+003, 1.504965e-002
3.779795e+003, 1.369820e-002
3.781723e+003, 1.707759e-002
3.783652e+003, 1.795993e-002
3.785580e+003, 1.652558e-002
3.787509e+003, 1.539214e-002
3.789437e+003, 1.474253e-002
3.791365e+003, 1.546748e-002
3.793294e+003, 1.652576e-002
3.795222e+003, 1.699963e-002
3.797151e+003, 1.687585e-002
3.799079e+003, 1.705261e-002
3.801008e+003, 1.735957e-002
3.802936e+003, 1.571967e-002
3.804865e+003, 1.498282e-002
3.806793e+003, 1.466719e-002
3.808722e+003, 1.738412e-002
3.810650e+003, 1.916368e-002
3.812579e+003, 1.857702e-002
3.814507e+003, 1.758520e-002
3.816436e+003, 1.725256e-002
3.818364e+003, 1.905548e-002
3.820292e+003, 1.819753e-002
3.822221e+003, 1.797030e-002
3.824149e+003, 2.040392e-002
3.826078e+003, 1.896196e-002
3.828006e+003, 1.646414e-002
3.829935e+003, 1.464021e-002
3.831863e+003, 1.467730e-002
3.833792e+003, 1.682353e-002
3.835720e+003, 1.651642e-002
3.837649e+003, 1.723769e-002
3.839577e+003, 1.957452e-002
3.841506e+003, 1.995048e-002
3.843434e+003, 1.776731e-002
3.845363e+003, 1.612089e-002
3.847291e+003, 1.789903e-002
3.849219e+003, 1.916450e-002
3.851148e+003, 1.735478e-002
3.853076e+003, 1.494317e-002
3.855005e+003, 1.615831e-002
3.856933e+003, 1.700178e-002
3.858862e+003, 1.501756e-002
3.860790e+003, 1.407645e-002
3.862719e+003, 1.499720e-002
3.864647e+003, 1.491929e-002
3.866576e+003, 1.526812e-002
3.868504e+003, 1.848534e-002
3.870433e+003, 1.818776e-002
3.872361e+003, 1.672550e-002
3.874290e+003, 1.463745e-002
3.876218e+003, 1.564875e-002
3.878146e+003, 1.779222e-002
3.880075e+003, 1.641349e-002
3.882003e+003, 1.676467e-002
3.883932e+003, 1.736108e-002
3.885860e+003, 1.716596e-002
3.887789e+003, 1.776095e-002
3.889717e+003, 1.738899e-002
3.891646e+003, 1.830386e-002
3.893574e+003, 1.816944e-002
3.895503e+003, 1.629523e-002
3.897431e+003, 1.538894e-002
3.899360e+003, 1.554444e-002
3.901288e+003, 1.852143e-002
3.903217e+003, 1.924736e-002
3.905145e+003, 1.902331e-002
3.907073e+003, 1.733597e-002
3.909002e+003, 1.600409e-002
3.910930e+003, 1.818967e-002
3.912859e+003, 1.748278e-002
3.914787e+003, 1.380751e-002
3.916716e+003, 1.428691e-002
3.918644e+003, 1.427533e-002
3.920573e+003, 1.485133e-002
3.922501e+003, 1.560702e-002
3.924430e+003, 1.608243e-002
3.926358e+003, 1.571463e-002
3.928287e+003, 1.507884e-002
3.930215e+003, 1.450647e-002
3.932144e+003, 1.427789e-002
3.934072e+003, 1.693057e-002
3.936000e+003, 1.553370e-002
3.937929e+003, 1.223331e-002
3.939857e+003, 1.368813e-002
3.941786e+003, 1.624386e-002
3.943714e+003, 1.902202e-002
3.945643e+003, 1.965501e-002
3.947571e+003, 1.832205e-002
3.949500e+003, 1.624029e-002
3.951428e+003, 1.533251e-002
3.953357e+003, 1.480506e-002
3.955285e+003, 1.400805e-002
3.957214e+003, 1.386058e-002
3.959142e+003, 1.419567e-002
3.961071e+003, 1.618371e-002
3.962999e+003, 1.698471e-002
3.964927e+003, 1.580865e-002
3.966856e+003, 1.466101e-002
3.968784e+003, 1.686568e-002
3.970713e+003, 1.845843e-002
3.972641e+003, 1.828806e-002
3.974570e+003, 1.880639e-002
3.976498e+003, 1.701954e-002
3.978427e+003, 1.615318e-002
3.980355e+003, 1.715597e-002
3.982284e+003, 1.850730e-002
3.984212e+003, 1.915264e-002
3.986141e+003, 1.906560e-002
3.988069e+003, 1.807334e-002
3.989998e+003, 1.823830e-002
3.991926e+003, 1.899428e-002
3.993854e+003, 1.878058e-002
3.995783e+003, 1.599601e-002
3.997711e+003, 1.413081e-002
3.999640e+003, 1.414082e-002
##END=



