##NAMES=Melanovanadite
##RRUFFID=R050555
##IDEAL CHEMISTRY=CaV^4+^_2_V^5+^_2_O_10_&#183;5H_2_O
##LOCALITY=Ragra mine, Cerro de Pasco Province, Pasco Department, Peru
##OWNER=RRUFF
##SOURCE=Dave Bunk Minerals
##DESCRIPTION=Radiating aggregates of black prismatic crystals
##STATUS=The identification of this mineral has been confirmed by X-ray diffraction and chemical analysis
##URL=rruff.info/R050555
##MEASURED CHEMISTRY=(Ca_0.87_[box]_0.13_)_Σ=1_(V^5+^_2.26_V^4+^_1.74_)_Σ=4_O_10_·5H_2_O
399.1926, 0.3048900
401.1211, 0.2775963
403.0496, 0.2789308
404.9780, 0.2764801
406.9065, 0.2876701
408.8350, 0.3088013
410.7634, 0.3155227
412.6919, 0.3026414
414.6204, 0.3025970
416.5488, 0.3079946
418.4773, 0.3095256
420.4058, 0.3091078
422.3342, 0.3062071
424.2627, 0.3082027
426.1912, 0.3143330
428.1196, 0.3229980
430.0481, 0.3272010
431.9766, 0.3318628
433.9050, 0.3355783
435.8335, 0.3390265
437.7620, 0.3429177
439.6904, 0.3405972
441.6189, 0.3393134
443.5474, 0.3371980
445.4758, 0.3369550
447.4043, 0.3429908
449.3328, 0.3445304
451.2612, 0.3415811
453.1897, 0.3408398
455.1182, 0.3419589
457.0466, 0.3443377
458.9751, 0.3454007
460.9036, 0.3471484
462.8320, 0.3477534
464.7605, 0.3485932
466.6890, 0.3489441
468.6174, 0.3489968
470.5459, 0.3502926
472.4744, 0.3518001
474.4028, 0.3515376
476.3313, 0.3528916
478.2598, 0.3552146
480.1882, 0.3543423
482.1167, 0.3538217
484.0452, 0.3562200
485.9736, 0.3593556
487.9021, 0.3629795
489.8306, 0.3612299
491.7590, 0.3591199
493.6875, 0.3603373
495.6160, 0.3637158
497.5444, 0.3655330
499.4729, 0.3650756
501.4014, 0.3664057
503.3298, 0.3648750
505.2583, 0.3623427
507.1868, 0.3643109
509.1152, 0.3666083
511.0437, 0.3668351
512.9722, 0.3654220
514.9006, 0.3642421
516.8291, 0.3640331
518.7576, 0.3651027
520.6860, 0.3655555
522.6145, 0.3652858
524.5430, 0.3654032
526.4714, 0.3622833
528.3999, 0.3592695
530.3284, 0.3590666
532.2568, 0.3563333
534.1853, 0.3548281
536.1138, 0.3539786
538.0422, 0.3511003
539.9707, 0.3489844
541.8992, 0.3476251
543.8276, 0.3460037
545.7561, 0.3463865
547.6846, 0.3446016
549.6130, 0.3381866
551.5415, 0.3342815
553.4700, 0.3309609
555.3984, 0.3275415
557.3269, 0.3241177
559.2554, 0.3190622
561.1838, 0.3155296
563.1123, 0.3104887
565.0408, 0.3057631
566.9692, 0.3018932
568.8977, 0.2986237
570.8262, 0.2959933
572.7546, 0.2926920
574.6831, 0.2890860
576.6116, 0.2858737
578.5400, 0.2841544
580.4685, 0.2826127
582.3970, 0.2795833
584.3254, 0.2763624
586.2539, 0.2745616
588.1824, 0.2739959
590.1108, 0.2744802
592.0393, 0.2729516
593.9678, 0.2710156
595.8962, 0.2710831
597.8247, 0.2705141
599.7532, 0.2695839
601.6816, 0.2689654
603.6101, 0.2675150
605.5386, 0.2671480
607.4670, 0.2680113
609.3955, 0.2680869
611.3240, 0.2681720
613.2524, 0.2681347
615.1809, 0.2669665
617.1094, 0.2659175
619.0378, 0.2646142
620.9663, 0.2626033
622.8948, 0.2600465
624.8232, 0.2577094
626.7517, 0.2554132
628.6802, 0.2542474
630.6086, 0.2541155
632.5371, 0.2531533
634.4656, 0.2519427
636.3940, 0.2508925
638.3225, 0.2502854
640.2510, 0.2496109
642.1794, 0.2487486
644.1079, 0.2461527
646.0364, 0.2427641
647.9648, 0.2400281
649.8933, 0.2374010
651.8218, 0.2345451
653.7502, 0.2318193
655.6787, 0.2288374
657.6072, 0.2263112
659.5356, 0.2245311
661.4641, 0.2224339
663.3926, 0.2200076
665.3210, 0.2179461
667.2495, 0.2160624
669.1780, 0.2146891
671.1064, 0.2129949
673.0349, 0.2111649
674.9634, 0.2094078
676.8918, 0.2079832
678.8203, 0.2067326
680.7488, 0.2057237
682.6772, 0.2046652
684.6057, 0.2037279
686.5342, 0.2029148
688.4626, 0.2028657
690.3911, 0.2029769
692.3196, 0.2024200
694.2480, 0.2018133
696.1765, 0.2018661
698.1050, 0.2022118
700.0334, 0.2027350
701.9619, 0.2031844
703.8904, 0.2039650
705.8188, 0.2051414
707.7473, 0.2066492
709.6758, 0.2075441
711.6042, 0.2087580
713.5327, 0.2102721
715.4612, 0.2113359
717.3896, 0.2129436
719.3181, 0.2147326
721.2466, 0.2167597
723.1750, 0.2189397
725.1035, 0.2208710
727.0320, 0.2221794
728.9604, 0.2236277
730.8889, 0.2244728
732.8174, 0.2245943
734.7458, 0.2248611
736.6743, 0.2250282
738.6028, 0.2245144
740.5313, 0.2234294
742.4597, 0.2227009
744.3882, 0.2216678
746.3167, 0.2200110
748.2451, 0.2176010
750.1736, 0.2153816
752.1021, 0.2137441
754.0305, 0.2115610
755.9590, 0.2088177
757.8875, 0.2060223
759.8159, 0.2037271
761.7444, 0.2013396
763.6729, 0.1984999
765.6013, 0.1963720
767.5298, 0.1948742
769.4583, 0.1931740
771.3867, 0.1915287
773.3152, 0.1901700
775.2437, 0.1892332
777.1721, 0.1886055
779.1006, 0.1878864
781.0291, 0.1879224
782.9575, 0.1884018
784.8860, 0.1893069
786.8145, 0.1902897
788.7429, 0.1917126
790.6714, 0.1935452
792.5999, 0.1957220
794.5283, 0.1987604
796.4568, 0.2020598
798.3853, 0.2061041
800.3137, 0.2114682
802.2422, 0.2168325
804.1707, 0.2217601
806.0991, 0.2274367
808.0276, 0.2331869
809.9561, 0.2384022
811.8845, 0.2431581
813.8130, 0.2470206
815.7415, 0.2490819
817.6699, 0.2497792
819.5984, 0.2495573
821.5269, 0.2486962
823.4553, 0.2468244
825.3838, 0.2431960
827.3123, 0.2380138
829.2407, 0.2321689
831.1692, 0.2258194
833.0977, 0.2195660
835.0261, 0.2127281
836.9546, 0.2049647
838.8831, 0.1972268
840.8115, 0.1897880
842.7400, 0.1825214
844.6685, 0.1763812
846.5969, 0.1711776
848.5254, 0.1662215
850.4539, 0.1612401
852.3823, 0.1565953
854.3108, 0.1526228
856.2393, 0.1488482
858.1677, 0.1453487
860.0962, 0.1423654
862.0247, 0.1396330
863.9531, 0.1372737
865.8816, 0.1354056
867.8101, 0.1339928
869.7385, 0.1331141
871.6670, 0.1327917
873.5955, 0.1331884
875.5239, 0.1338113
877.4524, 0.1345327
879.3809, 0.1356484
881.3093, 0.1369731
883.2378, 0.1381367
885.1663, 0.1401127
887.0947, 0.1425295
889.0232, 0.1446289
890.9517, 0.1468458
892.8801, 0.1494959
894.8085, 0.1523987
896.7370, 0.1555911
898.6655, 0.1587557
900.5939, 0.1623058
902.5224, 0.1664935
904.4509, 0.1704965
906.3793, 0.1745986
908.3078, 0.1793397
910.2363, 0.1843639
912.1647, 0.1898639
914.0932, 0.1960804
916.0217, 0.2024720
917.9501, 0.2094247
919.8786, 0.2164879
921.8071, 0.2237503
923.7355, 0.2312730
925.6640, 0.2387233
927.5925, 0.2459819
929.5209, 0.2532851
931.4494, 0.2598580
933.3779, 0.2654963
935.3063, 0.2705119
937.2348, 0.2742502
939.1633, 0.2762109
941.0917, 0.2776062
943.0202, 0.2781005
944.9487, 0.2778555
946.8771, 0.2776572
948.8056, 0.2780279
950.7341, 0.2785083
952.6625, 0.2783957
954.5910, 0.2769219
956.5195, 0.2731973
958.4479, 0.2655681
960.3764, 0.2558289
962.3049, 0.2460827
964.2333, 0.2362368
966.1618, 0.2268741
968.0903, 0.2179066
970.0187, 0.2089605
971.9472, 0.2004281
973.8757, 0.1930287
975.8041, 0.1864733
977.7326, 0.1803634
979.6611, 0.1752874
981.5895, 0.1713158
983.5180, 0.1676322
985.4465, 0.1642550
987.3749, 0.1617681
989.3034, 0.1592351
991.2319, 0.1557776
993.1603, 0.1510535
995.0888, 0.1447474
997.0173, 0.1366238
998.9457, 0.1267123
1000.874, 0.1158480
1002.803, 0.1045444
1004.731, 9.2945673E-02
1006.660, 8.1579193E-02
1008.588, 7.0883699E-02
1010.517, 6.1576940E-02
1012.445, 5.4438420E-02
1014.373, 4.9563479E-02
1016.302, 4.6121921E-02
1018.230, 4.3615591E-02
1020.159, 4.1353911E-02
1022.087, 3.9561499E-02
1024.016, 3.8436931E-02
1025.944, 3.7663169E-02
1027.873, 3.7274890E-02
1029.801, 3.7186351E-02
1031.730, 3.6918432E-02
1033.658, 3.6779001E-02
1035.587, 3.6904309E-02
1037.515, 3.7036430E-02
1039.444, 3.7506960E-02
1041.372, 3.7944742E-02
1043.301, 3.8093030E-02
1045.229, 3.8334489E-02
1047.157, 3.8657449E-02
1049.086, 3.8971860E-02
1051.014, 3.9372951E-02
1052.943, 3.9998271E-02
1054.871, 4.0287159E-02
1056.800, 4.0534008E-02
1058.728, 4.0860951E-02
1060.657, 4.1094299E-02
1062.585, 4.1323710E-02
1064.514, 4.1430160E-02
1066.442, 4.1660681E-02
1068.371, 4.2096779E-02
1070.299, 4.2380828E-02
1072.228, 4.2483769E-02
1074.156, 4.2895250E-02
1076.084, 4.3342531E-02
1078.013, 4.3815020E-02
1079.941, 4.4224050E-02
1081.870, 4.4491939E-02
1083.798, 4.5157582E-02
1085.727, 4.5643181E-02
1087.655, 4.5854811E-02
1089.584, 4.6236359E-02
1091.512, 4.6622530E-02
1093.441, 4.6834990E-02
1095.369, 4.7201321E-02
1097.298, 4.7417819E-02
1099.226, 4.7815189E-02
1101.155, 4.7976840E-02
1103.083, 4.7839232E-02
1105.011, 4.7967549E-02
1106.940, 4.8221000E-02
1108.868, 4.8370369E-02
1110.797, 4.8568320E-02
1112.725, 4.8946589E-02
1114.654, 4.9039800E-02
1116.582, 4.8996150E-02
1118.511, 4.8994470E-02
1120.439, 4.9445529E-02
1122.368, 4.9781859E-02
1124.296, 4.9747109E-02
1126.225, 4.9894702E-02
1128.153, 5.0119210E-02
1130.082, 5.0502189E-02
1132.010, 5.1176161E-02
1133.938, 5.1210009E-02
1135.867, 5.1158611E-02
1137.795, 5.1468618E-02
1139.724, 5.1887888E-02
1141.652, 5.2038621E-02
1143.581, 5.2231658E-02
1145.509, 5.2289888E-02
1147.438, 5.2447569E-02
1149.366, 5.2780751E-02
1151.295, 5.2849930E-02
1153.223, 5.2946940E-02
1155.152, 5.3115349E-02
1157.080, 5.3483911E-02
1159.009, 5.3805940E-02
1160.937, 5.4061100E-02
1162.865, 5.4311771E-02
1164.794, 5.4456871E-02
1166.722, 5.4696660E-02
1168.651, 5.4777950E-02
1170.579, 5.4789759E-02
1172.508, 5.4931428E-02
1174.436, 5.5140350E-02
1176.365, 5.5386521E-02
1178.293, 5.5631589E-02
1180.222, 5.5936780E-02
1182.150, 5.6077238E-02
1184.079, 5.6061611E-02
1186.007, 5.6339990E-02
1187.936, 5.6467120E-02
1189.864, 5.6591511E-02
1191.792, 5.6889251E-02
1193.721, 5.7336729E-02
1195.649, 5.7715870E-02
1197.578, 5.7973109E-02
1199.506, 5.8223952E-02
1201.435, 5.8218520E-02
1203.363, 5.7901639E-02
1205.292, 5.7927351E-02
1207.220, 5.8237672E-02
1209.149, 5.8693741E-02
1211.077, 5.8889762E-02
1213.006, 5.8818892E-02
1214.934, 5.9139609E-02
1216.863, 5.9259839E-02
1218.791, 5.9354749E-02
1220.719, 5.9694000E-02
1222.648, 6.0147241E-02
1224.576, 6.0480092E-02
1226.505, 6.0799692E-02
1228.433, 6.1132401E-02
1230.362, 6.1283000E-02
1232.290, 6.1087389E-02
1234.219, 6.1152458E-02
1236.147, 6.1459240E-02
1238.076, 6.1633360E-02
1240.004, 6.1910570E-02
1241.933, 6.2301271E-02
1243.861, 6.2583826E-02
1245.790, 6.2681600E-02
1247.718, 6.2843584E-02
1249.646, 6.3252702E-02
1251.575, 6.3555703E-02
1253.503, 6.3518263E-02
1255.432, 6.3468598E-02
1257.360, 6.3703723E-02
1259.289, 6.3958153E-02
1261.217, 6.4187117E-02
1263.146, 6.4335287E-02
1265.074, 6.4733349E-02
1267.003, 6.5326862E-02
1268.931, 6.5739483E-02
1270.860, 6.6019639E-02
1272.788, 6.6233203E-02
1274.717, 6.6605337E-02
1276.645, 6.6787519E-02
1278.573, 6.6631503E-02
1280.502, 6.6933192E-02
1282.430, 6.7578711E-02
1284.359, 6.7934752E-02
1286.287, 6.7817003E-02
1288.216, 6.7725353E-02
1290.144, 6.8077199E-02
1292.073, 6.8370707E-02
1294.001, 6.8705417E-02
1295.930, 6.8895496E-02
1297.858, 6.8896547E-02
1299.787, 6.8985023E-02
1301.715, 6.9197327E-02
1303.644, 6.9427080E-02
1305.572, 6.9855168E-02
1307.500, 7.0234463E-02
1309.429, 7.0637427E-02
1311.357, 7.1008667E-02
1313.286, 7.1217552E-02
1315.214, 7.1472593E-02
1317.143, 7.2046369E-02
1319.071, 7.2463296E-02
1321.000, 7.2614990E-02
1322.928, 7.2779544E-02
1324.857, 7.2919972E-02
1326.785, 7.3093534E-02
1328.714, 7.3215581E-02
1330.642, 7.3610120E-02
1332.571, 7.4082620E-02
1334.499, 7.4138373E-02
1336.427, 7.3818617E-02
1338.356, 7.3729172E-02
1340.284, 7.4134402E-02
1342.213, 7.4637517E-02
1344.141, 7.4983239E-02
1346.070, 7.5146049E-02
1347.998, 7.5453863E-02
1349.927, 7.5779833E-02
1351.855, 7.6249033E-02
1353.784, 7.6762162E-02
1355.712, 7.7148020E-02
1357.641, 7.7628300E-02
1359.569, 7.7884160E-02
1361.498, 7.8321271E-02
1363.426, 7.8616053E-02
1365.354, 7.8687713E-02
1367.283, 7.8578979E-02
1369.211, 7.8855447E-02
1371.140, 7.9031989E-02
1373.068, 7.9131663E-02
1374.997, 7.9562306E-02
1376.925, 7.9994448E-02
1378.854, 8.0021434E-02
1380.782, 8.0143638E-02
1382.711, 8.0425113E-02
1384.639, 8.0518067E-02
1386.568, 8.0737107E-02
1388.496, 8.1200711E-02
1390.424, 8.1397451E-02
1392.353, 8.1454024E-02
1394.281, 8.1876062E-02
1396.210, 8.2387216E-02
1398.138, 8.3036803E-02
1400.067, 8.3455428E-02
1401.995, 8.3711296E-02
1403.924, 8.3917893E-02
1405.852, 8.4421098E-02
1407.781, 8.5311837E-02
1409.709, 8.5879982E-02
1411.638, 8.6112969E-02
1413.566, 8.6160757E-02
1415.495, 8.6059183E-02
1417.423, 8.6182259E-02
1419.351, 8.6674623E-02
1421.280, 8.6928502E-02
1423.208, 8.6714678E-02
1425.137, 8.6641617E-02
1427.065, 8.6778052E-02
1428.994, 8.6775303E-02
1430.922, 8.6826801E-02
1432.851, 8.6750790E-02
1434.779, 8.6738713E-02
1436.708, 8.6900547E-02
1438.636, 8.7050669E-02
1440.565, 8.7236598E-02
1442.493, 8.7527588E-02
1444.422, 8.7655067E-02
1446.350, 8.8008016E-02
1448.278, 8.8279173E-02
1450.207, 8.8215992E-02
1452.135, 8.8555239E-02
1454.064, 8.8549547E-02
1455.992, 8.8630639E-02
1457.921, 8.8879310E-02
1459.849, 8.9233808E-02
1461.778, 8.9191183E-02
1463.706, 8.8902429E-02
1465.635, 8.9038730E-02
1467.563, 8.9003444E-02
1469.492, 8.8829666E-02
1471.420, 8.8841468E-02
1473.349, 8.9116231E-02
1475.277, 8.9077212E-02
1477.205, 8.9053668E-02
1479.134, 8.9443423E-02
1481.062, 8.9858033E-02
1482.991, 9.0055719E-02
1484.919, 9.0178832E-02
1486.848, 9.0447024E-02
1488.776, 9.0983696E-02
1490.705, 9.1443583E-02
1492.633, 9.1637976E-02
1494.562, 9.1932528E-02
1496.490, 9.2476167E-02
1498.419, 9.2817761E-02
1500.347, 9.3367822E-02
1502.276, 9.3968637E-02
1504.204, 9.4091170E-02
1506.132, 9.4486617E-02
1508.061, 9.5096491E-02
1509.989, 9.5523737E-02
1511.918, 9.6110322E-02
1513.846, 9.6552230E-02
1515.775, 9.7049236E-02
1517.703, 9.7751468E-02
1519.632, 9.8322481E-02
1521.560, 9.8942347E-02
1523.489, 9.9669777E-02
1525.417, 0.1003783
1527.346, 0.1010488
1529.274, 0.1015821
1531.203, 0.1023331
1533.131, 0.1033676
1535.059, 0.1041865
1536.988, 0.1051122
1538.916, 0.1058535
1540.845, 0.1069589
1542.773, 0.1080386
1544.702, 0.1090443
1546.630, 0.1099859
1548.559, 0.1110091
1550.487, 0.1121907
1552.416, 0.1134013
1554.344, 0.1146119
1556.273, 0.1154589
1558.201, 0.1161834
1560.130, 0.1173609
1562.058, 0.1187062
1563.986, 0.1199668
1565.915, 0.1215153
1567.843, 0.1232619
1569.772, 0.1250820
1571.700, 0.1272526
1573.629, 0.1295806
1575.557, 0.1317838
1577.486, 0.1338028
1579.414, 0.1364615
1581.343, 0.1394154
1583.271, 0.1420148
1585.200, 0.1445490
1587.128, 0.1475825
1589.057, 0.1513066
1590.985, 0.1554151
1592.913, 0.1595448
1594.842, 0.1642832
1596.770, 0.1697602
1598.699, 0.1757526
1600.627, 0.1823121
1602.556, 0.1893601
1604.484, 0.1963691
1606.413, 0.2032179
1608.341, 0.2100672
1610.270, 0.2159993
1612.198, 0.2215333
1614.127, 0.2263772
1616.055, 0.2298462
1617.984, 0.2317619
1619.912, 0.2324614
1621.840, 0.2316498
1623.769, 0.2288938
1625.697, 0.2249448
1627.626, 0.2208835
1629.554, 0.2163928
1631.483, 0.2116867
1633.411, 0.2070931
1635.340, 0.2027268
1637.268, 0.1985976
1639.197, 0.1948233
1641.125, 0.1912917
1643.054, 0.1876542
1644.982, 0.1836950
1646.911, 0.1796034
1648.839, 0.1751042
1650.767, 0.1693971
1652.696, 0.1627683
1654.624, 0.1564644
1656.553, 0.1500940
1658.481, 0.1438427
1660.410, 0.1388214
1662.338, 0.1340157
1664.267, 0.1292786
1666.195, 0.1250412
1668.124, 0.1214491
1670.052, 0.1181382
1671.981, 0.1147514
1673.909, 0.1113924
1675.838, 0.1086743
1677.766, 0.1062289
1679.694, 0.1037822
1681.623, 0.1018349
1683.551, 0.1001699
1685.480, 9.8417670E-02
1687.408, 9.7063102E-02
1689.337, 9.6342437E-02
1691.265, 9.5201463E-02
1693.194, 9.3917951E-02
1695.122, 9.2897542E-02
1697.051, 9.2220388E-02
1698.979, 9.2010044E-02
1700.908, 9.1839567E-02
1702.836, 9.1156960E-02
1704.765, 9.0889253E-02
1706.693, 9.0715326E-02
1708.621, 9.0337798E-02
1710.550, 9.0179458E-02
1712.478, 8.9994937E-02
1714.407, 8.9352883E-02
1716.335, 8.9016028E-02
1718.264, 8.9019828E-02
1720.192, 8.8869259E-02
1722.121, 8.8503473E-02
1724.049, 8.8652030E-02
1725.978, 8.9105673E-02
1727.906, 8.8866457E-02
1729.835, 8.8597126E-02
1731.763, 8.8919707E-02
1733.692, 8.8909850E-02
1735.620, 8.8709816E-02
1737.548, 8.8555522E-02
1739.477, 8.8748261E-02
1741.405, 8.8674523E-02
1743.334, 8.8574961E-02
1745.262, 8.8275671E-02
1747.191, 8.8312604E-02
1749.119, 8.8703707E-02
1751.048, 8.9125909E-02
1752.976, 8.9187302E-02
1754.905, 8.9506857E-02
1756.833, 8.9739829E-02
1758.762, 8.9777522E-02
1760.690, 9.0145618E-02
1762.619, 9.0657517E-02
1764.547, 9.0635277E-02
1766.475, 9.0375178E-02
1768.404, 9.0734787E-02
1770.332, 9.1077574E-02
1772.261, 9.1253936E-02
1774.189, 9.1613851E-02
1776.118, 9.1952212E-02
1778.046, 9.2361540E-02
1779.975, 9.2955031E-02
1781.903, 9.2487767E-02
1783.832, 9.2785120E-02
1785.760, 9.3376823E-02
1787.689, 9.3204036E-02
1789.617, 9.3552537E-02
1791.546, 9.4297647E-02
1793.474, 9.4660223E-02
1795.402, 9.5021077E-02
1797.331, 9.5195793E-02
1799.259, 9.5512271E-02
1801.188, 9.5747843E-02
1803.116, 9.5658891E-02
1805.045, 9.5419914E-02
1806.973, 9.5524363E-02
1808.902, 9.5575467E-02
1810.830, 9.6176811E-02
1812.759, 9.6395440E-02
1814.687, 9.6556157E-02
1816.616, 9.6815951E-02
1818.544, 9.7217917E-02
1820.473, 9.7538739E-02
1822.401, 9.7687833E-02
1824.329, 9.7854063E-02
1826.258, 9.8531798E-02
1828.186, 9.9302448E-02
1830.115, 9.9551797E-02
1832.043, 9.9649131E-02
1833.972, 9.9932291E-02
1835.900, 0.1003860
1837.829, 0.1003744
1839.757, 0.1008247
1841.686, 0.1011752
1843.614, 0.1010906
1845.543, 0.1014265
1847.471, 0.1018877
1849.400, 0.1020415
1851.328, 0.1015566
1853.256, 0.1019948
1855.185, 0.1027464
1857.113, 0.1033625
1859.042, 0.1038811
1860.970, 0.1036914
1862.899, 0.1039137
1864.827, 0.1050427
1866.756, 0.1059908
1868.684, 0.1057666
1870.613, 0.1052115
1872.541, 0.1056688
1874.470, 0.1060905
1876.398, 0.1066815
1878.327, 0.1071722
1880.255, 0.1071996
1882.183, 0.1076705
1884.112, 0.1082074
1886.040, 0.1080130
1887.969, 0.1085309
1889.897, 0.1089124
1891.826, 0.1095846
1893.754, 0.1100326
1895.683, 0.1096224
1897.611, 0.1094064
1899.540, 0.1097930
1901.468, 0.1103442
1903.397, 0.1115103
1905.325, 0.1109813
1907.254, 0.1092653
1909.182, 0.1096331
1911.110, 0.1107329
1913.039, 0.1116212
1914.967, 0.1117067
1916.896, 0.1114718
1918.824, 0.1122351
1920.753, 0.1122591
1922.681, 0.1122029
1924.610, 0.1127229
1926.538, 0.1135078
1928.467, 0.1156655
1930.395, 0.1162517
1932.324, 0.1141958
1934.252, 0.1134804
1936.181, 0.1147150
1938.109, 0.1153228
1940.037, 0.1147053
1941.966, 0.1150465
1943.894, 0.1158572
1945.823, 0.1154509
1947.751, 0.1149431
1949.680, 0.1154134
1951.608, 0.1160952
1953.537, 0.1175138
1955.465, 0.1177150
1957.394, 0.1161444
1959.322, 0.1164769
1961.251, 0.1183173
1963.179, 0.1173628
1965.108, 0.1154964
1967.036, 0.1169089
1968.964, 0.1159972
1970.893, 0.1135140
1972.821, 0.1140173
1974.750, 0.1145941
1976.678, 0.1173951
1978.607, 0.1171777
1980.535, 0.1189130
1982.464, 0.1214841
1984.392, 0.1211139
1986.321, 0.1211491
1988.249, 0.1234523
1990.178, 0.1233394
1992.106, 0.1221000
1994.035, 0.1230869
1995.963, 0.1237441
1997.891, 0.1239108
1999.820, 0.1232349
2001.748, 0.1214585
2003.677, 0.1197876
2005.605, 0.1219643
2007.534, 0.1262995
2009.462, 0.1280614
2011.391, 0.1309786
2013.319, 0.1293664
2015.248, 0.1285132
2017.176, 0.1293341
2019.105, 0.1288123
2021.033, 0.1277454
2022.962, 0.1298104
2024.890, 0.1290363
2026.818, 0.1301016
2028.747, 0.1319882
2030.675, 0.1310533
2032.604, 0.1300456
2034.532, 0.1345537
2036.461, 0.1371579
2038.389, 0.1362219
2040.318, 0.1377515
2042.246, 0.1380672
2044.175, 0.1375179
2046.103, 0.1368403
2048.032, 0.1369283
2049.960, 0.1391488
2051.889, 0.1388386
2053.817, 0.1382192
2055.746, 0.1384448
2057.674, 0.1393834
2059.603, 0.1397092
2061.531, 0.1398960
2063.459, 0.1408836
2065.388, 0.1404135
2067.316, 0.1409221
2069.245, 0.1423539
2071.173, 0.1416042
2073.102, 0.1416993
2075.030, 0.1440841
2076.959, 0.1449675
2078.887, 0.1440216
2080.816, 0.1442552
2082.744, 0.1442971
2084.673, 0.1449195
2086.601, 0.1455296
2088.530, 0.1465884
2090.458, 0.1459592
2092.386, 0.1451664
2094.315, 0.1452565
2096.243, 0.1469821
2098.172, 0.1477943
2100.100, 0.1477023
2102.029, 0.1491804
2103.957, 0.1497893
2105.886, 0.1498670
2107.814, 0.1501576
2109.743, 0.1502951
2111.671, 0.1507002
2113.600, 0.1514136
2115.528, 0.1504170
2117.457, 0.1501220
2119.385, 0.1500469
2121.313, 0.1498558
2123.242, 0.1514673
2125.170, 0.1519679
2127.099, 0.1517792
2129.027, 0.1518915
2130.956, 0.1506025
2132.884, 0.1498676
2134.813, 0.1515025
2136.741, 0.1530124
2138.670, 0.1528932
2140.598, 0.1532469
2142.527, 0.1528980
2144.455, 0.1523917
2146.384, 0.1510258
2148.312, 0.1509331
2150.240, 0.1518573
2152.169, 0.1502602
2154.097, 0.1511370
2156.026, 0.1510222
2157.954, 0.1520064
2159.883, 0.1582514
2161.811, 0.1600223
2163.740, 0.1610698
2165.668, 0.1603939
2167.597, 0.1575792
2169.525, 0.1582388
2171.454, 0.1580235
2173.382, 0.1582953
2175.311, 0.1603290
2177.239, 0.1600778
2179.167, 0.1593036
2181.096, 0.1590027
2183.024, 0.1595008
2184.953, 0.1607067
2186.881, 0.1607291
2188.810, 0.1592239
2190.738, 0.1603076
2192.667, 0.1639052
2194.595, 0.1646256
2196.524, 0.1615813
2198.452, 0.1604459
2200.381, 0.1623837
2202.309, 0.1640622
2204.238, 0.1648676
2206.166, 0.1635729
2208.094, 0.1611688
2210.023, 0.1598009
2211.951, 0.1594484
2213.880, 0.1608032
2215.808, 0.1616000
2217.737, 0.1614944
2219.665, 0.1626223
2221.594, 0.1656889
2223.522, 0.1680637
2225.451, 0.1671760
2227.379, 0.1656336
2229.308, 0.1655741
2231.236, 0.1650506
2233.165, 0.1652869
2235.093, 0.1648041
2237.021, 0.1657596
2238.950, 0.1672430
2240.878, 0.1661852
2242.807, 0.1652431
2244.735, 0.1656908
2246.664, 0.1665579
2248.592, 0.1659755
2250.521, 0.1668075
2252.449, 0.1681443
2254.378, 0.1688067
2256.306, 0.1678840
2258.235, 0.1680146
2260.163, 0.1685476
2262.092, 0.1694839
2264.020, 0.1704379
2265.948, 0.1700169
2267.877, 0.1699549
2269.805, 0.1717342
2271.734, 0.1711918
2273.662, 0.1711079
2275.591, 0.1713800
2277.519, 0.1718719
2279.448, 0.1727694
2281.376, 0.1727693
2283.305, 0.1722942
2285.233, 0.1717114
2287.162, 0.1710232
2289.090, 0.1709523
2291.019, 0.1714543
2292.947, 0.1716139
2294.875, 0.1724269
2296.804, 0.1729281
2298.732, 0.1739000
2300.661, 0.1738897
2302.589, 0.1735956
2304.518, 0.1740906
2306.446, 0.1742198
2308.375, 0.1744996
2310.303, 0.1738406
2312.232, 0.1747162
2314.160, 0.1752429
2316.089, 0.1750965
2318.017, 0.1750811
2319.946, 0.1755379
2321.874, 0.1757704
2323.802, 0.1761477
2325.731, 0.1766333
2327.659, 0.1764899
2329.588, 0.1754661
2331.516, 0.1751163
2333.445, 0.1754887
2335.373, 0.1757550
2337.302, 0.1763052
2339.230, 0.1767397
2341.159, 0.1763018
2343.087, 0.1760431
2345.016, 0.1765961
2346.944, 0.1777554
2348.873, 0.1785946
2350.801, 0.1781468
2352.729, 0.1776684
2354.658, 0.1780138
2356.586, 0.1789720
2358.515, 0.1791214
2360.443, 0.1787640
2362.372, 0.1793601
2364.300, 0.1799944
2366.229, 0.1798421
2368.157, 0.1797967
2370.086, 0.1806215
2372.014, 0.1814867
2373.942, 0.1822217
2375.871, 0.1832012
2377.799, 0.1835881
2379.728, 0.1829881
2381.656, 0.1827885
2383.585, 0.1824970
2385.513, 0.1825536
2387.442, 0.1838729
2389.370, 0.1848943
2391.299, 0.1856661
2393.227, 0.1862874
2395.156, 0.1864024
2397.084, 0.1862063
2399.012, 0.1854545
2400.941, 0.1861169
2402.869, 0.1870216
2404.798, 0.1875321
2406.726, 0.1874575
2408.655, 0.1876739
2410.583, 0.1893988
2412.512, 0.1894274
2414.440, 0.1889151
2416.369, 0.1898377
2418.297, 0.1896360
2420.226, 0.1894194
2422.154, 0.1897067
2424.083, 0.1898141
2426.011, 0.1901271
2427.939, 0.1913379
2429.868, 0.1920247
2431.796, 0.1915742
2433.725, 0.1934710
2435.653, 0.1949551
2437.582, 0.1941938
2439.510, 0.1934139
2441.439, 0.1947890
2443.367, 0.1963074
2445.296, 0.1970788
2447.224, 0.1969372
2449.153, 0.1966749
2451.081, 0.1962530
2453.010, 0.1962660
2454.938, 0.1969456
2456.866, 0.1975466
2458.795, 0.1984157
2460.723, 0.1991735
2462.652, 0.1985310
2464.580, 0.1992860
2466.509, 0.2007317
2468.437, 0.2012523
2470.366, 0.2018856
2472.294, 0.2018426
2474.223, 0.2010973
2476.151, 0.2015148
2478.080, 0.2026483
2480.008, 0.2033844
2481.937, 0.2037365
2483.865, 0.2035788
2485.793, 0.2033994
2487.722, 0.2037057
2489.650, 0.2043935
2491.579, 0.2047276
2493.507, 0.2054784
2495.436, 0.2051726
2497.364, 0.2060727
2499.293, 0.2080262
2501.221, 0.2084979
2503.150, 0.2089208
2505.078, 0.2092728
2507.007, 0.2094929
2508.935, 0.2097091
2510.864, 0.2090877
2512.792, 0.2097597
2514.720, 0.2094123
2516.649, 0.2085669
2518.577, 0.2087915
2520.506, 0.2107319
2522.434, 0.2113725
2524.363, 0.2118643
2526.291, 0.2138293
2528.220, 0.2146375
2530.148, 0.2144474
2532.077, 0.2143332
2534.005, 0.2151539
2535.934, 0.2157402
2537.862, 0.2160554
2539.791, 0.2166318
2541.719, 0.2169850
2543.647, 0.2175010
2545.576, 0.2180255
2547.504, 0.2175630
2549.433, 0.2183543
2551.361, 0.2204164
2553.290, 0.2203453
2555.218, 0.2201747
2557.147, 0.2206714
2559.075, 0.2217421
2561.004, 0.2232502
2562.932, 0.2228737
2564.861, 0.2222031
2566.789, 0.2236857
2568.718, 0.2251022
2570.646, 0.2255118
2572.574, 0.2261937
2574.503, 0.2259908
2576.431, 0.2259581
2578.360, 0.2256219
2580.288, 0.2266779
2582.217, 0.2285325
2584.145, 0.2290939
2586.074, 0.2303100
2588.002, 0.2305790
2589.931, 0.2307912
2591.859, 0.2310735
2593.788, 0.2303781
2595.716, 0.2299178
2597.645, 0.2308662
2599.573, 0.2319403
2601.501, 0.2324776
2603.430, 0.2325255
2605.358, 0.2328272
2607.287, 0.2339207
2609.215, 0.2351107
2611.144, 0.2364990
2613.072, 0.2376006
2615.001, 0.2378378
2616.929, 0.2380156
2618.858, 0.2374602
2620.786, 0.2378889
2622.715, 0.2387504
2624.643, 0.2385125
2626.572, 0.2389036
2628.500, 0.2397673
2630.428, 0.2410326
2632.357, 0.2415446
2634.285, 0.2414932
2636.214, 0.2415446
2638.142, 0.2418476
2640.071, 0.2433872
2641.999, 0.2449995
2643.928, 0.2453544
2645.856, 0.2454220
2647.785, 0.2458183
2649.713, 0.2467148
2651.642, 0.2476265
2653.570, 0.2482243
2655.499, 0.2490362
2657.427, 0.2492733
2659.355, 0.2486281
2661.284, 0.2483055
2663.212, 0.2484328
2665.141, 0.2490222
2667.069, 0.2507239
2668.998, 0.2522334
2670.926, 0.2527644
2672.855, 0.2524642
2674.783, 0.2523707
2676.712, 0.2525393
2678.640, 0.2528000
2680.569, 0.2530871
2682.497, 0.2537668
2684.426, 0.2550411
2686.354, 0.2561753
2688.282, 0.2570194
2690.211, 0.2576905
2692.139, 0.2589080
2694.068, 0.2592718
2695.996, 0.2589077
2697.925, 0.2591572
2699.853, 0.2601168
2701.782, 0.2609878
2703.710, 0.2611725
2705.639, 0.2621360
2707.567, 0.2632054
2709.496, 0.2634720
2711.424, 0.2645853
2713.353, 0.2654137
2715.281, 0.2656205
2717.209, 0.2667590
2719.138, 0.2676144
2721.066, 0.2686929
2722.995, 0.2701751
2724.923, 0.2705244
2726.852, 0.2706835
2728.780, 0.2716557
2730.709, 0.2719693
2732.637, 0.2721457
2734.566, 0.2736552
2736.494, 0.2747701
2738.423, 0.2749253
2740.351, 0.2747562
2742.280, 0.2745761
2744.208, 0.2754138
2746.136, 0.2772190
2748.065, 0.2782053
2749.993, 0.2779263
2751.922, 0.2786984
2753.850, 0.2791555
2755.779, 0.2797109
2757.707, 0.2819620
2759.636, 0.2841797
2761.564, 0.2840873
2763.493, 0.2833358
2765.421, 0.2828027
2767.350, 0.2842153
2769.278, 0.2864050
2771.207, 0.2872244
2773.135, 0.2876442
2775.063, 0.2867425
2776.992, 0.2870962
2778.920, 0.2895115
2780.849, 0.2911880
2782.777, 0.2912232
2784.706, 0.2911370
2786.634, 0.2922418
2788.563, 0.2938719
2790.491, 0.2953776
2792.420, 0.2953526
2794.348, 0.2950622
2796.277, 0.2966296
2798.205, 0.2986127
2800.134, 0.2991731
2802.062, 0.2990210
2803.990, 0.3001227
2805.919, 0.3018346
2807.847, 0.3020096
2809.776, 0.3023615
2811.704, 0.3033955
2813.633, 0.3044417
2815.561, 0.3054872
2817.490, 0.3066877
2819.418, 0.3083780
2821.347, 0.3099283
2823.275, 0.3109148
2825.204, 0.3109036
2827.132, 0.3114709
2829.061, 0.3127765
2830.989, 0.3126619
2832.917, 0.3139899
2834.846, 0.3146772
2836.774, 0.3153706
2838.703, 0.3164040
2840.631, 0.3171495
2842.560, 0.3190596
2844.488, 0.3208811
2846.417, 0.3224082
2848.345, 0.3228305
2850.274, 0.3240476
2852.202, 0.3253624
2854.131, 0.3255314
2856.059, 0.3270621
2857.988, 0.3287149
2859.916, 0.3271781
2861.844, 0.3267251
2863.773, 0.3279551
2865.701, 0.3289320
2867.630, 0.3293827
2869.558, 0.3316528
2871.487, 0.3317405
2873.415, 0.3316315
2875.344, 0.3343109
2877.272, 0.3365718
2879.201, 0.3377071
2881.129, 0.3384851
2883.058, 0.3385918
2884.986, 0.3400722
2886.915, 0.3415213
2888.843, 0.3425003
2890.771, 0.3443156
2892.700, 0.3456665
2894.628, 0.3459654
2896.557, 0.3461058
2898.485, 0.3467409
2900.414, 0.3489048
2902.342, 0.3500828
2904.271, 0.3497583
2906.199, 0.3525776
2908.128, 0.3555013
2910.056, 0.3563990
2911.985, 0.3570212
2913.913, 0.3582815
2915.842, 0.3598748
2917.770, 0.3596690
2919.698, 0.3614500
2921.627, 0.3637709
2923.555, 0.3646879
2925.484, 0.3646723
2927.412, 0.3656675
2929.341, 0.3667980
2931.269, 0.3671577
2933.198, 0.3684881
2935.126, 0.3708118
2937.055, 0.3707964
2938.983, 0.3701941
2940.912, 0.3717399
2942.840, 0.3724788
2944.769, 0.3735597
2946.697, 0.3759060
2948.625, 0.3763810
2950.554, 0.3759237
2952.482, 0.3757814
2954.411, 0.3778573
2956.339, 0.3807523
2958.268, 0.3818637
2960.196, 0.3826900
2962.125, 0.3825330
2964.053, 0.3839702
2965.982, 0.3848599
2967.910, 0.3852841
2969.839, 0.3869830
2971.767, 0.3893620
2973.696, 0.3905280
2975.624, 0.3913762
2977.552, 0.3935240
2979.481, 0.3954827
2981.409, 0.3951387
2983.338, 0.3948008
2985.266, 0.3969815
2987.195, 0.3977566
2989.123, 0.3985685
2991.052, 0.4012432
2992.980, 0.4040057
2994.909, 0.4060676
2996.837, 0.4082797
2998.766, 0.4084801
3000.694, 0.4080091
3002.623, 0.4095348
3004.551, 0.4122619
3006.479, 0.4136858
3008.408, 0.4138979
3010.336, 0.4146630
3012.265, 0.4155518
3014.193, 0.4156244
3016.122, 0.4169088
3018.050, 0.4192393
3019.979, 0.4212376
3021.907, 0.4225607
3023.836, 0.4238018
3025.764, 0.4249056
3027.693, 0.4267670
3029.621, 0.4289115
3031.550, 0.4291908
3033.478, 0.4302984
3035.406, 0.4317151
3037.335, 0.4331622
3039.263, 0.4345840
3041.192, 0.4374289
3043.120, 0.4402635
3045.049, 0.4425381
3046.977, 0.4434585
3048.906, 0.4440925
3050.834, 0.4444285
3052.763, 0.4439340
3054.691, 0.4468695
3056.620, 0.4487493
3058.548, 0.4509354
3060.477, 0.4542879
3062.405, 0.4540229
3064.333, 0.4525192
3066.262, 0.4531730
3068.190, 0.4560720
3070.119, 0.4593233
3072.047, 0.4622504
3073.976, 0.4644767
3075.904, 0.4655512
3077.833, 0.4647956
3079.761, 0.4643530
3081.690, 0.4666738
3083.618, 0.4693919
3085.547, 0.4717262
3087.475, 0.4722160
3089.404, 0.4738800
3091.332, 0.4765569
3093.260, 0.4774373
3095.189, 0.4792039
3097.117, 0.4801966
3099.046, 0.4813778
3100.974, 0.4831008
3102.903, 0.4839663
3104.831, 0.4859850
3106.760, 0.4886566
3108.688, 0.4908186
3110.617, 0.4916230
3112.545, 0.4916914
3114.474, 0.4930585
3116.402, 0.4951650
3118.331, 0.4960144
3120.259, 0.4966322
3122.188, 0.4987915
3124.116, 0.5017285
3126.044, 0.5039566
3127.973, 0.5056303
3129.901, 0.5076677
3131.830, 0.5082425
3133.758, 0.5086605
3135.687, 0.5119015
3137.615, 0.5141639
3139.544, 0.5168676
3141.472, 0.5184177
3143.401, 0.5185975
3145.329, 0.5183976
3147.258, 0.5197369
3149.186, 0.5214005
3151.115, 0.5247411
3153.043, 0.5271722
3154.971, 0.5290250
3156.900, 0.5301833
3158.828, 0.5311505
3160.757, 0.5326300
3162.685, 0.5344327
3164.614, 0.5351881
3166.542, 0.5392435
3168.471, 0.5411633
3170.399, 0.5404785
3172.328, 0.5414144
3174.256, 0.5446375
3176.185, 0.5463498
3178.113, 0.5467756
3180.042, 0.5481511
3181.970, 0.5494553
3183.898, 0.5508561
3185.827, 0.5509350
3187.755, 0.5533667
3189.684, 0.5562230
3191.612, 0.5579261
3193.541, 0.5594037
3195.469, 0.5587509
3197.398, 0.5578407
3199.326, 0.5579670
3201.255, 0.5592188
3203.183, 0.5623014
3205.112, 0.5647977
3207.040, 0.5632768
3208.969, 0.5642388
3210.897, 0.5639993
3212.825, 0.5663537
3214.754, 0.5694225
3216.682, 0.5687005
3218.611, 0.5692967
3220.539, 0.5692527
3222.468, 0.5675085
3224.396, 0.5676467
3226.325, 0.5702618
3228.253, 0.5733310
3230.182, 0.5734972
3232.110, 0.5745438
3234.039, 0.5764508
3235.967, 0.5753894
3237.896, 0.5753275
3239.824, 0.5748444
3241.752, 0.5765781
3243.681, 0.5782011
3245.609, 0.5781930
3247.538, 0.5789636
3249.466, 0.5806586
3251.395, 0.5814060
3253.323, 0.5818034
3255.252, 0.5824346
3257.180, 0.5803245
3259.109, 0.5803912
3261.037, 0.5832814
3262.966, 0.5843735
3264.894, 0.5831347
3266.823, 0.5822816
3268.751, 0.5856656
3270.679, 0.5885150
3272.608, 0.5886505
3274.536, 0.5879799
3276.465, 0.5889155
3278.393, 0.5915831
3280.322, 0.5932931
3282.250, 0.5954457
3284.179, 0.5972632
3286.107, 0.5971609
3288.036, 0.5966252
3289.964, 0.5978664
3291.893, 0.6009063
3293.821, 0.6046436
3295.750, 0.6053518
3297.678, 0.6046603
3299.606, 0.6049057
3301.535, 0.6038439
3303.463, 0.6058581
3305.392, 0.6104569
3307.320, 0.6109042
3309.249, 0.6106420
3311.177, 0.6125600
3313.106, 0.6154023
3315.034, 0.6169782
3316.963, 0.6177167
3318.891, 0.6186693
3320.820, 0.6210466
3322.748, 0.6210521
3324.677, 0.6208372
3326.605, 0.6224263
3328.533, 0.6222822
3330.462, 0.6219895
3332.390, 0.6258036
3334.319, 0.6301572
3336.247, 0.6304949
3338.176, 0.6295635
3340.104, 0.6304898
3342.033, 0.6314195
3343.961, 0.6320461
3345.890, 0.6343490
3347.818, 0.6338021
3349.747, 0.6308540
3351.675, 0.6303271
3353.604, 0.6322172
3355.532, 0.6336718
3357.460, 0.6359096
3359.389, 0.6384494
3361.317, 0.6390318
3363.246, 0.6371434
3365.174, 0.6350217
3367.103, 0.6338586
3369.031, 0.6327236
3370.960, 0.6315891
3372.888, 0.6299319
3374.817, 0.6276853
3376.745, 0.6262375
3378.674, 0.6264969
3380.602, 0.6260033
3382.531, 0.6263633
3384.459, 0.6268278
3386.387, 0.6269923
3388.316, 0.6252306
3390.244, 0.6239948
3392.173, 0.6246675
3394.101, 0.6216863
3396.030, 0.6177084
3397.958, 0.6169120
3399.887, 0.6171826
3401.815, 0.6195211
3403.744, 0.6220593
3405.672, 0.6203381
3407.601, 0.6200619
3409.529, 0.6172671
3411.458, 0.6145468
3413.386, 0.6161352
3415.314, 0.6148981
3417.243, 0.6107532
3419.171, 0.6100000
3421.100, 0.6140046
3423.028, 0.6138668
3424.957, 0.6119004
3426.885, 0.6126024
3428.814, 0.6134072
3430.742, 0.6114216
3432.671, 0.6107692
3434.599, 0.6092942
3436.528, 0.6080115
3438.456, 0.6095877
3440.385, 0.6097427
3442.313, 0.6077887
3444.241, 0.6077841
3446.170, 0.6067399
3448.098, 0.6060499
3450.027, 0.6051648
3451.955, 0.6057969
3453.884, 0.6048548
3455.812, 0.6005983
3457.741, 0.5998880
3459.669, 0.5987523
3461.598, 0.5973772
3463.526, 0.5978324
3465.455, 0.5979237
3467.383, 0.5982060
3469.312, 0.5977715
3471.240, 0.5947836
3473.168, 0.5910599
3475.097, 0.5898460
3477.025, 0.5887263
3478.954, 0.5874534
3480.882, 0.5872283
3482.811, 0.5846434
3484.739, 0.5839574
3486.668, 0.5822910
3488.596, 0.5821172
3490.525, 0.5792342
3492.453, 0.5768110
3494.382, 0.5784503
3496.310, 0.5766194
3498.239, 0.5740269
3500.167, 0.5740777
3502.095, 0.5693086
3504.024, 0.5679725
3505.952, 0.5688300
3507.881, 0.5661218
3509.809, 0.5637814
3511.738, 0.5621887
3513.666, 0.5608334
3515.595, 0.5601463
3517.523, 0.5594769
3519.452, 0.5586626
3521.380, 0.5575635
3523.309, 0.5519569
3525.237, 0.5491077
3527.166, 0.5493675
3529.094, 0.5459791
3531.022, 0.5439684
3532.951, 0.5452356
3534.879, 0.5424519
3536.808, 0.5383924
3538.736, 0.5387775
3540.665, 0.5373905
3542.593, 0.5315630
3544.522, 0.5294366
3546.450, 0.5275901
3548.379, 0.5228360
3550.307, 0.5188468
3552.236, 0.5154162
3554.164, 0.5111457
3556.093, 0.5065036
3558.021, 0.5048367
3559.949, 0.5011966
3561.878, 0.4959021
3563.806, 0.4946168
3565.735, 0.4939210
3567.663, 0.4898083
3569.592, 0.4832076
3571.520, 0.4772165
3573.449, 0.4714312
3575.377, 0.4677642
3577.306, 0.4666847
3579.234, 0.4640022
3581.163, 0.4620098
3583.091, 0.4590325
3585.020, 0.4532428
3586.948, 0.4467848
3588.876, 0.4419005
3590.805, 0.4371504
3592.733, 0.4305276
3594.662, 0.4256542
3596.590, 0.4259195
3598.519, 0.4214264
3600.447, 0.4124396
3602.376, 0.4103840
3604.304, 0.4057675
3606.233, 0.4011011
3608.161, 0.3983807
3610.090, 0.3956199
3612.018, 0.3923399
3613.947, 0.3894419
3615.875, 0.3846153
3617.803, 0.3802406
3619.732, 0.3778199
3621.660, 0.3760076
3623.589, 0.3741805
3625.517, 0.3696074
3627.446, 0.3672779
3629.374, 0.3663409
3631.303, 0.3639292
3633.231, 0.3628623
3635.160, 0.3625111
3637.088, 0.3590381
3639.017, 0.3551247
3640.945, 0.3533262
3642.874, 0.3554778
3644.802, 0.3579448
3646.730, 0.3572300
3648.659, 0.3574572
3650.587, 0.3548882
3652.516, 0.3564240
3654.444, 0.3566069
3656.373, 0.3566995
3658.301, 0.3582866
3660.230, 0.3562292
3662.158, 0.3540929
3664.087, 0.3533414
3666.015, 0.3525800
3667.944, 0.3517787
3669.872, 0.3508783
3671.801, 0.3493815
3673.729, 0.3526562
3675.657, 0.3607797
3677.586, 0.3617879
3679.514, 0.3606619
3681.443, 0.3605515
3683.371, 0.3616832
3685.300, 0.3638018
3687.228, 0.3616911
3689.157, 0.3592221
3691.085, 0.3589427
3693.014, 0.3600203
3694.942, 0.3605246
3696.871, 0.3627107
3698.799, 0.3624378
3700.728, 0.3631354
3702.656, 0.3654078
3704.584, 0.3661750
3706.513, 0.3652508
3708.441, 0.3679115
3710.370, 0.3696836
3712.298, 0.3691339
3714.227, 0.3711358
3716.155, 0.3718724
3718.084, 0.3739384
3720.012, 0.3779114
3721.941, 0.3771764
3723.869, 0.3769289
3725.798, 0.3742885
3727.726, 0.3740164
3729.655, 0.3788869
3731.583, 0.3781039
3733.511, 0.3764968
3735.440, 0.3771038
3737.368, 0.3776988
3739.297, 0.3791355
3741.225, 0.3809263
3743.154, 0.3830305
3745.082, 0.3828791
3747.011, 0.3818726
3748.939, 0.3803206
3750.868, 0.3821169
3752.796, 0.3830294
3754.725, 0.3841749
3756.653, 0.3875318
3758.582, 0.3872367
3760.510, 0.3864246
3762.438, 0.3863976
3764.367, 0.3863779
3766.295, 0.3894556
3768.224, 0.3927635
3770.152, 0.3916251
3772.081, 0.3909744
3774.009, 0.3949054
3775.938, 0.3941689
3777.866, 0.3916654
3779.795, 0.3928933
3781.723, 0.3956630
3783.652, 0.3984018
3785.580, 0.4018725
3787.509, 0.4014614
3789.437, 0.3974740
3791.365, 0.3935674
3793.294, 0.3940711
3795.222, 0.3971170
3797.151, 0.4014585
3799.079, 0.4011300
3801.008, 0.4024134
3802.936, 0.4031709
3804.865, 0.4008935
3806.793, 0.4011446
3808.722, 0.4021335
3810.650, 0.4031895
3812.579, 0.4006761
3814.507, 0.4015515
3816.436, 0.4049222
3818.364, 0.4059358
3820.292, 0.4051465
3822.221, 0.4057808
3824.149, 0.4076275
3826.078, 0.4082687
3828.006, 0.4081853
3829.935, 0.4112528
3831.863, 0.4093456
3833.792, 0.4083721
3835.720, 0.4138382
3837.649, 0.4124231
3839.577, 0.4098018
3841.506, 0.4097119
3843.434, 0.4124831
3845.363, 0.4125805
3847.291, 0.4133144
3849.219, 0.4183354
3851.148, 0.4212935
3853.076, 0.4173175
3855.005, 0.4166467
3856.933, 0.4168735
3858.862, 0.4153731
3860.790, 0.4182257
3862.719, 0.4209725
3864.647, 0.4212910
3866.576, 0.4230252
3868.504, 0.4246233
3870.433, 0.4256738
3872.361, 0.4244880
3874.290, 0.4258495
3876.218, 0.4274090
3878.146, 0.4254044
3880.075, 0.4224637
3882.003, 0.4227453
3883.932, 0.4211527
3885.860, 0.4232174
3887.789, 0.4263782
3889.717, 0.4255280
3891.646, 0.4250777
3893.574, 0.4264390
3895.503, 0.4276798
3897.431, 0.4320557
3899.360, 0.4344916
3901.288, 0.4296234
3903.217, 0.4255190
3905.145, 0.4292057
3907.073, 0.4322428
3909.002, 0.4284610
3910.930, 0.4288102
3912.859, 0.4323714
3914.787, 0.4338615
3916.716, 0.4346490
3918.644, 0.4348563
3920.573, 0.4357687
3922.501, 0.4348055
3924.430, 0.4321993
3926.358, 0.4346398
3928.287, 0.4359590
3930.215, 0.4353138
3932.144, 0.4372808
3934.072, 0.4369132
3936.000, 0.4387606
3937.929, 0.4397783
3939.857, 0.4373973
3941.786, 0.4389991
3943.714, 0.4395308
3945.643, 0.4405918
3947.571, 0.4423375
3949.500, 0.4411910
3951.428, 0.4405945
3953.357, 0.4405808
3955.285, 0.4411947
3957.214, 0.4433393
3959.142, 0.4420817
3961.071, 0.4389350
3962.999, 0.4422055
3964.927, 0.4422971
3966.856, 0.4412270
3968.784, 0.4431902
3970.713, 0.4461940
3972.641, 0.4503669
3974.570, 0.4523017
3976.498, 0.4498366
3978.427, 0.4468589
3980.355, 0.4477544
3982.284, 0.4515178
3984.212, 0.4483768
3986.141, 0.4463040
3988.069, 0.4492602
3989.998, 0.4501263
3991.926, 0.4466225
3993.854, 0.4470668
3995.783, 0.4495393
3997.711, 0.4504080
3999.640, 0.4506253
##END=



