##NAMES=Mendipite
##RRUFFID=R050669
##IDEAL CHEMISTRY=Pb^2+^_3_O_2_Cl_2_
##LOCALITY=Mendip Hills, Higher Pits, Somerset, England
##OWNER=RRUFF
##SOURCE=University of Arizona Mineral Museum
##DESCRIPTION=Colorless coarsely fibrous aggregate
##STATUS=The identification of this mineral has been confirmed by X-ray diffraction and chemical analysis
##URL=rruff.info/R050669
##MEASURED CHEMISTRY=Pb_3.00_O_2_Cl_2.00_
3.991926e+002, 1.261520e-001
4.011211e+002, 1.237995e-001
4.030495e+002, 1.223548e-001
4.049780e+002, 1.189874e-001
4.069065e+002, 1.168176e-001
4.088349e+002, 1.143575e-001
4.107634e+002, 1.111247e-001
4.126919e+002, 1.099251e-001
4.146203e+002, 1.092875e-001
4.165488e+002, 1.090270e-001
4.184773e+002, 1.084594e-001
4.204057e+002, 1.072174e-001
4.223342e+002, 1.055698e-001
4.242627e+002, 1.046484e-001
4.261911e+002, 1.025172e-001
4.281196e+002, 9.882130e-002
4.300481e+002, 9.532835e-002
4.319765e+002, 9.280291e-002
4.339050e+002, 9.100593e-002
4.358335e+002, 8.827744e-002
4.377619e+002, 8.543548e-002
4.396904e+002, 8.294010e-002
4.416189e+002, 7.922255e-002
4.435473e+002, 7.493783e-002
4.454758e+002, 6.996743e-002
4.474043e+002, 6.423308e-002
4.493327e+002, 5.845604e-002
4.512612e+002, 5.116603e-002
4.531897e+002, 4.381306e-002
4.551181e+002, 3.735722e-002
4.570466e+002, 3.158008e-002
4.589751e+002, 2.621679e-002
4.609035e+002, 2.118836e-002
4.628320e+002, 1.772151e-002
4.647605e+002, 1.534357e-002
4.666889e+002, 1.295948e-002
4.686174e+002, 1.108607e-002
4.705459e+002, 1.000289e-002
4.724743e+002, 9.495376e-003
4.744028e+002, 8.967876e-003
4.763313e+002, 8.981986e-003
4.782597e+002, 9.373147e-003
4.801882e+002, 9.130497e-003
4.821167e+002, 9.083120e-003
4.840451e+002, 9.805072e-003
4.859736e+002, 1.083196e-002
4.879021e+002, 1.202180e-002
4.898305e+002, 1.369466e-002
4.917590e+002, 1.636631e-002
4.936875e+002, 1.983289e-002
4.956159e+002, 2.414549e-002
4.975444e+002, 2.940724e-002
4.994729e+002, 3.525567e-002
5.014013e+002, 4.062694e-002
5.033298e+002, 4.417878e-002
5.052583e+002, 4.480326e-002
5.071867e+002, 4.218899e-002
5.091152e+002, 3.746758e-002
5.110437e+002, 3.214218e-002
5.129721e+002, 2.683900e-002
5.149006e+002, 2.196073e-002
5.168290e+002, 1.804098e-002
5.187575e+002, 1.453841e-002
5.206860e+002, 1.177981e-002
5.226144e+002, 9.780165e-003
5.245429e+002, 8.329971e-003
5.264714e+002, 6.900931e-003
5.283998e+002, 5.587116e-003
5.303283e+002, 5.173925e-003
5.322568e+002, 4.789526e-003
5.341852e+002, 4.074264e-003
5.361137e+002, 3.785124e-003
5.380422e+002, 3.706057e-003
5.399706e+002, 3.584065e-003
5.418991e+002, 3.385741e-003
5.438276e+002, 3.691474e-003
5.457560e+002, 4.191807e-003
5.476845e+002, 4.634216e-003
5.496130e+002, 5.178796e-003
5.515414e+002, 5.623301e-003
5.534699e+002, 6.292403e-003
5.553984e+002, 6.529419e-003
5.573268e+002, 6.811304e-003
5.592553e+002, 7.761568e-003
5.611838e+002, 8.566473e-003
5.631122e+002, 9.401374e-003
5.650407e+002, 1.022798e-002
5.669692e+002, 1.126900e-002
5.688976e+002, 1.249932e-002
5.708261e+002, 1.353121e-002
5.727546e+002, 1.463808e-002
5.746830e+002, 1.568841e-002
5.766115e+002, 1.663258e-002
5.785400e+002, 1.770441e-002
5.804684e+002, 1.880655e-002
5.823969e+002, 1.980338e-002
5.843254e+002, 2.081740e-002
5.862538e+002, 2.186816e-002
5.881823e+002, 2.274848e-002
5.901108e+002, 2.365781e-002
5.920392e+002, 2.471944e-002
5.939677e+002, 2.609824e-002
5.958962e+002, 2.751068e-002
5.978246e+002, 2.899637e-002
5.997531e+002, 3.055722e-002
6.016816e+002, 3.207093e-002
6.036100e+002, 3.369828e-002
6.055385e+002, 3.546816e-002
6.074670e+002, 3.741390e-002
6.093954e+002, 3.957734e-002
6.113239e+002, 4.200495e-002
6.132524e+002, 4.443721e-002
6.151808e+002, 4.644868e-002
6.171093e+002, 4.845462e-002
6.190378e+002, 5.037430e-002
6.209662e+002, 5.201855e-002
6.228947e+002, 5.306380e-002
6.248232e+002, 5.376092e-002
6.267516e+002, 5.406830e-002
6.286801e+002, 5.365840e-002
6.306086e+002, 5.283640e-002
6.325370e+002, 5.188410e-002
6.344655e+002, 5.057318e-002
6.363940e+002, 4.894593e-002
6.383224e+002, 4.704316e-002
6.402509e+002, 4.494048e-002
6.421794e+002, 4.290311e-002
6.441078e+002, 4.094790e-002
6.460363e+002, 3.916218e-002
6.479648e+002, 3.743296e-002
6.498932e+002, 3.570475e-002
6.518217e+002, 3.421557e-002
6.537502e+002, 3.295871e-002
6.556786e+002, 3.180038e-002
6.576071e+002, 3.092328e-002
6.595356e+002, 3.056100e-002
6.614641e+002, 3.049742e-002
6.633925e+002, 3.066164e-002
6.653210e+002, 3.108094e-002
6.672495e+002, 3.184354e-002
6.691779e+002, 3.323444e-002
6.711064e+002, 3.557733e-002
6.730349e+002, 3.928819e-002
6.749633e+002, 4.527236e-002
6.768918e+002, 5.377021e-002
6.788203e+002, 6.222881e-002
6.807487e+002, 6.750246e-002
6.826772e+002, 6.646746e-002
6.846057e+002, 5.862238e-002
6.865341e+002, 4.948505e-002
6.884626e+002, 4.446627e-002
6.903911e+002, 4.350562e-002
6.923195e+002, 4.299625e-002
6.942480e+002, 3.989504e-002
6.961765e+002, 3.499237e-002
6.981049e+002, 3.096440e-002
7.000334e+002, 2.854218e-002
7.019619e+002, 2.686081e-002
7.038903e+002, 2.579826e-002
7.058188e+002, 2.490910e-002
7.077473e+002, 2.348239e-002
7.096757e+002, 2.160579e-002
7.116042e+002, 1.978034e-002
7.135327e+002, 1.818863e-002
7.154611e+002, 1.668184e-002
7.173896e+002, 1.544508e-002
7.193181e+002, 1.465044e-002
7.212465e+002, 1.393744e-002
7.231750e+002, 1.318659e-002
7.251035e+002, 1.263009e-002
7.270319e+002, 1.215143e-002
7.289604e+002, 1.170781e-002
7.308889e+002, 1.129545e-002
7.328173e+002, 1.093653e-002
7.347458e+002, 1.078633e-002
7.366743e+002, 1.068977e-002
7.386027e+002, 1.054162e-002
7.405312e+002, 1.047740e-002
7.424597e+002, 1.008520e-002
7.443881e+002, 9.298233e-003
7.463166e+002, 8.716216e-003
7.482451e+002, 8.387022e-003
7.501735e+002, 7.959079e-003
7.521020e+002, 7.525638e-003
7.540305e+002, 7.195419e-003
7.559589e+002, 6.940180e-003
7.578874e+002, 6.747819e-003
7.598159e+002, 6.429415e-003
7.617443e+002, 6.101841e-003
7.636728e+002, 6.006101e-003
7.656013e+002, 5.947908e-003
7.675297e+002, 5.834408e-003
7.694582e+002, 5.710706e-003
7.713867e+002, 5.579622e-003
7.733151e+002, 5.383985e-003
7.752436e+002, 5.294900e-003
7.771721e+002, 5.396888e-003
7.791005e+002, 5.491484e-003
7.810290e+002, 5.378513e-003
7.829575e+002, 5.155755e-003
7.848859e+002, 5.031627e-003
7.868144e+002, 5.050924e-003
7.887429e+002, 5.116768e-003
7.906713e+002, 5.059564e-003
7.925998e+002, 4.801756e-003
7.945283e+002, 4.544687e-003
7.964567e+002, 4.361697e-003
7.983852e+002, 4.213754e-003
8.003137e+002, 4.159493e-003
8.022421e+002, 4.126692e-003
8.041706e+002, 4.046097e-003
8.060991e+002, 3.882289e-003
8.080275e+002, 3.747998e-003
8.099560e+002, 3.751772e-003
8.118845e+002, 3.665468e-003
8.138129e+002, 3.701402e-003
8.157414e+002, 3.798824e-003
8.176699e+002, 3.720412e-003
8.195983e+002, 3.638996e-003
8.215268e+002, 3.853548e-003
8.234553e+002, 4.115786e-003
8.253837e+002, 4.287167e-003
8.273122e+002, 4.662132e-003
8.292407e+002, 5.296061e-003
8.311691e+002, 6.506935e-003
8.330976e+002, 7.918905e-003
8.350261e+002, 8.690296e-003
8.369545e+002, 9.124150e-003
8.388830e+002, 9.021107e-003
8.408115e+002, 7.410403e-003
8.427399e+002, 5.295552e-003
8.446684e+002, 3.919849e-003
8.465969e+002, 3.278235e-003
8.485253e+002, 3.071466e-003
8.504538e+002, 3.070399e-003
8.523823e+002, 3.080515e-003
8.543107e+002, 2.951981e-003
8.562392e+002, 2.512854e-003
8.581677e+002, 1.971366e-003
8.600961e+002, 1.629544e-003
8.620246e+002, 1.419596e-003
8.639531e+002, 1.259817e-003
8.658815e+002, 1.057781e-003
8.678100e+002, 9.400863e-004
8.697385e+002, 1.111098e-003
8.716669e+002, 1.704609e-003
8.735954e+002, 2.265466e-003
8.755239e+002, 2.469614e-003
8.774523e+002, 2.278319e-003
8.793808e+002, 1.593746e-003
8.813093e+002, 9.529851e-004
8.832377e+002, 4.824754e-004
8.851662e+002, 8.166023e-005
8.870947e+002, -9.294599e-006
8.890231e+002, -1.819786e-004
8.909516e+002, -2.704114e-004
8.928801e+002, -2.899766e-004
8.948085e+002, -3.128517e-004
8.967370e+002, -3.613625e-004
8.986655e+002, -4.413035e-004
9.005939e+002, -4.019774e-004
9.025224e+002, -4.238077e-004
9.044509e+002, -4.167017e-004
9.063793e+002, -3.807303e-004
9.083078e+002, -3.644656e-004
9.102363e+002, -2.442319e-004
9.121647e+002, -2.090298e-004
9.140932e+002, -2.625007e-004
9.160217e+002, -2.990663e-004
9.179501e+002, -2.764575e-004
9.198786e+002, -2.325512e-004
9.218071e+002, -2.919640e-004
9.237355e+002, -3.336053e-004
9.256640e+002, -2.834611e-004
9.275925e+002, -2.789441e-004
9.295209e+002, -3.227629e-004
9.314494e+002, -2.882741e-004
9.333779e+002, -1.916438e-004
9.353063e+002, -1.993570e-004
9.372348e+002, -2.889689e-004
9.391633e+002, -3.931895e-004
9.410917e+002, -3.259666e-004
9.430202e+002, -3.049783e-004
9.449487e+002, -1.668632e-004
9.468771e+002, 1.195818e-005
9.488056e+002, -9.127334e-005
9.507341e+002, -3.359094e-005
9.526625e+002, 9.058416e-005
9.545910e+002, 1.450405e-004
9.565195e+002, 2.291314e-004
9.584479e+002, 2.402179e-004
9.603764e+002, 4.291162e-004
9.623049e+002, 5.972460e-004
9.642333e+002, 7.118694e-004
9.661618e+002, 9.534732e-004
9.680903e+002, 1.109950e-003
9.700187e+002, 1.204036e-003
9.719472e+002, 1.218654e-003
9.738757e+002, 1.059383e-003
9.758041e+002, 9.520687e-004
9.777326e+002, 9.839274e-004
9.796611e+002, 1.141205e-003
9.815895e+002, 1.284994e-003
9.835180e+002, 1.315963e-003
9.854465e+002, 1.336429e-003
9.873749e+002, 1.578026e-003
9.893034e+002, 1.818195e-003
9.912319e+002, 1.879569e-003
9.931603e+002, 1.884393e-003
9.950888e+002, 1.955688e-003
9.970173e+002, 2.033979e-003
9.989457e+002, 2.070781e-003
1.000874e+003, 2.154090e-003
1.002803e+003, 2.281830e-003
1.004731e+003, 2.379607e-003
1.006660e+003, 2.378337e-003
1.008588e+003, 2.420075e-003
1.010517e+003, 2.710298e-003
1.012445e+003, 3.030639e-003
1.014373e+003, 3.225289e-003
1.016302e+003, 3.460813e-003
1.018230e+003, 3.440473e-003
1.020159e+003, 3.346510e-003
1.022087e+003, 3.317732e-003
1.024016e+003, 3.386941e-003
1.025944e+003, 3.598310e-003
1.027873e+003, 3.712848e-003
1.029801e+003, 3.993575e-003
1.031730e+003, 4.358158e-003
1.033658e+003, 4.551288e-003
1.035587e+003, 4.837744e-003
1.037515e+003, 5.523611e-003
1.039443e+003, 6.991751e-003
1.041372e+003, 9.523004e-003
1.043300e+003, 1.218401e-002
1.045229e+003, 1.235120e-002
1.047157e+003, 1.006278e-002
1.049086e+003, 8.350022e-003
1.051014e+003, 8.318391e-003
1.052943e+003, 7.606573e-003
1.054871e+003, 6.233219e-003
1.056800e+003, 5.694486e-003
1.058728e+003, 5.605143e-003
1.060657e+003, 5.789597e-003
1.062585e+003, 6.012749e-003
1.064514e+003, 6.141432e-003
1.066442e+003, 6.344039e-003
1.068370e+003, 6.694887e-003
1.070299e+003, 6.943576e-003
1.072227e+003, 7.054299e-003
1.074156e+003, 7.161047e-003
1.076084e+003, 7.367533e-003
1.078013e+003, 7.447887e-003
1.079941e+003, 7.545277e-003
1.081870e+003, 7.658813e-003
1.083798e+003, 7.579852e-003
1.085727e+003, 7.492241e-003
1.087655e+003, 7.427067e-003
1.089584e+003, 7.248938e-003
1.091512e+003, 7.155187e-003
1.093441e+003, 6.972194e-003
1.095369e+003, 6.732319e-003
1.097297e+003, 6.542083e-003
1.099226e+003, 6.538507e-003
1.101154e+003, 6.425347e-003
1.103083e+003, 6.390724e-003
1.105011e+003, 6.413694e-003
1.106940e+003, 6.246276e-003
1.108868e+003, 6.056856e-003
1.110797e+003, 6.069351e-003
1.112725e+003, 6.110955e-003
1.114654e+003, 6.035343e-003
1.116582e+003, 5.810339e-003
1.118511e+003, 5.707316e-003
1.120439e+003, 5.600248e-003
1.122368e+003, 5.374763e-003
1.124296e+003, 5.139597e-003
1.126224e+003, 5.184047e-003
1.128153e+003, 5.245678e-003
1.130081e+003, 5.284220e-003
1.132010e+003, 5.344119e-003
1.133938e+003, 5.429253e-003
1.135867e+003, 5.586766e-003
1.137795e+003, 5.641855e-003
1.139724e+003, 5.596317e-003
1.141652e+003, 5.613163e-003
1.143581e+003, 5.706217e-003
1.145509e+003, 5.738046e-003
1.147438e+003, 5.698022e-003
1.149366e+003, 5.750909e-003
1.151295e+003, 5.809877e-003
1.153223e+003, 5.769286e-003
1.155151e+003, 5.878534e-003
1.157080e+003, 6.018620e-003
1.159008e+003, 6.079216e-003
1.160937e+003, 6.215472e-003
1.162865e+003, 6.382078e-003
1.164794e+003, 6.458353e-003
1.166722e+003, 6.476592e-003
1.168651e+003, 6.534170e-003
1.170579e+003, 6.644413e-003
1.172508e+003, 6.784093e-003
1.174436e+003, 6.768882e-003
1.176365e+003, 6.878901e-003
1.178293e+003, 7.087011e-003
1.180222e+003, 7.218670e-003
1.182150e+003, 7.255029e-003
1.184078e+003, 7.445160e-003
1.186007e+003, 7.665463e-003
1.187935e+003, 7.783428e-003
1.189864e+003, 7.916845e-003
1.191792e+003, 8.088224e-003
1.193721e+003, 8.237183e-003
1.195649e+003, 8.376323e-003
1.197578e+003, 8.610826e-003
1.199506e+003, 8.796580e-003
1.201435e+003, 8.801807e-003
1.203363e+003, 8.824259e-003
1.205292e+003, 8.951195e-003
1.207220e+003, 9.127159e-003
1.209149e+003, 9.229258e-003
1.211077e+003, 9.364966e-003
1.213005e+003, 9.538181e-003
1.214934e+003, 9.784654e-003
1.216862e+003, 9.987999e-003
1.218791e+003, 1.019264e-002
1.220719e+003, 1.037588e-002
1.222648e+003, 1.059823e-002
1.224576e+003, 1.071634e-002
1.226505e+003, 1.091981e-002
1.228433e+003, 1.105167e-002
1.230362e+003, 1.126968e-002
1.232290e+003, 1.154648e-002
1.234219e+003, 1.179481e-002
1.236147e+003, 1.208009e-002
1.238076e+003, 1.233462e-002
1.240004e+003, 1.259242e-002
1.241932e+003, 1.290776e-002
1.243861e+003, 1.324400e-002
1.245789e+003, 1.351536e-002
1.247718e+003, 1.379588e-002
1.249646e+003, 1.427495e-002
1.251575e+003, 1.475095e-002
1.253503e+003, 1.516082e-002
1.255432e+003, 1.550091e-002
1.257360e+003, 1.589660e-002
1.259289e+003, 1.634641e-002
1.261217e+003, 1.675164e-002
1.263146e+003, 1.729644e-002
1.265074e+003, 1.799259e-002
1.267003e+003, 1.863196e-002
1.268931e+003, 1.940678e-002
1.270859e+003, 2.026745e-002
1.272788e+003, 2.121649e-002
1.274716e+003, 2.220055e-002
1.276645e+003, 2.307948e-002
1.278573e+003, 2.386672e-002
1.280502e+003, 2.443861e-002
1.282430e+003, 2.492965e-002
1.284359e+003, 2.524330e-002
1.286287e+003, 2.566600e-002
1.288216e+003, 2.622927e-002
1.290144e+003, 2.675146e-002
1.292073e+003, 2.733709e-002
1.294001e+003, 2.806455e-002
1.295930e+003, 2.883873e-002
1.297858e+003, 2.965545e-002
1.299786e+003, 3.053661e-002
1.301715e+003, 3.153493e-002
1.303643e+003, 3.271508e-002
1.305572e+003, 3.383242e-002
1.307500e+003, 3.486676e-002
1.309429e+003, 3.602652e-002
1.311357e+003, 3.731705e-002
1.313286e+003, 3.865654e-002
1.315214e+003, 3.994891e-002
1.317143e+003, 4.118288e-002
1.319071e+003, 4.245566e-002
1.321000e+003, 4.395150e-002
1.322928e+003, 4.561556e-002
1.324857e+003, 4.734188e-002
1.326785e+003, 4.915151e-002
1.328714e+003, 5.104592e-002
1.330642e+003, 5.310851e-002
1.332570e+003, 5.532223e-002
1.334499e+003, 5.754571e-002
1.336427e+003, 5.982299e-002
1.338356e+003, 6.216314e-002
1.340284e+003, 6.454774e-002
1.342213e+003, 6.698617e-002
1.344141e+003, 6.941891e-002
1.346070e+003, 7.179075e-002
1.347998e+003, 7.416890e-002
1.349927e+003, 7.657498e-002
1.351855e+003, 7.879573e-002
1.353784e+003, 8.093259e-002
1.355712e+003, 8.298317e-002
1.357641e+003, 8.491439e-002
1.359569e+003, 8.679859e-002
1.361497e+003, 8.857840e-002
1.363426e+003, 9.026200e-002
1.365354e+003, 9.219150e-002
1.367283e+003, 9.420528e-002
1.369211e+003, 9.626327e-002
1.371140e+003, 9.839249e-002
1.373068e+003, 1.006484e-001
1.374997e+003, 1.032161e-001
1.376925e+003, 1.062544e-001
1.378854e+003, 1.094832e-001
1.380782e+003, 1.128394e-001
1.382711e+003, 1.165375e-001
1.384639e+003, 1.203734e-001
1.386568e+003, 1.243794e-001
1.388496e+003, 1.282697e-001
1.390424e+003, 1.317760e-001
1.392353e+003, 1.350293e-001
1.394281e+003, 1.378112e-001
1.396210e+003, 1.400148e-001
1.398138e+003, 1.415374e-001
1.400067e+003, 1.422286e-001
1.401995e+003, 1.422749e-001
1.403924e+003, 1.418003e-001
1.405852e+003, 1.409146e-001
1.407781e+003, 1.396988e-001
1.409709e+003, 1.382233e-001
1.411638e+003, 1.365498e-001
1.413566e+003, 1.347553e-001
1.415495e+003, 1.329861e-001
1.417423e+003, 1.313799e-001
1.419351e+003, 1.298832e-001
1.421280e+003, 1.284999e-001
1.423208e+003, 1.270800e-001
1.425137e+003, 1.256421e-001
1.427065e+003, 1.243022e-001
1.428994e+003, 1.231037e-001
1.430922e+003, 1.216335e-001
1.432851e+003, 1.198497e-001
1.434779e+003, 1.177181e-001
1.436708e+003, 1.152965e-001
1.438636e+003, 1.127491e-001
1.440565e+003, 1.097722e-001
1.442493e+003, 1.065313e-001
1.444422e+003, 1.030164e-001
1.446350e+003, 9.934710e-002
1.448278e+003, 9.555788e-002
1.450207e+003, 9.161079e-002
1.452135e+003, 8.747318e-002
1.454064e+003, 8.326408e-002
1.455992e+003, 7.892724e-002
1.457921e+003, 7.458612e-002
1.459849e+003, 7.045223e-002
1.461778e+003, 6.633493e-002
1.463706e+003, 6.217473e-002
1.465635e+003, 5.812337e-002
1.467563e+003, 5.411411e-002
1.469492e+003, 5.024226e-002
1.471420e+003, 4.642906e-002
1.473349e+003, 4.269606e-002
1.475277e+003, 3.924774e-002
1.477205e+003, 3.611550e-002
1.479134e+003, 3.310816e-002
1.481062e+003, 3.023303e-002
1.482991e+003, 2.760137e-002
1.484919e+003, 2.521475e-002
1.486848e+003, 2.307024e-002
1.488776e+003, 2.118078e-002
1.490705e+003, 1.948771e-002
1.492633e+003, 1.799994e-002
1.494562e+003, 1.664754e-002
1.496490e+003, 1.536274e-002
1.498419e+003, 1.435019e-002
1.500347e+003, 1.349415e-002
1.502276e+003, 1.256058e-002
1.504204e+003, 1.151015e-002
1.506132e+003, 1.055488e-002
1.508061e+003, 9.899314e-003
1.509989e+003, 9.407133e-003
1.511918e+003, 8.783974e-003
1.513846e+003, 8.276671e-003
1.515775e+003, 7.882025e-003
1.517703e+003, 7.464502e-003
1.519632e+003, 6.995574e-003
1.521560e+003, 6.590411e-003
1.523489e+003, 6.294560e-003
1.525417e+003, 6.056067e-003
1.527346e+003, 5.843084e-003
1.529274e+003, 5.564228e-003
1.531203e+003, 5.273260e-003
1.533131e+003, 4.988037e-003
1.535059e+003, 4.794952e-003
1.536988e+003, 4.384309e-003
1.538916e+003, 3.754113e-003
1.540845e+003, 3.365204e-003
1.542773e+003, 3.194019e-003
1.544702e+003, 3.087793e-003
1.546630e+003, 2.944432e-003
1.548559e+003, 2.669670e-003
1.550487e+003, 2.401199e-003
1.552416e+003, 2.189767e-003
1.554344e+003, 1.917440e-003
1.556273e+003, 1.594894e-003
1.558201e+003, 1.229532e-003
1.560130e+003, 1.028553e-003
1.562058e+003, 1.047049e-003
1.563986e+003, 9.892061e-004
1.565915e+003, 6.790869e-004
1.567843e+003, 5.193986e-004
1.569772e+003, 5.394332e-004
1.571700e+003, 5.642511e-004
1.573629e+003, 4.678555e-004
1.575557e+003, 3.016256e-004
1.577486e+003, 3.756844e-004
1.579414e+003, 6.261840e-004
1.581343e+003, 7.776991e-004
1.583271e+003, 8.520558e-004
1.585200e+003, 8.977987e-004
1.587128e+003, 8.039325e-004
1.589057e+003, 5.410835e-004
1.590985e+003, 4.517548e-004
1.592913e+003, 4.788227e-004
1.594842e+003, 5.012564e-004
1.596770e+003, 4.938245e-004
1.598699e+003, 3.960840e-004
1.600627e+003, 4.095472e-004
1.602556e+003, 5.125739e-004
1.604484e+003, 4.192702e-004
1.606413e+003, 2.915785e-004
1.608341e+003, 2.066307e-004
1.610270e+003, 1.361147e-004
1.612198e+003, 1.717135e-004
1.614127e+003, 1.724362e-004
1.616055e+003, -6.317720e-005
1.617984e+003, -1.457334e-004
1.619912e+003, -6.631017e-006
1.621840e+003, -1.073182e-004
1.623769e+003, -2.171844e-004
1.625697e+003, -1.917593e-004
1.627626e+003, -1.234300e-004
1.629554e+003, -9.294972e-005
1.631483e+003, -1.339726e-004
1.633411e+003, -2.246350e-004
1.635340e+003, -2.261586e-004
1.637268e+003, -2.646707e-004
1.639197e+003, -2.306700e-004
1.641125e+003, -1.617558e-004
1.643054e+003, -1.401417e-004
1.644982e+003, -2.541691e-004
1.646911e+003, -4.164800e-004
1.648839e+003, -2.250932e-004
1.650767e+003, -2.378598e-004
1.652696e+003, -5.129501e-004
1.654624e+003, -3.797039e-004
1.656553e+003, -3.284663e-004
1.658481e+003, -3.287904e-004
1.660410e+003, -3.349409e-004
1.662338e+003, -4.013851e-004
1.664267e+003, -3.091171e-004
1.666195e+003, -1.172647e-004
1.668124e+003, -1.798272e-004
1.670052e+003, -3.117025e-004
1.671981e+003, -3.346801e-004
1.673909e+003, -3.237203e-004
1.675838e+003, -2.458543e-004
1.677766e+003, -3.585964e-005
1.679694e+003, 5.684048e-005
1.681623e+003, -1.744926e-005
1.683551e+003, -1.718402e-004
1.685480e+003, -9.457022e-005
1.687408e+003, 1.791045e-004
1.689337e+003, 4.668757e-004
1.691265e+003, 5.268827e-004
1.693194e+003, 4.549697e-004
1.695122e+003, 4.929602e-004
1.697051e+003, 6.631836e-004
1.698979e+003, 6.883666e-004
1.700908e+003, 7.954538e-004
1.702836e+003, 1.054667e-003
1.704765e+003, 1.237109e-003
1.706693e+003, 1.300193e-003
1.708621e+003, 1.235567e-003
1.710550e+003, 1.371153e-003
1.712478e+003, 1.540907e-003
1.714407e+003, 1.500726e-003
1.716335e+003, 1.432441e-003
1.718264e+003, 1.632161e-003
1.720192e+003, 2.023540e-003
1.722121e+003, 2.354264e-003
1.724049e+003, 2.775684e-003
1.725978e+003, 3.251567e-003
1.727906e+003, 3.679000e-003
1.729835e+003, 3.891312e-003
1.731763e+003, 3.846504e-003
1.733692e+003, 3.804028e-003
1.735620e+003, 3.736071e-003
1.737548e+003, 3.488354e-003
1.739477e+003, 3.145605e-003
1.741405e+003, 2.849296e-003
1.743334e+003, 2.306111e-003
1.745262e+003, 1.526505e-003
1.747191e+003, 1.081660e-003
1.749119e+003, 9.330660e-004
1.751048e+003, 8.477494e-004
1.752976e+003, 6.570891e-004
1.754905e+003, 3.592372e-004
1.756833e+003, 9.344518e-005
1.758762e+003, -8.668005e-005
1.760690e+003, -8.898973e-005
1.762619e+003, -7.925183e-005
1.764547e+003, -1.137853e-004
1.766475e+003, -7.977337e-005
1.768404e+003, -9.834766e-005
1.770332e+003, -1.674369e-004
1.772261e+003, -1.714826e-004
1.774189e+003, -2.951920e-005
1.776118e+003, -1.312569e-004
1.778046e+003, -2.342463e-005
1.779975e+003, 4.111975e-005
1.781903e+003, -1.988113e-004
1.783832e+003, -1.079440e-004
1.785760e+003, 1.749396e-005
1.787689e+003, -1.116395e-004
1.789617e+003, -1.499429e-004
1.791546e+003, -1.482293e-004
1.793474e+003, -9.009987e-005
1.795402e+003, -1.390576e-004
1.797331e+003, -2.457350e-004
1.799259e+003, -3.084987e-004
1.801188e+003, -3.500879e-004
1.803116e+003, -2.490357e-004
1.805045e+003, -1.700744e-004
1.806973e+003, -3.065914e-004
1.808902e+003, -3.403872e-004
1.810830e+003, -2.489984e-004
1.812759e+003, -1.161918e-004
1.814687e+003, -2.897009e-004
1.816616e+003, -3.787354e-004
1.818544e+003, -2.352446e-004
1.820473e+003, -1.169071e-004
1.822401e+003, -1.694560e-004
1.824329e+003, -2.877340e-004
1.826258e+003, -3.774017e-004
1.828186e+003, -3.408715e-004
1.830115e+003, -3.109351e-004
1.832043e+003, -2.990365e-004
1.833972e+003, -3.512874e-004
1.835900e+003, -1.619011e-004
1.837829e+003, 1.443923e-005
1.839757e+003, -7.694960e-005
1.841686e+003, -3.433898e-004
1.843614e+003, -4.901439e-004
1.845543e+003, -1.875460e-004
1.847471e+003, 5.320460e-005
1.849400e+003, 1.291037e-004
1.851328e+003, 6.070733e-005
1.853256e+003, -1.872331e-005
1.855185e+003, -1.432970e-004
1.857113e+003, -5.629659e-005
1.859042e+003, 2.075881e-004
1.860970e+003, 6.508827e-005
1.862899e+003, -1.551881e-004
1.864827e+003, -4.158914e-005
1.866756e+003, 1.476109e-004
1.868684e+003, 4.193708e-004
1.870613e+003, 5.310252e-004
1.872541e+003, 3.485605e-004
1.874470e+003, -1.028106e-004
1.876398e+003, 9.691715e-005
1.878327e+003, 2.738684e-004
1.880255e+003, 6.508827e-005
1.882183e+003, 2.083555e-004
1.884112e+003, 2.049655e-005
1.886040e+003, -8.013099e-005
1.887969e+003, 1.229346e-006
1.889897e+003, -2.569705e-005
1.891826e+003, -4.634261e-006
1.893754e+003, 3.543124e-004
1.895683e+003, 3.422350e-004
1.897611e+003, 5.332381e-004
1.899540e+003, 4.048124e-004
1.901468e+003, 1.850501e-004
1.903397e+003, 2.587289e-004
1.905325e+003, 2.791211e-004
1.907254e+003, 3.272295e-004
1.909182e+003, 3.683716e-004
1.911110e+003, 5.662441e-006
1.913039e+003, 1.290813e-004
1.914967e+003, 5.730465e-004
1.916896e+003, 2.596825e-004
1.918824e+003, -6.445497e-005
1.920753e+003, -2.647191e-005
1.922681e+003, 1.719594e-004
1.924610e+003, 5.780831e-004
1.926538e+003, 1.087189e-004
1.928467e+003, -3.136918e-004
1.930395e+003, -4.569069e-004
1.932324e+003, -3.677085e-004
1.934252e+003, -2.015904e-004
1.936181e+003, 4.607886e-004
1.938109e+003, 7.508397e-004
1.940037e+003, 2.369061e-004
1.941966e+003, -7.732958e-005
1.943894e+003, -3.435314e-004
1.945823e+003, -2.253875e-004
1.947751e+003, 2.820790e-004
1.949680e+003, -1.000166e-004
1.951608e+003, -3.199652e-004
1.953537e+003, -6.398559e-005
1.955465e+003, -2.443790e-004
1.957394e+003, -3.329813e-004
1.959322e+003, -2.184436e-004
1.961251e+003, -2.803579e-004
1.963179e+003, -7.985309e-004
1.965108e+003, -9.182766e-004
1.967036e+003, -8.259714e-004
1.968964e+003, -8.793846e-004
1.970893e+003, -1.447707e-003
1.972821e+003, -1.559123e-003
1.974750e+003, -6.901324e-004
1.976678e+003, 1.627728e-004
1.978607e+003, 1.839675e-003
1.980535e+003, 2.257995e-003
1.982464e+003, 1.259916e-003
1.984392e+003, 2.628416e-004
1.986321e+003, 1.785606e-004
1.988249e+003, 4.246384e-004
1.990178e+003, 6.591380e-004
1.992106e+003, 4.425496e-004
1.994035e+003, -6.049350e-004
1.995963e+003, -1.790002e-004
1.997891e+003, 8.282214e-004
1.999820e+003, 9.074807e-005
2.001748e+003, -4.679263e-004
2.003677e+003, -1.242615e-003
2.005605e+003, -1.425698e-003
2.007534e+003, -3.532618e-004
2.009462e+003, 6.746203e-004
2.011391e+003, 5.837083e-004
2.013319e+003, 1.647100e-004
2.015248e+003, -4.606098e-004
2.017176e+003, -1.816601e-004
2.019105e+003, 1.908094e-004
2.021033e+003, 1.967698e-005
2.022962e+003, 4.281104e-005
2.024890e+003, -6.286427e-004
2.026818e+003, -1.103394e-003
2.028747e+003, -5.399659e-004
2.030675e+003, -6.749183e-004
2.032604e+003, -4.597753e-004
2.034532e+003, 5.434081e-004
2.036461e+003, 5.270988e-004
2.038389e+003, 1.178011e-004
2.040318e+003, 3.647879e-004
2.042246e+003, 2.990291e-004
2.044175e+003, -1.087189e-004
2.046103e+003, 1.344159e-004
2.048031e+003, 7.566065e-004
2.049960e+003, 1.065142e-003
2.051888e+003, -3.006309e-005
2.053817e+003, 3.527999e-004
2.055745e+003, 1.444131e-003
2.057674e+003, 3.444478e-004
2.059602e+003, -4.988834e-004
2.061531e+003, -2.367869e-004
2.063459e+003, -1.675561e-004
2.065388e+003, -1.379773e-004
2.067316e+003, -7.227063e-006
2.069245e+003, 4.283339e-005
2.071173e+003, 4.772544e-004
2.073102e+003, 3.336743e-004
2.075030e+003, 3.920719e-004
2.076958e+003, 1.679584e-004
2.078887e+003, -1.770332e-004
2.080815e+003, -8.432567e-005
2.082744e+003, 1.343265e-004
2.084672e+003, -1.091734e-004
2.086601e+003, -3.451779e-004
2.088529e+003, -4.663616e-004
2.090458e+003, -8.959249e-004
2.092386e+003, -9.032711e-004
2.094315e+003, -8.639470e-004
2.096243e+003, -5.206019e-004
2.098172e+003, -3.513247e-004
2.100100e+003, -3.433153e-004
2.102029e+003, -1.260117e-004
2.103957e+003, -2.101809e-004
2.105885e+003, -4.928038e-004
2.107814e+003, -4.919246e-004
2.109742e+003, -3.284290e-004
2.111671e+003, -2.091974e-004
2.113599e+003, -1.324564e-004
2.115528e+003, -5.694479e-004
2.117456e+003, -1.061261e-003
2.119385e+003, -1.137085e-003
2.121313e+003, -7.942170e-004
2.123242e+003, -6.379485e-004
2.125170e+003, -1.499563e-003
2.127099e+003, -2.278283e-003
2.129027e+003, -2.073891e-003
2.130956e+003, -2.014041e-003
2.132884e+003, -2.666667e-003
2.134813e+003, -2.865441e-003
2.136741e+003, -2.070203e-003
2.138669e+003, -1.695313e-003
2.140598e+003, -1.941070e-003
2.142526e+003, -2.400905e-003
2.144455e+003, -2.397962e-003
2.146383e+003, -2.357572e-003
2.148312e+003, -2.645649e-003
2.150240e+003, -2.902612e-003
2.152169e+003, -3.738731e-003
2.154097e+003, -3.548950e-003
2.156026e+003, -3.151700e-003
2.157954e+003, -1.490071e-003
2.159883e+003, 2.245829e-003
2.161811e+003, 2.368391e-003
2.163740e+003, 2.293393e-003
2.165668e+003, 2.648711e-003
2.167596e+003, 1.702003e-003
2.169525e+003, 6.093383e-004
2.171453e+003, -4.095957e-004
2.173382e+003, -5.930960e-004
2.175310e+003, -2.531707e-005
2.177239e+003, -4.166365e-005
2.179167e+003, -3.233179e-004
2.181096e+003, -1.298487e-004
2.183024e+003, 2.391189e-004
2.184953e+003, 3.646463e-004
2.186881e+003, 2.220348e-004
2.188810e+003, 9.067357e-006
2.190738e+003, 3.726706e-004
2.192667e+003, -2.577081e-004
2.194595e+003, 3.718212e-004
2.196523e+003, 1.037620e-003
2.198452e+003, 6.894991e-004
2.200380e+003, 2.934262e-004
2.202309e+003, 1.494586e-004
2.204237e+003, 2.267212e-005
2.206166e+003, -1.029819e-004
2.208094e+003, -1.621768e-004
2.210023e+003, 7.937849e-005
2.211951e+003, 3.910214e-004
2.213880e+003, 4.384592e-004
2.215808e+003, 4.736781e-004
2.217737e+003, 4.530326e-004
2.219665e+003, 5.739182e-005
2.221594e+003, -7.853806e-004
2.223522e+003, -1.086101e-003
2.225450e+003, -9.723753e-005
2.227379e+003, 6.399378e-004
2.229307e+003, 6.858036e-004
2.231236e+003, 4.462823e-004
2.233164e+003, -1.263767e-004
2.235093e+003, -2.141967e-004
2.237021e+003, -1.711771e-004
2.238950e+003, -4.840195e-004
2.240878e+003, -1.550689e-004
2.242807e+003, -2.166405e-004
2.244735e+003, -2.750009e-004
2.246664e+003, -2.476946e-004
2.248592e+003, -6.285012e-004
2.250521e+003, -7.740557e-004
2.252449e+003, -3.976375e-004
2.254377e+003, -7.156283e-005
2.256306e+003, -1.125187e-004
2.258234e+003, 2.120137e-004
2.260163e+003, 4.064590e-004
2.262091e+003, 3.020465e-005
2.264020e+003, -2.401844e-004
2.265948e+003, -4.646033e-004
2.267877e+003, -6.382167e-004
2.269805e+003, -3.250688e-005
2.271734e+003, 7.615983e-005
2.273662e+003, -9.511411e-005
2.275591e+003, 7.274747e-005
2.277519e+003, 3.176630e-004
2.279448e+003, 5.863607e-004
2.281376e+003, 7.417873e-004
2.283304e+003, 6.098226e-004
2.285233e+003, 2.575442e-004
2.287161e+003, 1.967251e-004
2.289090e+003, 2.249554e-004
2.291018e+003, 1.344681e-004
2.292947e+003, -4.766881e-005
2.294875e+003, 3.958493e-005
2.296804e+003, -2.087653e-004
2.298732e+003, -6.430522e-004
2.300661e+003, -8.199215e-004
2.302589e+003, -7.149130e-004
2.304518e+003, -3.328398e-004
2.306446e+003, -5.049258e-005
2.308375e+003, -1.562461e-004
2.310303e+003, -3.569648e-004
2.312231e+003, -2.366081e-004
2.314160e+003, -2.247095e-004
2.316088e+003, -4.376248e-004
2.318017e+003, -3.704801e-004
2.319945e+003, -1.576319e-004
2.321874e+003, 1.168177e-004
2.323802e+003, 1.911074e-005
2.325731e+003, -8.760616e-004
2.327659e+003, -1.527883e-003
2.329588e+003, -1.763031e-003
2.331516e+003, -1.892000e-003
2.333445e+003, -1.774400e-003
2.335373e+003, -1.820751e-003
2.337302e+003, -1.913548e-003
2.339230e+003, -1.700453e-003
2.341158e+003, -1.582861e-003
2.343087e+003, -1.619652e-003
2.345015e+003, -1.639739e-003
2.346944e+003, -1.468293e-003
2.348872e+003, -1.282036e-003
2.350801e+003, -1.562543e-003
2.352729e+003, -1.871333e-003
2.354658e+003, -1.943164e-003
2.356586e+003, -1.942821e-003
2.358515e+003, -1.933128e-003
2.360443e+003, -2.066664e-003
2.362372e+003, -2.312258e-003
2.364300e+003, -2.367713e-003
2.366229e+003, -2.420798e-003
2.368157e+003, -2.259471e-003
2.370085e+003, -2.005965e-003
2.372014e+003, -1.642495e-003
2.373942e+003, -1.371846e-003
2.375871e+003, -1.248732e-003
2.377799e+003, -1.042470e-003
2.379728e+003, -9.526685e-004
2.381656e+003, -7.883385e-004
2.383585e+003, -7.254779e-004
2.385513e+003, -6.232709e-004
2.387442e+003, -4.860237e-004
2.389370e+003, -4.663244e-004
2.391299e+003, -5.507320e-004
2.393227e+003, -4.113168e-004
2.395156e+003, -2.493188e-004
2.397084e+003, -6.283075e-004
2.399012e+003, -6.335378e-004
2.400941e+003, -2.040938e-004
2.402869e+003, -1.251400e-004
2.404798e+003, -4.419610e-004
2.406726e+003, -2.854988e-004
2.408655e+003, 4.478991e-004
2.410583e+003, 8.275583e-004
2.412512e+003, 4.233643e-004
2.414440e+003, -1.809672e-004
2.416369e+003, 1.059622e-004
2.418297e+003, 4.907250e-004
2.420226e+003, 2.412349e-004
2.422154e+003, 2.530217e-004
2.424083e+003, 2.962798e-004
2.426011e+003, 2.858117e-004
2.427939e+003, 3.501624e-004
2.429868e+003, 3.789291e-004
2.431796e+003, 3.235787e-005
2.433725e+003, -3.293082e-004
2.435653e+003, -4.984885e-004
2.437582e+003, -2.219453e-004
2.439510e+003, -5.540997e-005
2.441439e+003, -9.566545e-005
2.443367e+003, 2.643242e-004
2.445296e+003, 6.003976e-004
2.447224e+003, 9.420142e-004
2.449153e+003, 9.441301e-004
2.451081e+003, 3.676116e-004
2.453010e+003, 1.014769e-004
2.454938e+003, 3.342777e-004
2.456866e+003, 5.893633e-004
2.458795e+003, 4.182756e-004
2.460723e+003, 9.822845e-005
2.462652e+003, -4.066527e-004
2.464580e+003, -3.591552e-004
2.466509e+003, -1.215339e-004
2.468437e+003, 2.177805e-005
2.470366e+003, -2.647191e-005
2.472294e+003, -5.779415e-005
2.474223e+003, 1.403242e-004
2.476151e+003, 1.459345e-004
2.478080e+003, -5.040318e-005
2.480008e+003, -2.785102e-004
2.481937e+003, -4.249811e-004
2.483865e+003, -4.483759e-004
2.485793e+003, -5.472600e-004
2.487722e+003, -1.659542e-004
2.489650e+003, -3.808737e-005
2.491579e+003, -4.182309e-004
2.493507e+003, -3.043562e-004
2.495436e+003, -3.870428e-004
2.497364e+003, -4.591942e-004
2.499293e+003, -3.426448e-004
2.501221e+003, -6.478354e-004
2.503150e+003, -3.728792e-004
2.505078e+003, 1.980066e-004
2.507007e+003, -2.120882e-004
2.508935e+003, -5.230755e-004
2.510864e+003, -2.258271e-005
2.512792e+003, 1.495704e-004
2.514720e+003, 1.294911e-005
2.516649e+003, 3.600866e-005
2.518577e+003, -1.113042e-004
2.520506e+003, -5.756915e-004
2.522434e+003, -6.504208e-004
2.524363e+003, -5.229339e-004
2.526291e+003, -3.797933e-004
2.528220e+003, -3.815517e-004
2.530148e+003, -4.140511e-004
2.532077e+003, -4.830360e-004
2.534005e+003, -3.895238e-004
2.535934e+003, 5.602837e-005
2.537862e+003, -2.960861e-005
2.539791e+003, -4.117563e-004
2.541719e+003, -2.302527e-004
2.543647e+003, -4.534423e-005
2.545576e+003, -4.361942e-004
2.547504e+003, -6.728470e-004
2.549433e+003, -5.485490e-004
2.551361e+003, -4.276037e-004
2.553290e+003, -5.005598e-004
2.555218e+003, -6.807894e-004
2.557147e+003, -9.284541e-004
2.559075e+003, -8.532479e-004
2.561004e+003, -4.784539e-004
2.562932e+003, -4.549697e-004
2.564861e+003, -6.587654e-004
2.566789e+003, -7.255673e-004
2.568718e+003, -3.781915e-004
2.570646e+003, 8.129328e-005
2.572574e+003, -2.055615e-005
2.574503e+003, -1.283884e-004
2.576431e+003, 6.043166e-005
2.578360e+003, 5.739927e-005
2.580288e+003, 2.071261e-005
2.582217e+003, 2.053007e-004
2.584145e+003, 4.180521e-004
2.586074e+003, -1.922846e-004
2.588002e+003, -4.526600e-004
2.589931e+003, -3.685504e-004
2.591859e+003, -5.897656e-004
2.593788e+003, -6.570071e-004
2.595716e+003, -1.090765e-004
2.597645e+003, 1.748800e-004
2.599573e+003, -1.434907e-004
2.601501e+003, -3.909469e-004
2.603430e+003, -2.295300e-004
2.605358e+003, -6.639212e-005
2.607287e+003, 1.100600e-004
2.609215e+003, -9.976327e-005
2.611144e+003, -1.492500e-004
2.613072e+003, -4.024059e-005
2.615001e+003, 4.234165e-005
2.616929e+003, 3.286451e-004
2.618858e+003, 4.559606e-004
2.620786e+003, 1.779273e-004
2.622715e+003, -4.182011e-005
2.624643e+003, -1.809970e-004
2.626572e+003, -3.051758e-005
2.628500e+003, 2.059862e-004
2.630428e+003, 1.497790e-004
2.632357e+003, -1.470000e-005
2.634285e+003, -2.416372e-004
2.636214e+003, -3.188103e-005
2.638142e+003, 1.539513e-004
2.640071e+003, 2.643466e-005
2.641999e+003, -1.550689e-004
2.643928e+003, -2.526790e-004
2.645856e+003, -1.261234e-004
2.647785e+003, 2.815947e-004
2.649713e+003, 3.924891e-004
2.651642e+003, 1.626462e-004
2.653570e+003, 2.894998e-004
2.655499e+003, 3.855675e-004
2.657427e+003, 2.874658e-004
2.659355e+003, 9.597838e-005
2.661284e+003, 3.978610e-006
2.663212e+003, -1.875833e-004
2.665141e+003, -4.670173e-004
2.667069e+003, -5.398914e-004
2.668998e+003, -4.918948e-004
2.670926e+003, -4.051626e-004
2.672855e+003, -5.057454e-004
2.674783e+003, -4.691482e-004
2.676712e+003, -4.369915e-004
2.678640e+003, -4.127473e-004
2.680569e+003, -4.598275e-004
2.682497e+003, -4.738495e-004
2.684426e+003, -3.073514e-004
2.686354e+003, -1.127124e-004
2.688282e+003, -4.033372e-004
2.690211e+003, -7.976443e-004
2.692139e+003, -6.208420e-004
2.694068e+003, -1.489893e-004
2.695996e+003, 4.583597e-005
2.697925e+003, -1.897141e-004
2.699853e+003, -5.831495e-004
2.701782e+003, -5.868599e-004
2.703710e+003, -5.560666e-004
2.705639e+003, -7.248223e-004
2.707567e+003, -7.663518e-004
2.709496e+003, -6.994158e-004
2.711424e+003, -7.316694e-004
2.713353e+003, -6.280467e-004
2.715281e+003, -3.213882e-004
2.717209e+003, -2.085418e-004
2.719138e+003, -2.498403e-004
2.721066e+003, -5.166829e-004
2.722995e+003, -7.319078e-004
2.724923e+003, -5.759001e-004
2.726852e+003, -2.631620e-004
2.728780e+003, -2.850592e-004
2.730709e+003, -4.307032e-004
2.732637e+003, -4.213601e-004
2.734566e+003, -3.147572e-004
2.736494e+003, -3.246516e-004
2.738423e+003, -5.064905e-004
2.740351e+003, -5.341172e-004
2.742280e+003, -3.072396e-004
2.744208e+003, -2.218187e-004
2.746136e+003, -1.452267e-004
2.748065e+003, -1.191348e-004
2.749993e+003, -2.776235e-004
2.751922e+003, -3.560409e-004
2.753850e+003, -4.215837e-004
2.755779e+003, -6.082579e-004
2.757707e+003, -5.089790e-004
2.759636e+003, -4.004091e-004
2.761564e+003, -5.017072e-004
2.763493e+003, -4.222617e-004
2.765421e+003, -2.706945e-004
2.767350e+003, -2.368093e-004
2.769278e+003, -2.198666e-004
2.771207e+003, -4.487336e-004
2.773135e+003, -4.125088e-004
2.775063e+003, -2.248436e-004
2.776992e+003, -2.796352e-004
2.778920e+003, -3.246665e-004
2.780849e+003, -5.177855e-004
2.782777e+003, -4.958659e-004
2.784706e+003, -3.343076e-004
2.786634e+003, -2.941340e-004
2.788563e+003, -6.949008e-004
2.790491e+003, -6.389916e-004
2.792420e+003, -4.534870e-004
2.794348e+003, -6.250441e-004
2.796277e+003, -5.618930e-004
2.798205e+003, -3.405511e-004
2.800134e+003, -2.755076e-004
2.802062e+003, -3.921092e-004
2.803990e+003, -5.100965e-004
2.805919e+003, -5.126297e-004
2.807847e+003, -4.053116e-004
2.809776e+003, -2.543628e-004
2.811704e+003, -2.597719e-004
2.813633e+003, -3.618300e-004
2.815561e+003, -2.868921e-004
2.817490e+003, -1.598001e-004
2.819418e+003, -2.028942e-004
2.821347e+003, -2.869964e-005
2.823275e+003, 9.824336e-005
2.825204e+003, -2.774596e-004
2.827132e+003, -4.466176e-004
2.829061e+003, -3.746450e-004
2.830989e+003, -2.164990e-004
2.832917e+003, -9.536743e-006
2.834846e+003, 1.251698e-005
2.836774e+003, 7.615983e-005
2.838703e+003, 2.278835e-004
2.840631e+003, 2.894253e-004
2.842560e+003, 2.019703e-004
2.844488e+003, -3.539026e-005
2.846417e+003, 1.275539e-005
2.848345e+003, -1.406074e-004
2.850274e+003, -1.929253e-004
2.852202e+003, 1.311451e-004
2.854131e+003, 2.750754e-005
2.856059e+003, -4.293025e-005
2.857988e+003, -1.014173e-004
2.859916e+003, -2.354383e-004
2.861844e+003, -2.893656e-004
2.863773e+003, -2.397299e-004
2.865701e+003, -3.916621e-004
2.867630e+003, -5.477220e-004
2.869558e+003, -6.128848e-004
2.871487e+003, -6.778836e-004
2.873415e+003, -5.957931e-004
2.875344e+003, -4.833043e-004
2.877272e+003, -1.527220e-004
2.879201e+003, 1.709163e-004
2.881129e+003, 1.757890e-004
2.883058e+003, -1.117140e-004
2.884986e+003, -3.543794e-004
2.886915e+003, -3.680885e-004
2.888843e+003, -3.445446e-004
2.890771e+003, -2.834052e-004
2.892700e+003, -5.498528e-005
2.894628e+003, 1.093447e-004
2.896557e+003, 2.734959e-004
2.898485e+003, 2.891570e-004
2.900414e+003, 1.008362e-004
2.902342e+003, 2.958775e-004
2.904271e+003, 5.736947e-004
2.906199e+003, 7.468313e-004
2.908128e+003, 9.534657e-004
2.910056e+003, 7.654130e-004
2.911985e+003, 6.601810e-004
2.913913e+003, 9.299368e-004
2.915842e+003, 1.220122e-003
2.917770e+003, 1.491204e-003
2.919698e+003, 1.375228e-003
2.921627e+003, 1.439959e-003
2.923555e+003, 1.412332e-003
2.925484e+003, 1.387686e-003
2.927412e+003, 1.047447e-003
2.929341e+003, 6.947517e-004
2.931269e+003, 6.198883e-004
2.933198e+003, 3.438443e-004
2.935126e+003, -8.767843e-005
2.937055e+003, -3.158003e-004
2.938983e+003, -2.211034e-004
2.940912e+003, 4.175305e-005
2.942840e+003, -1.157820e-005
2.944769e+003, -4.623383e-004
2.946697e+003, -4.041642e-004
2.948625e+003, -1.675189e-004
2.950554e+003, 1.458228e-004
2.952482e+003, 4.072487e-004
2.954411e+003, 4.899204e-004
2.956339e+003, 6.510466e-004
2.958268e+003, 6.386638e-004
2.960196e+003, 7.485449e-004
2.962125e+003, 1.022190e-003
2.964053e+003, 1.074210e-003
2.965982e+003, 9.595752e-004
2.967910e+003, 7.084310e-004
2.969839e+003, 3.221035e-004
2.971767e+003, 7.969141e-005
2.973696e+003, 5.267560e-005
2.975624e+003, -2.313554e-004
2.977552e+003, -6.119609e-004
2.979481e+003, -5.127788e-004
2.981409e+003, -3.393441e-004
2.983338e+003, -4.424155e-004
2.985266e+003, -6.994754e-004
2.987195e+003, -6.111413e-004
2.989123e+003, -5.737245e-004
2.991052e+003, -6.030947e-004
2.992980e+003, -7.288009e-004
2.994909e+003, -6.471127e-004
2.996837e+003, -5.064458e-004
2.998766e+003, -2.894849e-004
3.000694e+003, 2.691150e-005
3.002623e+003, 6.018579e-005
3.004551e+003, 8.551776e-005
3.006479e+003, -1.516193e-004
3.008408e+003, -5.272031e-005
3.010336e+003, 1.963675e-004
3.012265e+003, 8.052588e-005
3.014193e+003, -2.937019e-005
3.016122e+003, -9.819865e-005
3.018050e+003, -4.414320e-004
3.019979e+003, -4.467815e-004
3.021907e+003, 5.517900e-005
3.023836e+003, 2.747029e-004
3.025764e+003, 3.628582e-004
3.027693e+003, 2.041012e-004
3.029621e+003, 2.868176e-004
3.031550e+003, 3.220290e-004
3.033478e+003, 2.563596e-004
3.035406e+003, 5.285740e-004
3.037335e+003, 7.165372e-004
3.039263e+003, 7.515997e-004
3.041192e+003, 1.019314e-003
3.043120e+003, 1.108900e-003
3.045049e+003, 1.223058e-003
3.046977e+003, 1.434207e-003
3.048906e+003, 1.450896e-003
3.050834e+003, 1.223832e-003
3.052763e+003, 1.274586e-003
3.054691e+003, 1.486808e-003
3.056620e+003, 1.649469e-003
3.058548e+003, 1.593307e-003
3.060477e+003, 1.317546e-003
3.062405e+003, 1.191542e-003
3.064333e+003, 1.226321e-003
3.066262e+003, 1.299471e-003
3.068190e+003, 1.453355e-003
3.070119e+003, 1.433998e-003
3.072047e+003, 1.572847e-003
3.073976e+003, 2.002850e-003
3.075904e+003, 2.031639e-003
3.077833e+003, 2.162367e-003
3.079761e+003, 1.974866e-003
3.081690e+003, 1.911223e-003
3.083618e+003, 1.844272e-003
3.085547e+003, 1.755878e-003
3.087475e+003, 1.617715e-003
3.089404e+003, 1.836747e-003
3.091332e+003, 2.067000e-003
3.093260e+003, 1.944423e-003
3.095189e+003, 1.938134e-003
3.097117e+003, 2.070248e-003
3.099046e+003, 2.726629e-003
3.100974e+003, 2.930269e-003
3.102903e+003, 2.597973e-003
3.104831e+003, 2.284437e-003
3.106760e+003, 2.428368e-003
3.108688e+003, 2.585188e-003
3.110617e+003, 2.572820e-003
3.112545e+003, 2.726242e-003
3.114474e+003, 2.708972e-003
3.116402e+003, 2.600372e-003
3.118331e+003, 2.761513e-003
3.120259e+003, 2.724484e-003
3.122188e+003, 2.894431e-003
3.124116e+003, 3.026873e-003
3.126044e+003, 3.055409e-003
3.127973e+003, 3.448680e-003
3.129901e+003, 3.358588e-003
3.131830e+003, 3.159642e-003
3.133758e+003, 3.676295e-003
3.135687e+003, 3.777727e-003
3.137615e+003, 3.905892e-003
3.139544e+003, 4.208744e-003
3.141472e+003, 3.829211e-003
3.143401e+003, 3.901094e-003
3.145329e+003, 4.297003e-003
3.147258e+003, 4.067734e-003
3.149186e+003, 3.942519e-003
3.151115e+003, 3.968865e-003
3.153043e+003, 4.405871e-003
3.154971e+003, 4.697978e-003
3.156900e+003, 4.729211e-003
3.158828e+003, 4.680648e-003
3.160757e+003, 4.409015e-003
3.162685e+003, 3.891408e-003
3.164614e+003, 4.098937e-003
3.166542e+003, 4.556283e-003
3.168471e+003, 4.692778e-003
3.170399e+003, 4.815713e-003
3.172328e+003, 4.812241e-003
3.174256e+003, 4.548550e-003
3.176185e+003, 4.693016e-003
3.178113e+003, 4.792601e-003
3.180042e+003, 4.302189e-003
3.181970e+003, 4.297480e-003
3.183898e+003, 4.523084e-003
3.185827e+003, 5.099818e-003
3.187755e+003, 5.250603e-003
3.189684e+003, 5.257472e-003
3.191612e+003, 5.248278e-003
3.193541e+003, 5.365431e-003
3.195469e+003, 5.749524e-003
3.197398e+003, 5.762264e-003
3.199326e+003, 5.524367e-003
3.201255e+003, 5.323216e-003
3.203183e+003, 5.575046e-003
3.205112e+003, 5.973384e-003
3.207040e+003, 5.688116e-003
3.208969e+003, 5.453885e-003
3.210897e+003, 5.280957e-003
3.212825e+003, 5.599320e-003
3.214754e+003, 5.673081e-003
3.216682e+003, 5.952612e-003
3.218611e+003, 6.478488e-003
3.220539e+003, 6.478220e-003
3.222468e+003, 6.761223e-003
3.224396e+003, 6.744161e-003
3.226325e+003, 6.616831e-003
3.228253e+003, 7.100746e-003
3.230182e+003, 7.317767e-003
3.232110e+003, 6.877691e-003
3.234039e+003, 6.218538e-003
3.235967e+003, 5.785152e-003
3.237896e+003, 6.322280e-003
3.239824e+003, 6.856635e-003
3.241752e+003, 7.077143e-003
3.243681e+003, 6.837681e-003
3.245609e+003, 6.888792e-003
3.247538e+003, 6.984130e-003
3.249466e+003, 6.972000e-003
3.251395e+003, 6.976441e-003
3.253323e+003, 7.158235e-003
3.255252e+003, 7.549167e-003
3.257180e+003, 7.311583e-003
3.259109e+003, 7.481337e-003
3.261037e+003, 7.560924e-003
3.262966e+003, 7.615715e-003
3.264894e+003, 7.779509e-003
3.266823e+003, 7.842556e-003
3.268751e+003, 7.671759e-003
3.270679e+003, 7.812709e-003
3.272608e+003, 8.226082e-003
3.274536e+003, 8.100674e-003
3.276465e+003, 8.223668e-003
3.278393e+003, 8.589625e-003
3.280322e+003, 7.916510e-003
3.282250e+003, 8.036137e-003
3.284179e+003, 8.473277e-003
3.286107e+003, 8.580863e-003
3.288036e+003, 8.775949e-003
3.289964e+003, 8.460224e-003
3.291893e+003, 8.297071e-003
3.293821e+003, 8.718893e-003
3.295750e+003, 8.839428e-003
3.297678e+003, 8.621305e-003
3.299606e+003, 8.646473e-003
3.301535e+003, 9.030491e-003
3.303463e+003, 8.985460e-003
3.305392e+003, 9.050727e-003
3.307320e+003, 9.451509e-003
3.309249e+003, 9.623617e-003
3.311177e+003, 9.497747e-003
3.313106e+003, 9.307966e-003
3.315034e+003, 8.925512e-003
3.316963e+003, 8.810610e-003
3.318891e+003, 9.193256e-003
3.320820e+003, 9.897500e-003
3.322748e+003, 9.883240e-003
3.324677e+003, 9.735450e-003
3.326605e+003, 9.914264e-003
3.328533e+003, 1.022474e-002
3.330462e+003, 1.033877e-002
3.332390e+003, 1.040934e-002
3.334319e+003, 1.021086e-002
3.336247e+003, 1.053086e-002
3.338176e+003, 1.097807e-002
3.340104e+003, 1.108602e-002
3.342033e+003, 1.063465e-002
3.343961e+003, 1.066722e-002
3.345890e+003, 1.111501e-002
3.347818e+003, 1.157720e-002
3.349747e+003, 1.206242e-002
3.351675e+003, 1.211956e-002
3.353604e+003, 1.169541e-002
3.355532e+003, 1.157033e-002
3.357460e+003, 1.195766e-002
3.359389e+003, 1.200248e-002
3.361317e+003, 1.215117e-002
3.363246e+003, 1.216304e-002
3.365174e+003, 1.258500e-002
3.367103e+003, 1.299752e-002
3.369031e+003, 1.249819e-002
3.370960e+003, 1.240639e-002
3.372888e+003, 1.337020e-002
3.374817e+003, 1.379666e-002
3.376745e+003, 1.334904e-002
3.378674e+003, 1.311104e-002
3.380602e+003, 1.322372e-002
3.382531e+003, 1.362605e-002
3.384459e+003, 1.426622e-002
3.386387e+003, 1.418620e-002
3.388316e+003, 1.426549e-002
3.390244e+003, 1.476207e-002
3.392173e+003, 1.483758e-002
3.394101e+003, 1.460174e-002
3.396030e+003, 1.464581e-002
3.397958e+003, 1.542991e-002
3.399887e+003, 1.613803e-002
3.401815e+003, 1.662438e-002
3.403744e+003, 1.631229e-002
3.405672e+003, 1.586972e-002
3.407601e+003, 1.629741e-002
3.409529e+003, 1.678036e-002
3.411458e+003, 1.645204e-002
3.413386e+003, 1.623991e-002
3.415314e+003, 1.631671e-002
3.417243e+003, 1.676899e-002
3.419171e+003, 1.713629e-002
3.421100e+003, 1.713897e-002
3.423028e+003, 1.687613e-002
3.424957e+003, 1.684920e-002
3.426885e+003, 1.668918e-002
3.428814e+003, 1.684710e-002
3.430742e+003, 1.745540e-002
3.432671e+003, 1.828435e-002
3.434599e+003, 1.886877e-002
3.436528e+003, 1.906359e-002
3.438456e+003, 1.937775e-002
3.440385e+003, 1.992026e-002
3.442313e+003, 2.043350e-002
3.444241e+003, 2.082364e-002
3.446170e+003, 2.125682e-002
3.448098e+003, 2.186503e-002
3.450027e+003, 2.245276e-002
3.451955e+003, 2.325609e-002
3.453884e+003, 2.400172e-002
3.455812e+003, 2.455178e-002
3.457741e+003, 2.501349e-002
3.459669e+003, 2.562299e-002
3.461598e+003, 2.628893e-002
3.463526e+003, 2.709393e-002
3.465455e+003, 2.746099e-002
3.467383e+003, 2.782449e-002
3.469312e+003, 2.839434e-002
3.471240e+003, 2.904372e-002
3.473168e+003, 3.010085e-002
3.475097e+003, 3.131038e-002
3.477025e+003, 3.184132e-002
3.478954e+003, 3.255361e-002
3.480882e+003, 3.422040e-002
3.482811e+003, 3.675036e-002
3.484739e+003, 3.894970e-002
3.486668e+003, 4.137695e-002
3.488596e+003, 4.424639e-002
3.490525e+003, 4.768007e-002
3.492453e+003, 5.114688e-002
3.494382e+003, 5.540185e-002
3.496310e+003, 6.085587e-002
3.498239e+003, 6.660756e-002
3.500167e+003, 7.206312e-002
3.502095e+003, 7.816666e-002
3.504024e+003, 8.494419e-002
3.505952e+003, 9.035045e-002
3.507881e+003, 9.285860e-002
3.509809e+003, 9.010991e-002
3.511738e+003, 8.043325e-002
3.513666e+003, 6.723161e-002
3.515595e+003, 5.536401e-002
3.517523e+003, 4.585616e-002
3.519452e+003, 3.851692e-002
3.521380e+003, 3.305937e-002
3.523309e+003, 2.864888e-002
3.525237e+003, 2.499732e-002
3.527166e+003, 2.255784e-002
3.529094e+003, 2.051876e-002
3.531022e+003, 1.862976e-002
3.532951e+003, 1.674378e-002
3.534879e+003, 1.507802e-002
3.536808e+003, 1.450047e-002
3.538736e+003, 1.358466e-002
3.540665e+003, 1.222266e-002
3.542593e+003, 1.134218e-002
3.544522e+003, 9.993136e-003
3.546450e+003, 8.825779e-003
3.548379e+003, 7.795930e-003
3.550307e+003, 6.524652e-003
3.552236e+003, 5.683631e-003
3.554164e+003, 5.231336e-003
3.556093e+003, 4.964754e-003
3.558021e+003, 3.985450e-003
3.559949e+003, 3.196895e-003
3.561878e+003, 2.921492e-003
3.563806e+003, 2.422526e-003
3.565735e+003, 2.070665e-003
3.567663e+003, 2.137765e-003
3.569592e+003, 2.084687e-003
3.571520e+003, 1.529858e-003
3.573449e+003, 1.122519e-003
3.575377e+003, 1.308069e-003
3.577306e+003, 1.652554e-003
3.579234e+003, 1.071021e-003
3.581163e+003, 2.975315e-004
3.583091e+003, 6.952435e-004
3.585020e+003, 1.088351e-003
3.586948e+003, 9.886175e-004
3.588876e+003, 7.641912e-004
3.590805e+003, 6.350130e-004
3.592733e+003, 5.176812e-004
3.594662e+003, 2.460182e-004
3.596590e+003, 5.894601e-004
3.598519e+003, 6.708950e-004
3.600447e+003, 5.226135e-004
3.602376e+003, 6.079078e-004
3.604304e+003, 5.263239e-004
3.606233e+003, 4.072487e-004
3.608161e+003, 4.874319e-004
3.610090e+003, 4.463643e-004
3.612018e+003, -5.260110e-004
3.613947e+003, -6.961673e-004
3.615875e+003, -4.355162e-004
3.617803e+003, -1.792610e-004
3.619732e+003, 9.909272e-006
3.621660e+003, -3.474951e-004
3.623589e+003, -5.782992e-004
3.625517e+003, -2.485067e-004
3.627446e+003, -6.052703e-004
3.629374e+003, -2.807975e-004
3.631303e+003, 1.513660e-004
3.633231e+003, 3.435463e-004
3.635160e+003, 8.471310e-004
3.637088e+003, 2.014488e-004
3.639017e+003, -2.648681e-004
3.640945e+003, 5.060136e-004
3.642874e+003, 1.337677e-004
3.644802e+003, -3.558397e-005
3.646730e+003, -6.095171e-004
3.648659e+003, -7.579774e-004
3.650587e+003, -8.311868e-005
3.652516e+003, 1.156181e-004
3.654444e+003, 6.197393e-005
3.656373e+003, 2.831668e-004
3.658301e+003, -3.930926e-005
3.660230e+003, -1.598895e-004
3.662158e+003, 3.679693e-004
3.664087e+003, 6.663501e-004
3.666015e+003, 6.684810e-004
3.667944e+003, 2.004057e-004
3.669872e+003, -3.587157e-004
3.671801e+003, -4.778355e-004
3.673729e+003, -2.610683e-004
3.675657e+003, 3.577471e-004
3.677586e+003, 9.011924e-004
3.679514e+003, 8.368641e-004
3.681443e+003, 5.726665e-004
3.683371e+003, 4.013926e-004
3.685300e+003, 1.943260e-004
3.687228e+003, -1.359284e-004
3.689157e+003, -5.436391e-004
3.691085e+003, -8.558333e-004
3.693014e+003, -3.488064e-004
3.694942e+003, 7.145107e-005
3.696871e+003, -4.070848e-004
3.698799e+003, -8.072257e-004
3.700728e+003, -5.901903e-004
3.702656e+003, -2.716482e-004
3.704584e+003, 4.872680e-005
3.706513e+003, 3.162026e-004
3.708441e+003, -2.583116e-004
3.710370e+003, -3.646016e-004
3.712298e+003, -1.781434e-004
3.714227e+003, 2.638102e-004
3.716155e+003, 6.600171e-004
3.718084e+003, 6.760508e-004
3.720012e+003, 9.655952e-005
3.721941e+003, -3.474504e-004
3.723869e+003, -1.196563e-005
3.725798e+003, 3.824234e-004
3.727726e+003, 7.162988e-004
3.729655e+003, 2.608001e-004
3.731583e+003, -3.884733e-005
3.733511e+003, 1.029372e-004
3.735440e+003, 3.179610e-004
3.737368e+003, 5.064607e-004
3.739297e+003, 7.194430e-004
3.741225e+003, 6.127805e-004
3.743154e+003, 1.566112e-005
3.745082e+003, -2.113134e-004
3.747011e+003, -2.539158e-004
3.748939e+003, -7.658005e-004
3.750868e+003, -1.089528e-003
3.752796e+003, -5.968511e-004
3.754725e+003, -1.779497e-004
3.756653e+003, -6.184578e-004
3.758582e+003, -5.313903e-004
3.760510e+003, -2.509356e-005
3.762438e+003, 5.714446e-004
3.764367e+003, 3.671646e-004
3.766295e+003, -1.816452e-004
3.768224e+003, -3.297776e-004
3.770152e+003, -5.089641e-004
3.772081e+003, -2.869368e-004
3.774009e+003, 2.413988e-006
3.775938e+003, -5.137920e-005
3.777866e+003, -2.452731e-004
3.779795e+003, -2.789944e-004
3.781723e+003, -1.004189e-004
3.783652e+003, -5.770922e-004
3.785580e+003, -8.272231e-004
3.787509e+003, -8.680820e-004
3.789437e+003, -9.608865e-004
3.791365e+003, -1.084045e-003
3.793294e+003, -4.605949e-004
3.795222e+003, 1.519918e-004
3.797151e+003, -1.290441e-004
3.799079e+003, -8.387864e-005
3.801008e+003, -2.569109e-004
3.802936e+003, -4.231036e-004
3.804865e+003, -6.165951e-004
3.806793e+003, -6.115437e-004
3.808722e+003, -4.026592e-004
3.810650e+003, -3.011823e-004
3.812579e+003, -5.508959e-004
3.814507e+003, -1.274467e-003
3.816436e+003, -1.157567e-003
3.818364e+003, -2.827346e-004
3.820292e+003, -1.652539e-005
3.822221e+003, 8.790195e-005
3.824149e+003, 1.778156e-004
3.826078e+003, 1.206696e-004
3.828006e+003, 5.609244e-004
3.829935e+003, 4.909188e-004
3.831863e+003, 3.264099e-004
3.833792e+003, -2.476424e-004
3.835720e+003, -7.470846e-004
3.837649e+003, -1.078755e-003
3.839577e+003, -8.222759e-004
3.841506e+003, -5.941987e-004
3.843434e+003, -4.649311e-004
3.845363e+003, 1.089573e-004
3.847291e+003, 7.039309e-005
3.849219e+003, 8.706748e-005
3.851148e+003, -3.835559e-005
3.853076e+003, -1.069173e-003
3.855005e+003, -9.790510e-004
3.856933e+003, -2.837777e-004
3.858862e+003, -9.959936e-005
3.860790e+003, 1.300275e-004
3.862719e+003, 6.457418e-004
3.864647e+003, 5.355328e-004
3.866576e+003, 4.498661e-005
3.868504e+003, -3.903359e-004
3.870433e+003, -4.559606e-004
3.872361e+003, -5.162209e-004
3.874290e+003, -3.933012e-004
3.876218e+003, -4.371852e-004
3.878146e+003, -6.830096e-004
3.880075e+003, -5.138665e-004
3.882003e+003, -4.186928e-004
3.883932e+003, -7.286966e-004
3.885860e+003, -3.912300e-004
3.887789e+003, -2.735108e-004
3.889717e+003, -9.633303e-004
3.891646e+003, -1.019046e-003
3.893574e+003, -7.725954e-004
3.895503e+003, -3.714561e-004
3.897431e+003, -1.616627e-004
3.899360e+003, -1.212656e-004
3.901288e+003, 2.411008e-005
3.903217e+003, -3.954917e-004
3.905145e+003, -1.382321e-003
3.907073e+003, -1.691088e-003
3.909002e+003, -7.383376e-004
3.910930e+003, -4.813224e-004
3.912859e+003, -3.797859e-004
3.914787e+003, -5.623698e-004
3.916716e+003, -5.635023e-004
3.918644e+003, -6.149858e-004
3.920573e+003, -3.866553e-004
3.922501e+003, -2.300292e-004
3.924430e+003, -4.800409e-004
3.926358e+003, -2.430528e-004
3.928287e+003, -1.147240e-004
3.930215e+003, 2.956837e-004
3.932144e+003, 3.243089e-004
3.934072e+003, -4.075915e-004
3.936000e+003, -1.104221e-003
3.937929e+003, -8.884668e-004
3.939857e+003, -4.861355e-004
3.941786e+003, -3.550053e-004
3.943714e+003, -7.143021e-004
3.945643e+003, -1.646236e-003
3.947571e+003, -1.886800e-003
3.949500e+003, -1.260549e-003
3.951428e+003, 4.072487e-005
3.953357e+003, 1.840740e-004
3.955285e+003, -1.892000e-004
3.957214e+003, -5.059242e-004
3.959142e+003, -1.084730e-003
3.961071e+003, -1.649946e-003
3.962999e+003, -1.353070e-003
3.964927e+003, -1.113847e-003
3.966856e+003, -7.358193e-004
3.968784e+003, -3.079325e-004
3.970713e+003, -5.784929e-004
3.972641e+003, -6.916821e-004
3.974570e+003, 4.056543e-004
3.976498e+003, 5.763620e-004
3.978427e+003, 1.393557e-004
3.980355e+003, 1.309961e-004
3.982284e+003, -6.580353e-004
3.984212e+003, -1.579359e-003
3.986141e+003, -1.152769e-003
3.988069e+003, -2.910197e-005
3.989998e+003, 2.525747e-004
3.991926e+003, -5.826205e-004
3.993854e+003, -6.679595e-004
3.995783e+003, -1.980364e-005
3.997711e+003, 6.768107e-005
3.999640e+003, -4.591197e-004
4.001568e+003, 0.000000e+000
##END=



