##NAMES=Merwinite
##RRUFFID=R070195
##IDEAL CHEMISTRY=Ca_3_Mg(SiO_4_)_2_
##LOCALITY=Commercial Quarry, Riverside County, California, USA
##OWNER=RRUFF
##SOURCE=California Institute of Technology
##DESCRIPTION=Light gray massive
##STATUS=The identification of this mineral has been confirmed by X-ray diffraction and chemical analysis
##URL=rruff.info/R070195
##MEASURED CHEMISTRY=Ca_3.00_(Mg_0.98_Fe^2+^_0.02_)_Î£=1_(Si_1.00_O_4_)_2_
3.991926e+002, 6.123024e-002
4.011211e+002, 6.036495e-002
4.030495e+002, 6.177308e-002
4.049780e+002, 6.086015e-002
4.069065e+002, 5.948473e-002
4.088349e+002, 6.122146e-002
4.107634e+002, 6.189430e-002
4.126919e+002, 6.000654e-002
4.146203e+002, 5.660687e-002
4.165488e+002, 5.436976e-002
4.184773e+002, 5.276248e-002
4.204057e+002, 5.002397e-002
4.223342e+002, 4.608468e-002
4.242627e+002, 4.333933e-002
4.261911e+002, 4.235593e-002
4.281196e+002, 4.173796e-002
4.300481e+002, 4.192641e-002
4.319765e+002, 4.215527e-002
4.339050e+002, 4.187578e-002
4.358335e+002, 4.019076e-002
4.377619e+002, 3.726665e-002
4.396904e+002, 3.398039e-002
4.416189e+002, 3.138087e-002
4.435473e+002, 2.958899e-002
4.454758e+002, 2.765106e-002
4.474043e+002, 2.526694e-002
4.493327e+002, 2.307275e-002
4.512612e+002, 2.140929e-002
4.531897e+002, 1.998765e-002
4.551181e+002, 1.897002e-002
4.570466e+002, 1.798336e-002
4.589751e+002, 1.714965e-002
4.609035e+002, 1.640579e-002
4.628320e+002, 1.647876e-002
4.647605e+002, 1.655080e-002
4.666889e+002, 1.616903e-002
4.686174e+002, 1.588201e-002
4.705459e+002, 1.539628e-002
4.724743e+002, 1.531578e-002
4.744028e+002, 1.527899e-002
4.763313e+002, 1.542361e-002
4.782597e+002, 1.596823e-002
4.801882e+002, 1.638319e-002
4.821167e+002, 1.677408e-002
4.840451e+002, 1.737095e-002
4.859736e+002, 1.798441e-002
4.879021e+002, 1.889617e-002
4.898305e+002, 2.003840e-002
4.917590e+002, 2.124317e-002
4.936875e+002, 2.259357e-002
4.956159e+002, 2.362011e-002
4.975444e+002, 2.525942e-002
4.994729e+002, 2.821659e-002
5.014013e+002, 3.157172e-002
5.033298e+002, 3.504154e-002
5.052583e+002, 3.896853e-002
5.071867e+002, 4.326289e-002
5.091152e+002, 4.706997e-002
5.110437e+002, 4.976691e-002
5.129721e+002, 5.136620e-002
5.149006e+002, 5.135200e-002
5.168290e+002, 4.896815e-002
5.187575e+002, 4.478712e-002
5.206860e+002, 4.196056e-002
5.226144e+002, 4.163412e-002
5.245429e+002, 4.201407e-002
5.264714e+002, 4.142485e-002
5.283998e+002, 4.033548e-002
5.303283e+002, 4.017178e-002
5.322568e+002, 4.115979e-002
5.341852e+002, 4.184103e-002
5.361137e+002, 4.176281e-002
5.380422e+002, 4.076587e-002
5.399706e+002, 3.882681e-002
5.418991e+002, 3.589837e-002
5.438276e+002, 3.232715e-002
5.457560e+002, 2.934162e-002
5.476845e+002, 2.679347e-002
5.496130e+002, 2.471109e-002
5.515414e+002, 2.287466e-002
5.534699e+002, 2.110397e-002
5.553984e+002, 1.947488e-002
5.573268e+002, 1.820310e-002
5.592553e+002, 1.735519e-002
5.611838e+002, 1.602096e-002
5.631122e+002, 1.433690e-002
5.650407e+002, 1.292278e-002
5.669692e+002, 1.187049e-002
5.688976e+002, 1.068863e-002
5.708261e+002, 9.695124e-003
5.727546e+002, 9.020275e-003
5.746830e+002, 8.252164e-003
5.766115e+002, 7.694192e-003
5.785400e+002, 7.807114e-003
5.804684e+002, 8.114113e-003
5.823969e+002, 8.259074e-003
5.843254e+002, 8.796568e-003
5.862538e+002, 9.547933e-003
5.881823e+002, 9.805409e-003
5.901108e+002, 9.093483e-003
5.920392e+002, 8.250477e-003
5.939677e+002, 7.608558e-003
5.958962e+002, 7.036878e-003
5.978246e+002, 6.684141e-003
5.997531e+002, 6.427826e-003
6.016816e+002, 6.181575e-003
6.036100e+002, 5.964309e-003
6.055385e+002, 5.491436e-003
6.074670e+002, 5.249576e-003
6.093954e+002, 5.467432e-003
6.113239e+002, 5.459776e-003
6.132524e+002, 5.080070e-003
6.151808e+002, 4.946064e-003
6.171093e+002, 4.983836e-003
6.190378e+002, 5.003673e-003
6.209662e+002, 5.032489e-003
6.228947e+002, 4.973542e-003
6.248232e+002, 4.795051e-003
6.267516e+002, 4.830734e-003
6.286801e+002, 4.770909e-003
6.306086e+002, 4.702355e-003
6.325370e+002, 4.827330e-003
6.344655e+002, 4.967730e-003
6.363940e+002, 4.819728e-003
6.383224e+002, 4.813263e-003
6.402509e+002, 4.965943e-003
6.421794e+002, 5.190186e-003
6.441078e+002, 5.442194e-003
6.460363e+002, 5.472413e-003
6.479648e+002, 5.476467e-003
6.498932e+002, 5.434039e-003
6.518217e+002, 5.427398e-003
6.537502e+002, 5.651311e-003
6.556786e+002, 5.704861e-003
6.576071e+002, 5.638845e-003
6.595356e+002, 5.613480e-003
6.614641e+002, 5.438233e-003
6.633925e+002, 5.201114e-003
6.653210e+002, 5.054217e-003
6.672495e+002, 5.112293e-003
6.691779e+002, 5.234599e-003
6.711064e+002, 5.154157e-003
6.730349e+002, 5.147700e-003
6.749633e+002, 5.166888e-003
6.768918e+002, 5.096860e-003
6.788203e+002, 4.978584e-003
6.807487e+002, 4.971670e-003
6.826772e+002, 5.178654e-003
6.846057e+002, 5.182919e-003
6.865341e+002, 4.979015e-003
6.884626e+002, 5.090671e-003
6.903911e+002, 5.209516e-003
6.923195e+002, 5.238493e-003
6.942480e+002, 5.200025e-003
6.961765e+002, 5.195413e-003
6.981049e+002, 5.249388e-003
7.000334e+002, 5.296860e-003
7.019619e+002, 5.392999e-003
7.038903e+002, 5.607050e-003
7.058188e+002, 5.776706e-003
7.077473e+002, 5.820785e-003
7.096757e+002, 5.798736e-003
7.116042e+002, 5.944815e-003
7.135327e+002, 6.119577e-003
7.154611e+002, 5.975030e-003
7.173896e+002, 5.771795e-003
7.193181e+002, 5.927581e-003
7.212465e+002, 6.047269e-003
7.231750e+002, 5.982980e-003
7.251035e+002, 5.983337e-003
7.270319e+002, 6.071636e-003
7.289604e+002, 6.178068e-003
7.308889e+002, 6.232099e-003
7.328173e+002, 6.304561e-003
7.347458e+002, 6.461310e-003
7.366743e+002, 6.484919e-003
7.386027e+002, 6.552347e-003
7.405312e+002, 6.700910e-003
7.424597e+002, 6.986663e-003
7.443881e+002, 6.959898e-003
7.463166e+002, 7.040621e-003
7.482451e+002, 7.328358e-003
7.501735e+002, 7.504323e-003
7.521020e+002, 7.461933e-003
7.540305e+002, 7.526236e-003
7.559589e+002, 7.718227e-003
7.578874e+002, 8.012014e-003
7.598159e+002, 8.162077e-003
7.617443e+002, 8.153171e-003
7.636728e+002, 8.362776e-003
7.656013e+002, 8.636806e-003
7.675297e+002, 8.695626e-003
7.694582e+002, 8.927993e-003
7.713867e+002, 9.247480e-003
7.733151e+002, 9.568849e-003
7.752436e+002, 9.763620e-003
7.771721e+002, 1.004076e-002
7.791005e+002, 1.033282e-002
7.810290e+002, 1.046497e-002
7.829575e+002, 1.078812e-002
7.848859e+002, 1.122539e-002
7.868144e+002, 1.151572e-002
7.887429e+002, 1.183818e-002
7.906713e+002, 1.220919e-002
7.925998e+002, 1.251839e-002
7.945283e+002, 1.281024e-002
7.964567e+002, 1.321972e-002
7.983852e+002, 1.372351e-002
8.003137e+002, 1.414692e-002
8.022421e+002, 1.447579e-002
8.041706e+002, 1.487654e-002
8.060991e+002, 1.548994e-002
8.080275e+002, 1.603127e-002
8.099560e+002, 1.650657e-002
8.118845e+002, 1.695172e-002
8.138129e+002, 1.746944e-002
8.157414e+002, 1.817531e-002
8.176699e+002, 1.895451e-002
8.195983e+002, 1.962424e-002
8.215268e+002, 2.029143e-002
8.234553e+002, 2.106379e-002
8.253837e+002, 2.186131e-002
8.273122e+002, 2.273155e-002
8.292407e+002, 2.356562e-002
8.311691e+002, 2.421819e-002
8.330976e+002, 2.480423e-002
8.350261e+002, 2.565640e-002
8.369545e+002, 2.662493e-002
8.388830e+002, 2.750755e-002
8.408115e+002, 2.852760e-002
8.427399e+002, 2.961696e-002
8.446684e+002, 3.062402e-002
8.465969e+002, 3.174637e-002
8.485253e+002, 3.319513e-002
8.504538e+002, 3.481795e-002
8.523823e+002, 3.634132e-002
8.543107e+002, 3.801768e-002
8.562392e+002, 3.969139e-002
8.581677e+002, 4.135002e-002
8.600961e+002, 4.310274e-002
8.620246e+002, 4.492311e-002
8.639531e+002, 4.638729e-002
8.658815e+002, 4.702547e-002
8.678100e+002, 4.685291e-002
8.697385e+002, 4.616274e-002
8.716669e+002, 4.547185e-002
8.735954e+002, 4.514960e-002
8.755239e+002, 4.569356e-002
8.774523e+002, 4.706731e-002
8.793808e+002, 4.862953e-002
8.813093e+002, 5.002352e-002
8.832377e+002, 5.114232e-002
8.851662e+002, 5.162376e-002
8.870947e+002, 5.115307e-002
8.890231e+002, 4.980876e-002
8.909516e+002, 4.764593e-002
8.928801e+002, 4.485752e-002
8.948085e+002, 4.218404e-002
8.967370e+002, 4.099074e-002
8.986655e+002, 4.154665e-002
9.005939e+002, 4.306617e-002
9.025224e+002, 4.430391e-002
9.044509e+002, 4.448485e-002
9.063793e+002, 4.377383e-002
9.083078e+002, 4.256545e-002
9.102363e+002, 4.136287e-002
9.121647e+002, 4.037912e-002
9.140932e+002, 3.992390e-002
9.160217e+002, 4.030056e-002
9.179501e+002, 4.140277e-002
9.198786e+002, 4.298748e-002
9.218071e+002, 4.456428e-002
9.237355e+002, 4.592590e-002
9.256640e+002, 4.704832e-002
9.275925e+002, 4.797165e-002
9.295209e+002, 4.870921e-002
9.314494e+002, 4.939713e-002
9.333779e+002, 4.977957e-002
9.353063e+002, 5.014246e-002
9.372348e+002, 5.055895e-002
9.391633e+002, 5.078233e-002
9.410917e+002, 5.084410e-002
9.430202e+002, 5.055955e-002
9.449487e+002, 4.992477e-002
9.468771e+002, 4.901524e-002
9.488056e+002, 4.804918e-002
9.507341e+002, 4.688662e-002
9.526625e+002, 4.549050e-002
9.545910e+002, 4.419479e-002
9.565195e+002, 4.310564e-002
9.584479e+002, 4.208155e-002
9.603764e+002, 4.086453e-002
9.623049e+002, 3.971593e-002
9.642333e+002, 3.873225e-002
9.661618e+002, 3.782126e-002
9.680903e+002, 3.684486e-002
9.700187e+002, 3.584737e-002
9.719472e+002, 3.496770e-002
9.738757e+002, 3.429774e-002
9.758041e+002, 3.372654e-002
9.777326e+002, 3.330793e-002
9.796611e+002, 3.289389e-002
9.815895e+002, 3.251466e-002
9.835180e+002, 3.226208e-002
9.854465e+002, 3.181030e-002
9.873749e+002, 3.142928e-002
9.893034e+002, 3.125987e-002
9.912319e+002, 3.146417e-002
9.931603e+002, 3.187821e-002
9.950888e+002, 3.215625e-002
9.970173e+002, 3.214858e-002
9.989457e+002, 3.168229e-002
1.000874e+003, 3.065692e-002
1.002803e+003, 2.930826e-002
1.004731e+003, 2.789097e-002
1.006660e+003, 2.664951e-002
1.008588e+003, 2.593512e-002
1.010517e+003, 2.575890e-002
1.012445e+003, 2.611645e-002
1.014373e+003, 2.687619e-002
1.016302e+003, 2.800621e-002
1.018230e+003, 2.918982e-002
1.020159e+003, 3.026323e-002
1.022087e+003, 3.050983e-002
1.024016e+003, 2.978661e-002
1.025944e+003, 2.834926e-002
1.027873e+003, 2.662531e-002
1.029801e+003, 2.485941e-002
1.031730e+003, 2.327108e-002
1.033658e+003, 2.207304e-002
1.035587e+003, 2.093519e-002
1.037515e+003, 1.977798e-002
1.039443e+003, 1.882882e-002
1.041372e+003, 1.769049e-002
1.043300e+003, 1.654021e-002
1.045229e+003, 1.553664e-002
1.047157e+003, 1.453966e-002
1.049086e+003, 1.346115e-002
1.051014e+003, 1.241655e-002
1.052943e+003, 1.154513e-002
1.054871e+003, 1.073966e-002
1.056800e+003, 9.952239e-003
1.058728e+003, 9.138918e-003
1.060657e+003, 8.382299e-003
1.062585e+003, 7.743340e-003
1.064514e+003, 7.160998e-003
1.066442e+003, 6.604398e-003
1.068370e+003, 5.877910e-003
1.070299e+003, 5.242276e-003
1.072227e+003, 5.007855e-003
1.074156e+003, 4.800589e-003
1.076084e+003, 4.594518e-003
1.078013e+003, 4.566826e-003
1.079941e+003, 4.327943e-003
1.081870e+003, 4.043581e-003
1.083798e+003, 3.843071e-003
1.085727e+003, 3.682882e-003
1.087655e+003, 3.546195e-003
1.089584e+003, 3.307093e-003
1.091512e+003, 2.903654e-003
1.093441e+003, 2.657218e-003
1.095369e+003, 2.547608e-003
1.097297e+003, 2.394648e-003
1.099226e+003, 2.138005e-003
1.101154e+003, 1.975030e-003
1.103083e+003, 1.912505e-003
1.105011e+003, 1.832889e-003
1.106940e+003, 1.700396e-003
1.108868e+003, 1.602489e-003
1.110797e+003, 1.510196e-003
1.112725e+003, 1.329815e-003
1.114654e+003, 1.223398e-003
1.116582e+003, 1.181602e-003
1.118511e+003, 1.112912e-003
1.120439e+003, 1.107909e-003
1.122368e+003, 1.141276e-003
1.124296e+003, 1.019957e-003
1.126224e+003, 9.354077e-004
1.128153e+003, 8.949154e-004
1.130081e+003, 8.126117e-004
1.132010e+003, 7.688410e-004
1.133938e+003, 8.539616e-004
1.135867e+003, 9.174740e-004
1.137795e+003, 9.076252e-004
1.139724e+003, 8.672463e-004
1.141652e+003, 9.393530e-004
1.143581e+003, 9.466722e-004
1.145509e+003, 8.214622e-004
1.147438e+003, 8.005295e-004
1.149366e+003, 8.410888e-004
1.151295e+003, 8.075379e-004
1.153223e+003, 7.409611e-004
1.155151e+003, 7.391337e-004
1.157080e+003, 7.469716e-004
1.159008e+003, 6.914531e-004
1.160937e+003, 6.199229e-004
1.162865e+003, 6.103825e-004
1.164794e+003, 6.755042e-004
1.166722e+003, 7.229605e-004
1.168651e+003, 6.473044e-004
1.170579e+003, 6.615380e-004
1.172508e+003, 5.905114e-004
1.174436e+003, 4.224677e-004
1.176365e+003, 3.745182e-004
1.178293e+003, 4.676979e-004
1.180222e+003, 5.665216e-004
1.182150e+003, 6.858833e-004
1.184078e+003, 7.202391e-004
1.186007e+003, 5.787798e-004
1.187935e+003, 5.647865e-004
1.189864e+003, 5.954632e-004
1.191792e+003, 6.688605e-004
1.193721e+003, 7.725271e-004
1.195649e+003, 6.932792e-004
1.197578e+003, 5.573346e-004
1.199506e+003, 5.410046e-004
1.201435e+003, 5.727588e-004
1.203363e+003, 5.895251e-004
1.205292e+003, 5.775961e-004
1.207220e+003, 4.900299e-004
1.209149e+003, 4.695995e-004
1.211077e+003, 4.660108e-004
1.213005e+003, 3.649873e-004
1.214934e+003, 3.462319e-004
1.216862e+003, 5.812842e-004
1.218791e+003, 7.054440e-004
1.220719e+003, 7.139316e-004
1.222648e+003, 7.262963e-004
1.224576e+003, 6.814498e-004
1.226505e+003, 6.491980e-004
1.228433e+003, 6.745486e-004
1.230362e+003, 6.138119e-004
1.232290e+003, 5.230933e-004
1.234219e+003, 5.926865e-004
1.236147e+003, 7.018737e-004
1.238076e+003, 7.514407e-004
1.240004e+003, 6.599633e-004
1.241932e+003, 7.050350e-004
1.243861e+003, 8.433636e-004
1.245789e+003, 8.853123e-004
1.247718e+003, 7.519940e-004
1.249646e+003, 6.921256e-004
1.251575e+003, 7.792769e-004
1.253503e+003, 7.425044e-004
1.255432e+003, 6.574708e-004
1.257360e+003, 6.732469e-004
1.259289e+003, 8.067696e-004
1.261217e+003, 8.466349e-004
1.263146e+003, 7.823319e-004
1.265074e+003, 7.238805e-004
1.267003e+003, 8.382833e-004
1.268931e+003, 8.950194e-004
1.270859e+003, 9.116058e-004
1.272788e+003, 9.205507e-004
1.274716e+003, 9.354415e-004
1.276645e+003, 8.518652e-004
1.278573e+003, 7.985054e-004
1.280502e+003, 8.526540e-004
1.282430e+003, 9.102868e-004
1.284359e+003, 8.629794e-004
1.286287e+003, 8.388349e-004
1.288216e+003, 8.835261e-004
1.290144e+003, 9.646193e-004
1.292073e+003, 1.053383e-003
1.294001e+003, 1.048340e-003
1.295930e+003, 9.765583e-004
1.297858e+003, 1.083821e-003
1.299786e+003, 1.143342e-003
1.301715e+003, 1.248556e-003
1.303643e+003, 1.314912e-003
1.305572e+003, 1.254466e-003
1.307500e+003, 1.206998e-003
1.309429e+003, 1.084181e-003
1.311357e+003, 9.711656e-004
1.313286e+003, 9.873270e-004
1.315214e+003, 9.977259e-004
1.317143e+003, 1.009332e-003
1.319071e+003, 9.901003e-004
1.321000e+003, 1.020837e-003
1.322928e+003, 1.157681e-003
1.324857e+003, 1.135220e-003
1.326785e+003, 1.117932e-003
1.328714e+003, 1.266554e-003
1.330642e+003, 1.354474e-003
1.332570e+003, 1.356879e-003
1.334499e+003, 1.259616e-003
1.336427e+003, 1.217993e-003
1.338356e+003, 1.228993e-003
1.340284e+003, 1.289511e-003
1.342213e+003, 1.259276e-003
1.344141e+003, 1.220426e-003
1.346070e+003, 1.260034e-003
1.347998e+003, 1.319091e-003
1.349927e+003, 1.348370e-003
1.351855e+003, 1.410819e-003
1.353784e+003, 1.451771e-003
1.355712e+003, 1.421958e-003
1.357641e+003, 1.386420e-003
1.359569e+003, 1.395343e-003
1.361497e+003, 1.442723e-003
1.363426e+003, 1.518407e-003
1.365354e+003, 1.433568e-003
1.367283e+003, 1.412978e-003
1.369211e+003, 1.529353e-003
1.371140e+003, 1.652997e-003
1.373068e+003, 1.708428e-003
1.374997e+003, 1.693556e-003
1.376925e+003, 1.717070e-003
1.378854e+003, 1.976525e-003
1.380782e+003, 2.087215e-003
1.382711e+003, 1.929241e-003
1.384639e+003, 1.829348e-003
1.386568e+003, 1.867242e-003
1.388496e+003, 1.956745e-003
1.390424e+003, 2.102346e-003
1.392353e+003, 2.109613e-003
1.394281e+003, 2.081939e-003
1.396210e+003, 2.089228e-003
1.398138e+003, 2.048093e-003
1.400067e+003, 2.113154e-003
1.401995e+003, 2.191447e-003
1.403924e+003, 2.176814e-003
1.405852e+003, 2.123055e-003
1.407781e+003, 2.155738e-003
1.409709e+003, 2.223146e-003
1.411638e+003, 2.376519e-003
1.413566e+003, 2.429843e-003
1.415495e+003, 2.461787e-003
1.417423e+003, 2.451420e-003
1.419351e+003, 2.331721e-003
1.421280e+003, 2.208830e-003
1.423208e+003, 2.314154e-003
1.425137e+003, 2.368339e-003
1.427065e+003, 2.440705e-003
1.428994e+003, 2.388722e-003
1.430922e+003, 2.342734e-003
1.432851e+003, 2.436729e-003
1.434779e+003, 2.520529e-003
1.436708e+003, 2.600110e-003
1.438636e+003, 2.562867e-003
1.440565e+003, 2.480421e-003
1.442493e+003, 2.397086e-003
1.444422e+003, 2.417346e-003
1.446350e+003, 2.448765e-003
1.448278e+003, 2.357422e-003
1.450207e+003, 2.342523e-003
1.452135e+003, 2.416152e-003
1.454064e+003, 2.378881e-003
1.455992e+003, 2.392448e-003
1.457921e+003, 2.342668e-003
1.459849e+003, 2.284499e-003
1.461778e+003, 2.265400e-003
1.463706e+003, 2.280460e-003
1.465635e+003, 2.448801e-003
1.467563e+003, 2.446849e-003
1.469492e+003, 2.433593e-003
1.471420e+003, 2.419071e-003
1.473349e+003, 2.430768e-003
1.475277e+003, 2.372225e-003
1.477205e+003, 2.283170e-003
1.479134e+003, 2.404105e-003
1.481062e+003, 2.529164e-003
1.482991e+003, 2.459303e-003
1.484919e+003, 2.282550e-003
1.486848e+003, 2.356218e-003
1.488776e+003, 2.461915e-003
1.490705e+003, 2.496589e-003
1.492633e+003, 2.444712e-003
1.494562e+003, 2.382856e-003
1.496490e+003, 2.308050e-003
1.498419e+003, 2.272560e-003
1.500347e+003, 2.291299e-003
1.502276e+003, 2.256331e-003
1.504204e+003, 2.351909e-003
1.506132e+003, 2.411171e-003
1.508061e+003, 2.334571e-003
1.509989e+003, 2.292920e-003
1.511918e+003, 2.172796e-003
1.513846e+003, 2.028933e-003
1.515775e+003, 2.124473e-003
1.517703e+003, 2.252809e-003
1.519632e+003, 2.334241e-003
1.521560e+003, 2.281552e-003
1.523489e+003, 2.138830e-003
1.525417e+003, 2.076534e-003
1.527346e+003, 2.145006e-003
1.529274e+003, 2.180453e-003
1.531203e+003, 2.108331e-003
1.533131e+003, 2.127599e-003
1.535059e+003, 2.083895e-003
1.536988e+003, 1.980211e-003
1.538916e+003, 1.998806e-003
1.540845e+003, 2.056156e-003
1.542773e+003, 1.873547e-003
1.544702e+003, 1.902220e-003
1.546630e+003, 2.036633e-003
1.548559e+003, 2.054303e-003
1.550487e+003, 2.054182e-003
1.552416e+003, 1.949428e-003
1.554344e+003, 1.940899e-003
1.556273e+003, 1.922829e-003
1.558201e+003, 1.894250e-003
1.560130e+003, 1.901156e-003
1.562058e+003, 1.852747e-003
1.563986e+003, 1.880861e-003
1.565915e+003, 1.916843e-003
1.567843e+003, 1.974532e-003
1.569772e+003, 2.059593e-003
1.571700e+003, 1.982889e-003
1.573629e+003, 1.859570e-003
1.575557e+003, 1.915559e-003
1.577486e+003, 2.077631e-003
1.579414e+003, 1.979920e-003
1.581343e+003, 1.848774e-003
1.583271e+003, 1.910102e-003
1.585200e+003, 2.027575e-003
1.587128e+003, 2.104730e-003
1.589057e+003, 2.185878e-003
1.590985e+003, 2.243108e-003
1.592913e+003, 2.142844e-003
1.594842e+003, 2.082627e-003
1.596770e+003, 1.964801e-003
1.598699e+003, 1.897322e-003
1.600627e+003, 1.924021e-003
1.602556e+003, 1.990717e-003
1.604484e+003, 2.112229e-003
1.606413e+003, 2.182415e-003
1.608341e+003, 2.111695e-003
1.610270e+003, 1.984194e-003
1.612198e+003, 1.910076e-003
1.614127e+003, 1.947274e-003
1.616055e+003, 2.014951e-003
1.617984e+003, 1.859950e-003
1.619912e+003, 1.705740e-003
1.621840e+003, 1.870203e-003
1.623769e+003, 1.954374e-003
1.625697e+003, 1.834685e-003
1.627626e+003, 1.845026e-003
1.629554e+003, 1.935078e-003
1.631483e+003, 1.834764e-003
1.633411e+003, 1.747732e-003
1.635340e+003, 1.848663e-003
1.637268e+003, 1.797760e-003
1.639197e+003, 1.799061e-003
1.641125e+003, 1.864962e-003
1.643054e+003, 1.823325e-003
1.644982e+003, 1.780494e-003
1.646911e+003, 1.821806e-003
1.648839e+003, 1.653125e-003
1.650767e+003, 1.627045e-003
1.652696e+003, 1.772704e-003
1.654624e+003, 1.842541e-003
1.656553e+003, 1.836544e-003
1.658481e+003, 1.825901e-003
1.660410e+003, 1.808830e-003
1.662338e+003, 1.679634e-003
1.664267e+003, 1.613269e-003
1.666195e+003, 1.781870e-003
1.668124e+003, 1.876968e-003
1.670052e+003, 1.818668e-003
1.671981e+003, 1.773673e-003
1.673909e+003, 1.753702e-003
1.675838e+003, 1.803983e-003
1.677766e+003, 1.704750e-003
1.679694e+003, 1.677032e-003
1.681623e+003, 1.683537e-003
1.683551e+003, 1.638951e-003
1.685480e+003, 1.616593e-003
1.687408e+003, 1.561066e-003
1.689337e+003, 1.594487e-003
1.691265e+003, 1.534646e-003
1.693194e+003, 1.598521e-003
1.695122e+003, 1.688495e-003
1.697051e+003, 1.589709e-003
1.698979e+003, 1.487887e-003
1.700908e+003, 1.515045e-003
1.702836e+003, 1.680175e-003
1.704765e+003, 1.737562e-003
1.706693e+003, 1.647990e-003
1.708621e+003, 1.416009e-003
1.710550e+003, 1.376893e-003
1.712478e+003, 1.539225e-003
1.714407e+003, 1.670583e-003
1.716335e+003, 1.613473e-003
1.718264e+003, 1.581452e-003
1.720192e+003, 1.577858e-003
1.722121e+003, 1.699660e-003
1.724049e+003, 1.745136e-003
1.725978e+003, 1.662428e-003
1.727906e+003, 1.589351e-003
1.729835e+003, 1.563039e-003
1.731763e+003, 1.542471e-003
1.733692e+003, 1.525251e-003
1.735620e+003, 1.642091e-003
1.737548e+003, 1.840632e-003
1.739477e+003, 1.762947e-003
1.741405e+003, 1.575633e-003
1.743334e+003, 1.510061e-003
1.745262e+003, 1.477778e-003
1.747191e+003, 1.463924e-003
1.749119e+003, 1.432210e-003
1.751048e+003, 1.411875e-003
1.752976e+003, 1.531334e-003
1.754905e+003, 1.533601e-003
1.756833e+003, 1.420972e-003
1.758762e+003, 1.267656e-003
1.760690e+003, 1.291544e-003
1.762619e+003, 1.347133e-003
1.764547e+003, 1.230949e-003
1.766475e+003, 1.268467e-003
1.768404e+003, 1.189390e-003
1.770332e+003, 1.114200e-003
1.772261e+003, 1.437274e-003
1.774189e+003, 1.778330e-003
1.776118e+003, 1.631338e-003
1.778046e+003, 1.361107e-003
1.779975e+003, 1.371505e-003
1.781903e+003, 1.550924e-003
1.783832e+003, 1.637475e-003
1.785760e+003, 1.436603e-003
1.787689e+003, 1.410916e-003
1.789617e+003, 1.512661e-003
1.791546e+003, 1.429898e-003
1.793474e+003, 1.358511e-003
1.795402e+003, 1.381068e-003
1.797331e+003, 1.465959e-003
1.799259e+003, 1.593092e-003
1.801188e+003, 1.586965e-003
1.803116e+003, 1.507251e-003
1.805045e+003, 1.531754e-003
1.806973e+003, 1.576104e-003
1.808902e+003, 1.603491e-003
1.810830e+003, 1.426776e-003
1.812759e+003, 1.401760e-003
1.814687e+003, 1.617898e-003
1.816616e+003, 1.520766e-003
1.818544e+003, 1.362954e-003
1.820473e+003, 1.408510e-003
1.822401e+003, 1.512965e-003
1.824329e+003, 1.320001e-003
1.826258e+003, 1.232362e-003
1.828186e+003, 1.329769e-003
1.830115e+003, 1.343260e-003
1.832043e+003, 1.328623e-003
1.833972e+003, 1.366726e-003
1.835900e+003, 1.424956e-003
1.837829e+003, 1.360389e-003
1.839757e+003, 1.167417e-003
1.841686e+003, 1.269359e-003
1.843614e+003, 1.399061e-003
1.845543e+003, 1.490272e-003
1.847471e+003, 1.548559e-003
1.849400e+003, 1.405723e-003
1.851328e+003, 1.225503e-003
1.853256e+003, 9.831556e-004
1.855185e+003, 1.097676e-003
1.857113e+003, 1.189892e-003
1.859042e+003, 1.349930e-003
1.860970e+003, 1.541958e-003
1.862899e+003, 1.641089e-003
1.864827e+003, 1.607868e-003
1.866756e+003, 1.322447e-003
1.868684e+003, 9.329449e-004
1.870613e+003, 4.141383e-004
1.872541e+003, 5.735587e-004
1.874470e+003, 8.723499e-004
1.876398e+003, 9.600758e-004
1.878327e+003, 8.877894e-004
1.880255e+003, 1.002905e-003
1.882183e+003, 1.171855e-003
1.884112e+003, 1.029715e-003
1.886040e+003, 9.250934e-004
1.887969e+003, 9.150171e-004
1.889897e+003, 1.017453e-003
1.891826e+003, 1.313398e-003
1.893754e+003, 1.429065e-003
1.895683e+003, 1.207622e-003
1.897611e+003, 7.676904e-004
1.899540e+003, 5.074478e-004
1.901468e+003, 6.583950e-004
1.903397e+003, 7.708515e-004
1.905325e+003, 6.254237e-004
1.907254e+003, 5.910210e-004
1.909182e+003, 7.023448e-004
1.911110e+003, 1.081879e-003
1.913039e+003, 1.219504e-003
1.914967e+003, 1.320567e-003
1.916896e+003, 1.328576e-003
1.918824e+003, 1.070903e-003
1.920753e+003, 7.782628e-004
1.922681e+003, 5.718315e-004
1.924610e+003, 1.026563e-003
1.926538e+003, 8.439918e-004
1.928467e+003, 3.348280e-004
1.930395e+003, 8.658500e-004
1.932324e+003, 1.160884e-003
1.934252e+003, 9.672198e-004
1.936181e+003, 8.704999e-004
1.938109e+003, 8.288121e-004
1.940037e+003, 6.878976e-004
1.941966e+003, 1.000453e-003
1.943894e+003, 9.734600e-004
1.945823e+003, 4.122763e-004
1.947751e+003, -2.204292e-004
1.949680e+003, -4.762967e-004
1.951608e+003, -4.582839e-004
1.953537e+003, 2.372634e-004
1.955465e+003, 7.277367e-004
1.957394e+003, -4.072882e-005
1.959322e+003, -5.722095e-004
1.961251e+003, 1.761903e-004
1.963179e+003, 5.915571e-004
1.965108e+003, 2.110539e-004
1.967036e+003, 5.629137e-004
1.968964e+003, 1.185379e-003
1.970893e+003, 1.166072e-003
1.972821e+003, 6.549062e-004
1.974750e+003, 4.222021e-004
1.976678e+003, 3.350740e-004
1.978607e+003, 9.768880e-005
1.980535e+003, 1.466802e-004
1.982464e+003, 5.100138e-004
1.984392e+003, 7.767369e-004
1.986321e+003, 9.974078e-004
1.988249e+003, 1.396902e-003
1.990178e+003, 1.134298e-003
1.992106e+003, 2.814976e-004
1.994035e+003, 2.292674e-005
1.995963e+003, 7.090514e-004
1.997891e+003, 1.128884e-003
1.999820e+003, 6.072395e-004
2.001748e+003, 5.630911e-004
2.003677e+003, 1.158611e-003
2.005605e+003, 1.170839e-003
2.007534e+003, 8.415224e-004
2.009462e+003, 9.572359e-004
2.011391e+003, 1.561700e-003
2.013319e+003, 1.333136e-003
2.015248e+003, 6.454683e-004
2.017176e+003, 3.601928e-004
2.019105e+003, 2.832381e-004
2.021033e+003, 1.431070e-003
2.022962e+003, 2.309094e-003
2.024890e+003, 1.363039e-003
2.026818e+003, 3.975902e-004
2.028747e+003, 7.938966e-004
2.030675e+003, 1.297796e-003
2.032604e+003, 1.209530e-003
2.034532e+003, 2.112663e-003
2.036461e+003, 1.615437e-003
2.038389e+003, 7.704946e-004
2.040318e+003, 2.205516e-004
2.042246e+003, 1.249352e-003
2.044175e+003, 1.477035e-003
2.046103e+003, 1.093539e-003
2.048031e+003, 9.009525e-004
2.049960e+003, 1.344065e-003
2.051888e+003, 1.387954e-003
2.053817e+003, 1.233397e-003
2.055745e+003, 1.473251e-003
2.057674e+003, 1.417953e-003
2.059602e+003, 1.272954e-003
2.061531e+003, 1.315600e-003
2.063459e+003, 1.375854e-003
2.065388e+003, 1.657786e-003
2.067316e+003, 1.337539e-003
2.069245e+003, 8.992347e-004
2.071173e+003, 1.291720e-003
2.073102e+003, 1.434708e-003
2.075030e+003, 1.000928e-003
2.076958e+003, 1.231444e-003
2.078887e+003, 1.498529e-003
2.080815e+003, 1.360083e-003
2.082744e+003, 1.544583e-003
2.084672e+003, 1.462018e-003
2.086601e+003, 1.923302e-003
2.088529e+003, 2.067047e-003
2.090458e+003, 1.719546e-003
2.092386e+003, 1.610210e-003
2.094315e+003, 1.039131e-003
2.096243e+003, 1.128612e-003
2.098172e+003, 9.759007e-004
2.100100e+003, 1.123512e-003
2.102029e+003, 1.096511e-003
2.103957e+003, 1.281518e-003
2.105885e+003, 2.086882e-003
2.107814e+003, 1.820383e-003
2.109742e+003, 1.519581e-003
2.111671e+003, 2.236950e-003
2.113599e+003, 1.993034e-003
2.115528e+003, 1.287935e-003
2.117456e+003, 1.551842e-003
2.119385e+003, 1.908483e-003
2.121313e+003, 1.876060e-003
2.123242e+003, 1.794655e-003
2.125170e+003, 1.756494e-003
2.127099e+003, 1.834425e-003
2.129027e+003, 2.220403e-003
2.130956e+003, 2.273517e-003
2.132884e+003, 1.629977e-003
2.134813e+003, 1.780410e-003
2.136741e+003, 1.944473e-003
2.138669e+003, 1.443036e-003
2.140598e+003, 1.637080e-003
2.142526e+003, 1.875400e-003
2.144455e+003, 1.541593e-003
2.146383e+003, 1.033852e-003
2.148312e+003, 1.205681e-003
2.150240e+003, 1.997526e-003
2.152169e+003, 1.366515e-003
2.154097e+003, 6.847981e-004
2.156026e+003, 1.796240e-003
2.157954e+003, 1.870492e-003
2.159883e+003, 1.897764e-003
2.161811e+003, 2.431100e-003
2.163740e+003, 3.197944e-003
2.165668e+003, 2.699290e-003
2.167596e+003, 1.767527e-003
2.169525e+003, 2.633378e-003
2.171453e+003, 3.841618e-003
2.173382e+003, 3.893549e-003
2.175310e+003, 3.065783e-003
2.177239e+003, 3.053954e-003
2.179167e+003, 3.217630e-003
2.181096e+003, 3.343398e-003
2.183024e+003, 2.945825e-003
2.184953e+003, 2.441663e-003
2.186881e+003, 2.370956e-003
2.188810e+003, 1.580889e-003
2.190738e+003, 2.123244e-003
2.192667e+003, 3.168092e-003
2.194595e+003, 2.731626e-003
2.196523e+003, 2.973094e-003
2.198452e+003, 2.817080e-003
2.200380e+003, 2.203981e-003
2.202309e+003, 2.311679e-003
2.204237e+003, 2.684594e-003
2.206166e+003, 3.193317e-003
2.208094e+003, 3.058627e-003
2.210023e+003, 2.645379e-003
2.211951e+003, 2.497111e-003
2.213880e+003, 1.620819e-003
2.215808e+003, 1.716370e-003
2.217737e+003, 2.063763e-003
2.219665e+003, 2.925553e-003
2.221594e+003, 2.746259e-003
2.223522e+003, 2.260317e-003
2.225450e+003, 2.784674e-003
2.227379e+003, 2.746454e-003
2.229307e+003, 2.375264e-003
2.231236e+003, 2.063211e-003
2.233164e+003, 2.613203e-003
2.235093e+003, 3.418515e-003
2.237021e+003, 3.500388e-003
2.238950e+003, 3.253499e-003
2.240878e+003, 3.254513e-003
2.242807e+003, 3.550387e-003
2.244735e+003, 3.438114e-003
2.246664e+003, 3.016393e-003
2.248592e+003, 2.840306e-003
2.250521e+003, 3.393547e-003
2.252449e+003, 3.074321e-003
2.254377e+003, 2.355102e-003
2.256306e+003, 2.033577e-003
2.258234e+003, 2.022793e-003
2.260163e+003, 2.527512e-003
2.262091e+003, 2.946965e-003
2.264020e+003, 2.924723e-003
2.265948e+003, 2.934895e-003
2.267877e+003, 3.287767e-003
2.269805e+003, 3.600448e-003
2.271734e+003, 3.357103e-003
2.273662e+003, 3.022339e-003
2.275591e+003, 2.903296e-003
2.277519e+003, 2.727533e-003
2.279448e+003, 2.606931e-003
2.281376e+003, 2.532137e-003
2.283304e+003, 2.777326e-003
2.285233e+003, 2.850670e-003
2.287161e+003, 2.396415e-003
2.289090e+003, 2.228752e-003
2.291018e+003, 2.811830e-003
2.292947e+003, 3.121593e-003
2.294875e+003, 2.760595e-003
2.296804e+003, 2.492191e-003
2.298732e+003, 2.279821e-003
2.300661e+003, 2.517239e-003
2.302589e+003, 2.816085e-003
2.304518e+003, 2.684679e-003
2.306446e+003, 2.505259e-003
2.308375e+003, 2.608266e-003
2.310303e+003, 2.550583e-003
2.312231e+003, 2.474984e-003
2.314160e+003, 2.702447e-003
2.316088e+003, 2.610827e-003
2.318017e+003, 2.663055e-003
2.319945e+003, 3.091419e-003
2.321874e+003, 3.199331e-003
2.323802e+003, 2.909902e-003
2.325731e+003, 2.693165e-003
2.327659e+003, 2.725480e-003
2.329588e+003, 2.869849e-003
2.331516e+003, 2.931338e-003
2.333445e+003, 2.766289e-003
2.335373e+003, 2.718684e-003
2.337302e+003, 3.108410e-003
2.339230e+003, 3.154047e-003
2.341158e+003, 2.784690e-003
2.343087e+003, 2.719958e-003
2.345015e+003, 2.820988e-003
2.346944e+003, 2.713519e-003
2.348872e+003, 2.783408e-003
2.350801e+003, 2.863488e-003
2.352729e+003, 2.724742e-003
2.354658e+003, 2.713520e-003
2.356586e+003, 3.114320e-003
2.358515e+003, 3.386314e-003
2.360443e+003, 3.382727e-003
2.362372e+003, 3.397899e-003
2.364300e+003, 3.348484e-003
2.366229e+003, 3.283807e-003
2.368157e+003, 3.076880e-003
2.370085e+003, 2.780434e-003
2.372014e+003, 2.958293e-003
2.373942e+003, 3.127158e-003
2.375871e+003, 2.852976e-003
2.377799e+003, 2.755830e-003
2.379728e+003, 2.783523e-003
2.381656e+003, 2.763544e-003
2.383585e+003, 2.647322e-003
2.385513e+003, 2.705412e-003
2.387442e+003, 2.919940e-003
2.389370e+003, 2.959137e-003
2.391299e+003, 2.884611e-003
2.393227e+003, 2.883598e-003
2.395156e+003, 2.861092e-003
2.397084e+003, 3.072960e-003
2.399012e+003, 3.195185e-003
2.400941e+003, 2.959745e-003
2.402869e+003, 2.898489e-003
2.404798e+003, 2.678311e-003
2.406726e+003, 3.057408e-003
2.408655e+003, 3.459265e-003
2.410583e+003, 3.457307e-003
2.412512e+003, 3.280358e-003
2.414440e+003, 3.189332e-003
2.416369e+003, 3.147952e-003
2.418297e+003, 3.108110e-003
2.420226e+003, 2.921275e-003
2.422154e+003, 2.862601e-003
2.424083e+003, 2.896935e-003
2.426011e+003, 2.638112e-003
2.427939e+003, 2.739734e-003
2.429868e+003, 2.863806e-003
2.431796e+003, 2.895004e-003
2.433725e+003, 2.832371e-003
2.435653e+003, 2.923064e-003
2.437582e+003, 2.802928e-003
2.439510e+003, 2.882222e-003
2.441439e+003, 3.041145e-003
2.443367e+003, 2.921037e-003
2.445296e+003, 2.920580e-003
2.447224e+003, 3.032576e-003
2.449153e+003, 3.274989e-003
2.451081e+003, 3.309828e-003
2.453010e+003, 3.055069e-003
2.454938e+003, 2.594630e-003
2.456866e+003, 2.411279e-003
2.458795e+003, 2.712884e-003
2.460723e+003, 2.714440e-003
2.462652e+003, 2.677384e-003
2.464580e+003, 2.719431e-003
2.466509e+003, 2.596209e-003
2.468437e+003, 2.772887e-003
2.470366e+003, 3.146955e-003
2.472294e+003, 3.007206e-003
2.474223e+003, 2.937948e-003
2.476151e+003, 2.954553e-003
2.478080e+003, 2.861021e-003
2.480008e+003, 2.750048e-003
2.481937e+003, 2.726133e-003
2.483865e+003, 2.911602e-003
2.485793e+003, 2.973244e-003
2.487722e+003, 2.890336e-003
2.489650e+003, 3.253266e-003
2.491579e+003, 3.311764e-003
2.493507e+003, 2.910644e-003
2.495436e+003, 2.733169e-003
2.497364e+003, 3.091473e-003
2.499293e+003, 2.934087e-003
2.501221e+003, 2.550670e-003
2.503150e+003, 2.236273e-003
2.505078e+003, 2.295554e-003
2.507007e+003, 2.655990e-003
2.508935e+003, 2.618116e-003
2.510864e+003, 2.646899e-003
2.512792e+003, 2.796418e-003
2.514720e+003, 2.888871e-003
2.516649e+003, 3.213692e-003
2.518577e+003, 3.209878e-003
2.520506e+003, 3.014847e-003
2.522434e+003, 2.845443e-003
2.524363e+003, 3.308777e-003
2.526291e+003, 3.550111e-003
2.528220e+003, 3.252497e-003
2.530148e+003, 2.893397e-003
2.532077e+003, 2.785075e-003
2.534005e+003, 3.151902e-003
2.535934e+003, 3.080992e-003
2.537862e+003, 3.167325e-003
2.539791e+003, 3.131080e-003
2.541719e+003, 3.273580e-003
2.543647e+003, 3.618047e-003
2.545576e+003, 3.512395e-003
2.547504e+003, 3.237009e-003
2.549433e+003, 3.390272e-003
2.551361e+003, 3.209353e-003
2.553290e+003, 3.140595e-003
2.555218e+003, 3.408666e-003
2.557147e+003, 3.720048e-003
2.559075e+003, 3.781898e-003
2.561004e+003, 3.533597e-003
2.562932e+003, 3.425345e-003
2.564861e+003, 3.300572e-003
2.566789e+003, 2.869385e-003
2.568718e+003, 2.703024e-003
2.570646e+003, 3.011534e-003
2.572574e+003, 3.083026e-003
2.574503e+003, 2.907343e-003
2.576431e+003, 3.098263e-003
2.578360e+003, 3.316058e-003
2.580288e+003, 3.465436e-003
2.582217e+003, 3.614023e-003
2.584145e+003, 3.598425e-003
2.586074e+003, 3.230416e-003
2.588002e+003, 2.947693e-003
2.589931e+003, 3.040837e-003
2.591859e+003, 3.195959e-003
2.593788e+003, 3.172223e-003
2.595716e+003, 3.229696e-003
2.597645e+003, 3.418125e-003
2.599573e+003, 3.354572e-003
2.601501e+003, 3.392507e-003
2.603430e+003, 3.807286e-003
2.605358e+003, 3.879229e-003
2.607287e+003, 3.616350e-003
2.609215e+003, 3.366060e-003
2.611144e+003, 3.286462e-003
2.613072e+003, 3.247905e-003
2.615001e+003, 3.471903e-003
2.616929e+003, 3.438456e-003
2.618858e+003, 3.194269e-003
2.620786e+003, 3.434204e-003
2.622715e+003, 3.465931e-003
2.624643e+003, 3.247809e-003
2.626572e+003, 3.014746e-003
2.628500e+003, 2.976180e-003
2.630428e+003, 3.160575e-003
2.632357e+003, 3.337042e-003
2.634285e+003, 3.282675e-003
2.636214e+003, 3.172781e-003
2.638142e+003, 3.106295e-003
2.640071e+003, 3.362613e-003
2.641999e+003, 3.362084e-003
2.643928e+003, 3.272727e-003
2.645856e+003, 3.411483e-003
2.647785e+003, 3.389420e-003
2.649713e+003, 3.448598e-003
2.651642e+003, 3.157694e-003
2.653570e+003, 3.206631e-003
2.655499e+003, 3.458686e-003
2.657427e+003, 3.371385e-003
2.659355e+003, 3.068101e-003
2.661284e+003, 2.932055e-003
2.663212e+003, 3.076001e-003
2.665141e+003, 3.362926e-003
2.667069e+003, 3.370412e-003
2.668998e+003, 3.215165e-003
2.670926e+003, 3.243756e-003
2.672855e+003, 3.331804e-003
2.674783e+003, 3.345940e-003
2.676712e+003, 3.246336e-003
2.678640e+003, 3.179343e-003
2.680569e+003, 3.132917e-003
2.682497e+003, 3.015219e-003
2.684426e+003, 3.013909e-003
2.686354e+003, 3.049897e-003
2.688282e+003, 3.206419e-003
2.690211e+003, 3.327783e-003
2.692139e+003, 3.280968e-003
2.694068e+003, 3.304087e-003
2.695996e+003, 3.376417e-003
2.697925e+003, 3.388605e-003
2.699853e+003, 3.272787e-003
2.701782e+003, 3.055655e-003
2.703710e+003, 3.170294e-003
2.705639e+003, 3.376625e-003
2.707567e+003, 3.276380e-003
2.709496e+003, 3.084542e-003
2.711424e+003, 3.143216e-003
2.713353e+003, 3.358483e-003
2.715281e+003, 3.461204e-003
2.717209e+003, 3.227831e-003
2.719138e+003, 3.082240e-003
2.721066e+003, 3.208455e-003
2.722995e+003, 3.390595e-003
2.724923e+003, 3.399244e-003
2.726852e+003, 3.198697e-003
2.728780e+003, 3.140309e-003
2.730709e+003, 3.250853e-003
2.732637e+003, 3.145111e-003
2.734566e+003, 3.127799e-003
2.736494e+003, 3.330478e-003
2.738423e+003, 3.032416e-003
2.740351e+003, 2.623619e-003
2.742280e+003, 2.775000e-003
2.744208e+003, 3.289626e-003
2.746136e+003, 3.500718e-003
2.748065e+003, 3.287219e-003
2.749993e+003, 3.272897e-003
2.751922e+003, 3.225180e-003
2.753850e+003, 3.315734e-003
2.755779e+003, 3.236384e-003
2.757707e+003, 3.083727e-003
2.759636e+003, 3.163167e-003
2.761564e+003, 3.331444e-003
2.763493e+003, 3.425136e-003
2.765421e+003, 3.553883e-003
2.767350e+003, 3.338699e-003
2.769278e+003, 3.280023e-003
2.771207e+003, 3.610497e-003
2.773135e+003, 3.611074e-003
2.775063e+003, 3.451280e-003
2.776992e+003, 3.268862e-003
2.778920e+003, 3.039506e-003
2.780849e+003, 2.947029e-003
2.782777e+003, 3.291944e-003
2.784706e+003, 3.246856e-003
2.786634e+003, 3.223275e-003
2.788563e+003, 3.317688e-003
2.790491e+003, 3.131603e-003
2.792420e+003, 3.069205e-003
2.794348e+003, 3.328657e-003
2.796277e+003, 3.348514e-003
2.798205e+003, 2.911796e-003
2.800134e+003, 2.830569e-003
2.802062e+003, 3.166929e-003
2.803990e+003, 3.388495e-003
2.805919e+003, 3.342440e-003
2.807847e+003, 3.413215e-003
2.809776e+003, 3.748527e-003
2.811704e+003, 3.642048e-003
2.813633e+003, 3.564976e-003
2.815561e+003, 3.585945e-003
2.817490e+003, 3.563871e-003
2.819418e+003, 3.425968e-003
2.821347e+003, 3.334571e-003
2.823275e+003, 3.293983e-003
2.825204e+003, 3.317165e-003
2.827132e+003, 3.276317e-003
2.829061e+003, 3.236446e-003
2.830989e+003, 3.483676e-003
2.832917e+003, 3.557403e-003
2.834846e+003, 3.284880e-003
2.836774e+003, 3.165451e-003
2.838703e+003, 3.018241e-003
2.840631e+003, 2.818205e-003
2.842560e+003, 3.105997e-003
2.844488e+003, 3.429968e-003
2.846417e+003, 3.531129e-003
2.848345e+003, 3.474369e-003
2.850274e+003, 3.592174e-003
2.852202e+003, 3.482864e-003
2.854131e+003, 3.198945e-003
2.856059e+003, 3.374839e-003
2.857988e+003, 3.821110e-003
2.859916e+003, 3.842223e-003
2.861844e+003, 3.535909e-003
2.863773e+003, 3.216316e-003
2.865701e+003, 2.863919e-003
2.867630e+003, 2.966514e-003
2.869558e+003, 2.940394e-003
2.871487e+003, 2.850533e-003
2.873415e+003, 3.203951e-003
2.875344e+003, 3.195498e-003
2.877272e+003, 2.682572e-003
2.879201e+003, 3.004495e-003
2.881129e+003, 3.536185e-003
2.883058e+003, 3.313735e-003
2.884986e+003, 3.275506e-003
2.886915e+003, 3.690157e-003
2.888843e+003, 3.470303e-003
2.890771e+003, 3.028571e-003
2.892700e+003, 3.062297e-003
2.894628e+003, 3.080203e-003
2.896557e+003, 3.414609e-003
2.898485e+003, 3.468885e-003
2.900414e+003, 3.381863e-003
2.902342e+003, 3.148954e-003
2.904271e+003, 3.143618e-003
2.906199e+003, 3.573522e-003
2.908128e+003, 3.804253e-003
2.910056e+003, 3.721769e-003
2.911985e+003, 3.812976e-003
2.913913e+003, 4.085911e-003
2.915842e+003, 4.074173e-003
2.917770e+003, 4.042243e-003
2.919698e+003, 4.001922e-003
2.921627e+003, 3.945814e-003
2.923555e+003, 3.757687e-003
2.925484e+003, 3.833374e-003
2.927412e+003, 3.818098e-003
2.929341e+003, 3.472040e-003
2.931269e+003, 3.589836e-003
2.933198e+003, 3.581769e-003
2.935126e+003, 3.507958e-003
2.937055e+003, 3.686806e-003
2.938983e+003, 3.212333e-003
2.940912e+003, 3.180152e-003
2.942840e+003, 3.381177e-003
2.944769e+003, 3.424482e-003
2.946697e+003, 3.528836e-003
2.948625e+003, 3.592280e-003
2.950554e+003, 3.471989e-003
2.952482e+003, 3.180307e-003
2.954411e+003, 3.204956e-003
2.956339e+003, 3.725552e-003
2.958268e+003, 3.678242e-003
2.960196e+003, 3.313301e-003
2.962125e+003, 3.400776e-003
2.964053e+003, 3.524804e-003
2.965982e+003, 3.283124e-003
2.967910e+003, 3.276879e-003
2.969839e+003, 3.486197e-003
2.971767e+003, 3.422903e-003
2.973696e+003, 3.495664e-003
2.975624e+003, 3.862386e-003
2.977552e+003, 3.831839e-003
2.979481e+003, 3.475837e-003
2.981409e+003, 3.278018e-003
2.983338e+003, 3.064116e-003
2.985266e+003, 3.161184e-003
2.987195e+003, 3.425390e-003
2.989123e+003, 3.576565e-003
2.991052e+003, 3.587419e-003
2.992980e+003, 3.629113e-003
2.994909e+003, 3.667972e-003
2.996837e+003, 3.167364e-003
2.998766e+003, 3.184841e-003
3.000694e+003, 3.167055e-003
3.002623e+003, 3.250873e-003
3.004551e+003, 3.476435e-003
3.006479e+003, 3.250255e-003
3.008408e+003, 3.084070e-003
3.010336e+003, 3.679265e-003
3.012265e+003, 4.038691e-003
3.014193e+003, 3.986879e-003
3.016122e+003, 4.405397e-003
3.018050e+003, 4.536249e-003
3.019979e+003, 3.564018e-003
3.021907e+003, 2.765644e-003
3.023836e+003, 3.433351e-003
3.025764e+003, 4.185219e-003
3.027693e+003, 3.900189e-003
3.029621e+003, 3.378024e-003
3.031550e+003, 3.029161e-003
3.033478e+003, 3.184931e-003
3.035406e+003, 3.206011e-003
3.037335e+003, 3.461393e-003
3.039263e+003, 3.522254e-003
3.041192e+003, 3.708186e-003
3.043120e+003, 3.629243e-003
3.045049e+003, 3.248662e-003
3.046977e+003, 3.245254e-003
3.048906e+003, 3.406616e-003
3.050834e+003, 3.469885e-003
3.052763e+003, 3.592261e-003
3.054691e+003, 3.667198e-003
3.056620e+003, 3.368122e-003
3.058548e+003, 3.319042e-003
3.060477e+003, 3.377354e-003
3.062405e+003, 3.422615e-003
3.064333e+003, 3.300993e-003
3.066262e+003, 3.475412e-003
3.068190e+003, 4.013231e-003
3.070119e+003, 3.866590e-003
3.072047e+003, 3.367876e-003
3.073976e+003, 3.734268e-003
3.075904e+003, 4.082510e-003
3.077833e+003, 3.751635e-003
3.079761e+003, 3.320783e-003
3.081690e+003, 3.257352e-003
3.083618e+003, 3.749670e-003
3.085547e+003, 4.035420e-003
3.087475e+003, 3.737844e-003
3.089404e+003, 2.971241e-003
3.091332e+003, 2.975047e-003
3.093260e+003, 3.360923e-003
3.095189e+003, 3.710366e-003
3.097117e+003, 4.021939e-003
3.099046e+003, 4.176158e-003
3.100974e+003, 3.797359e-003
3.102903e+003, 3.987895e-003
3.104831e+003, 4.317083e-003
3.106760e+003, 3.832420e-003
3.108688e+003, 3.610251e-003
3.110617e+003, 3.711290e-003
3.112545e+003, 4.097004e-003
3.114474e+003, 4.359788e-003
3.116402e+003, 3.863057e-003
3.118331e+003, 3.448345e-003
3.120259e+003, 3.671893e-003
3.122188e+003, 4.147883e-003
3.124116e+003, 4.328839e-003
3.126044e+003, 4.004548e-003
3.127973e+003, 3.878440e-003
3.129901e+003, 3.856910e-003
3.131830e+003, 3.659809e-003
3.133758e+003, 3.670183e-003
3.135687e+003, 3.665149e-003
3.137615e+003, 3.644679e-003
3.139544e+003, 3.590179e-003
3.141472e+003, 3.724098e-003
3.143401e+003, 3.974551e-003
3.145329e+003, 3.889404e-003
3.147258e+003, 3.683484e-003
3.149186e+003, 3.729790e-003
3.151115e+003, 3.626232e-003
3.153043e+003, 3.758033e-003
3.154971e+003, 3.852685e-003
3.156900e+003, 4.149093e-003
3.158828e+003, 4.586952e-003
3.160757e+003, 3.800098e-003
3.162685e+003, 3.435935e-003
3.164614e+003, 3.658588e-003
3.166542e+003, 4.015492e-003
3.168471e+003, 4.047209e-003
3.170399e+003, 3.863097e-003
3.172328e+003, 4.034530e-003
3.174256e+003, 3.827929e-003
3.176185e+003, 3.121997e-003
3.178113e+003, 3.329188e-003
3.180042e+003, 3.759889e-003
3.181970e+003, 3.968759e-003
3.183898e+003, 3.890336e-003
3.185827e+003, 3.531557e-003
3.187755e+003, 3.538248e-003
3.189684e+003, 3.334422e-003
3.191612e+003, 3.193337e-003
3.193541e+003, 3.141921e-003
3.195469e+003, 3.600523e-003
3.197398e+003, 3.907681e-003
3.199326e+003, 3.913120e-003
3.201255e+003, 4.331979e-003
3.203183e+003, 4.314786e-003
3.205112e+003, 3.818601e-003
3.207040e+003, 3.891440e-003
3.208969e+003, 3.616160e-003
3.210897e+003, 3.252088e-003
3.212825e+003, 3.892695e-003
3.214754e+003, 4.329517e-003
3.216682e+003, 4.120550e-003
3.218611e+003, 3.870296e-003
3.220539e+003, 3.766576e-003
3.222468e+003, 3.515548e-003
3.224396e+003, 3.393628e-003
3.226325e+003, 3.495535e-003
3.228253e+003, 3.708352e-003
3.230182e+003, 3.950752e-003
3.232110e+003, 4.153417e-003
3.234039e+003, 3.885838e-003
3.235967e+003, 3.500715e-003
3.237896e+003, 3.624125e-003
3.239824e+003, 3.840044e-003
3.241752e+003, 4.178951e-003
3.243681e+003, 4.194050e-003
3.245609e+003, 4.225773e-003
3.247538e+003, 3.941120e-003
3.249466e+003, 3.235467e-003
3.251395e+003, 3.090759e-003
3.253323e+003, 3.475077e-003
3.255252e+003, 3.037568e-003
3.257180e+003, 3.201503e-003
3.259109e+003, 3.650684e-003
3.261037e+003, 3.469669e-003
3.262966e+003, 3.218892e-003
3.264894e+003, 3.755865e-003
3.266823e+003, 3.609405e-003
3.268751e+003, 3.045389e-003
3.270679e+003, 3.236060e-003
3.272608e+003, 3.417522e-003
3.274536e+003, 3.227044e-003
3.276465e+003, 3.076185e-003
3.278393e+003, 3.241515e-003
3.280322e+003, 3.637287e-003
3.282250e+003, 4.358238e-003
3.284179e+003, 4.257326e-003
3.286107e+003, 3.839658e-003
3.288036e+003, 3.518381e-003
3.289964e+003, 3.571369e-003
3.291893e+003, 3.567011e-003
3.293821e+003, 3.281491e-003
3.295750e+003, 3.631841e-003
3.297678e+003, 3.766628e-003
3.299606e+003, 3.443853e-003
3.301535e+003, 3.678905e-003
3.303463e+003, 4.071556e-003
3.305392e+003, 4.005948e-003
3.307320e+003, 3.450806e-003
3.309249e+003, 3.367968e-003
3.311177e+003, 3.685909e-003
3.313106e+003, 3.851392e-003
3.315034e+003, 3.829735e-003
3.316963e+003, 3.455358e-003
3.318891e+003, 3.453399e-003
3.320820e+003, 3.388788e-003
3.322748e+003, 2.692267e-003
3.324677e+003, 2.739853e-003
3.326605e+003, 3.459436e-003
3.328533e+003, 3.807401e-003
3.330462e+003, 3.802304e-003
3.332390e+003, 3.555660e-003
3.334319e+003, 3.287842e-003
3.336247e+003, 3.239000e-003
3.338176e+003, 3.475571e-003
3.340104e+003, 3.606161e-003
3.342033e+003, 3.726474e-003
3.343961e+003, 3.513582e-003
3.345890e+003, 3.414038e-003
3.347818e+003, 3.268356e-003
3.349747e+003, 3.304167e-003
3.351675e+003, 3.175289e-003
3.353604e+003, 3.934569e-003
3.355532e+003, 4.293956e-003
3.357460e+003, 3.542932e-003
3.359389e+003, 2.811953e-003
3.361317e+003, 2.928285e-003
3.363246e+003, 3.428620e-003
3.365174e+003, 3.983027e-003
3.367103e+003, 3.552324e-003
3.369031e+003, 2.808840e-003
3.370960e+003, 3.133786e-003
3.372888e+003, 3.463094e-003
3.374817e+003, 3.301886e-003
3.376745e+003, 3.216869e-003
3.378674e+003, 3.313850e-003
3.380602e+003, 3.326183e-003
3.382531e+003, 3.447381e-003
3.384459e+003, 3.663717e-003
3.386387e+003, 3.806417e-003
3.388316e+003, 3.680384e-003
3.390244e+003, 4.024415e-003
3.392173e+003, 3.609194e-003
3.394101e+003, 3.133323e-003
3.396030e+003, 3.268959e-003
3.397958e+003, 3.006122e-003
3.399887e+003, 2.762330e-003
3.401815e+003, 2.998691e-003
3.403744e+003, 3.378568e-003
3.405672e+003, 3.473341e-003
3.407601e+003, 3.441357e-003
3.409529e+003, 3.698217e-003
3.411458e+003, 3.618155e-003
3.413386e+003, 3.448673e-003
3.415314e+003, 3.678967e-003
3.417243e+003, 3.519871e-003
3.419171e+003, 3.621113e-003
3.421100e+003, 4.070135e-003
3.423028e+003, 4.019432e-003
3.424957e+003, 3.932033e-003
3.426885e+003, 4.043544e-003
3.428814e+003, 3.635424e-003
3.430742e+003, 3.658094e-003
3.432671e+003, 3.685919e-003
3.434599e+003, 3.147558e-003
3.436528e+003, 3.329853e-003
3.438456e+003, 3.852150e-003
3.440385e+003, 3.634208e-003
3.442313e+003, 3.365980e-003
3.444241e+003, 3.579711e-003
3.446170e+003, 3.265384e-003
3.448098e+003, 2.256297e-003
3.450027e+003, 2.051957e-003
3.451955e+003, 2.458838e-003
3.453884e+003, 3.165002e-003
3.455812e+003, 3.681382e-003
3.457741e+003, 3.849175e-003
3.459669e+003, 3.607696e-003
3.461598e+003, 2.886359e-003
3.463526e+003, 2.796100e-003
3.465455e+003, 3.818622e-003
3.467383e+003, 4.826145e-003
3.469312e+003, 4.245762e-003
3.471240e+003, 3.520383e-003
3.473168e+003, 4.125850e-003
3.475097e+003, 4.573072e-003
3.477025e+003, 4.056499e-003
3.478954e+003, 3.688585e-003
3.480882e+003, 3.923386e-003
3.482811e+003, 3.606495e-003
3.484739e+003, 3.343472e-003
3.486668e+003, 2.876706e-003
3.488596e+003, 2.990290e-003
3.490525e+003, 3.141093e-003
3.492453e+003, 2.948609e-003
3.494382e+003, 3.494414e-003
3.496310e+003, 3.754950e-003
3.498239e+003, 3.518486e-003
3.500167e+003, 3.804319e-003
3.502095e+003, 3.852947e-003
3.504024e+003, 2.972454e-003
3.505952e+003, 2.893897e-003
3.507881e+003, 3.763997e-003
3.509809e+003, 3.847793e-003
3.511738e+003, 3.374507e-003
3.513666e+003, 3.526535e-003
3.515595e+003, 4.029316e-003
3.517523e+003, 4.081659e-003
3.519452e+003, 4.064605e-003
3.521380e+003, 3.865157e-003
3.523309e+003, 3.606187e-003
3.525237e+003, 3.878641e-003
3.527166e+003, 3.981647e-003
3.529094e+003, 3.514007e-003
3.531022e+003, 2.960189e-003
3.532951e+003, 2.578677e-003
3.534879e+003, 2.969995e-003
3.536808e+003, 3.281271e-003
3.538736e+003, 4.108155e-003
3.540665e+003, 4.806336e-003
3.542593e+003, 4.836154e-003
3.544522e+003, 4.401405e-003
3.546450e+003, 3.967954e-003
3.548379e+003, 3.465805e-003
3.550307e+003, 3.589486e-003
3.552236e+003, 4.048535e-003
3.554164e+003, 3.835501e-003
3.556093e+003, 3.745686e-003
3.558021e+003, 3.723610e-003
3.559949e+003, 3.868941e-003
3.561878e+003, 3.719365e-003
3.563806e+003, 3.490461e-003
3.565735e+003, 3.821457e-003
3.567663e+003, 4.349411e-003
3.569592e+003, 3.980803e-003
3.571520e+003, 3.973699e-003
3.573449e+003, 3.907827e-003
3.575377e+003, 3.335930e-003
3.577306e+003, 3.562607e-003
3.579234e+003, 4.498031e-003
3.581163e+003, 4.470585e-003
3.583091e+003, 3.591573e-003
3.585020e+003, 3.737576e-003
3.586948e+003, 3.789267e-003
3.588876e+003, 3.823966e-003
3.590805e+003, 4.116113e-003
3.592733e+003, 3.571767e-003
3.594662e+003, 3.488092e-003
3.596590e+003, 3.734349e-003
3.598519e+003, 3.805673e-003
3.600447e+003, 3.744213e-003
3.602376e+003, 3.142833e-003
3.604304e+003, 3.092702e-003
3.606233e+003, 3.500637e-003
3.608161e+003, 4.209850e-003
3.610090e+003, 4.375345e-003
3.612018e+003, 3.903333e-003
3.613947e+003, 3.973963e-003
3.615875e+003, 3.654336e-003
3.617803e+003, 3.811649e-003
3.619732e+003, 4.228882e-003
3.621660e+003, 4.176990e-003
3.623589e+003, 3.439632e-003
3.625517e+003, 3.264257e-003
3.627446e+003, 3.907474e-003
3.629374e+003, 4.119933e-003
3.631303e+003, 2.694214e-003
3.633231e+003, 3.002936e-003
3.635160e+003, 3.892479e-003
3.637088e+003, 3.715757e-003
3.639017e+003, 4.102953e-003
3.640945e+003, 4.541101e-003
3.642874e+003, 4.359279e-003
3.644802e+003, 4.040461e-003
3.646730e+003, 3.392939e-003
3.648659e+003, 3.181395e-003
3.650587e+003, 3.706876e-003
3.652516e+003, 3.975244e-003
3.654444e+003, 3.661881e-003
3.656373e+003, 2.865489e-003
3.658301e+003, 3.243366e-003
3.660230e+003, 3.779151e-003
3.662158e+003, 3.634706e-003
3.664087e+003, 3.569817e-003
3.666015e+003, 4.149835e-003
3.667944e+003, 4.307386e-003
3.669872e+003, 3.796420e-003
3.671801e+003, 3.544044e-003
3.673729e+003, 3.082875e-003
3.675657e+003, 3.446216e-003
3.677586e+003, 4.092197e-003
3.679514e+003, 3.685536e-003
3.681443e+003, 3.818539e-003
3.683371e+003, 3.588605e-003
3.685300e+003, 3.378775e-003
3.687228e+003, 4.261677e-003
3.689157e+003, 5.334110e-003
3.691085e+003, 5.647749e-003
3.693014e+003, 5.395058e-003
3.694942e+003, 5.298868e-003
3.696871e+003, 5.425028e-003
3.698799e+003, 5.136320e-003
3.700728e+003, 4.768034e-003
3.702656e+003, 4.602567e-003
3.704584e+003, 3.775240e-003
3.706513e+003, 3.348504e-003
3.708441e+003, 3.580272e-003
3.710370e+003, 3.419378e-003
3.712298e+003, 3.067794e-003
3.714227e+003, 2.604853e-003
3.716155e+003, 2.720660e-003
3.718084e+003, 3.324391e-003
3.720012e+003, 3.267077e-003
3.721941e+003, 2.435983e-003
3.723869e+003, 2.514109e-003
3.725798e+003, 3.275003e-003
3.727726e+003, 3.774434e-003
3.729655e+003, 3.599390e-003
3.731583e+003, 3.418359e-003
3.733511e+003, 3.081729e-003
3.735440e+003, 2.606961e-003
3.737368e+003, 2.661767e-003
3.739297e+003, 3.028163e-003
3.741225e+003, 3.362721e-003
3.743154e+003, 3.264907e-003
3.745082e+003, 3.937413e-003
3.747011e+003, 4.416296e-003
3.748939e+003, 4.084546e-003
3.750868e+003, 3.567175e-003
3.752796e+003, 3.691638e-003
3.754725e+003, 3.912383e-003
3.756653e+003, 3.649647e-003
3.758582e+003, 3.586618e-003
3.760510e+003, 3.546251e-003
3.762438e+003, 3.728612e-003
3.764367e+003, 4.521050e-003
3.766295e+003, 4.332291e-003
3.768224e+003, 3.908551e-003
3.770152e+003, 3.992071e-003
3.772081e+003, 3.649854e-003
3.774009e+003, 2.759008e-003
3.775938e+003, 2.800396e-003
3.777866e+003, 3.970375e-003
3.779795e+003, 4.434215e-003
3.781723e+003, 3.329561e-003
3.783652e+003, 3.169214e-003
3.785580e+003, 4.115916e-003
3.787509e+003, 4.268237e-003
3.789437e+003, 3.176828e-003
3.791365e+003, 2.795354e-003
3.793294e+003, 3.464940e-003
3.795222e+003, 3.651451e-003
3.797151e+003, 2.794200e-003
3.799079e+003, 2.428857e-003
3.801008e+003, 2.525067e-003
3.802936e+003, 2.632107e-003
3.804865e+003, 3.422701e-003
3.806793e+003, 3.920994e-003
3.808722e+003, 4.178779e-003
3.810650e+003, 4.204946e-003
3.812579e+003, 3.608519e-003
3.814507e+003, 3.688119e-003
3.816436e+003, 4.037276e-003
3.818364e+003, 4.225000e-003
3.820292e+003, 4.129674e-003
3.822221e+003, 4.194606e-003
3.824149e+003, 4.061695e-003
3.826078e+003, 3.252384e-003
3.828006e+003, 2.968104e-003
3.829935e+003, 3.549150e-003
3.831863e+003, 5.126105e-003
3.833792e+003, 5.679488e-003
3.835720e+003, 4.869303e-003
3.837649e+003, 4.770879e-003
3.839577e+003, 4.705530e-003
3.841506e+003, 3.685138e-003
3.843434e+003, 3.113644e-003
3.845363e+003, 3.385975e-003
3.847291e+003, 3.916324e-003
3.849219e+003, 3.905119e-003
3.851148e+003, 3.111967e-003
3.853076e+003, 3.004425e-003
3.855005e+003, 3.609248e-003
3.856933e+003, 3.593379e-003
3.858862e+003, 2.896349e-003
3.860790e+003, 2.961230e-003
3.862719e+003, 3.562472e-003
3.864647e+003, 3.172011e-003
3.866576e+003, 2.589925e-003
3.868504e+003, 3.130872e-003
3.870433e+003, 4.170119e-003
3.872361e+003, 4.701189e-003
3.874290e+003, 4.556526e-003
3.876218e+003, 4.221288e-003
3.878146e+003, 3.889388e-003
3.880075e+003, 3.928305e-003
3.882003e+003, 4.050163e-003
3.883932e+003, 3.646132e-003
3.885860e+003, 4.038957e-003
3.887789e+003, 4.254293e-003
3.889717e+003, 3.951373e-003
3.891646e+003, 3.969876e-003
3.893574e+003, 3.625965e-003
3.895503e+003, 2.574139e-003
3.897431e+003, 2.021953e-003
3.899360e+003, 2.416629e-003
3.901288e+003, 3.362167e-003
3.903217e+003, 3.752114e-003
3.905145e+003, 4.092206e-003
3.907073e+003, 4.462684e-003
3.909002e+003, 4.134290e-003
3.910930e+003, 3.599664e-003
3.912859e+003, 3.011167e-003
3.914787e+003, 3.316745e-003
3.916716e+003, 3.509273e-003
3.918644e+003, 3.353447e-003
3.920573e+003, 3.506090e-003
3.922501e+003, 4.130849e-003
3.924430e+003, 4.609237e-003
3.926358e+003, 4.660682e-003
3.928287e+003, 4.108106e-003
3.930215e+003, 3.524108e-003
3.932144e+003, 3.360299e-003
3.934072e+003, 3.419677e-003
3.936000e+003, 3.443438e-003
3.937929e+003, 3.609346e-003
3.939857e+003, 3.959390e-003
3.941786e+003, 3.465513e-003
3.943714e+003, 2.573280e-003
3.945643e+003, 3.688474e-003
3.947571e+003, 4.164986e-003
3.949500e+003, 3.615755e-003
3.951428e+003, 3.424794e-003
3.953357e+003, 4.343508e-003
3.955285e+003, 4.247746e-003
3.957214e+003, 3.341523e-003
3.959142e+003, 2.633797e-003
3.961071e+003, 3.607146e-003
3.962999e+003, 3.785762e-003
3.964927e+003, 3.392528e-003
3.966856e+003, 3.354669e-003
3.968784e+003, 3.145500e-003
3.970713e+003, 2.721084e-003
3.972641e+003, 2.689710e-003
3.974570e+003, 3.736896e-003
3.976498e+003, 4.265905e-003
3.978427e+003, 3.548449e-003
3.980355e+003, 3.416697e-003
3.982284e+003, 4.383359e-003
3.984212e+003, 4.705793e-003
3.986141e+003, 4.394225e-003
3.988069e+003, 4.730755e-003
3.989998e+003, 4.306628e-003
3.991926e+003, 3.611121e-003
3.993854e+003, 3.744418e-003
3.995783e+003, 4.113265e-003
3.997711e+003, 3.444336e-003
3.999640e+003, 3.506683e-003
4.001568e+003, 0.000000e+000
##END=



