##NAMES=Microcline
##RRUFFID=R050193
##IDEAL CHEMISTRY=KAlSi_3_O_8_
##LOCALITY=Devil's Head, Douglas County, Colorado, USA
##OWNER=RRUFF
##SOURCE=Dave Bunk Minerals
##DESCRIPTION=White to colorless heterogeneous mixture of K and Na feldspar in a cluster of crystals. Crystal structure determined, presented below. This sample is known as an intermediate microcline in the literature.
##STATUS=The identification of this mineral has been confirmed by X-ray diffraction and chemical analysis
##URL=rruff.info/R050193
##MEASURED CHEMISTRY=(K_0.929_Na_0.071_)(Al_1.005_Si_2.994_Fe_0.001_)O_7.993_F_0.007_  ; Light Band :  (Na_0.973_K_0.007_Ca_0.020_)(Al_1.020_Si_2.980_)O_8_ ; Dark Band
3.741225e+002, 3.055561e-001
3.760510e+002, 2.982793e-001
3.779795e+002, 3.161908e-001
3.799079e+002, 2.929327e-001
3.818364e+002, 2.511808e-001
3.837649e+002, 2.449214e-001
3.856933e+002, 2.556801e-001
3.876218e+002, 2.571478e-001
3.895503e+002, 2.520094e-001
3.914787e+002, 2.404186e-001
3.934072e+002, 2.500187e-001
3.953357e+002, 2.558359e-001
3.972641e+002, 2.611460e-001
3.991926e+002, 2.684907e-001
4.011211e+002, 2.610527e-001
4.030495e+002, 2.515372e-001
4.049780e+002, 2.439157e-001
4.069065e+002, 2.559211e-001
4.088349e+002, 2.797839e-001
4.107634e+002, 3.005325e-001
4.126919e+002, 2.977248e-001
4.146203e+002, 2.986257e-001
4.165488e+002, 2.989967e-001
4.184773e+002, 2.934076e-001
4.204057e+002, 2.846354e-001
4.223342e+002, 2.728467e-001
4.242627e+002, 2.585201e-001
4.261911e+002, 2.464593e-001
4.281196e+002, 2.319399e-001
4.300481e+002, 2.207519e-001
4.319765e+002, 2.071959e-001
4.339050e+002, 1.934950e-001
4.358335e+002, 1.824724e-001
4.377619e+002, 1.705761e-001
4.396904e+002, 1.595264e-001
4.416189e+002, 1.521897e-001
4.435473e+002, 1.431145e-001
4.454758e+002, 1.332114e-001
4.474043e+002, 1.252773e-001
4.493327e+002, 1.170386e-001
4.512612e+002, 1.084728e-001
4.531897e+002, 1.015809e-001
4.551181e+002, 9.876936e-002
4.570466e+002, 9.748048e-002
4.589751e+002, 9.887798e-002
4.609035e+002, 1.016778e-001
4.628320e+002, 1.040362e-001
4.647605e+002, 1.033980e-001
4.666889e+002, 9.770037e-002
4.686174e+002, 8.929190e-002
4.705459e+002, 8.319974e-002
4.724743e+002, 7.948744e-002
4.744028e+002, 7.726435e-002
4.763313e+002, 7.526493e-002
4.782597e+002, 7.143176e-002
4.801882e+002, 6.480064e-002
4.821167e+002, 5.759553e-002
4.840451e+002, 5.178617e-002
4.859736e+002, 4.796966e-002
4.879021e+002, 4.464547e-002
4.898305e+002, 4.270153e-002
4.917590e+002, 4.134570e-002
4.936875e+002, 4.056813e-002
4.956159e+002, 3.912006e-002
4.975444e+002, 3.886982e-002
4.994729e+002, 3.950687e-002
5.014013e+002, 4.030010e-002
5.033298e+002, 4.128423e-002
5.052583e+002, 4.349376e-002
5.071867e+002, 4.586190e-002
5.091152e+002, 4.684487e-002
5.110437e+002, 4.898980e-002
5.129721e+002, 5.213011e-002
5.149006e+002, 5.547453e-002
5.168290e+002, 5.978885e-002
5.187575e+002, 6.524956e-002
5.206860e+002, 7.297834e-002
5.226144e+002, 8.291666e-002
5.245429e+002, 9.550326e-002
5.264714e+002, 1.103867e-001
5.283998e+002, 1.258632e-001
5.303283e+002, 1.398931e-001
5.322568e+002, 1.485786e-001
5.341852e+002, 1.525571e-001
5.361137e+002, 1.522582e-001
5.380422e+002, 1.464327e-001
5.399706e+002, 1.362629e-001
5.418991e+002, 1.243055e-001
5.438276e+002, 1.119606e-001
5.457560e+002, 1.015745e-001
5.476845e+002, 9.574807e-002
5.496130e+002, 9.366595e-002
5.515414e+002, 9.467643e-002
5.534699e+002, 9.954756e-002
5.553984e+002, 1.066562e-001
5.573268e+002, 1.153079e-001
5.592553e+002, 1.257627e-001
5.611838e+002, 1.375346e-001
5.631122e+002, 1.497914e-001
5.650407e+002, 1.621066e-001
5.669692e+002, 1.744712e-001
5.688976e+002, 1.857517e-001
5.708261e+002, 1.964708e-001
5.727546e+002, 2.052575e-001
5.746830e+002, 2.124209e-001
5.766115e+002, 2.176674e-001
5.785400e+002, 2.211742e-001
5.804684e+002, 2.211398e-001
5.823969e+002, 2.181653e-001
5.843254e+002, 2.133530e-001
5.862538e+002, 2.079755e-001
5.881823e+002, 2.006084e-001
5.901108e+002, 1.918117e-001
5.920392e+002, 1.824025e-001
5.939677e+002, 1.722189e-001
5.958962e+002, 1.624817e-001
5.978246e+002, 1.528622e-001
5.997531e+002, 1.438984e-001
6.016816e+002, 1.368544e-001
6.036100e+002, 1.310035e-001
6.055385e+002, 1.252249e-001
6.074670e+002, 1.185153e-001
6.093954e+002, 1.096367e-001
6.113239e+002, 9.988781e-002
6.132524e+002, 8.991342e-002
6.151808e+002, 8.095418e-002
6.171093e+002, 7.349090e-002
6.190378e+002, 6.694775e-002
6.209662e+002, 6.166665e-002
6.228947e+002, 5.819291e-002
6.248232e+002, 5.570979e-002
6.267516e+002, 5.459422e-002
6.286801e+002, 5.462883e-002
6.306086e+002, 5.547155e-002
6.325370e+002, 5.652574e-002
6.344655e+002, 5.926139e-002
6.363940e+002, 6.411152e-002
6.383224e+002, 7.044881e-002
6.402509e+002, 7.872193e-002
6.421794e+002, 8.855760e-002
6.441078e+002, 9.894332e-002
6.460363e+002, 1.065471e-001
6.479648e+002, 1.077625e-001
6.498932e+002, 1.016022e-001
6.518217e+002, 9.070155e-002
6.537502e+002, 7.848566e-002
6.556786e+002, 6.737529e-002
6.576071e+002, 5.832046e-002
6.595356e+002, 5.127329e-002
6.614641e+002, 4.608446e-002
6.633925e+002, 4.229401e-002
6.653210e+002, 3.953796e-002
6.672495e+002, 3.773881e-002
6.691779e+002, 3.597422e-002
6.711064e+002, 3.435428e-002
6.730349e+002, 3.348073e-002
6.749633e+002, 3.316072e-002
6.768918e+002, 3.301530e-002
6.788203e+002, 3.275823e-002
6.807487e+002, 3.294158e-002
6.826772e+002, 3.331221e-002
6.846057e+002, 3.383628e-002
6.865341e+002, 3.446648e-002
6.884626e+002, 3.494639e-002
6.903911e+002, 3.613338e-002
6.923195e+002, 3.796746e-002
6.942480e+002, 3.987639e-002
6.961765e+002, 4.213766e-002
6.981049e+002, 4.472487e-002
7.000334e+002, 4.819107e-002
7.019619e+002, 5.154290e-002
7.038903e+002, 5.597797e-002
7.058188e+002, 6.098901e-002
7.077473e+002, 6.641123e-002
7.096757e+002, 7.247556e-002
7.116042e+002, 7.942523e-002
7.135327e+002, 8.748379e-002
7.154611e+002, 9.635681e-002
7.173896e+002, 1.057309e-001
7.193181e+002, 1.150415e-001
7.212465e+002, 1.223853e-001
7.231750e+002, 1.264202e-001
7.251035e+002, 1.264897e-001
7.270319e+002, 1.220439e-001
7.289604e+002, 1.154868e-001
7.308889e+002, 1.085249e-001
7.328173e+002, 1.020059e-001
7.347458e+002, 9.722950e-002
7.366743e+002, 9.463032e-002
7.386027e+002, 9.413559e-002
7.405312e+002, 9.524170e-002
7.424597e+002, 9.692865e-002
7.443881e+002, 9.716605e-002
7.463166e+002, 9.512518e-002
7.482451e+002, 9.190229e-002
7.501735e+002, 8.934426e-002
7.521020e+002, 8.857233e-002
7.540305e+002, 8.974713e-002
7.559589e+002, 9.310492e-002
7.578874e+002, 9.805235e-002
7.598159e+002, 1.034581e-001
7.617443e+002, 1.062488e-001
7.636728e+002, 1.049582e-001
7.656013e+002, 1.008719e-001
7.675297e+002, 9.592954e-002
7.694582e+002, 9.128759e-002
7.713867e+002, 8.754595e-002
7.733151e+002, 8.419550e-002
7.752436e+002, 8.091418e-002
7.771721e+002, 7.743531e-002
7.791005e+002, 7.398042e-002
7.810290e+002, 7.098891e-002
7.829575e+002, 6.964669e-002
7.848859e+002, 6.992336e-002
7.868144e+002, 7.034731e-002
7.887429e+002, 6.794850e-002
7.906713e+002, 6.193107e-002
7.925998e+002, 5.395275e-002
7.945283e+002, 4.622570e-002
7.964567e+002, 4.034303e-002
7.983852e+002, 3.600095e-002
8.003137e+002, 3.249177e-002
8.022421e+002, 2.959241e-002
8.041706e+002, 2.751722e-002
8.060991e+002, 2.590111e-002
8.080275e+002, 2.463831e-002
8.099560e+002, 2.381047e-002
8.118845e+002, 2.324583e-002
8.138129e+002, 2.248051e-002
8.157414e+002, 2.179282e-002
8.176699e+002, 2.142572e-002
8.195983e+002, 2.120125e-002
8.215268e+002, 2.110208e-002
8.234553e+002, 2.137215e-002
8.253837e+002, 2.165318e-002
8.273122e+002, 2.170768e-002
8.292407e+002, 2.192990e-002
8.311691e+002, 2.228840e-002
8.330976e+002, 2.243049e-002
8.350261e+002, 2.321826e-002
8.369545e+002, 2.392052e-002
8.388830e+002, 2.441484e-002
8.408115e+002, 2.515922e-002
8.427399e+002, 2.610437e-002
8.446684e+002, 2.717554e-002
8.465969e+002, 2.816060e-002
8.485253e+002, 2.922346e-002
8.504538e+002, 3.038065e-002
8.523823e+002, 3.164284e-002
8.543107e+002, 3.293328e-002
8.562392e+002, 3.434015e-002
8.581677e+002, 3.649659e-002
8.600961e+002, 3.834013e-002
8.620246e+002, 3.988795e-002
8.639531e+002, 4.187685e-002
8.658815e+002, 4.455400e-002
8.678100e+002, 4.731030e-002
8.697385e+002, 5.020953e-002
8.716669e+002, 5.343932e-002
8.735954e+002, 5.677446e-002
8.755239e+002, 6.018357e-002
8.774523e+002, 6.346450e-002
8.793808e+002, 6.656669e-002
8.813093e+002, 6.946508e-002
8.832377e+002, 7.199180e-002
8.851662e+002, 7.451850e-002
8.870947e+002, 7.697551e-002
8.890231e+002, 7.946109e-002
8.909516e+002, 8.200695e-002
8.928801e+002, 8.451795e-002
8.948085e+002, 8.727210e-002
8.967370e+002, 9.003155e-002
8.986655e+002, 9.302680e-002
9.005939e+002, 9.626853e-002
9.025224e+002, 9.964946e-002
9.044509e+002, 1.031886e-001
9.063793e+002, 1.068494e-001
9.083078e+002, 1.107746e-001
9.102363e+002, 1.147814e-001
9.121647e+002, 1.189447e-001
9.140932e+002, 1.235136e-001
9.160217e+002, 1.284617e-001
9.179501e+002, 1.338287e-001
9.198786e+002, 1.395806e-001
9.218071e+002, 1.456991e-001
9.237355e+002, 1.523385e-001
9.256640e+002, 1.593042e-001
9.275925e+002, 1.669696e-001
9.295209e+002, 1.752655e-001
9.314494e+002, 1.841190e-001
9.333779e+002, 1.936350e-001
9.353063e+002, 2.039389e-001
9.372348e+002, 2.151437e-001
9.391633e+002, 2.271902e-001
9.410917e+002, 2.398276e-001
9.430202e+002, 2.530069e-001
9.449487e+002, 2.672290e-001
9.468771e+002, 2.824586e-001
9.488056e+002, 2.979205e-001
9.507341e+002, 3.140101e-001
9.526625e+002, 3.311506e-001
9.545910e+002, 3.486199e-001
9.565195e+002, 3.663422e-001
9.584479e+002, 3.841708e-001
9.603764e+002, 4.022087e-001
9.623049e+002, 4.203014e-001
9.642333e+002, 4.383430e-001
9.661618e+002, 4.557067e-001
9.680903e+002, 4.723602e-001
9.700187e+002, 4.882304e-001
9.719472e+002, 5.025932e-001
9.738757e+002, 5.150642e-001
9.758041e+002, 5.263842e-001
9.777326e+002, 5.364497e-001
9.796611e+002, 5.447003e-001
9.815895e+002, 5.514318e-001
9.835180e+002, 5.561268e-001
9.854465e+002, 5.589269e-001
9.873749e+002, 5.605147e-001
9.893034e+002, 5.597159e-001
9.912319e+002, 5.575886e-001
9.931603e+002, 5.542794e-001
9.950888e+002, 5.498326e-001
9.970173e+002, 5.443773e-001
9.989457e+002, 5.381302e-001
1.000874e+003, 5.303939e-001
1.002803e+003, 5.216044e-001
1.004731e+003, 5.115293e-001
1.006660e+003, 5.003353e-001
1.008588e+003, 4.884101e-001
1.010517e+003, 4.764194e-001
1.012445e+003, 4.648800e-001
1.014373e+003, 4.536513e-001
1.016302e+003, 4.424008e-001
1.018230e+003, 4.316275e-001
1.020159e+003, 4.220295e-001
1.022087e+003, 4.134098e-001
1.024016e+003, 4.062847e-001
1.025944e+003, 4.001269e-001
1.027873e+003, 3.942256e-001
1.029801e+003, 3.879607e-001
1.031730e+003, 3.806499e-001
1.033658e+003, 3.718747e-001
1.035587e+003, 3.625208e-001
1.037515e+003, 3.528108e-001
1.039443e+003, 3.424699e-001
1.041372e+003, 3.320661e-001
1.043300e+003, 3.224892e-001
1.045229e+003, 3.134524e-001
1.047157e+003, 3.043099e-001
1.049086e+003, 2.949255e-001
1.051014e+003, 2.849116e-001
1.052943e+003, 2.742192e-001
1.054871e+003, 2.629290e-001
1.056800e+003, 2.509385e-001
1.058728e+003, 2.391403e-001
1.060657e+003, 2.284505e-001
1.062585e+003, 2.192334e-001
1.064514e+003, 2.116801e-001
1.066442e+003, 2.060206e-001
1.068370e+003, 2.020239e-001
1.070299e+003, 1.990599e-001
1.072227e+003, 1.968625e-001
1.074156e+003, 1.949894e-001
1.076084e+003, 1.935467e-001
1.078013e+003, 1.925551e-001
1.079941e+003, 1.919660e-001
1.081870e+003, 1.916962e-001
1.083798e+003, 1.920068e-001
1.085727e+003, 1.929585e-001
1.087655e+003, 1.942951e-001
1.089584e+003, 1.957934e-001
1.091512e+003, 1.966784e-001
1.093441e+003, 1.969497e-001
1.095369e+003, 1.966585e-001
1.097297e+003, 1.956413e-001
1.099226e+003, 1.942103e-001
1.101154e+003, 1.928233e-001
1.103083e+003, 1.915490e-001
1.105011e+003, 1.906156e-001
1.106940e+003, 1.901750e-001
1.108868e+003, 1.899770e-001
1.110797e+003, 1.897025e-001
1.112725e+003, 1.896948e-001
1.114654e+003, 1.903427e-001
1.116582e+003, 1.912275e-001
1.118511e+003, 1.924063e-001
1.120439e+003, 1.940125e-001
1.122368e+003, 1.954881e-001
1.124296e+003, 1.971052e-001
1.126224e+003, 1.985506e-001
1.128153e+003, 1.991794e-001
1.130081e+003, 1.988124e-001
1.132010e+003, 1.971530e-001
1.133938e+003, 1.944951e-001
1.135867e+003, 1.909550e-001
1.137795e+003, 1.865671e-001
1.139724e+003, 1.817124e-001
1.141652e+003, 1.762817e-001
1.143581e+003, 1.707234e-001
1.145509e+003, 1.649221e-001
1.147438e+003, 1.592757e-001
1.149366e+003, 1.536073e-001
1.151295e+003, 1.478936e-001
1.153223e+003, 1.421344e-001
1.155151e+003, 1.361413e-001
1.157080e+003, 1.301215e-001
1.159008e+003, 1.241692e-001
1.160937e+003, 1.181531e-001
1.162865e+003, 1.119853e-001
1.164794e+003, 1.058728e-001
1.166722e+003, 9.994014e-002
1.168651e+003, 9.413918e-002
1.170579e+003, 8.884443e-002
1.172508e+003, 8.394754e-002
1.174436e+003, 7.911709e-002
1.176365e+003, 7.437731e-002
1.178293e+003, 6.994082e-002
1.180222e+003, 6.573987e-002
1.182150e+003, 6.184174e-002
1.184078e+003, 5.798845e-002
1.186007e+003, 5.412183e-002
1.187935e+003, 5.059808e-002
1.189864e+003, 4.709538e-002
1.191792e+003, 4.348775e-002
1.193721e+003, 4.018006e-002
1.195649e+003, 3.709297e-002
1.197578e+003, 3.432048e-002
1.199506e+003, 3.183593e-002
1.201435e+003, 2.952686e-002
1.203363e+003, 2.752982e-002
1.205292e+003, 2.580618e-002
1.207220e+003, 2.399232e-002
1.209149e+003, 2.231727e-002
1.211077e+003, 2.080119e-002
1.213005e+003, 1.942406e-002
1.214934e+003, 1.819002e-002
1.216862e+003, 1.696862e-002
1.218791e+003, 1.590878e-002
1.220719e+003, 1.511155e-002
1.222648e+003, 1.440105e-002
1.224576e+003, 1.359244e-002
1.226505e+003, 1.284636e-002
1.228433e+003, 1.218370e-002
1.230362e+003, 1.158828e-002
1.232290e+003, 1.103177e-002
1.234219e+003, 1.042496e-002
1.236147e+003, 9.873700e-003
1.238076e+003, 9.422585e-003
1.240004e+003, 8.972167e-003
1.241932e+003, 8.544850e-003
1.243861e+003, 8.074458e-003
1.245789e+003, 7.706882e-003
1.247718e+003, 7.421839e-003
1.249646e+003, 7.091607e-003
1.251575e+003, 6.766051e-003
1.253503e+003, 6.508963e-003
1.255432e+003, 6.290438e-003
1.257360e+003, 6.007667e-003
1.259289e+003, 5.654966e-003
1.261217e+003, 5.320860e-003
1.263146e+003, 5.086971e-003
1.265074e+003, 4.839018e-003
1.267003e+003, 4.707959e-003
1.268931e+003, 4.657400e-003
1.270859e+003, 4.561530e-003
1.272788e+003, 4.458623e-003
1.274716e+003, 4.314247e-003
1.276645e+003, 4.237045e-003
1.278573e+003, 4.170388e-003
1.280502e+003, 4.150962e-003
1.282430e+003, 4.166957e-003
1.284359e+003, 3.886397e-003
1.286287e+003, 3.707298e-003
1.288216e+003, 3.600796e-003
1.290144e+003, 3.468189e-003
1.292073e+003, 3.400046e-003
1.294001e+003, 3.349216e-003
1.295930e+003, 3.092081e-003
1.297858e+003, 2.854050e-003
1.299786e+003, 2.852353e-003
1.301715e+003, 2.924155e-003
1.303643e+003, 2.935296e-003
1.305572e+003, 2.885536e-003
1.307500e+003, 2.761763e-003
1.309429e+003, 2.686661e-003
1.311357e+003, 2.640113e-003
1.313286e+003, 2.540583e-003
1.315214e+003, 2.400555e-003
1.317143e+003, 2.438781e-003
1.319071e+003, 2.329867e-003
1.321000e+003, 2.337318e-003
1.322928e+003, 2.293910e-003
1.324857e+003, 2.198100e-003
1.326785e+003, 2.295152e-003
1.328714e+003, 2.191296e-003
1.330642e+003, 2.070236e-003
1.332570e+003, 2.169162e-003
1.334499e+003, 2.237757e-003
1.336427e+003, 2.134825e-003
1.338356e+003, 2.108220e-003
1.340284e+003, 2.231605e-003
1.342213e+003, 2.243309e-003
1.344141e+003, 2.298434e-003
1.346070e+003, 2.330981e-003
1.347998e+003, 2.202213e-003
1.349927e+003, 2.002771e-003
1.351855e+003, 1.971302e-003
1.353784e+003, 1.965805e-003
1.355712e+003, 1.878396e-003
1.357641e+003, 1.910732e-003
1.359569e+003, 2.032369e-003
1.361497e+003, 2.071302e-003
1.363426e+003, 2.121083e-003
1.365354e+003, 2.036846e-003
1.367283e+003, 1.925711e-003
1.369211e+003, 1.926357e-003
1.371140e+003, 1.913769e-003
1.373068e+003, 1.858621e-003
1.374997e+003, 1.898456e-003
1.376925e+003, 2.033049e-003
1.378854e+003, 2.172936e-003
1.380782e+003, 2.123102e-003
1.382711e+003, 1.982451e-003
1.384639e+003, 1.970138e-003
1.386568e+003, 2.073071e-003
1.388496e+003, 2.069616e-003
1.390424e+003, 1.932284e-003
1.392353e+003, 1.929213e-003
1.394281e+003, 1.994807e-003
1.396210e+003, 1.957505e-003
1.398138e+003, 2.040911e-003
1.400067e+003, 2.007509e-003
1.401995e+003, 1.870660e-003
1.403924e+003, 1.895608e-003
1.405852e+003, 1.940209e-003
1.407781e+003, 2.080814e-003
1.409709e+003, 2.222954e-003
1.411638e+003, 2.146093e-003
1.413566e+003, 2.073032e-003
1.415495e+003, 2.145408e-003
1.417423e+003, 2.324587e-003
1.419351e+003, 2.318591e-003
1.421280e+003, 2.257368e-003
1.423208e+003, 2.461689e-003
1.425137e+003, 2.611225e-003
1.427065e+003, 2.628327e-003
1.428994e+003, 2.852766e-003
1.430922e+003, 2.898233e-003
1.432851e+003, 2.755837e-003
1.434779e+003, 2.890963e-003
1.436708e+003, 3.058136e-003
1.438636e+003, 3.012040e-003
1.440565e+003, 2.983858e-003
1.442493e+003, 2.971822e-003
1.444422e+003, 2.966993e-003
1.446350e+003, 2.967738e-003
1.448278e+003, 3.101307e-003
1.450207e+003, 3.292226e-003
1.452135e+003, 3.276062e-003
1.454064e+003, 3.134246e-003
1.455992e+003, 3.328335e-003
1.457921e+003, 3.320848e-003
1.459849e+003, 3.251455e-003
1.461778e+003, 3.272122e-003
1.463706e+003, 3.233549e-003
1.465635e+003, 3.277506e-003
1.467563e+003, 3.077532e-003
1.469492e+003, 3.029202e-003
1.471420e+003, 3.265596e-003
1.473349e+003, 3.275035e-003
1.475277e+003, 3.227527e-003
1.477205e+003, 3.138045e-003
1.479134e+003, 2.952694e-003
1.481062e+003, 3.046587e-003
1.482991e+003, 3.079309e-003
1.484919e+003, 3.028210e-003
1.486848e+003, 3.102007e-003
1.488776e+003, 3.068340e-003
1.490705e+003, 2.827283e-003
1.492633e+003, 2.594685e-003
1.494562e+003, 2.608506e-003
1.496490e+003, 2.773209e-003
1.498419e+003, 2.739957e-003
1.500347e+003, 2.398670e-003
1.502276e+003, 2.277505e-003
1.504204e+003, 2.451219e-003
1.506132e+003, 2.770625e-003
1.508061e+003, 2.747236e-003
1.509989e+003, 2.505365e-003
1.511918e+003, 2.376769e-003
1.513846e+003, 2.394182e-003
1.515775e+003, 2.309220e-003
1.517703e+003, 2.134699e-003
1.519632e+003, 2.191952e-003
1.521560e+003, 2.218317e-003
1.523489e+003, 2.027934e-003
1.525417e+003, 1.925459e-003
1.527346e+003, 1.817915e-003
1.529274e+003, 1.784332e-003
1.531203e+003, 1.764039e-003
1.533131e+003, 1.850292e-003
1.535059e+003, 1.806229e-003
1.536988e+003, 1.840098e-003
1.538916e+003, 2.171589e-003
1.540845e+003, 2.298312e-003
1.542773e+003, 2.139151e-003
1.544702e+003, 2.110066e-003
1.546630e+003, 2.109638e-003
1.548559e+003, 2.147651e-003
1.550487e+003, 2.307728e-003
1.552416e+003, 2.311267e-003
1.554344e+003, 2.275382e-003
1.556273e+003, 2.372009e-003
1.558201e+003, 2.684464e-003
1.560130e+003, 2.681379e-003
1.562058e+003, 2.343255e-003
1.563986e+003, 2.237797e-003
1.565915e+003, 2.322443e-003
1.567843e+003, 2.538680e-003
1.569772e+003, 2.557676e-003
1.571700e+003, 2.269434e-003
1.573629e+003, 2.294431e-003
1.575557e+003, 2.476924e-003
1.577486e+003, 2.492656e-003
1.579414e+003, 2.415045e-003
1.581343e+003, 2.476260e-003
1.583271e+003, 2.684798e-003
1.585200e+003, 2.637145e-003
1.587128e+003, 2.670505e-003
1.589057e+003, 2.781722e-003
1.590985e+003, 2.817765e-003
1.592913e+003, 2.859347e-003
1.594842e+003, 2.777242e-003
1.596770e+003, 2.691808e-003
1.598699e+003, 2.877324e-003
1.600627e+003, 3.025777e-003
1.602556e+003, 3.001629e-003
1.604484e+003, 2.966230e-003
1.606413e+003, 2.996110e-003
1.608341e+003, 3.062288e-003
1.610270e+003, 3.211156e-003
1.612198e+003, 3.280329e-003
1.614127e+003, 3.396793e-003
1.616055e+003, 3.669752e-003
1.617984e+003, 3.552698e-003
1.619912e+003, 3.410459e-003
1.621840e+003, 3.535232e-003
1.623769e+003, 3.637871e-003
1.625697e+003, 3.668852e-003
1.627626e+003, 3.690929e-003
1.629554e+003, 3.669926e-003
1.631483e+003, 3.784278e-003
1.633411e+003, 4.049821e-003
1.635340e+003, 4.025257e-003
1.637268e+003, 3.724699e-003
1.639197e+003, 3.522554e-003
1.641125e+003, 3.563095e-003
1.643054e+003, 3.637974e-003
1.644982e+003, 3.882143e-003
1.646911e+003, 3.936761e-003
1.648839e+003, 3.848628e-003
1.650767e+003, 3.878235e-003
1.652696e+003, 3.975019e-003
1.654624e+003, 3.715935e-003
1.656553e+003, 3.509028e-003
1.658481e+003, 3.185281e-003
1.660410e+003, 2.997965e-003
1.662338e+003, 2.998604e-003
1.664267e+003, 2.959927e-003
1.666195e+003, 2.720254e-003
1.668124e+003, 2.656178e-003
1.670052e+003, 2.653176e-003
1.671981e+003, 2.620027e-003
1.673909e+003, 2.607223e-003
1.675838e+003, 2.813854e-003
1.677766e+003, 2.707986e-003
1.679694e+003, 2.528109e-003
1.681623e+003, 2.483673e-003
1.683551e+003, 2.817141e-003
1.685480e+003, 2.859988e-003
1.687408e+003, 2.449427e-003
1.689337e+003, 2.234683e-003
1.691265e+003, 2.391131e-003
1.693194e+003, 2.450862e-003
1.695122e+003, 2.595014e-003
1.697051e+003, 2.378546e-003
1.698979e+003, 2.338658e-003
1.700908e+003, 2.326150e-003
1.702836e+003, 2.046807e-003
1.704765e+003, 2.081684e-003
1.706693e+003, 2.225809e-003
1.708621e+003, 2.309095e-003
1.710550e+003, 2.215392e-003
1.712478e+003, 2.059864e-003
1.714407e+003, 2.221000e-003
1.716335e+003, 2.314698e-003
1.718264e+003, 2.155810e-003
1.720192e+003, 2.005509e-003
1.722121e+003, 2.132174e-003
1.724049e+003, 2.298297e-003
1.725978e+003, 2.068985e-003
1.727906e+003, 1.862470e-003
1.729835e+003, 1.877186e-003
1.731763e+003, 1.961364e-003
1.733692e+003, 2.126146e-003
1.735620e+003, 1.659900e-003
1.737548e+003, 1.098117e-003
1.739477e+003, 1.120863e-003
1.741405e+003, 1.292239e-003
1.743334e+003, 1.151058e-003
1.745262e+003, 8.825618e-004
1.747191e+003, 1.056037e-003
1.749119e+003, 1.321687e-003
1.751048e+003, 1.397600e-003
1.752976e+003, 1.303196e-003
1.754905e+003, 1.242198e-003
1.756833e+003, 1.290270e-003
1.758762e+003, 1.280192e-003
1.760690e+003, 1.273011e-003
1.762619e+003, 1.131956e-003
1.764547e+003, 1.253767e-003
1.766475e+003, 1.743582e-003
1.768404e+003, 1.800579e-003
1.770332e+003, 1.606262e-003
1.772261e+003, 1.760910e-003
1.774189e+003, 1.609307e-003
1.776118e+003, 1.378552e-003
1.778046e+003, 1.435065e-003
1.779975e+003, 1.559008e-003
1.781903e+003, 1.576267e-003
1.783832e+003, 1.488856e-003
1.785760e+003, 1.302104e-003
1.787689e+003, 1.210353e-003
1.789617e+003, 1.349048e-003
1.791546e+003, 1.432875e-003
1.793474e+003, 1.327041e-003
1.795402e+003, 1.154443e-003
1.797331e+003, 9.220059e-004
1.799259e+003, 7.822844e-004
1.801188e+003, 9.150276e-004
1.803116e+003, 1.145020e-003
1.805045e+003, 1.066307e-003
1.806973e+003, 1.015126e-003
1.808902e+003, 9.997843e-004
1.810830e+003, 7.041539e-004
1.812759e+003, 5.907697e-004
1.814687e+003, 6.141974e-004
1.816616e+003, 5.982443e-004
1.818544e+003, 5.616951e-004
1.820473e+003, 5.950879e-004
1.822401e+003, 5.063719e-004
1.824329e+003, 6.871334e-004
1.826258e+003, 8.636531e-004
1.828186e+003, 4.732899e-004
1.830115e+003, -3.790341e-006
1.832043e+003, -6.792984e-005
1.833972e+003, -3.847264e-005
1.835900e+003, 1.603777e-004
1.837829e+003, 1.091073e-004
1.839757e+003, -1.178175e-004
1.841686e+003, -2.833884e-004
1.843614e+003, -4.794655e-004
1.845543e+003, -6.223198e-004
1.847471e+003, -1.673762e-004
1.849400e+003, -1.582112e-004
1.851328e+003, -5.017766e-004
1.853256e+003, -4.591905e-004
1.855185e+003, -5.242898e-004
1.857113e+003, -2.051659e-004
1.859042e+003, 5.979964e-005
1.860970e+003, -3.840962e-004
1.862899e+003, -8.711513e-004
1.864827e+003, -1.024151e-003
1.866756e+003, -1.020422e-003
1.868684e+003, -8.204089e-004
1.870613e+003, -1.115648e-003
1.872541e+003, -1.248417e-003
1.874470e+003, -1.222941e-003
1.876398e+003, -1.216157e-003
1.878327e+003, -1.526455e-003
1.880255e+003, -1.159676e-003
1.882183e+003, -1.140710e-003
1.884112e+003, -1.622719e-003
1.886040e+003, -1.442586e-003
1.887969e+003, -1.195743e-003
1.889897e+003, -1.567716e-003
1.891826e+003, -1.537152e-003
1.893754e+003, -1.438232e-003
1.895683e+003, -1.822560e-003
1.897611e+003, -1.547424e-003
1.899540e+003, -1.699081e-003
1.901468e+003, -1.801829e-003
1.903397e+003, -1.391445e-003
1.905325e+003, -1.184980e-003
1.907254e+003, -1.427079e-003
1.909182e+003, -1.809776e-003
1.911110e+003, -1.808014e-003
1.913039e+003, -1.887480e-003
1.914967e+003, -1.868024e-003
1.916896e+003, -1.467955e-003
1.918824e+003, -1.723652e-003
1.920753e+003, -2.077497e-003
1.922681e+003, -2.084608e-003
1.924610e+003, -2.121176e-003
1.926538e+003, -2.055362e-003
1.928467e+003, -2.460779e-003
1.930395e+003, -2.552489e-003
1.932324e+003, -1.543638e-003
1.934252e+003, -1.463565e-003
1.936181e+003, -2.072402e-003
1.938109e+003, -2.095190e-003
1.940037e+003, -1.822911e-003
1.941966e+003, -1.881602e-003
1.943894e+003, -1.656474e-003
1.945823e+003, -1.952100e-003
1.947751e+003, -2.338756e-003
1.949680e+003, -2.420269e-003
1.951608e+003, -2.645458e-003
1.953537e+003, -2.200510e-003
1.955465e+003, -2.288953e-003
1.957394e+003, -1.709873e-003
1.959322e+003, -1.679239e-003
1.961251e+003, -1.483576e-003
1.963179e+003, -1.123438e-003
1.965108e+003, -1.491771e-003
1.967036e+003, -1.175927e-003
1.968964e+003, -2.351731e-003
1.970893e+003, -2.108414e-003
1.972821e+003, -5.262746e-004
1.974750e+003, -3.161784e-004
1.976678e+003, 5.125394e-004
1.978607e+003, 9.751651e-004
1.980535e+003, 6.356202e-004
1.982464e+003, 1.717983e-004
1.984392e+003, 8.831052e-004
1.986321e+003, -4.371409e-004
1.988249e+003, -2.480678e-003
1.990178e+003, -1.612833e-003
1.992106e+003, -3.708033e-004
1.994035e+003, -1.523180e-003
1.995963e+003, -1.340854e-003
1.997891e+003, -3.900379e-004
1.999820e+003, -1.072001e-003
2.001748e+003, -1.423943e-003
2.003677e+003, -1.016594e-003
2.005605e+003, -3.605615e-004
2.007534e+003, 6.907675e-004
2.009462e+003, 1.323948e-003
2.011391e+003, 4.116083e-004
2.013319e+003, -5.674260e-004
2.015248e+003, -4.386920e-004
2.017176e+003, -2.168715e-004
2.019105e+003, -4.881974e-004
2.021033e+003, -4.397798e-004
2.022962e+003, 1.151497e-004
2.024890e+003, 5.406272e-004
2.026818e+003, 1.303296e-003
2.028747e+003, 3.342645e-003
2.030675e+003, 3.039179e-003
2.032604e+003, 1.692520e-003
2.034532e+003, 1.276978e-003
2.036461e+003, 4.969379e-004
2.038389e+003, 7.081353e-004
2.040318e+003, 1.403980e-003
2.042246e+003, 1.577306e-003
2.044175e+003, 1.076494e-003
2.046103e+003, -1.366436e-005
2.048031e+003, -4.982110e-005
2.049960e+003, 1.176030e-003
2.051888e+003, 1.091371e-003
2.053817e+003, 2.357177e-004
2.055745e+003, -2.428051e-005
2.057674e+003, -2.047173e-004
2.059602e+003, -1.357508e-003
2.061531e+003, -1.839381e-003
2.063459e+003, -2.121244e-003
2.065388e+003, -1.795720e-003
2.067316e+003, -7.630466e-004
2.069245e+003, -2.568476e-004
2.071173e+003, -5.915156e-005
2.073102e+003, 2.375639e-004
2.075030e+003, 2.981483e-004
2.076958e+003, -5.933235e-004
2.078887e+003, -1.003924e-003
2.080815e+003, -3.161163e-004
2.082744e+003, -1.185680e-003
2.084672e+003, -9.338607e-004
2.086601e+003, -3.987271e-005
2.088529e+003, -9.109732e-005
2.090458e+003, -9.669184e-004
2.092386e+003, -1.921532e-003
2.094315e+003, -1.734302e-003
2.096243e+003, -1.080798e-003
2.098172e+003, -5.693962e-004
2.100100e+003, 2.042418e-004
2.102029e+003, 7.098748e-004
2.103957e+003, 1.031050e-003
2.105885e+003, 6.953385e-004
2.107814e+003, -4.247471e-004
2.109742e+003, -8.128791e-004
2.111671e+003, -8.369167e-005
2.113599e+003, -1.959989e-004
2.115528e+003, -9.744987e-005
2.117456e+003, 1.788409e-004
2.119385e+003, -1.839830e-004
2.121313e+003, -4.790407e-004
2.123242e+003, 4.044862e-004
2.125170e+003, 1.340306e-003
2.127099e+003, 9.817537e-004
2.129027e+003, -6.495370e-005
2.130956e+003, -7.627695e-004
2.132884e+003, -1.597707e-004
2.134813e+003, 1.369701e-003
2.136741e+003, 2.799544e-003
2.138669e+003, 2.834886e-003
2.140598e+003, 2.601341e-003
2.142526e+003, 2.429988e-003
2.144455e+003, 1.871536e-003
2.146383e+003, 1.669932e-003
2.148312e+003, 2.249695e-003
2.150240e+003, 2.821696e-003
2.152169e+003, 2.976383e-003
2.154097e+003, 3.372567e-003
2.156026e+003, 4.381242e-003
2.157954e+003, 6.224037e-003
2.159883e+003, 8.270761e-003
2.161811e+003, 7.569497e-003
2.163740e+003, 4.580853e-003
2.165668e+003, 4.917569e-003
2.167596e+003, 5.731472e-003
2.169525e+003, 5.449472e-003
2.171453e+003, 3.769884e-003
2.173382e+003, 3.768825e-003
2.175310e+003, 4.117869e-003
2.177239e+003, 4.779871e-003
2.179167e+003, 6.001250e-003
2.181096e+003, 5.732384e-003
2.183024e+003, 4.487102e-003
2.184953e+003, 3.694416e-003
2.186881e+003, 3.311094e-003
2.188810e+003, 3.129216e-003
2.190738e+003, 2.197771e-003
2.192667e+003, 9.772205e-004
2.194595e+003, 1.641704e-003
2.196523e+003, 2.606611e-003
2.198452e+003, 3.100327e-003
2.200380e+003, 4.724425e-003
2.202309e+003, 4.170263e-003
2.204237e+003, 2.334996e-003
2.206166e+003, 1.715168e-003
2.208094e+003, 1.619094e-003
2.210023e+003, 2.469774e-003
2.211951e+003, 2.821058e-003
2.213880e+003, 2.301993e-003
2.215808e+003, 1.526972e-003
2.217737e+003, 1.631807e-003
2.219665e+003, 1.681527e-003
2.221594e+003, 2.277932e-003
2.223522e+003, 1.598350e-003
2.225450e+003, 1.548356e-004
2.227379e+003, 5.644956e-004
2.229307e+003, 1.332152e-003
2.231236e+003, 1.278870e-003
2.233164e+003, 1.620405e-003
2.235093e+003, 2.586764e-003
2.237021e+003, 2.904052e-003
2.238950e+003, 2.878668e-003
2.240878e+003, 2.612692e-003
2.242807e+003, 2.161425e-003
2.244735e+003, 1.899285e-003
2.246664e+003, 1.797020e-003
2.248592e+003, 1.610829e-003
2.250521e+003, 1.154154e-003
2.252449e+003, 7.039988e-004
2.254377e+003, 4.401538e-004
2.256306e+003, 4.939581e-004
2.258234e+003, 1.084798e-004
2.260163e+003, 1.668539e-004
2.262091e+003, 8.001004e-004
2.264020e+003, 4.232072e-004
2.265948e+003, 3.970452e-004
2.267877e+003, 5.340658e-004
2.269805e+003, 9.276804e-004
2.271734e+003, 9.093729e-004
2.273662e+003, 8.866331e-004
2.275591e+003, 1.138551e-003
2.277519e+003, 1.045003e-003
2.279448e+003, 5.215483e-004
2.281376e+003, 7.363689e-004
2.283304e+003, 8.737594e-004
2.285233e+003, 7.048817e-004
2.287161e+003, 4.285757e-004
2.289090e+003, 5.371430e-004
2.291018e+003, 7.685127e-004
2.292947e+003, 6.274304e-004
2.294875e+003, 1.877340e-004
2.296804e+003, 7.318088e-005
2.298732e+003, -1.345649e-004
2.300661e+003, -1.249979e-004
2.302589e+003, -1.156558e-004
2.304518e+003, -2.312907e-004
2.306446e+003, -5.723435e-004
2.308375e+003, -7.889672e-004
2.310303e+003, -7.525925e-004
2.312231e+003, -5.860310e-004
2.314160e+003, -3.722865e-004
2.316088e+003, -2.553595e-004
2.318017e+003, -3.604043e-004
2.319945e+003, -3.681410e-004
2.321874e+003, -8.952222e-005
2.323802e+003, 3.284903e-004
2.325731e+003, -2.720986e-004
2.327659e+003, -7.013081e-004
2.329588e+003, -9.592451e-004
2.331516e+003, -1.231257e-003
2.333445e+003, -9.350184e-004
2.335373e+003, -5.124068e-004
2.337302e+003, -6.920712e-004
2.339230e+003, -9.503264e-004
2.341158e+003, -8.147509e-004
2.343087e+003, -5.941914e-004
2.345015e+003, -5.913215e-004
2.346944e+003, -6.475954e-004
2.348872e+003, -9.231769e-004
2.350801e+003, -6.756110e-004
2.352729e+003, -5.425572e-004
2.354658e+003, -9.184284e-004
2.356586e+003, -9.737784e-004
2.358515e+003, -6.509240e-004
2.360443e+003, -3.974922e-004
2.362372e+003, -5.405063e-004
2.364300e+003, -6.653348e-004
2.366229e+003, -8.156241e-004
2.368157e+003, -6.896025e-004
2.370085e+003, -4.673483e-004
2.372014e+003, -1.231407e-004
2.373942e+003, -2.874279e-004
2.375871e+003, -5.376663e-004
2.377799e+003, -4.744457e-004
2.379728e+003, -3.980187e-004
2.381656e+003, -4.987393e-004
2.383585e+003, -3.492022e-004
2.385513e+003, -4.258903e-005
2.387442e+003, -1.406555e-004
2.389370e+003, -3.671866e-004
2.391299e+003, -2.776095e-004
2.393227e+003, 4.602327e-004
2.395156e+003, 6.734732e-004
2.397084e+003, 2.382130e-004
2.399012e+003, 1.745617e-004
2.400941e+003, 9.345530e-005
2.402869e+003, -4.320434e-004
2.404798e+003, -3.639337e-004
2.406726e+003, 3.497192e-004
2.408655e+003, 7.041896e-004
2.410583e+003, 2.960963e-004
2.412512e+003, 2.923670e-004
2.414440e+003, 4.399923e-004
2.416369e+003, 5.416518e-004
2.418297e+003, 5.507208e-004
2.420226e+003, 2.203430e-004
2.422154e+003, 5.896112e-005
2.424083e+003, 7.714588e-004
2.426011e+003, 1.049109e-003
2.427939e+003, 1.136461e-003
2.429868e+003, 4.656760e-004
2.431796e+003, -1.257689e-004
2.433725e+003, -8.534516e-005
2.435653e+003, 8.002010e-004
2.437582e+003, 8.469598e-004
2.439510e+003, 4.882573e-004
2.441439e+003, 6.013838e-004
2.443367e+003, 1.159134e-003
2.445296e+003, 9.514790e-004
2.447224e+003, 9.091716e-004
2.449153e+003, 1.016396e-003
2.451081e+003, 8.457894e-004
2.453010e+003, 3.915160e-004
2.454938e+003, 5.286959e-004
2.456866e+003, 7.864409e-004
2.458795e+003, 3.064390e-004
2.460723e+003, 4.624845e-004
2.462652e+003, 9.107967e-004
2.464580e+003, 8.670632e-004
2.466509e+003, 9.882515e-004
2.468437e+003, 7.995520e-004
2.470366e+003, 7.554922e-004
2.472294e+003, 5.949574e-004
2.474223e+003, 1.488759e-004
2.476151e+003, 4.796326e-006
2.478080e+003, 1.608157e-004
2.480008e+003, 1.937668e-004
2.481937e+003, 7.419768e-004
2.483865e+003, 9.478252e-004
2.485793e+003, 9.379404e-004
2.487722e+003, 9.103287e-004
2.489650e+003, 9.110149e-004
2.491579e+003, 4.699824e-004
2.493507e+003, 3.508090e-005
2.495436e+003, 7.575632e-004
2.497364e+003, 1.067896e-003
2.499293e+003, 1.013784e-003
2.501221e+003, 8.266669e-004
2.503150e+003, 4.880302e-004
2.505078e+003, 5.573405e-004
2.507007e+003, 3.839736e-004
2.508935e+003, 3.965077e-004
2.510864e+003, 4.553566e-004
2.512792e+003, 2.248771e-004
2.514720e+003, 2.541157e-004
2.516649e+003, 7.850376e-004
2.518577e+003, 8.990838e-004
2.520506e+003, 3.746665e-004
2.522434e+003, -8.682014e-005
2.524363e+003, -5.623614e-005
2.526291e+003, 2.308332e-005
2.528220e+003, 3.840598e-004
2.530148e+003, 4.373687e-004
2.532077e+003, 4.005674e-004
2.534005e+003, 4.970827e-004
2.535934e+003, 5.942324e-004
2.537862e+003, 5.576285e-004
2.539791e+003, 8.763751e-004
2.541719e+003, 1.021208e-003
2.543647e+003, 7.892153e-004
2.545576e+003, 8.285132e-004
2.547504e+003, 1.058363e-003
2.549433e+003, 8.023621e-004
2.551361e+003, 6.902606e-004
2.553290e+003, 8.734842e-004
2.555218e+003, 1.115341e-003
2.557147e+003, 1.191768e-003
2.559075e+003, 5.581910e-004
2.561004e+003, 1.960603e-004
2.562932e+003, 5.280921e-004
2.564861e+003, 1.063933e-003
2.566789e+003, 1.224140e-003
2.568718e+003, 1.348395e-003
2.570646e+003, 9.235804e-004
2.572574e+003, 8.553132e-004
2.574503e+003, 1.703171e-003
2.576431e+003, 1.872496e-003
2.578360e+003, 1.189020e-003
2.580288e+003, 1.165030e-003
2.582217e+003, 1.125699e-003
2.584145e+003, 7.230666e-004
2.586074e+003, 1.082514e-003
2.588002e+003, 1.550277e-003
2.589931e+003, 1.352238e-003
2.591859e+003, 1.477965e-003
2.593788e+003, 1.079123e-003
2.595716e+003, 1.013092e-003
2.597645e+003, 1.062627e-003
2.599573e+003, 1.179509e-003
2.601501e+003, 1.648668e-003
2.603430e+003, 1.791875e-003
2.605358e+003, 1.820920e-003
2.607287e+003, 1.521153e-003
2.609215e+003, 1.149133e-003
2.611144e+003, 1.296222e-003
2.613072e+003, 1.374547e-003
2.615001e+003, 1.291365e-003
2.616929e+003, 1.332907e-003
2.618858e+003, 1.481019e-003
2.620786e+003, 1.708387e-003
2.622715e+003, 1.443869e-003
2.624643e+003, 1.087689e-003
2.626572e+003, 1.466813e-003
2.628500e+003, 1.766810e-003
2.630428e+003, 1.767176e-003
2.632357e+003, 1.665460e-003
2.634285e+003, 1.537796e-003
2.636214e+003, 1.551659e-003
2.638142e+003, 1.775969e-003
2.640071e+003, 1.919076e-003
2.641999e+003, 1.817165e-003
2.643928e+003, 1.658328e-003
2.645856e+003, 1.355250e-003
2.647785e+003, 1.263201e-003
2.649713e+003, 1.293971e-003
2.651642e+003, 1.362582e-003
2.653570e+003, 1.478062e-003
2.655499e+003, 1.374607e-003
2.657427e+003, 8.711197e-004
2.659355e+003, 7.946597e-004
2.661284e+003, 1.130602e-003
2.663212e+003, 9.762443e-004
2.665141e+003, 6.475723e-004
2.667069e+003, 5.181397e-004
2.668998e+003, 4.871429e-004
2.670926e+003, 5.501456e-004
2.672855e+003, 7.314435e-004
2.674783e+003, 7.907101e-004
2.676712e+003, 7.455494e-004
2.678640e+003, 5.211141e-004
2.680569e+003, 1.701979e-004
2.682497e+003, 1.101803e-004
2.684426e+003, 2.588714e-004
2.686354e+003, 6.985266e-004
2.688282e+003, 7.645941e-004
2.690211e+003, 4.177759e-004
2.692139e+003, 3.886677e-004
2.694068e+003, 8.257967e-004
2.695996e+003, 8.443914e-004
2.697925e+003, 7.176871e-004
2.699853e+003, 7.329414e-004
2.701782e+003, 7.556265e-004
2.703710e+003, 7.851815e-004
2.705639e+003, 9.395382e-004
2.707567e+003, 9.526606e-004
2.709496e+003, 6.353793e-004
2.711424e+003, 3.915317e-004
2.713353e+003, 6.829145e-004
2.715281e+003, 1.295804e-003
2.717209e+003, 1.365014e-003
2.719138e+003, 1.230380e-003
2.721066e+003, 1.282218e-003
2.722995e+003, 1.386943e-003
2.724923e+003, 1.136562e-003
2.726852e+003, 1.040016e-003
2.728780e+003, 1.288237e-003
2.730709e+003, 1.341746e-003
2.732637e+003, 1.319894e-003
2.734566e+003, 1.509474e-003
2.736494e+003, 1.344919e-003
2.738423e+003, 1.128142e-003
2.740351e+003, 1.175443e-003
2.742280e+003, 1.218719e-003
2.744208e+003, 1.049098e-003
2.746136e+003, 6.885916e-004
2.748065e+003, 6.153543e-004
2.749993e+003, 8.992743e-004
2.751922e+003, 1.149734e-003
2.753850e+003, 1.015610e-003
2.755779e+003, 9.865086e-004
2.757707e+003, 1.236383e-003
2.759636e+003, 1.191164e-003
2.761564e+003, 1.126584e-003
2.763493e+003, 9.080374e-004
2.765421e+003, 1.091063e-003
2.767350e+003, 1.625997e-003
2.769278e+003, 1.762999e-003
2.771207e+003, 1.540698e-003
2.773135e+003, 1.131216e-003
2.775063e+003, 1.307124e-003
2.776992e+003, 1.423954e-003
2.778920e+003, 1.202976e-003
2.780849e+003, 1.051510e-003
2.782777e+003, 1.156220e-003
2.784706e+003, 1.280757e-003
2.786634e+003, 1.284094e-003
2.788563e+003, 1.199784e-003
2.790491e+003, 1.221417e-003
2.792420e+003, 1.411830e-003
2.794348e+003, 1.510366e-003
2.796277e+003, 1.350182e-003
2.798205e+003, 1.244989e-003
2.800134e+003, 1.221311e-003
2.802062e+003, 1.326591e-003
2.803990e+003, 1.680547e-003
2.805919e+003, 1.502866e-003
2.807847e+003, 8.942913e-004
2.809776e+003, 1.007989e-003
2.811704e+003, 1.341153e-003
2.813633e+003, 1.440514e-003
2.815561e+003, 1.725528e-003
2.817490e+003, 1.905439e-003
2.819418e+003, 1.800448e-003
2.821347e+003, 1.755861e-003
2.823275e+003, 1.981507e-003
2.825204e+003, 1.809222e-003
2.827132e+003, 1.306406e-003
2.829061e+003, 1.190747e-003
2.830989e+003, 1.071536e-003
2.832917e+003, 1.367636e-003
2.834846e+003, 1.683464e-003
2.836774e+003, 1.595751e-003
2.838703e+003, 1.366777e-003
2.840631e+003, 1.732535e-003
2.842560e+003, 1.658651e-003
2.844488e+003, 1.644448e-003
2.846417e+003, 1.534027e-003
2.848345e+003, 1.229302e-003
2.850274e+003, 1.222273e-003
2.852202e+003, 1.377846e-003
2.854131e+003, 1.486569e-003
2.856059e+003, 1.328595e-003
2.857988e+003, 1.270778e-003
2.859916e+003, 1.432878e-003
2.861844e+003, 1.712447e-003
2.863773e+003, 1.901916e-003
2.865701e+003, 1.937961e-003
2.867630e+003, 1.963256e-003
2.869558e+003, 1.912762e-003
2.871487e+003, 1.837213e-003
2.873415e+003, 1.735659e-003
2.875344e+003, 1.983985e-003
2.877272e+003, 2.421534e-003
2.879201e+003, 2.497290e-003
2.881129e+003, 2.549452e-003
2.883058e+003, 2.339537e-003
2.884986e+003, 1.299209e-003
2.886915e+003, 1.450302e-003
2.888843e+003, 2.313075e-003
2.890771e+003, 2.178937e-003
2.892700e+003, 1.892654e-003
2.894628e+003, 2.058855e-003
2.896557e+003, 2.451314e-003
2.898485e+003, 2.436744e-003
2.900414e+003, 2.110941e-003
2.902342e+003, 2.076574e-003
2.904271e+003, 2.180112e-003
2.906199e+003, 2.210363e-003
2.908128e+003, 2.288748e-003
2.910056e+003, 2.403947e-003
2.911985e+003, 2.085107e-003
2.913913e+003, 2.158716e-003
2.915842e+003, 2.112982e-003
2.917770e+003, 2.323279e-003
2.919698e+003, 2.545468e-003
2.921627e+003, 2.644524e-003
2.923555e+003, 2.529496e-003
2.925484e+003, 2.443434e-003
2.927412e+003, 2.789380e-003
2.929341e+003, 2.614558e-003
2.931269e+003, 2.417854e-003
2.933198e+003, 2.418923e-003
2.935126e+003, 2.386989e-003
2.937055e+003, 2.199987e-003
2.938983e+003, 2.146240e-003
2.940912e+003, 2.270526e-003
2.942840e+003, 2.076451e-003
2.944769e+003, 1.600021e-003
2.946697e+003, 1.438192e-003
2.948625e+003, 1.802613e-003
2.950554e+003, 2.181200e-003
2.952482e+003, 1.950310e-003
2.954411e+003, 1.683579e-003
2.956339e+003, 2.043856e-003
2.958268e+003, 2.106539e-003
2.960196e+003, 2.022907e-003
2.962125e+003, 2.502119e-003
2.964053e+003, 2.484530e-003
2.965982e+003, 2.113651e-003
2.967910e+003, 1.679454e-003
2.969839e+003, 1.759139e-003
2.971767e+003, 2.360264e-003
2.973696e+003, 2.275993e-003
2.975624e+003, 1.918908e-003
2.977552e+003, 1.917749e-003
2.979481e+003, 1.940142e-003
2.981409e+003, 1.776885e-003
2.983338e+003, 1.789387e-003
2.985266e+003, 2.245924e-003
2.987195e+003, 2.073361e-003
2.989123e+003, 1.430690e-003
2.991052e+003, 1.510977e-003
2.992980e+003, 1.906141e-003
2.994909e+003, 1.984977e-003
2.996837e+003, 1.900708e-003
2.998766e+003, 1.929687e-003
3.000694e+003, 1.677030e-003
3.002623e+003, 1.649416e-003
3.004551e+003, 2.044237e-003
3.006479e+003, 2.453929e-003
3.008408e+003, 2.297702e-003
3.010336e+003, 2.328146e-003
3.012265e+003, 2.476313e-003
3.014193e+003, 2.269571e-003
3.016122e+003, 2.340118e-003
3.018050e+003, 2.392275e-003
3.019979e+003, 2.249763e-003
3.021907e+003, 2.150280e-003
3.023836e+003, 1.932002e-003
3.025764e+003, 1.857334e-003
3.027693e+003, 2.046857e-003
3.029621e+003, 2.832655e-003
3.031550e+003, 3.062239e-003
3.033478e+003, 2.517889e-003
3.035406e+003, 2.334302e-003
3.037335e+003, 1.966438e-003
3.039263e+003, 2.157290e-003
3.041192e+003, 2.496070e-003
3.043120e+003, 2.541618e-003
3.045049e+003, 2.898455e-003
3.046977e+003, 3.180065e-003
3.048906e+003, 2.872361e-003
3.050834e+003, 2.432457e-003
3.052763e+003, 2.096811e-003
3.054691e+003, 2.378626e-003
3.056620e+003, 2.928394e-003
3.058548e+003, 2.733104e-003
3.060477e+003, 2.492614e-003
3.062405e+003, 2.502521e-003
3.064333e+003, 2.342857e-003
3.066262e+003, 2.749440e-003
3.068190e+003, 2.625881e-003
3.070119e+003, 2.735469e-003
3.072047e+003, 3.052764e-003
3.073976e+003, 3.087756e-003
3.075904e+003, 3.293697e-003
3.077833e+003, 3.041729e-003
3.079761e+003, 2.695755e-003
3.081690e+003, 2.908396e-003
3.083618e+003, 3.003497e-003
3.085547e+003, 2.995311e-003
3.087475e+003, 3.544257e-003
3.089404e+003, 3.627015e-003
3.091332e+003, 3.079463e-003
3.093260e+003, 3.022528e-003
3.095189e+003, 3.278591e-003
3.097117e+003, 3.261298e-003
3.099046e+003, 2.963616e-003
3.100974e+003, 3.034454e-003
3.102903e+003, 2.943794e-003
3.104831e+003, 2.985731e-003
3.106760e+003, 3.812927e-003
3.108688e+003, 4.124141e-003
3.110617e+003, 4.007618e-003
3.112545e+003, 4.197615e-003
3.114474e+003, 4.284790e-003
3.116402e+003, 4.550956e-003
3.118331e+003, 5.054802e-003
3.120259e+003, 4.445947e-003
3.122188e+003, 4.249838e-003
3.124116e+003, 4.460254e-003
3.126044e+003, 4.317931e-003
3.127973e+003, 3.763454e-003
3.129901e+003, 3.502898e-003
3.131830e+003, 3.683279e-003
3.133758e+003, 4.346184e-003
3.135687e+003, 4.719823e-003
3.137615e+003, 4.317937e-003
3.139544e+003, 4.421690e-003
3.141472e+003, 5.013582e-003
3.143401e+003, 4.882454e-003
3.145329e+003, 4.372250e-003
3.147258e+003, 4.257126e-003
3.149186e+003, 4.582250e-003
3.151115e+003, 4.334306e-003
3.153043e+003, 3.907543e-003
3.154971e+003, 4.363927e-003
3.156900e+003, 4.908534e-003
3.158828e+003, 5.159547e-003
3.160757e+003, 5.070179e-003
3.162685e+003, 4.717521e-003
3.164614e+003, 5.085641e-003
3.166542e+003, 5.188343e-003
3.168471e+003, 5.147489e-003
3.170399e+003, 4.698148e-003
3.172328e+003, 4.976306e-003
3.174256e+003, 5.134904e-003
3.176185e+003, 4.867548e-003
3.178113e+003, 5.327716e-003
3.180042e+003, 5.345421e-003
3.181970e+003, 4.600519e-003
3.183898e+003, 3.926814e-003
3.185827e+003, 4.338703e-003
3.187755e+003, 5.390923e-003
3.189684e+003, 6.381957e-003
3.191612e+003, 6.412808e-003
3.193541e+003, 5.538804e-003
3.195469e+003, 5.299317e-003
3.197398e+003, 5.507861e-003
3.199326e+003, 5.143234e-003
3.201255e+003, 5.165055e-003
3.203183e+003, 5.839543e-003
3.205112e+003, 6.238436e-003
3.207040e+003, 6.033846e-003
3.208969e+003, 5.751018e-003
3.210897e+003, 5.707565e-003
3.212825e+003, 5.150827e-003
3.214754e+003, 5.079738e-003
3.216682e+003, 5.654720e-003
3.218611e+003, 5.539917e-003
3.220539e+003, 5.379352e-003
3.222468e+003, 5.322351e-003
3.224396e+003, 4.899100e-003
3.226325e+003, 5.159084e-003
3.228253e+003, 5.537620e-003
3.230182e+003, 5.765413e-003
3.232110e+003, 5.996200e-003
3.234039e+003, 6.172273e-003
3.235967e+003, 6.274180e-003
3.237896e+003, 6.496350e-003
3.239824e+003, 6.768023e-003
3.241752e+003, 6.777867e-003
3.243681e+003, 6.035929e-003
3.245609e+003, 5.186944e-003
3.247538e+003, 5.571827e-003
3.249466e+003, 5.738263e-003
3.251395e+003, 5.366157e-003
3.253323e+003, 5.481345e-003
3.255252e+003, 5.426008e-003
3.257180e+003, 5.314299e-003
3.259109e+003, 5.725708e-003
3.261037e+003, 5.953120e-003
3.262966e+003, 5.811836e-003
3.264894e+003, 6.061083e-003
3.266823e+003, 6.428328e-003
3.268751e+003, 6.852032e-003
3.270679e+003, 6.012881e-003
3.272608e+003, 5.542175e-003
3.274536e+003, 6.176986e-003
3.276465e+003, 6.770282e-003
3.278393e+003, 6.646025e-003
3.280322e+003, 6.618502e-003
3.282250e+003, 6.329063e-003
3.284179e+003, 5.993362e-003
3.286107e+003, 6.008352e-003
3.288036e+003, 6.106527e-003
3.289964e+003, 5.764894e-003
3.291893e+003, 5.336535e-003
3.293821e+003, 4.843790e-003
3.295750e+003, 5.445851e-003
3.297678e+003, 6.463259e-003
3.299606e+003, 6.420907e-003
3.301535e+003, 6.252396e-003
3.303463e+003, 5.688389e-003
3.305392e+003, 5.818700e-003
3.307320e+003, 6.452909e-003
3.309249e+003, 6.562619e-003
3.311177e+003, 6.091537e-003
3.313106e+003, 6.206531e-003
3.315034e+003, 6.468087e-003
3.316963e+003, 6.362251e-003
3.318891e+003, 5.963742e-003
3.320820e+003, 5.867708e-003
3.322748e+003, 6.528967e-003
3.324677e+003, 5.948528e-003
3.326605e+003, 5.716478e-003
3.328533e+003, 6.216804e-003
3.330462e+003, 6.408944e-003
3.332390e+003, 6.142187e-003
3.334319e+003, 6.279232e-003
3.336247e+003, 6.337590e-003
3.338176e+003, 6.924371e-003
3.340104e+003, 7.124305e-003
3.342033e+003, 6.705877e-003
3.343961e+003, 6.705647e-003
3.345890e+003, 6.623893e-003
3.347818e+003, 7.182300e-003
3.349747e+003, 7.161003e-003
3.351675e+003, 6.664495e-003
3.353604e+003, 7.017187e-003
3.355532e+003, 7.019566e-003
3.357460e+003, 6.614794e-003
3.359389e+003, 6.068472e-003
3.361317e+003, 5.798459e-003
3.363246e+003, 6.586913e-003
3.365174e+003, 7.339959e-003
3.367103e+003, 7.281935e-003
3.369031e+003, 6.999979e-003
3.370960e+003, 6.814162e-003
3.372888e+003, 6.803573e-003
3.374817e+003, 6.294983e-003
3.376745e+003, 6.037696e-003
3.378674e+003, 5.923144e-003
3.380602e+003, 5.910889e-003
3.382531e+003, 6.638776e-003
3.384459e+003, 7.400165e-003
3.386387e+003, 7.638298e-003
3.388316e+003, 6.450578e-003
3.390244e+003, 6.124395e-003
3.392173e+003, 6.301940e-003
3.394101e+003, 6.455734e-003
3.396030e+003, 7.170784e-003
3.397958e+003, 6.557424e-003
3.399887e+003, 6.245405e-003
3.401815e+003, 7.479612e-003
3.403744e+003, 7.314746e-003
3.405672e+003, 6.603431e-003
3.407601e+003, 6.630304e-003
3.409529e+003, 6.559983e-003
3.411458e+003, 6.651592e-003
3.413386e+003, 6.872803e-003
3.415314e+003, 7.003813e-003
3.417243e+003, 6.621268e-003
3.419171e+003, 6.869589e-003
3.421100e+003, 6.829190e-003
3.423028e+003, 6.511913e-003
3.424957e+003, 5.863783e-003
3.426885e+003, 5.639717e-003
3.428814e+003, 6.101526e-003
3.430742e+003, 7.513144e-003
3.432671e+003, 7.444351e-003
3.434599e+003, 6.885955e-003
3.436528e+003, 6.448147e-003
3.438456e+003, 6.103519e-003
3.440385e+003, 6.586955e-003
3.442313e+003, 7.036821e-003
3.444241e+003, 7.138222e-003
3.446170e+003, 7.008047e-003
3.448098e+003, 7.289073e-003
3.450027e+003, 7.626669e-003
3.451955e+003, 6.817153e-003
3.453884e+003, 5.771219e-003
3.455812e+003, 6.203719e-003
3.457741e+003, 6.755669e-003
3.459669e+003, 6.299532e-003
3.461598e+003, 5.820660e-003
3.463526e+003, 6.068981e-003
3.465455e+003, 5.703039e-003
3.467383e+003, 6.242685e-003
3.469312e+003, 6.852169e-003
3.471240e+003, 6.694610e-003
3.473168e+003, 6.807012e-003
3.475097e+003, 6.205322e-003
3.477025e+003, 6.540360e-003
3.478954e+003, 6.638459e-003
3.480882e+003, 6.506294e-003
3.482811e+003, 7.584950e-003
3.484739e+003, 7.679691e-003
3.486668e+003, 7.133824e-003
3.488596e+003, 6.442070e-003
3.490525e+003, 6.439620e-003
3.492453e+003, 7.103610e-003
3.494382e+003, 7.037536e-003
3.496310e+003, 6.805798e-003
3.498239e+003, 6.904004e-003
3.500167e+003, 7.093664e-003
3.502095e+003, 6.957575e-003
3.504024e+003, 6.666041e-003
3.505952e+003, 6.881719e-003
3.507881e+003, 6.399925e-003
3.509809e+003, 5.756774e-003
3.511738e+003, 5.196519e-003
3.513666e+003, 4.800534e-003
3.515595e+003, 5.530489e-003
3.517523e+003, 6.757406e-003
3.519452e+003, 7.259097e-003
3.521380e+003, 7.184823e-003
3.523309e+003, 6.526592e-003
3.525237e+003, 5.999389e-003
3.527166e+003, 6.470188e-003
3.529094e+003, 6.218121e-003
3.531022e+003, 5.915108e-003
3.532951e+003, 5.640345e-003
3.534879e+003, 4.797555e-003
3.536808e+003, 5.533868e-003
3.538736e+003, 6.583011e-003
3.540665e+003, 5.887203e-003
3.542593e+003, 5.920933e-003
3.544522e+003, 6.057529e-003
3.546450e+003, 5.763113e-003
3.548379e+003, 5.514849e-003
3.550307e+003, 5.261700e-003
3.552236e+003, 5.527496e-003
3.554164e+003, 6.152289e-003
3.556093e+003, 5.948870e-003
3.558021e+003, 5.246501e-003
3.559949e+003, 5.514483e-003
3.561878e+003, 5.591171e-003
3.563806e+003, 5.866675e-003
3.565735e+003, 5.865375e-003
3.567663e+003, 5.708879e-003
3.569592e+003, 5.162222e-003
3.571520e+003, 4.766523e-003
3.573449e+003, 4.989924e-003
3.575377e+003, 5.058966e-003
3.577306e+003, 4.208979e-003
3.579234e+003, 3.533992e-003
3.581163e+003, 3.353630e-003
3.583091e+003, 4.903107e-003
3.585020e+003, 5.104783e-003
3.586948e+003, 4.273114e-003
3.588876e+003, 4.362966e-003
3.590805e+003, 4.312110e-003
3.592733e+003, 4.445410e-003
3.594662e+003, 4.963396e-003
3.596590e+003, 5.815206e-003
3.598519e+003, 5.696920e-003
3.600447e+003, 4.794023e-003
3.602376e+003, 5.038245e-003
3.604304e+003, 5.766901e-003
3.606233e+003, 5.315212e-003
3.608161e+003, 5.610541e-003
3.610090e+003, 4.675615e-003
3.612018e+003, 4.296969e-003
3.613947e+003, 5.223710e-003
3.615875e+003, 5.189511e-003
3.617803e+003, 4.867729e-003
3.619732e+003, 4.644326e-003
3.621660e+003, 4.694350e-003
3.623589e+003, 4.298979e-003
3.625517e+003, 3.515552e-003
3.627446e+003, 3.192477e-003
3.629374e+003, 3.100106e-003
3.631303e+003, 3.515070e-003
3.633231e+003, 3.854580e-003
3.635160e+003, 3.635584e-003
3.637088e+003, 2.806288e-003
3.639017e+003, 2.401545e-003
3.640945e+003, 2.707320e-003
3.642874e+003, 3.143262e-003
3.644802e+003, 3.215120e-003
3.646730e+003, 3.214195e-003
3.648659e+003, 3.839661e-003
3.650587e+003, 2.977712e-003
3.652516e+003, 2.020199e-003
3.654444e+003, 1.576890e-003
3.656373e+003, 1.883136e-003
3.658301e+003, 2.262324e-003
3.660230e+003, 1.819852e-003
3.662158e+003, 1.094076e-003
3.664087e+003, 1.716570e-003
3.666015e+003, 1.521997e-003
3.667944e+003, 4.060133e-004
3.669872e+003, 3.324411e-004
3.671801e+003, 4.554111e-004
3.673729e+003, 1.717843e-003
3.675657e+003, 2.249912e-003
3.677586e+003, 1.965751e-003
3.679514e+003, 1.905790e-003
3.681443e+003, 1.837928e-003
3.683371e+003, 2.139156e-003
3.685300e+003, 2.309273e-003
3.687228e+003, 1.728878e-003
3.689157e+003, 9.546869e-004
3.691085e+003, 1.567431e-003
3.693014e+003, 2.359334e-003
3.694942e+003, 1.883477e-003
3.696871e+003, 1.749489e-003
3.698799e+003, 1.760502e-003
3.700728e+003, 2.271198e-003
3.702656e+003, 2.170555e-003
3.704584e+003, 1.919782e-003
3.706513e+003, 1.407670e-003
3.708441e+003, 1.747654e-003
3.710370e+003, 3.194566e-003
3.712298e+003, 3.922182e-003
3.714227e+003, 3.761924e-003
3.716155e+003, 3.239839e-003
3.718084e+003, 2.516033e-003
3.720012e+003, 2.161028e-003
3.721941e+003, 1.898797e-003
3.723869e+003, 2.468790e-003
3.725798e+003, 3.273786e-003
3.727726e+003, 3.657986e-003
3.729655e+003, 2.371095e-003
3.731583e+003, 1.840524e-003
3.733511e+003, 1.804959e-003
3.735440e+003, 2.298277e-003
3.737368e+003, 2.879028e-003
3.739297e+003, 2.842249e-003
3.741225e+003, 3.327310e-003
3.743154e+003, 3.316189e-003
3.745082e+003, 3.047971e-003
3.747011e+003, 2.733481e-003
3.748939e+003, 3.428805e-003
3.750868e+003, 3.330435e-003
3.752796e+003, 2.247273e-003
3.754725e+003, 2.568990e-003
3.756653e+003, 3.385171e-003
3.758582e+003, 3.355708e-003
3.760510e+003, 2.535199e-003
3.762438e+003, 1.518249e-003
3.764367e+003, 2.217660e-003
3.766295e+003, 3.520479e-003
3.768224e+003, 3.469232e-003
3.770152e+003, 2.640362e-003
3.772081e+003, 3.194739e-003
3.774009e+003, 4.304781e-003
3.775938e+003, 3.376877e-003
3.777866e+003, 2.260647e-003
3.779795e+003, 1.882086e-003
3.781723e+003, 1.911278e-003
3.783652e+003, 2.530490e-003
3.785580e+003, 3.851373e-003
3.787509e+003, 3.565419e-003
3.789437e+003, 1.861385e-003
3.791365e+003, 2.309616e-003
3.793294e+003, 2.335698e-003
3.795222e+003, 1.517822e-003
3.797151e+003, 1.694387e-003
3.799079e+003, 2.817220e-003
3.801008e+003, 3.168255e-003
3.802936e+003, 2.610324e-003
3.804865e+003, 3.382961e-003
3.806793e+003, 4.119542e-003
3.808722e+003, 3.483651e-003
3.810650e+003, 3.112073e-003
3.812579e+003, 3.559986e-003
3.814507e+003, 4.151872e-003
3.816436e+003, 3.315881e-003
3.818364e+003, 1.905363e-003
3.820292e+003, 2.177286e-003
3.822221e+003, 1.904649e-003
3.824149e+003, 2.221379e-003
3.826078e+003, 3.222110e-003
3.828006e+003, 2.952567e-003
3.829935e+003, 3.248150e-003
3.831863e+003, 2.592388e-003
3.833792e+003, 1.718742e-003
3.835720e+003, 2.129346e-003
3.837649e+003, 3.170684e-003
3.839577e+003, 4.521148e-003
3.841506e+003, 5.489478e-003
3.843434e+003, 4.353231e-003
3.845363e+003, 1.972527e-003
3.847291e+003, 1.744097e-003
3.849219e+003, 2.475072e-003
3.851148e+003, 3.350168e-003
3.853076e+003, 2.728376e-003
3.855005e+003, 1.653107e-003
3.856933e+003, 2.052881e-003
3.858862e+003, 2.355557e-003
3.860790e+003, 2.809683e-003
3.862719e+003, 2.495399e-003
3.864647e+003, 1.481169e-003
3.866576e+003, 1.347704e-003
3.868504e+003, 1.539676e-003
3.870433e+003, 1.851281e-003
3.872361e+003, 2.065464e-003
3.874290e+003, 2.321176e-003
3.876218e+003, 2.254347e-003
3.878146e+003, 1.901557e-003
3.880075e+003, 2.077220e-003
3.882003e+003, 1.703299e-003
3.883932e+003, 1.639660e-003
3.885860e+003, 2.692644e-003
3.887789e+003, 3.203243e-003
3.889717e+003, 2.730928e-003
3.891646e+003, 2.317906e-003
3.893574e+003, 1.873862e-003
3.895503e+003, 1.426498e-003
3.897431e+003, 1.524977e-003
3.899360e+003, 2.274947e-003
3.901288e+003, 2.190705e-003
3.903217e+003, 2.596449e-003
3.905145e+003, 1.895005e-003
3.907073e+003, 1.030089e-003
3.909002e+003, 1.197052e-003
3.910930e+003, 1.951691e-003
3.912859e+003, 1.850935e-003
3.914787e+003, 1.285319e-003
3.916716e+003, 1.553976e-003
3.918644e+003, 2.848541e-003
3.920573e+003, 3.849786e-003
3.922501e+003, 4.317615e-003
3.924430e+003, 2.631391e-003
3.926358e+003, 8.399787e-004
3.928287e+003, 1.618612e-003
3.930215e+003, 2.252314e-003
3.932144e+003, 3.103640e-003
3.934072e+003, 3.111376e-003
3.936000e+003, 1.871785e-003
3.937929e+003, 1.145486e-003
3.939857e+003, 1.568881e-003
3.941786e+003, 2.222846e-003
3.943714e+003, 1.243362e-003
3.945643e+003, 8.957846e-004
3.947571e+003, 1.320898e-003
3.949500e+003, 4.381985e-004
3.951428e+003, 8.909258e-004
3.953357e+003, 3.598530e-003
3.955285e+003, 4.065876e-003
3.957214e+003, 3.339021e-003
3.959142e+003, 2.873661e-003
3.961071e+003, 3.002152e-003
3.962999e+003, 3.447560e-003
3.964927e+003, 2.479015e-003
3.966856e+003, 3.030590e-003
3.968784e+003, 3.073521e-003
3.970713e+003, 2.511845e-003
3.972641e+003, 2.552969e-003
3.974570e+003, 3.115859e-003
3.976498e+003, 2.096598e-003
3.978427e+003, 1.362578e-003
3.980355e+003, 1.995275e-003
3.982284e+003, 2.717917e-003
3.984212e+003, 1.885593e-003
3.986141e+003, 3.633835e-004
3.988069e+003, 9.643544e-004
3.989998e+003, 2.921398e-003
3.991926e+003, 3.402348e-003
3.993854e+003, 3.447032e-003
3.995783e+003, 3.639316e-003
3.997711e+003, 2.198839e-003
3.999640e+003, 1.941266e-003
##END=



