##NAMES=Mooreite
##RRUFFID=R060089
##IDEAL CHEMISTRY=Mg_15_(S^6+^O_4_)_2_(OH)_26_&#183;8H_2_O
##LOCALITY=Sterling Hill, New Jersey, USA
##OWNER=RRUFF
##SOURCE=University of Arizona Mineral Museum
##DESCRIPTION=Tan fragment showing well-developed cleavage
##STATUS=The identification of this mineral has been confirmed by X-ray diffraction and chemical analysis
##URL=rruff.info/R060089
##MEASURED CHEMISTRY=Mg_9.00_Zn_4.00_(Mn^2+^_1.85_Mg_0.15_)_Σ=2_(S_1.00_O_4_)_2_(OH)_26_·8H_2_O
3.991926e+002, 2.532653e-001
4.011211e+002, 2.677444e-001
4.030495e+002, 2.712135e-001
4.049780e+002, 2.704289e-001
4.069065e+002, 2.617572e-001
4.088349e+002, 2.506073e-001
4.107634e+002, 2.369580e-001
4.126919e+002, 2.239197e-001
4.146203e+002, 2.135496e-001
4.165488e+002, 2.072526e-001
4.184773e+002, 1.993169e-001
4.204057e+002, 1.929238e-001
4.223342e+002, 1.892770e-001
4.242627e+002, 1.854372e-001
4.261911e+002, 1.838608e-001
4.281196e+002, 1.826294e-001
4.300481e+002, 1.786052e-001
4.319765e+002, 1.732764e-001
4.339050e+002, 1.662303e-001
4.358335e+002, 1.605858e-001
4.377619e+002, 1.569937e-001
4.396904e+002, 1.569804e-001
4.416189e+002, 1.546973e-001
4.435473e+002, 1.506128e-001
4.454758e+002, 1.498403e-001
4.474043e+002, 1.502592e-001
4.493327e+002, 1.493082e-001
4.512612e+002, 1.467728e-001
4.531897e+002, 1.430473e-001
4.551181e+002, 1.368033e-001
4.570466e+002, 1.296093e-001
4.589751e+002, 1.249615e-001
4.609035e+002, 1.217464e-001
4.628320e+002, 1.191494e-001
4.647605e+002, 1.178498e-001
4.666889e+002, 1.181612e-001
4.686174e+002, 1.198856e-001
4.705459e+002, 1.212648e-001
4.724743e+002, 1.214353e-001
4.744028e+002, 1.195822e-001
4.763313e+002, 1.168515e-001
4.782597e+002, 1.148617e-001
4.801882e+002, 1.143535e-001
4.821167e+002, 1.149882e-001
4.840451e+002, 1.180477e-001
4.859736e+002, 1.231411e-001
4.879021e+002, 1.287937e-001
4.898305e+002, 1.349224e-001
4.917590e+002, 1.396692e-001
4.936875e+002, 1.432081e-001
4.956159e+002, 1.456389e-001
4.975444e+002, 1.489226e-001
4.994729e+002, 1.534632e-001
5.014013e+002, 1.595993e-001
5.033298e+002, 1.664382e-001
5.052583e+002, 1.741781e-001
5.071867e+002, 1.813144e-001
5.091152e+002, 1.854432e-001
5.110437e+002, 1.882540e-001
5.129721e+002, 1.903255e-001
5.149006e+002, 1.902462e-001
5.168290e+002, 1.893939e-001
5.187575e+002, 1.897261e-001
5.206860e+002, 1.910427e-001
5.226144e+002, 1.919706e-001
5.245429e+002, 1.928410e-001
5.264714e+002, 1.931865e-001
5.283998e+002, 1.930251e-001
5.303283e+002, 1.938112e-001
5.322568e+002, 1.952111e-001
5.341852e+002, 1.966269e-001
5.361137e+002, 1.981402e-001
5.380422e+002, 1.997848e-001
5.399706e+002, 2.011882e-001
5.418991e+002, 2.014308e-001
5.438276e+002, 2.004717e-001
5.457560e+002, 1.975923e-001
5.476845e+002, 1.938620e-001
5.496130e+002, 1.900176e-001
5.515414e+002, 1.860768e-001
5.534699e+002, 1.819995e-001
5.553984e+002, 1.770207e-001
5.573268e+002, 1.722663e-001
5.592553e+002, 1.672418e-001
5.611838e+002, 1.620395e-001
5.631122e+002, 1.577138e-001
5.650407e+002, 1.536598e-001
5.669692e+002, 1.501670e-001
5.688976e+002, 1.465489e-001
5.708261e+002, 1.429546e-001
5.727546e+002, 1.399109e-001
5.746830e+002, 1.373895e-001
5.766115e+002, 1.346181e-001
5.785400e+002, 1.321997e-001
5.804684e+002, 1.297153e-001
5.823969e+002, 1.273827e-001
5.843254e+002, 1.252049e-001
5.862538e+002, 1.235083e-001
5.881823e+002, 1.215521e-001
5.901108e+002, 1.196487e-001
5.920392e+002, 1.183317e-001
5.939677e+002, 1.169959e-001
5.958962e+002, 1.157184e-001
5.978246e+002, 1.145013e-001
5.997531e+002, 1.134936e-001
6.016816e+002, 1.129532e-001
6.036100e+002, 1.127747e-001
6.055385e+002, 1.134202e-001
6.074670e+002, 1.149597e-001
6.093954e+002, 1.170857e-001
6.113239e+002, 1.200622e-001
6.132524e+002, 1.233232e-001
6.151808e+002, 1.262023e-001
6.171093e+002, 1.284814e-001
6.190378e+002, 1.299984e-001
6.209662e+002, 1.311210e-001
6.228947e+002, 1.318606e-001
6.248232e+002, 1.317752e-001
6.267516e+002, 1.312524e-001
6.286801e+002, 1.304983e-001
6.306086e+002, 1.294707e-001
6.325370e+002, 1.279358e-001
6.344655e+002, 1.261068e-001
6.363940e+002, 1.243646e-001
6.383224e+002, 1.227777e-001
6.402509e+002, 1.213720e-001
6.421794e+002, 1.201559e-001
6.441078e+002, 1.192825e-001
6.460363e+002, 1.182868e-001
6.479648e+002, 1.177716e-001
6.498932e+002, 1.175518e-001
6.518217e+002, 1.172419e-001
6.537502e+002, 1.172535e-001
6.556786e+002, 1.173591e-001
6.576071e+002, 1.171867e-001
6.595356e+002, 1.169822e-001
6.614641e+002, 1.169401e-001
6.633925e+002, 1.166243e-001
6.653210e+002, 1.161353e-001
6.672495e+002, 1.157035e-001
6.691779e+002, 1.148055e-001
6.711064e+002, 1.133143e-001
6.730349e+002, 1.118296e-001
6.749633e+002, 1.102593e-001
6.768918e+002, 1.085198e-001
6.788203e+002, 1.066409e-001
6.807487e+002, 1.045037e-001
6.826772e+002, 1.023379e-001
6.846057e+002, 1.001757e-001
6.865341e+002, 9.781843e-002
6.884626e+002, 9.546645e-002
6.903911e+002, 9.326524e-002
6.923195e+002, 9.091842e-002
6.942480e+002, 8.878852e-002
6.961765e+002, 8.703158e-002
6.981049e+002, 8.520364e-002
7.000334e+002, 8.344166e-002
7.019619e+002, 8.193038e-002
7.038903e+002, 8.090887e-002
7.058188e+002, 7.967965e-002
7.077473e+002, 7.821833e-002
7.096757e+002, 7.686784e-002
7.116042e+002, 7.573557e-002
7.135327e+002, 7.440121e-002
7.154611e+002, 7.311828e-002
7.173896e+002, 7.186376e-002
7.193181e+002, 7.058045e-002
7.212465e+002, 6.907542e-002
7.231750e+002, 6.795362e-002
7.251035e+002, 6.732281e-002
7.270319e+002, 6.641092e-002
7.289604e+002, 6.568647e-002
7.308889e+002, 6.529013e-002
7.328173e+002, 6.501482e-002
7.347458e+002, 6.487461e-002
7.366743e+002, 6.514779e-002
7.386027e+002, 6.555185e-002
7.405312e+002, 6.598006e-002
7.424597e+002, 6.639023e-002
7.443881e+002, 6.686494e-002
7.463166e+002, 6.755041e-002
7.482451e+002, 6.823771e-002
7.501735e+002, 6.907196e-002
7.521020e+002, 7.004847e-002
7.540305e+002, 7.087800e-002
7.559589e+002, 7.155313e-002
7.578874e+002, 7.193362e-002
7.598159e+002, 7.225776e-002
7.617443e+002, 7.239743e-002
7.636728e+002, 7.235892e-002
7.656013e+002, 7.210551e-002
7.675297e+002, 7.183081e-002
7.694582e+002, 7.153814e-002
7.713867e+002, 7.128753e-002
7.733151e+002, 7.098907e-002
7.752436e+002, 7.064662e-002
7.771721e+002, 7.030872e-002
7.791005e+002, 7.034611e-002
7.810290e+002, 7.032607e-002
7.829575e+002, 7.014855e-002
7.848859e+002, 6.996612e-002
7.868144e+002, 6.997781e-002
7.887429e+002, 6.983189e-002
7.906713e+002, 6.976485e-002
7.925998e+002, 6.956659e-002
7.945283e+002, 6.924764e-002
7.964567e+002, 6.897921e-002
7.983852e+002, 6.862506e-002
8.003137e+002, 6.824297e-002
8.022421e+002, 6.778939e-002
8.041706e+002, 6.744552e-002
8.060991e+002, 6.721146e-002
8.080275e+002, 6.684268e-002
8.099560e+002, 6.646695e-002
8.118845e+002, 6.597070e-002
8.138129e+002, 6.538309e-002
8.157414e+002, 6.471200e-002
8.176699e+002, 6.403414e-002
8.195983e+002, 6.347198e-002
8.215268e+002, 6.305959e-002
8.234553e+002, 6.268919e-002
8.253837e+002, 6.227903e-002
8.273122e+002, 6.200975e-002
8.292407e+002, 6.167394e-002
8.311691e+002, 6.130687e-002
8.330976e+002, 6.088230e-002
8.350261e+002, 6.050518e-002
8.369545e+002, 6.021250e-002
8.388830e+002, 5.992083e-002
8.408115e+002, 5.956719e-002
8.427399e+002, 5.925811e-002
8.446684e+002, 5.896590e-002
8.465969e+002, 5.853571e-002
8.485253e+002, 5.803268e-002
8.504538e+002, 5.765980e-002
8.523823e+002, 5.719985e-002
8.543107e+002, 5.648770e-002
8.562392e+002, 5.564342e-002
8.581677e+002, 5.522325e-002
8.600961e+002, 5.456245e-002
8.620246e+002, 5.365610e-002
8.639531e+002, 5.289077e-002
8.658815e+002, 5.238858e-002
8.678100e+002, 5.190589e-002
8.697385e+002, 5.134726e-002
8.716669e+002, 5.095150e-002
8.735954e+002, 5.066118e-002
8.755239e+002, 5.047071e-002
8.774523e+002, 5.044385e-002
8.793808e+002, 5.042461e-002
8.813093e+002, 5.032431e-002
8.832377e+002, 4.999631e-002
8.851662e+002, 4.980250e-002
8.870947e+002, 4.978833e-002
8.890231e+002, 4.948281e-002
8.909516e+002, 4.900656e-002
8.928801e+002, 4.845237e-002
8.948085e+002, 4.775219e-002
8.967370e+002, 4.695934e-002
8.986655e+002, 4.623572e-002
9.005939e+002, 4.536882e-002
9.025224e+002, 4.450268e-002
9.044509e+002, 4.371851e-002
9.063793e+002, 4.294651e-002
9.083078e+002, 4.207192e-002
9.102363e+002, 4.129381e-002
9.121647e+002, 4.064271e-002
9.140932e+002, 3.998340e-002
9.160217e+002, 3.940341e-002
9.179501e+002, 3.887754e-002
9.198786e+002, 3.823995e-002
9.218071e+002, 3.763989e-002
9.237355e+002, 3.708277e-002
9.256640e+002, 3.669855e-002
9.275925e+002, 3.650854e-002
9.295209e+002, 3.630007e-002
9.314494e+002, 3.609268e-002
9.333779e+002, 3.613463e-002
9.353063e+002, 3.628696e-002
9.372348e+002, 3.657109e-002
9.391633e+002, 3.699554e-002
9.410917e+002, 3.753603e-002
9.430202e+002, 3.807789e-002
9.449487e+002, 3.888848e-002
9.468771e+002, 3.998436e-002
9.488056e+002, 4.113868e-002
9.507341e+002, 4.233015e-002
9.526625e+002, 4.363867e-002
9.545910e+002, 4.474944e-002
9.565195e+002, 4.570685e-002
9.584479e+002, 4.669941e-002
9.603764e+002, 4.768164e-002
9.623049e+002, 4.848233e-002
9.642333e+002, 4.901499e-002
9.661618e+002, 4.924763e-002
9.680903e+002, 4.944246e-002
9.700187e+002, 4.955064e-002
9.719472e+002, 4.955895e-002
9.738757e+002, 4.949329e-002
9.758041e+002, 4.951852e-002
9.777326e+002, 4.974661e-002
9.796611e+002, 5.014038e-002
9.815895e+002, 4.978036e-002
9.835180e+002, 4.802361e-002
9.854465e+002, 4.567240e-002
9.873749e+002, 4.385071e-002
9.893034e+002, 4.256518e-002
9.912319e+002, 4.133008e-002
9.931603e+002, 4.028050e-002
9.950888e+002, 3.945800e-002
9.970173e+002, 3.870982e-002
9.989457e+002, 3.825779e-002
1.000874e+003, 3.800897e-002
1.002803e+003, 3.781215e-002
1.004731e+003, 3.778698e-002
1.006660e+003, 3.792478e-002
1.008588e+003, 3.824573e-002
1.010517e+003, 3.869595e-002
1.012445e+003, 3.915413e-002
1.014373e+003, 3.972071e-002
1.016302e+003, 4.038833e-002
1.018230e+003, 4.130233e-002
1.020159e+003, 4.221362e-002
1.022087e+003, 4.313220e-002
1.024016e+003, 4.405199e-002
1.025944e+003, 4.498349e-002
1.027873e+003, 4.619317e-002
1.029801e+003, 4.780713e-002
1.031730e+003, 4.943470e-002
1.033658e+003, 5.113565e-002
1.035587e+003, 5.324779e-002
1.037515e+003, 5.557115e-002
1.039443e+003, 5.804291e-002
1.041372e+003, 6.093229e-002
1.043300e+003, 6.428415e-002
1.045229e+003, 6.823874e-002
1.047157e+003, 7.287359e-002
1.049086e+003, 7.802063e-002
1.051014e+003, 8.388085e-002
1.052943e+003, 9.056974e-002
1.054871e+003, 9.823765e-002
1.056800e+003, 1.070296e-001
1.058728e+003, 1.168171e-001
1.060657e+003, 1.276570e-001
1.062585e+003, 1.395516e-001
1.064514e+003, 1.523094e-001
1.066442e+003, 1.659667e-001
1.068370e+003, 1.799360e-001
1.070299e+003, 1.940295e-001
1.072227e+003, 2.080351e-001
1.074156e+003, 2.214865e-001
1.076084e+003, 2.337609e-001
1.078013e+003, 2.439979e-001
1.079941e+003, 2.515341e-001
1.081870e+003, 2.560433e-001
1.083798e+003, 2.578171e-001
1.085727e+003, 2.570019e-001
1.087655e+003, 2.542144e-001
1.089584e+003, 2.505428e-001
1.091512e+003, 2.466296e-001
1.093441e+003, 2.430583e-001
1.095369e+003, 2.399542e-001
1.097297e+003, 2.370124e-001
1.099226e+003, 2.338290e-001
1.101154e+003, 2.300870e-001
1.103083e+003, 2.257180e-001
1.105011e+003, 2.208444e-001
1.106940e+003, 2.158418e-001
1.108868e+003, 2.108499e-001
1.110797e+003, 2.051748e-001
1.112725e+003, 1.980878e-001
1.114654e+003, 1.896329e-001
1.116582e+003, 1.801051e-001
1.118511e+003, 1.698835e-001
1.120439e+003, 1.592865e-001
1.122368e+003, 1.488041e-001
1.124296e+003, 1.385973e-001
1.126224e+003, 1.286882e-001
1.128153e+003, 1.192243e-001
1.130081e+003, 1.103338e-001
1.132010e+003, 1.018343e-001
1.133938e+003, 9.363107e-002
1.135867e+003, 8.541074e-002
1.137795e+003, 7.733510e-002
1.139724e+003, 6.973533e-002
1.141652e+003, 6.239661e-002
1.143581e+003, 5.559402e-002
1.145509e+003, 4.958301e-002
1.147438e+003, 4.425387e-002
1.149366e+003, 3.966907e-002
1.151295e+003, 3.567125e-002
1.153223e+003, 3.221495e-002
1.155151e+003, 2.929376e-002
1.157080e+003, 2.699789e-002
1.159008e+003, 2.491819e-002
1.160937e+003, 2.299168e-002
1.162865e+003, 2.132928e-002
1.164794e+003, 1.991549e-002
1.166722e+003, 1.869810e-002
1.168651e+003, 1.766688e-002
1.170579e+003, 1.669733e-002
1.172508e+003, 1.571684e-002
1.174436e+003, 1.483701e-002
1.176365e+003, 1.411280e-002
1.178293e+003, 1.342876e-002
1.180222e+003, 1.271239e-002
1.182150e+003, 1.199996e-002
1.184078e+003, 1.135833e-002
1.186007e+003, 1.070713e-002
1.187935e+003, 1.026637e-002
1.189864e+003, 9.868478e-003
1.191792e+003, 9.439874e-003
1.193721e+003, 9.029676e-003
1.195649e+003, 8.673440e-003
1.197578e+003, 8.288610e-003
1.199506e+003, 7.924195e-003
1.201435e+003, 7.586585e-003
1.203363e+003, 7.340822e-003
1.205292e+003, 7.143794e-003
1.207220e+003, 6.929118e-003
1.209149e+003, 6.776868e-003
1.211077e+003, 6.543832e-003
1.213005e+003, 6.300819e-003
1.214934e+003, 6.197573e-003
1.216862e+003, 6.050186e-003
1.218791e+003, 5.917055e-003
1.220719e+003, 5.789031e-003
1.222648e+003, 5.695322e-003
1.224576e+003, 5.517024e-003
1.226505e+003, 5.387008e-003
1.228433e+003, 5.324455e-003
1.230362e+003, 5.298612e-003
1.232290e+003, 5.274691e-003
1.234219e+003, 5.217795e-003
1.236147e+003, 5.152518e-003
1.238076e+003, 5.106871e-003
1.240004e+003, 5.133593e-003
1.241932e+003, 5.162652e-003
1.243861e+003, 5.080786e-003
1.245789e+003, 5.143553e-003
1.247718e+003, 5.145404e-003
1.249646e+003, 5.179078e-003
1.251575e+003, 5.182280e-003
1.253503e+003, 5.216244e-003
1.255432e+003, 5.231601e-003
1.257360e+003, 5.163289e-003
1.259289e+003, 5.206776e-003
1.261217e+003, 5.278860e-003
1.263146e+003, 5.360016e-003
1.265074e+003, 5.406787e-003
1.267003e+003, 5.553784e-003
1.268931e+003, 5.726387e-003
1.270859e+003, 5.845784e-003
1.272788e+003, 6.013633e-003
1.274716e+003, 6.202295e-003
1.276645e+003, 6.281137e-003
1.278573e+003, 6.387957e-003
1.280502e+003, 6.505304e-003
1.282430e+003, 6.582761e-003
1.284359e+003, 6.691178e-003
1.286287e+003, 6.630789e-003
1.288216e+003, 6.591352e-003
1.290144e+003, 6.669856e-003
1.292073e+003, 6.702687e-003
1.294001e+003, 6.770784e-003
1.295930e+003, 6.816367e-003
1.297858e+003, 6.710396e-003
1.299786e+003, 6.633210e-003
1.301715e+003, 6.788730e-003
1.303643e+003, 7.029113e-003
1.305572e+003, 7.127495e-003
1.307500e+003, 7.106086e-003
1.309429e+003, 7.088225e-003
1.311357e+003, 7.119825e-003
1.313286e+003, 7.112452e-003
1.315214e+003, 7.082614e-003
1.317143e+003, 7.154330e-003
1.319071e+003, 7.353835e-003
1.321000e+003, 7.527621e-003
1.322928e+003, 7.652358e-003
1.324857e+003, 7.730683e-003
1.326785e+003, 7.799810e-003
1.328714e+003, 7.767652e-003
1.330642e+003, 7.853110e-003
1.332570e+003, 8.050474e-003
1.334499e+003, 8.191572e-003
1.336427e+003, 8.282639e-003
1.338356e+003, 8.343711e-003
1.340284e+003, 8.441699e-003
1.342213e+003, 8.718810e-003
1.344141e+003, 8.955552e-003
1.346070e+003, 9.131738e-003
1.347998e+003, 9.290561e-003
1.349927e+003, 9.494928e-003
1.351855e+003, 9.727081e-003
1.353784e+003, 9.885774e-003
1.355712e+003, 1.001731e-002
1.357641e+003, 1.029064e-002
1.359569e+003, 1.043964e-002
1.361497e+003, 1.052228e-002
1.363426e+003, 1.074259e-002
1.365354e+003, 1.109546e-002
1.367283e+003, 1.128767e-002
1.369211e+003, 1.151499e-002
1.371140e+003, 1.182832e-002
1.373068e+003, 1.198629e-002
1.374997e+003, 1.214116e-002
1.376925e+003, 1.252528e-002
1.378854e+003, 1.283662e-002
1.380782e+003, 1.316352e-002
1.382711e+003, 1.339428e-002
1.384639e+003, 1.356931e-002
1.386568e+003, 1.350854e-002
1.388496e+003, 1.394024e-002
1.390424e+003, 1.453067e-002
1.392353e+003, 1.463099e-002
1.394281e+003, 1.444999e-002
1.396210e+003, 1.487198e-002
1.398138e+003, 1.516571e-002
1.400067e+003, 1.547413e-002
1.401995e+003, 1.589103e-002
1.403924e+003, 1.594136e-002
1.405852e+003, 1.592925e-002
1.407781e+003, 1.611383e-002
1.409709e+003, 1.629396e-002
1.411638e+003, 1.650819e-002
1.413566e+003, 1.663099e-002
1.415495e+003, 1.660538e-002
1.417423e+003, 1.617751e-002
1.419351e+003, 1.584562e-002
1.421280e+003, 1.637539e-002
1.423208e+003, 1.669081e-002
1.425137e+003, 1.680247e-002
1.427065e+003, 1.693732e-002
1.428994e+003, 1.692113e-002
1.430922e+003, 1.695719e-002
1.432851e+003, 1.698432e-002
1.434779e+003, 1.655447e-002
1.436708e+003, 1.609383e-002
1.438636e+003, 1.666619e-002
1.440565e+003, 1.711160e-002
1.442493e+003, 1.724472e-002
1.444422e+003, 1.712590e-002
1.446350e+003, 1.697898e-002
1.448278e+003, 1.697882e-002
1.450207e+003, 1.710879e-002
1.452135e+003, 1.707547e-002
1.454064e+003, 1.681556e-002
1.455992e+003, 1.563072e-002
1.457921e+003, 1.577575e-002
1.459849e+003, 1.685392e-002
1.461778e+003, 1.713153e-002
1.463706e+003, 1.686735e-002
1.465635e+003, 1.686323e-002
1.467563e+003, 1.714280e-002
1.469492e+003, 1.722204e-002
1.471420e+003, 1.680123e-002
1.473349e+003, 1.671584e-002
1.475277e+003, 1.731633e-002
1.477205e+003, 1.773747e-002
1.479134e+003, 1.810764e-002
1.481062e+003, 1.828157e-002
1.482991e+003, 1.850412e-002
1.484919e+003, 1.851592e-002
1.486848e+003, 1.832722e-002
1.488776e+003, 1.819592e-002
1.490705e+003, 1.838461e-002
1.492633e+003, 1.891453e-002
1.494562e+003, 1.861697e-002
1.496490e+003, 1.817979e-002
1.498419e+003, 1.866348e-002
1.500347e+003, 1.923909e-002
1.502276e+003, 1.951056e-002
1.504204e+003, 1.858307e-002
1.506132e+003, 1.716629e-002
1.508061e+003, 1.788336e-002
1.509989e+003, 1.917323e-002
1.511918e+003, 1.928727e-002
1.513846e+003, 1.934493e-002
1.515775e+003, 1.911578e-002
1.517703e+003, 1.896469e-002
1.519632e+003, 1.852558e-002
1.521560e+003, 1.808852e-002
1.523489e+003, 1.883165e-002
1.525417e+003, 1.907923e-002
1.527346e+003, 1.941483e-002
1.529274e+003, 1.972580e-002
1.531203e+003, 1.964167e-002
1.533131e+003, 1.923748e-002
1.535059e+003, 1.956559e-002
1.536988e+003, 1.928095e-002
1.538916e+003, 1.767655e-002
1.540845e+003, 1.757160e-002
1.542773e+003, 1.870354e-002
1.544702e+003, 1.941915e-002
1.546630e+003, 1.996412e-002
1.548559e+003, 2.028227e-002
1.550487e+003, 2.025258e-002
1.552416e+003, 1.996564e-002
1.554344e+003, 1.958779e-002
1.556273e+003, 1.904755e-002
1.558201e+003, 1.746521e-002
1.560130e+003, 1.795461e-002
1.562058e+003, 2.006459e-002
1.563986e+003, 2.078306e-002
1.565915e+003, 2.085931e-002
1.567843e+003, 2.069285e-002
1.569772e+003, 2.047757e-002
1.571700e+003, 2.101944e-002
1.573629e+003, 2.087083e-002
1.575557e+003, 1.977693e-002
1.577486e+003, 2.041506e-002
1.579414e+003, 2.154998e-002
1.581343e+003, 2.185016e-002
1.583271e+003, 2.209683e-002
1.585200e+003, 2.221180e-002
1.587128e+003, 2.232188e-002
1.589057e+003, 2.247937e-002
1.590985e+003, 2.272215e-002
1.592913e+003, 2.288046e-002
1.594842e+003, 2.311860e-002
1.596770e+003, 2.329067e-002
1.598699e+003, 2.331017e-002
1.600627e+003, 2.335975e-002
1.602556e+003, 2.335967e-002
1.604484e+003, 2.336576e-002
1.606413e+003, 2.327312e-002
1.608341e+003, 2.315487e-002
1.610270e+003, 2.315602e-002
1.612198e+003, 2.322944e-002
1.614127e+003, 2.286168e-002
1.616055e+003, 2.173311e-002
1.617984e+003, 2.198637e-002
1.619912e+003, 2.287077e-002
1.621840e+003, 2.248979e-002
1.623769e+003, 2.221367e-002
1.625697e+003, 2.247998e-002
1.627626e+003, 2.242583e-002
1.629554e+003, 2.246524e-002
1.631483e+003, 2.250909e-002
1.633411e+003, 2.176586e-002
1.635340e+003, 2.073081e-002
1.637268e+003, 2.129621e-002
1.639197e+003, 2.200451e-002
1.641125e+003, 2.203708e-002
1.643054e+003, 2.181127e-002
1.644982e+003, 2.073346e-002
1.646911e+003, 2.045823e-002
1.648839e+003, 2.113236e-002
1.650767e+003, 2.001631e-002
1.652696e+003, 1.780093e-002
1.654624e+003, 1.915831e-002
1.656553e+003, 2.091054e-002
1.658481e+003, 2.102690e-002
1.660410e+003, 2.073753e-002
1.662338e+003, 2.039006e-002
1.664267e+003, 2.051176e-002
1.666195e+003, 2.039103e-002
1.668124e+003, 1.952924e-002
1.670052e+003, 1.917177e-002
1.671981e+003, 1.940073e-002
1.673909e+003, 1.891828e-002
1.675838e+003, 1.843889e-002
1.677766e+003, 1.883780e-002
1.679694e+003, 1.874721e-002
1.681623e+003, 1.787320e-002
1.683551e+003, 1.577461e-002
1.685480e+003, 1.574245e-002
1.687408e+003, 1.716299e-002
1.689337e+003, 1.738201e-002
1.691265e+003, 1.719104e-002
1.693194e+003, 1.650108e-002
1.695122e+003, 1.461091e-002
1.697051e+003, 1.431366e-002
1.698979e+003, 1.389612e-002
1.700908e+003, 1.339681e-002
1.702836e+003, 1.461591e-002
1.704765e+003, 1.443324e-002
1.706693e+003, 1.427607e-002
1.708621e+003, 1.432443e-002
1.710550e+003, 1.422774e-002
1.712478e+003, 1.366330e-002
1.714407e+003, 1.284825e-002
1.716335e+003, 1.167506e-002
1.718264e+003, 1.154851e-002
1.720192e+003, 1.251866e-002
1.722121e+003, 1.284142e-002
1.724049e+003, 1.270069e-002
1.725978e+003, 1.254227e-002
1.727906e+003, 1.224685e-002
1.729835e+003, 1.190899e-002
1.731763e+003, 1.095959e-002
1.733692e+003, 9.544709e-003
1.735620e+003, 1.010004e-002
1.737548e+003, 1.067829e-002
1.739477e+003, 1.010877e-002
1.741405e+003, 9.989279e-003
1.743334e+003, 9.825165e-003
1.745262e+003, 9.842638e-003
1.747191e+003, 9.626863e-003
1.749119e+003, 9.105115e-003
1.751048e+003, 8.824718e-003
1.752976e+003, 9.557161e-003
1.754905e+003, 9.948359e-003
1.756833e+003, 9.836621e-003
1.758762e+003, 9.940797e-003
1.760690e+003, 9.525088e-003
1.762619e+003, 9.406652e-003
1.764547e+003, 9.756630e-003
1.766475e+003, 9.566469e-003
1.768404e+003, 9.308072e-003
1.770332e+003, 8.912982e-003
1.772261e+003, 8.255960e-003
1.774189e+003, 8.850491e-003
1.776118e+003, 9.610930e-003
1.778046e+003, 9.677430e-003
1.779975e+003, 9.467877e-003
1.781903e+003, 9.406765e-003
1.783832e+003, 9.297171e-003
1.785760e+003, 9.364642e-003
1.787689e+003, 9.669391e-003
1.789617e+003, 9.224728e-003
1.791546e+003, 8.468678e-003
1.793474e+003, 8.618853e-003
1.795402e+003, 8.977243e-003
1.797331e+003, 8.925975e-003
1.799259e+003, 8.917334e-003
1.801188e+003, 8.815385e-003
1.803116e+003, 8.834000e-003
1.805045e+003, 8.864610e-003
1.806973e+003, 8.899871e-003
1.808902e+003, 8.823046e-003
1.810830e+003, 8.800896e-003
1.812759e+003, 8.809230e-003
1.814687e+003, 8.726288e-003
1.816616e+003, 8.578550e-003
1.818544e+003, 8.969916e-003
1.820473e+003, 9.152339e-003
1.822401e+003, 9.130205e-003
1.824329e+003, 8.981504e-003
1.826258e+003, 8.918597e-003
1.828186e+003, 8.567752e-003
1.830115e+003, 8.435695e-003
1.832043e+003, 8.755195e-003
1.833972e+003, 8.712173e-003
1.835900e+003, 8.499720e-003
1.837829e+003, 8.582875e-003
1.839757e+003, 8.705015e-003
1.841686e+003, 8.632513e-003
1.843614e+003, 8.244544e-003
1.845543e+003, 8.569309e-003
1.847471e+003, 8.858836e-003
1.849400e+003, 8.863064e-003
1.851328e+003, 9.089846e-003
1.853256e+003, 9.083415e-003
1.855185e+003, 9.129968e-003
1.857113e+003, 9.150910e-003
1.859042e+003, 9.015018e-003
1.860970e+003, 9.087538e-003
1.862899e+003, 9.158319e-003
1.864827e+003, 8.891072e-003
1.866756e+003, 8.409077e-003
1.868684e+003, 8.200378e-003
1.870613e+003, 8.727918e-003
1.872541e+003, 8.951181e-003
1.874470e+003, 8.812030e-003
1.876398e+003, 8.919018e-003
1.878327e+003, 8.880100e-003
1.880255e+003, 8.859836e-003
1.882183e+003, 8.740165e-003
1.884112e+003, 8.659826e-003
1.886040e+003, 8.805834e-003
1.887969e+003, 8.677643e-003
1.889897e+003, 8.366429e-003
1.891826e+003, 8.904817e-003
1.893754e+003, 9.329591e-003
1.895683e+003, 9.211550e-003
1.897611e+003, 9.305093e-003
1.899540e+003, 9.393585e-003
1.901468e+003, 9.262006e-003
1.903397e+003, 9.244753e-003
1.905325e+003, 9.159461e-003
1.907254e+003, 9.041064e-003
1.909182e+003, 9.245524e-003
1.911110e+003, 9.441299e-003
1.913039e+003, 9.356287e-003
1.914967e+003, 9.474529e-003
1.916896e+003, 9.256155e-003
1.918824e+003, 9.477550e-003
1.920753e+003, 9.889540e-003
1.922681e+003, 9.526628e-003
1.924610e+003, 9.346228e-003
1.926538e+003, 9.632015e-003
1.928467e+003, 9.855978e-003
1.930395e+003, 1.000905e-002
1.932324e+003, 9.806345e-003
1.934252e+003, 9.631279e-003
1.936181e+003, 9.810813e-003
1.938109e+003, 9.794573e-003
1.940037e+003, 9.456459e-003
1.941966e+003, 9.480292e-003
1.943894e+003, 9.652034e-003
1.945823e+003, 9.659011e-003
1.947751e+003, 9.687830e-003
1.949680e+003, 9.924822e-003
1.951608e+003, 9.836998e-003
1.953537e+003, 9.989629e-003
1.955465e+003, 9.249610e-003
1.957394e+003, 9.361614e-003
1.959322e+003, 1.024422e-002
1.961251e+003, 1.093688e-002
1.963179e+003, 1.119902e-002
1.965108e+003, 1.140019e-002
1.967036e+003, 1.070347e-002
1.968964e+003, 9.837907e-003
1.970893e+003, 1.066027e-002
1.972821e+003, 1.128384e-002
1.974750e+003, 1.129886e-002
1.976678e+003, 1.181656e-002
1.978607e+003, 1.336943e-002
1.980535e+003, 1.412683e-002
1.982464e+003, 1.393769e-002
1.984392e+003, 1.399082e-002
1.986321e+003, 1.260066e-002
1.988249e+003, 1.157097e-002
1.990178e+003, 1.193753e-002
1.992106e+003, 1.254751e-002
1.994035e+003, 1.201710e-002
1.995963e+003, 1.102477e-002
1.997891e+003, 1.163055e-002
1.999820e+003, 1.211999e-002
2.001748e+003, 1.101171e-002
2.003677e+003, 1.021404e-002
2.005605e+003, 1.072381e-002
2.007534e+003, 1.204531e-002
2.009462e+003, 1.266704e-002
2.011391e+003, 1.221004e-002
2.013319e+003, 1.143379e-002
2.015248e+003, 1.118505e-002
2.017176e+003, 1.212143e-002
2.019105e+003, 1.265030e-002
2.021033e+003, 1.261591e-002
2.022962e+003, 1.200007e-002
2.024890e+003, 1.174789e-002
2.026818e+003, 1.181333e-002
2.028747e+003, 1.224350e-002
2.030675e+003, 1.241589e-002
2.032604e+003, 1.353049e-002
2.034532e+003, 1.420084e-002
2.036461e+003, 1.321620e-002
2.038389e+003, 1.321572e-002
2.040318e+003, 1.351709e-002
2.042246e+003, 1.366626e-002
2.044175e+003, 1.372529e-002
2.046103e+003, 1.281805e-002
2.048031e+003, 1.283934e-002
2.049960e+003, 1.407315e-002
2.051888e+003, 1.376100e-002
2.053817e+003, 1.277952e-002
2.055745e+003, 1.181587e-002
2.057674e+003, 1.178965e-002
2.059602e+003, 1.183760e-002
2.061531e+003, 1.210845e-002
2.063459e+003, 1.148066e-002
2.065388e+003, 1.077180e-002
2.067316e+003, 1.118494e-002
2.069245e+003, 1.201777e-002
2.071173e+003, 1.233113e-002
2.073102e+003, 1.227948e-002
2.075030e+003, 1.286489e-002
2.076958e+003, 1.258801e-002
2.078887e+003, 1.211615e-002
2.080815e+003, 1.220762e-002
2.082744e+003, 1.185262e-002
2.084672e+003, 1.207962e-002
2.086601e+003, 1.233801e-002
2.088529e+003, 1.234377e-002
2.090458e+003, 1.186553e-002
2.092386e+003, 1.148071e-002
2.094315e+003, 1.180578e-002
2.096243e+003, 1.171046e-002
2.098172e+003, 1.172795e-002
2.100100e+003, 1.170734e-002
2.102029e+003, 1.183014e-002
2.103957e+003, 1.193761e-002
2.105885e+003, 1.239826e-002
2.107814e+003, 1.232418e-002
2.109742e+003, 1.187075e-002
2.111671e+003, 1.167917e-002
2.113599e+003, 1.135574e-002
2.115528e+003, 1.043464e-002
2.117456e+003, 9.665038e-003
2.119385e+003, 9.827278e-003
2.121313e+003, 9.663997e-003
2.123242e+003, 9.841913e-003
2.125170e+003, 1.017587e-002
2.127099e+003, 9.611981e-003
2.129027e+003, 8.634068e-003
2.130956e+003, 8.170238e-003
2.132884e+003, 7.687335e-003
2.134813e+003, 7.781582e-003
2.136741e+003, 8.164145e-003
2.138669e+003, 8.290382e-003
2.140598e+003, 7.952433e-003
2.142526e+003, 8.008339e-003
2.144455e+003, 7.807072e-003
2.146383e+003, 7.232517e-003
2.148312e+003, 7.052451e-003
2.150240e+003, 6.930660e-003
2.152169e+003, 6.857819e-003
2.154097e+003, 7.210961e-003
2.156026e+003, 6.421668e-003
2.157954e+003, 7.342740e-003
2.159883e+003, 1.086994e-002
2.161811e+003, 1.155599e-002
2.163740e+003, 1.076443e-002
2.165668e+003, 1.135821e-002
2.167596e+003, 1.146486e-002
2.169525e+003, 1.061716e-002
2.171453e+003, 9.552890e-003
2.173382e+003, 1.015719e-002
2.175310e+003, 1.004740e-002
2.177239e+003, 9.352598e-003
2.179167e+003, 9.494386e-003
2.181096e+003, 9.717191e-003
2.183024e+003, 1.086612e-002
2.184953e+003, 1.176881e-002
2.186881e+003, 1.136595e-002
2.188810e+003, 1.098645e-002
2.190738e+003, 1.069085e-002
2.192667e+003, 1.096165e-002
2.194595e+003, 1.140047e-002
2.196523e+003, 1.135158e-002
2.198452e+003, 1.139957e-002
2.200380e+003, 1.214546e-002
2.202309e+003, 1.196462e-002
2.204237e+003, 1.165175e-002
2.206166e+003, 1.139481e-002
2.208094e+003, 1.142803e-002
2.210023e+003, 1.168456e-002
2.211951e+003, 1.147156e-002
2.213880e+003, 1.153267e-002
2.215808e+003, 1.221561e-002
2.217737e+003, 1.295846e-002
2.219665e+003, 1.289200e-002
2.221594e+003, 1.181012e-002
2.223522e+003, 1.158096e-002
2.225450e+003, 1.222012e-002
2.227379e+003, 1.204234e-002
2.229307e+003, 1.187427e-002
2.231236e+003, 1.234994e-002
2.233164e+003, 1.247187e-002
2.235093e+003, 1.291625e-002
2.237021e+003, 1.321269e-002
2.238950e+003, 1.350996e-002
2.240878e+003, 1.363200e-002
2.242807e+003, 1.359586e-002
2.244735e+003, 1.327424e-002
2.246664e+003, 1.260959e-002
2.248592e+003, 1.297363e-002
2.250521e+003, 1.403171e-002
2.252449e+003, 1.359841e-002
2.254377e+003, 1.315445e-002
2.256306e+003, 1.354229e-002
2.258234e+003, 1.363935e-002
2.260163e+003, 1.377937e-002
2.262091e+003, 1.365543e-002
2.264020e+003, 1.361042e-002
2.265948e+003, 1.412031e-002
2.267877e+003, 1.428963e-002
2.269805e+003, 1.459693e-002
2.271734e+003, 1.482364e-002
2.273662e+003, 1.531871e-002
2.275591e+003, 1.533902e-002
2.277519e+003, 1.532070e-002
2.279448e+003, 1.542444e-002
2.281376e+003, 1.490516e-002
2.283304e+003, 1.482466e-002
2.285233e+003, 1.548567e-002
2.287161e+003, 1.555274e-002
2.289090e+003, 1.519014e-002
2.291018e+003, 1.489036e-002
2.292947e+003, 1.435814e-002
2.294875e+003, 1.417963e-002
2.296804e+003, 1.428081e-002
2.298732e+003, 1.444726e-002
2.300661e+003, 1.493069e-002
2.302589e+003, 1.487533e-002
2.304518e+003, 1.467572e-002
2.306446e+003, 1.456650e-002
2.308375e+003, 1.445466e-002
2.310303e+003, 1.418361e-002
2.312231e+003, 1.414423e-002
2.314160e+003, 1.447870e-002
2.316088e+003, 1.484975e-002
2.318017e+003, 1.500509e-002
2.319945e+003, 1.540861e-002
2.321874e+003, 1.585369e-002
2.323802e+003, 1.597258e-002
2.325731e+003, 1.505133e-002
2.327659e+003, 1.446262e-002
2.329588e+003, 1.438280e-002
2.331516e+003, 1.400195e-002
2.333445e+003, 1.390624e-002
2.335373e+003, 1.412087e-002
2.337302e+003, 1.407403e-002
2.339230e+003, 1.395229e-002
2.341158e+003, 1.376396e-002
2.343087e+003, 1.372126e-002
2.345015e+003, 1.370384e-002
2.346944e+003, 1.363936e-002
2.348872e+003, 1.332099e-002
2.350801e+003, 1.331924e-002
2.352729e+003, 1.352799e-002
2.354658e+003, 1.374184e-002
2.356586e+003, 1.383271e-002
2.358515e+003, 1.374057e-002
2.360443e+003, 1.384245e-002
2.362372e+003, 1.392536e-002
2.364300e+003, 1.377880e-002
2.366229e+003, 1.340115e-002
2.368157e+003, 1.319430e-002
2.370085e+003, 1.307700e-002
2.372014e+003, 1.320813e-002
2.373942e+003, 1.305381e-002
2.375871e+003, 1.301129e-002
2.377799e+003, 1.313701e-002
2.379728e+003, 1.290118e-002
2.381656e+003, 1.279095e-002
2.383585e+003, 1.286912e-002
2.385513e+003, 1.274898e-002
2.387442e+003, 1.263381e-002
2.389370e+003, 1.299961e-002
2.391299e+003, 1.302107e-002
2.393227e+003, 1.325911e-002
2.395156e+003, 1.323521e-002
2.397084e+003, 1.290937e-002
2.399012e+003, 1.302308e-002
2.400941e+003, 1.328343e-002
2.402869e+003, 1.309953e-002
2.404798e+003, 1.321817e-002
2.406726e+003, 1.339905e-002
2.408655e+003, 1.341162e-002
2.410583e+003, 1.355508e-002
2.412512e+003, 1.394949e-002
2.414440e+003, 1.414756e-002
2.416369e+003, 1.392538e-002
2.418297e+003, 1.385436e-002
2.420226e+003, 1.396496e-002
2.422154e+003, 1.378463e-002
2.424083e+003, 1.383264e-002
2.426011e+003, 1.400645e-002
2.427939e+003, 1.408946e-002
2.429868e+003, 1.412735e-002
2.431796e+003, 1.415191e-002
2.433725e+003, 1.395466e-002
2.435653e+003, 1.405672e-002
2.437582e+003, 1.403931e-002
2.439510e+003, 1.427200e-002
2.441439e+003, 1.454231e-002
2.443367e+003, 1.429285e-002
2.445296e+003, 1.430831e-002
2.447224e+003, 1.442537e-002
2.449153e+003, 1.421847e-002
2.451081e+003, 1.425138e-002
2.453010e+003, 1.432743e-002
2.454938e+003, 1.402679e-002
2.456866e+003, 1.413828e-002
2.458795e+003, 1.419882e-002
2.460723e+003, 1.388267e-002
2.462652e+003, 1.413282e-002
2.464580e+003, 1.457283e-002
2.466509e+003, 1.454812e-002
2.468437e+003, 1.400219e-002
2.470366e+003, 1.383238e-002
2.472294e+003, 1.400624e-002
2.474223e+003, 1.378473e-002
2.476151e+003, 1.417100e-002
2.478080e+003, 1.446284e-002
2.480008e+003, 1.408792e-002
2.481937e+003, 1.396375e-002
2.483865e+003, 1.416271e-002
2.485793e+003, 1.415492e-002
2.487722e+003, 1.398563e-002
2.489650e+003, 1.414909e-002
2.491579e+003, 1.394921e-002
2.493507e+003, 1.388244e-002
2.495436e+003, 1.407961e-002
2.497364e+003, 1.411817e-002
2.499293e+003, 1.426632e-002
2.501221e+003, 1.439524e-002
2.503150e+003, 1.446518e-002
2.505078e+003, 1.427271e-002
2.507007e+003, 1.431055e-002
2.508935e+003, 1.465228e-002
2.510864e+003, 1.458650e-002
2.512792e+003, 1.459120e-002
2.514720e+003, 1.476811e-002
2.516649e+003, 1.452997e-002
2.518577e+003, 1.451346e-002
2.520506e+003, 1.407997e-002
2.522434e+003, 1.419318e-002
2.524363e+003, 1.447258e-002
2.526291e+003, 1.453215e-002
2.528220e+003, 1.484370e-002
2.530148e+003, 1.477490e-002
2.532077e+003, 1.468584e-002
2.534005e+003, 1.487242e-002
2.535934e+003, 1.497870e-002
2.537862e+003, 1.504909e-002
2.539791e+003, 1.492670e-002
2.541719e+003, 1.475112e-002
2.543647e+003, 1.486789e-002
2.545576e+003, 1.522082e-002
2.547504e+003, 1.521405e-002
2.549433e+003, 1.531464e-002
2.551361e+003, 1.527267e-002
2.553290e+003, 1.552500e-002
2.555218e+003, 1.576316e-002
2.557147e+003, 1.597625e-002
2.559075e+003, 1.627969e-002
2.561004e+003, 1.606047e-002
2.562932e+003, 1.565197e-002
2.564861e+003, 1.563773e-002
2.566789e+003, 1.558965e-002
2.568718e+003, 1.572196e-002
2.570646e+003, 1.593297e-002
2.572574e+003, 1.603123e-002
2.574503e+003, 1.599696e-002
2.576431e+003, 1.584106e-002
2.578360e+003, 1.589713e-002
2.580288e+003, 1.608836e-002
2.582217e+003, 1.630290e-002
2.584145e+003, 1.651899e-002
2.586074e+003, 1.639813e-002
2.588002e+003, 1.628622e-002
2.589931e+003, 1.640390e-002
2.591859e+003, 1.644794e-002
2.593788e+003, 1.670359e-002
2.595716e+003, 1.660527e-002
2.597645e+003, 1.649114e-002
2.599573e+003, 1.668407e-002
2.601501e+003, 1.701377e-002
2.603430e+003, 1.712816e-002
2.605358e+003, 1.697848e-002
2.607287e+003, 1.684593e-002
2.609215e+003, 1.745822e-002
2.611144e+003, 1.777464e-002
2.613072e+003, 1.783352e-002
2.615001e+003, 1.806032e-002
2.616929e+003, 1.801569e-002
2.618858e+003, 1.799134e-002
2.620786e+003, 1.824034e-002
2.622715e+003, 1.824566e-002
2.624643e+003, 1.850644e-002
2.626572e+003, 1.877579e-002
2.628500e+003, 1.873462e-002
2.630428e+003, 1.875838e-002
2.632357e+003, 1.871036e-002
2.634285e+003, 1.854718e-002
2.636214e+003, 1.848328e-002
2.638142e+003, 1.853306e-002
2.640071e+003, 1.881914e-002
2.641999e+003, 1.892029e-002
2.643928e+003, 1.915134e-002
2.645856e+003, 1.939736e-002
2.647785e+003, 1.943891e-002
2.649713e+003, 1.953881e-002
2.651642e+003, 1.974759e-002
2.653570e+003, 1.965492e-002
2.655499e+003, 1.927075e-002
2.657427e+003, 1.905703e-002
2.659355e+003, 1.937898e-002
2.661284e+003, 1.955140e-002
2.663212e+003, 1.936020e-002
2.665141e+003, 1.925912e-002
2.667069e+003, 1.941082e-002
2.668998e+003, 1.950544e-002
2.670926e+003, 1.950534e-002
2.672855e+003, 1.970552e-002
2.674783e+003, 1.977293e-002
2.676712e+003, 1.973723e-002
2.678640e+003, 1.999820e-002
2.680569e+003, 2.028814e-002
2.682497e+003, 2.034634e-002
2.684426e+003, 2.033981e-002
2.686354e+003, 2.042709e-002
2.688282e+003, 2.068445e-002
2.690211e+003, 2.053901e-002
2.692139e+003, 2.068265e-002
2.694068e+003, 2.096609e-002
2.695996e+003, 2.126633e-002
2.697925e+003, 2.149186e-002
2.699853e+003, 2.149103e-002
2.701782e+003, 2.164088e-002
2.703710e+003, 2.173893e-002
2.705639e+003, 2.169601e-002
2.707567e+003, 2.187900e-002
2.709496e+003, 2.196649e-002
2.711424e+003, 2.227480e-002
2.713353e+003, 2.273051e-002
2.715281e+003, 2.282007e-002
2.717209e+003, 2.258951e-002
2.719138e+003, 2.265625e-002
2.721066e+003, 2.304387e-002
2.722995e+003, 2.331572e-002
2.724923e+003, 2.312076e-002
2.726852e+003, 2.319113e-002
2.728780e+003, 2.369456e-002
2.730709e+003, 2.409842e-002
2.732637e+003, 2.411785e-002
2.734566e+003, 2.385125e-002
2.736494e+003, 2.403914e-002
2.738423e+003, 2.442197e-002
2.740351e+003, 2.459760e-002
2.742280e+003, 2.498963e-002
2.744208e+003, 2.518961e-002
2.746136e+003, 2.538093e-002
2.748065e+003, 2.559216e-002
2.749993e+003, 2.566310e-002
2.751922e+003, 2.565830e-002
2.753850e+003, 2.585586e-002
2.755779e+003, 2.611781e-002
2.757707e+003, 2.628984e-002
2.759636e+003, 2.632965e-002
2.761564e+003, 2.628569e-002
2.763493e+003, 2.668644e-002
2.765421e+003, 2.700700e-002
2.767350e+003, 2.705032e-002
2.769278e+003, 2.756347e-002
2.771207e+003, 2.788129e-002
2.773135e+003, 2.792591e-002
2.775063e+003, 2.796484e-002
2.776992e+003, 2.812207e-002
2.778920e+003, 2.830129e-002
2.780849e+003, 2.858394e-002
2.782777e+003, 2.893106e-002
2.784706e+003, 2.925972e-002
2.786634e+003, 2.937734e-002
2.788563e+003, 2.943594e-002
2.790491e+003, 2.961568e-002
2.792420e+003, 2.989598e-002
2.794348e+003, 3.007314e-002
2.796277e+003, 3.030126e-002
2.798205e+003, 3.045992e-002
2.800134e+003, 3.044689e-002
2.802062e+003, 3.073312e-002
2.803990e+003, 3.115949e-002
2.805919e+003, 3.136323e-002
2.807847e+003, 3.158203e-002
2.809776e+003, 3.173761e-002
2.811704e+003, 3.197188e-002
2.813633e+003, 3.243939e-002
2.815561e+003, 3.280552e-002
2.817490e+003, 3.302039e-002
2.819418e+003, 3.316318e-002
2.821347e+003, 3.337693e-002
2.823275e+003, 3.375174e-002
2.825204e+003, 3.406449e-002
2.827132e+003, 3.438327e-002
2.829061e+003, 3.469713e-002
2.830989e+003, 3.489159e-002
2.832917e+003, 3.524182e-002
2.834846e+003, 3.546013e-002
2.836774e+003, 3.559834e-002
2.838703e+003, 3.598063e-002
2.840631e+003, 3.604754e-002
2.842560e+003, 3.613422e-002
2.844488e+003, 3.635849e-002
2.846417e+003, 3.635404e-002
2.848345e+003, 3.620007e-002
2.850274e+003, 3.610841e-002
2.852202e+003, 3.639580e-002
2.854131e+003, 3.689381e-002
2.856059e+003, 3.760723e-002
2.857988e+003, 3.808846e-002
2.859916e+003, 3.830269e-002
2.861844e+003, 3.876545e-002
2.863773e+003, 3.926529e-002
2.865701e+003, 3.927205e-002
2.867630e+003, 3.971967e-002
2.869558e+003, 4.056079e-002
2.871487e+003, 4.110262e-002
2.873415e+003, 4.102213e-002
2.875344e+003, 4.104712e-002
2.877272e+003, 4.114444e-002
2.879201e+003, 4.153372e-002
2.881129e+003, 4.207740e-002
2.883058e+003, 4.269977e-002
2.884986e+003, 4.307021e-002
2.886915e+003, 4.324813e-002
2.888843e+003, 4.335126e-002
2.890771e+003, 4.375278e-002
2.892700e+003, 4.404094e-002
2.894628e+003, 4.427827e-002
2.896557e+003, 4.463431e-002
2.898485e+003, 4.467788e-002
2.900414e+003, 4.480841e-002
2.902342e+003, 4.532150e-002
2.904271e+003, 4.586567e-002
2.906199e+003, 4.601149e-002
2.908128e+003, 4.613480e-002
2.910056e+003, 4.641927e-002
2.911985e+003, 4.658619e-002
2.913913e+003, 4.638661e-002
2.915842e+003, 4.637194e-002
2.917770e+003, 4.668327e-002
2.919698e+003, 4.703175e-002
2.921627e+003, 4.788931e-002
2.923555e+003, 4.840277e-002
2.925484e+003, 4.823326e-002
2.927412e+003, 4.852877e-002
2.929341e+003, 4.897848e-002
2.931269e+003, 4.964772e-002
2.933198e+003, 5.025470e-002
2.935126e+003, 5.051946e-002
2.937055e+003, 5.101850e-002
2.938983e+003, 5.133181e-002
2.940912e+003, 5.180677e-002
2.942840e+003, 5.268607e-002
2.944769e+003, 5.312445e-002
2.946697e+003, 5.354138e-002
2.948625e+003, 5.380630e-002
2.950554e+003, 5.415894e-002
2.952482e+003, 5.484469e-002
2.954411e+003, 5.530001e-002
2.956339e+003, 5.552749e-002
2.958268e+003, 5.586121e-002
2.960196e+003, 5.639744e-002
2.962125e+003, 5.682498e-002
2.964053e+003, 5.734586e-002
2.965982e+003, 5.753160e-002
2.967910e+003, 5.783282e-002
2.969839e+003, 5.834639e-002
2.971767e+003, 5.873433e-002
2.973696e+003, 5.913610e-002
2.975624e+003, 5.930300e-002
2.977552e+003, 5.962594e-002
2.979481e+003, 6.004902e-002
2.981409e+003, 6.039560e-002
2.983338e+003, 6.093574e-002
2.985266e+003, 6.142291e-002
2.987195e+003, 6.200361e-002
2.989123e+003, 6.251126e-002
2.991052e+003, 6.308490e-002
2.992980e+003, 6.367060e-002
2.994909e+003, 6.412806e-002
2.996837e+003, 6.450740e-002
2.998766e+003, 6.496173e-002
3.000694e+003, 6.524905e-002
3.002623e+003, 6.560108e-002
3.004551e+003, 6.623267e-002
3.006479e+003, 6.706197e-002
3.008408e+003, 6.773590e-002
3.010336e+003, 6.848370e-002
3.012265e+003, 6.904580e-002
3.014193e+003, 6.934463e-002
3.016122e+003, 6.970911e-002
3.018050e+003, 7.013563e-002
3.019979e+003, 7.099357e-002
3.021907e+003, 7.146040e-002
3.023836e+003, 7.181290e-002
3.025764e+003, 7.246052e-002
3.027693e+003, 7.297462e-002
3.029621e+003, 7.361039e-002
3.031550e+003, 7.399437e-002
3.033478e+003, 7.453404e-002
3.035406e+003, 7.539301e-002
3.037335e+003, 7.636768e-002
3.039263e+003, 7.724971e-002
3.041192e+003, 7.780804e-002
3.043120e+003, 7.846996e-002
3.045049e+003, 7.916997e-002
3.046977e+003, 7.962441e-002
3.048906e+003, 8.027525e-002
3.050834e+003, 8.146219e-002
3.052763e+003, 8.222114e-002
3.054691e+003, 8.280733e-002
3.056620e+003, 8.401102e-002
3.058548e+003, 8.515143e-002
3.060477e+003, 8.599616e-002
3.062405e+003, 8.653815e-002
3.064333e+003, 8.693784e-002
3.066262e+003, 8.805911e-002
3.068190e+003, 8.946545e-002
3.070119e+003, 9.008045e-002
3.072047e+003, 9.091464e-002
3.073976e+003, 9.215255e-002
3.075904e+003, 9.318098e-002
3.077833e+003, 9.384655e-002
3.079761e+003, 9.426755e-002
3.081690e+003, 9.486347e-002
3.083618e+003, 9.570739e-002
3.085547e+003, 9.643562e-002
3.087475e+003, 9.733597e-002
3.089404e+003, 9.822785e-002
3.091332e+003, 9.892250e-002
3.093260e+003, 9.935679e-002
3.095189e+003, 1.002832e-001
3.097117e+003, 1.011318e-001
3.099046e+003, 1.015775e-001
3.100974e+003, 1.022275e-001
3.102903e+003, 1.027045e-001
3.104831e+003, 1.027322e-001
3.106760e+003, 1.029515e-001
3.108688e+003, 1.033369e-001
3.110617e+003, 1.035428e-001
3.112545e+003, 1.040899e-001
3.114474e+003, 1.045460e-001
3.116402e+003, 1.050179e-001
3.118331e+003, 1.050826e-001
3.120259e+003, 1.051601e-001
3.122188e+003, 1.051188e-001
3.124116e+003, 1.050181e-001
3.126044e+003, 1.053814e-001
3.127973e+003, 1.056341e-001
3.129901e+003, 1.055076e-001
3.131830e+003, 1.054703e-001
3.133758e+003, 1.055306e-001
3.135687e+003, 1.058802e-001
3.137615e+003, 1.064438e-001
3.139544e+003, 1.066187e-001
3.141472e+003, 1.063493e-001
3.143401e+003, 1.060571e-001
3.145329e+003, 1.056566e-001
3.147258e+003, 1.056687e-001
3.149186e+003, 1.056880e-001
3.151115e+003, 1.056425e-001
3.153043e+003, 1.057675e-001
3.154971e+003, 1.056730e-001
3.156900e+003, 1.055065e-001
3.158828e+003, 1.051526e-001
3.160757e+003, 1.047124e-001
3.162685e+003, 1.048372e-001
3.164614e+003, 1.047086e-001
3.166542e+003, 1.042846e-001
3.168471e+003, 1.041299e-001
3.170399e+003, 1.035977e-001
3.172328e+003, 1.039944e-001
3.174256e+003, 1.042787e-001
3.176185e+003, 1.036753e-001
3.178113e+003, 1.031973e-001
3.180042e+003, 1.029829e-001
3.181970e+003, 1.029865e-001
3.183898e+003, 1.023469e-001
3.185827e+003, 1.017919e-001
3.187755e+003, 1.016801e-001
3.189684e+003, 1.014276e-001
3.191612e+003, 1.014019e-001
3.193541e+003, 1.014833e-001
3.195469e+003, 1.012634e-001
3.197398e+003, 1.006431e-001
3.199326e+003, 1.003540e-001
3.201255e+003, 1.002951e-001
3.203183e+003, 1.000563e-001
3.205112e+003, 9.979734e-002
3.207040e+003, 9.974281e-002
3.208969e+003, 9.947190e-002
3.210897e+003, 9.899309e-002
3.212825e+003, 9.913398e-002
3.214754e+003, 9.936223e-002
3.216682e+003, 9.904543e-002
3.218611e+003, 9.814359e-002
3.220539e+003, 9.766638e-002
3.222468e+003, 9.758903e-002
3.224396e+003, 9.743282e-002
3.226325e+003, 9.700500e-002
3.228253e+003, 9.667104e-002
3.230182e+003, 9.650011e-002
3.232110e+003, 9.636015e-002
3.234039e+003, 9.603682e-002
3.235967e+003, 9.558199e-002
3.237896e+003, 9.508906e-002
3.239824e+003, 9.510567e-002
3.241752e+003, 9.546253e-002
3.243681e+003, 9.533389e-002
3.245609e+003, 9.474272e-002
3.247538e+003, 9.432432e-002
3.249466e+003, 9.393924e-002
3.251395e+003, 9.353269e-002
3.253323e+003, 9.342354e-002
3.255252e+003, 9.355053e-002
3.257180e+003, 9.320585e-002
3.259109e+003, 9.291685e-002
3.261037e+003, 9.251712e-002
3.262966e+003, 9.202404e-002
3.264894e+003, 9.212556e-002
3.266823e+003, 9.201095e-002
3.268751e+003, 9.128009e-002
3.270679e+003, 9.112495e-002
3.272608e+003, 9.146687e-002
3.274536e+003, 9.137817e-002
3.276465e+003, 9.094385e-002
3.278393e+003, 9.030528e-002
3.280322e+003, 9.007604e-002
3.282250e+003, 8.988833e-002
3.284179e+003, 8.998813e-002
3.286107e+003, 9.022148e-002
3.288036e+003, 9.015264e-002
3.289964e+003, 9.008589e-002
3.291893e+003, 9.007496e-002
3.293821e+003, 8.962809e-002
3.295750e+003, 8.912245e-002
3.297678e+003, 8.883829e-002
3.299606e+003, 8.888169e-002
3.301535e+003, 8.908234e-002
3.303463e+003, 8.882617e-002
3.305392e+003, 8.860931e-002
3.307320e+003, 8.864859e-002
3.309249e+003, 8.861987e-002
3.311177e+003, 8.819965e-002
3.313106e+003, 8.833861e-002
3.315034e+003, 8.871937e-002
3.316963e+003, 8.843643e-002
3.318891e+003, 8.807415e-002
3.320820e+003, 8.832274e-002
3.322748e+003, 8.840626e-002
3.324677e+003, 8.832764e-002
3.326605e+003, 8.828051e-002
3.328533e+003, 8.795113e-002
3.330462e+003, 8.725334e-002
3.332390e+003, 8.686219e-002
3.334319e+003, 8.723070e-002
3.336247e+003, 8.743713e-002
3.338176e+003, 8.700377e-002
3.340104e+003, 8.611500e-002
3.342033e+003, 8.551431e-002
3.343961e+003, 8.544385e-002
3.345890e+003, 8.527346e-002
3.347818e+003, 8.500276e-002
3.349747e+003, 8.488846e-002
3.351675e+003, 8.484568e-002
3.353604e+003, 8.438088e-002
3.355532e+003, 8.395665e-002
3.357460e+003, 8.337642e-002
3.359389e+003, 8.256119e-002
3.361317e+003, 8.207934e-002
3.363246e+003, 8.185516e-002
3.365174e+003, 8.142510e-002
3.367103e+003, 8.130315e-002
3.369031e+003, 8.127956e-002
3.370960e+003, 8.085586e-002
3.372888e+003, 8.029100e-002
3.374817e+003, 7.987025e-002
3.376745e+003, 7.970967e-002
3.378674e+003, 7.937742e-002
3.380602e+003, 7.865480e-002
3.382531e+003, 7.843738e-002
3.384459e+003, 7.861772e-002
3.386387e+003, 7.800426e-002
3.388316e+003, 7.750642e-002
3.390244e+003, 7.769694e-002
3.392173e+003, 7.710721e-002
3.394101e+003, 7.676059e-002
3.396030e+003, 7.723901e-002
3.397958e+003, 7.769953e-002
3.399887e+003, 7.781838e-002
3.401815e+003, 7.787126e-002
3.403744e+003, 7.804634e-002
3.405672e+003, 7.787224e-002
3.407601e+003, 7.778061e-002
3.409529e+003, 7.822338e-002
3.411458e+003, 7.909134e-002
3.413386e+003, 8.019620e-002
3.415314e+003, 8.105669e-002
3.417243e+003, 8.127832e-002
3.419171e+003, 8.199178e-002
3.421100e+003, 8.335260e-002
3.423028e+003, 8.419582e-002
3.424957e+003, 8.526539e-002
3.426885e+003, 8.685025e-002
3.428814e+003, 8.852485e-002
3.430742e+003, 8.995418e-002
3.432671e+003, 9.108008e-002
3.434599e+003, 9.228167e-002
3.436528e+003, 9.337115e-002
3.438456e+003, 9.442913e-002
3.440385e+003, 9.498096e-002
3.442313e+003, 9.538727e-002
3.444241e+003, 9.598348e-002
3.446170e+003, 9.647348e-002
3.448098e+003, 9.685095e-002
3.450027e+003, 9.760961e-002
3.451955e+003, 9.825578e-002
3.453884e+003, 9.848867e-002
3.455812e+003, 9.862626e-002
3.457741e+003, 9.910829e-002
3.459669e+003, 9.940918e-002
3.461598e+003, 9.956831e-002
3.463526e+003, 9.985794e-002
3.465455e+003, 1.003664e-001
3.467383e+003, 1.003333e-001
3.469312e+003, 9.982866e-002
3.471240e+003, 9.963551e-002
3.473168e+003, 1.001085e-001
3.475097e+003, 1.005050e-001
3.477025e+003, 1.008317e-001
3.478954e+003, 1.004058e-001
3.480882e+003, 1.000563e-001
3.482811e+003, 1.001068e-001
3.484739e+003, 9.999520e-002
3.486668e+003, 1.000184e-001
3.488596e+003, 9.962128e-002
3.490525e+003, 9.897764e-002
3.492453e+003, 9.846601e-002
3.494382e+003, 9.739747e-002
3.496310e+003, 9.590607e-002
3.498239e+003, 9.443600e-002
3.500167e+003, 9.236661e-002
3.502095e+003, 9.009984e-002
3.504024e+003, 8.921299e-002
3.505952e+003, 8.890449e-002
3.507881e+003, 8.747719e-002
3.509809e+003, 8.650614e-002
3.511738e+003, 8.677591e-002
3.513666e+003, 8.617309e-002
3.515595e+003, 8.454701e-002
3.517523e+003, 8.402496e-002
3.519452e+003, 8.452208e-002
3.521380e+003, 8.442421e-002
3.523309e+003, 8.420641e-002
3.525237e+003, 8.421136e-002
3.527166e+003, 8.473394e-002
3.529094e+003, 8.574925e-002
3.531022e+003, 8.590259e-002
3.532951e+003, 8.625465e-002
3.534879e+003, 8.619191e-002
3.536808e+003, 8.586259e-002
3.538736e+003, 8.528247e-002
3.540665e+003, 8.417507e-002
3.542593e+003, 8.298326e-002
3.544522e+003, 8.215145e-002
3.546450e+003, 8.090373e-002
3.548379e+003, 7.926653e-002
3.550307e+003, 7.683024e-002
3.552236e+003, 7.478436e-002
3.554164e+003, 7.352880e-002
3.556093e+003, 7.213905e-002
3.558021e+003, 7.077526e-002
3.559949e+003, 6.936247e-002
3.561878e+003, 6.744175e-002
3.563806e+003, 6.479575e-002
3.565735e+003, 6.178810e-002
3.567663e+003, 5.976570e-002
3.569592e+003, 5.868772e-002
3.571520e+003, 5.673910e-002
3.573449e+003, 5.387834e-002
3.575377e+003, 5.200490e-002
3.577306e+003, 5.059930e-002
3.579234e+003, 4.868057e-002
3.581163e+003, 4.703391e-002
3.583091e+003, 4.580741e-002
3.585020e+003, 4.524627e-002
3.586948e+003, 4.527617e-002
3.588876e+003, 4.523412e-002
3.590805e+003, 4.564948e-002
3.592733e+003, 4.625408e-002
3.594662e+003, 4.684957e-002
3.596590e+003, 4.717197e-002
3.598519e+003, 4.787091e-002
3.600447e+003, 4.912150e-002
3.602376e+003, 5.105494e-002
3.604304e+003, 5.388528e-002
3.606233e+003, 5.518567e-002
3.608161e+003, 5.670646e-002
3.610090e+003, 6.061099e-002
3.612018e+003, 6.468789e-002
3.613947e+003, 6.971011e-002
3.615875e+003, 7.441738e-002
3.617803e+003, 7.685091e-002
3.619732e+003, 8.033618e-002
3.621660e+003, 8.595042e-002
3.623589e+003, 8.802253e-002
3.625517e+003, 8.172651e-002
3.627446e+003, 7.098255e-002
3.629374e+003, 6.342594e-002
3.631303e+003, 6.059705e-002
3.633231e+003, 5.870274e-002
3.635160e+003, 5.769709e-002
3.637088e+003, 5.720814e-002
3.639017e+003, 5.603632e-002
3.640945e+003, 5.436787e-002
3.642874e+003, 5.139733e-002
3.644802e+003, 4.692583e-002
3.646730e+003, 4.151194e-002
3.648659e+003, 3.640950e-002
3.650587e+003, 3.402770e-002
3.652516e+003, 3.374977e-002
3.654444e+003, 3.216213e-002
3.656373e+003, 3.034782e-002
3.658301e+003, 3.063400e-002
3.660230e+003, 3.096132e-002
3.662158e+003, 3.102793e-002
3.664087e+003, 3.166728e-002
3.666015e+003, 3.275867e-002
3.667944e+003, 3.144935e-002
3.669872e+003, 2.912954e-002
3.671801e+003, 3.013730e-002
3.673729e+003, 2.969606e-002
3.675657e+003, 2.792529e-002
3.677586e+003, 2.810954e-002
3.679514e+003, 2.628879e-002
3.681443e+003, 2.388184e-002
3.683371e+003, 2.120245e-002
3.685300e+003, 1.796923e-002
3.687228e+003, 1.253733e-002
3.689157e+003, 9.368431e-003
3.691085e+003, 9.249778e-003
3.693014e+003, 9.290377e-003
3.694942e+003, 9.349225e-003
3.696871e+003, 9.130701e-003
3.698799e+003, 9.437785e-003
3.700728e+003, 9.360885e-003
3.702656e+003, 9.926642e-003
3.704584e+003, 1.240550e-002
3.706513e+003, 1.564303e-002
3.708441e+003, 1.656779e-002
3.710370e+003, 1.431884e-002
3.712298e+003, 1.016548e-002
3.714227e+003, 7.114692e-003
3.716155e+003, 3.975892e-003
3.718084e+003, 1.034218e-003
3.720012e+003, -4.569606e-004
3.721941e+003, -1.142580e-003
3.723869e+003, -2.181402e-003
3.725798e+003, -2.981014e-003
3.727726e+003, -2.569794e-003
3.729655e+003, -2.783384e-003
3.731583e+003, -3.735230e-003
3.733511e+003, -3.575041e-003
3.735440e+003, -3.857614e-003
3.737368e+003, -3.505891e-003
3.739297e+003, -2.444051e-003
3.741225e+003, -2.404476e-003
3.743154e+003, -6.222334e-003
3.745082e+003, -6.872783e-003
3.747011e+003, -4.283416e-003
3.748939e+003, -5.501512e-003
3.750868e+003, -6.569320e-003
3.752796e+003, -5.198589e-003
3.754725e+003, -2.371121e-003
3.756653e+003, -2.427418e-003
3.758582e+003, -2.453663e-003
3.760510e+003, -1.115225e-003
3.762438e+003, -8.554214e-006
3.764367e+003, -1.445396e-003
3.766295e+003, -1.542902e-003
3.768224e+003, -1.615042e-003
3.770152e+003, -1.650702e-003
3.772081e+003, -9.320919e-004
3.774009e+003, -1.395551e-003
3.775938e+003, -1.177993e-003
3.777866e+003, -1.169713e-003
3.779795e+003, -8.248758e-004
3.781723e+003, -4.599805e-005
3.783652e+003, -6.861344e-004
3.785580e+003, -1.391940e-003
3.787509e+003, -1.528074e-003
3.789437e+003, -9.483295e-004
3.791365e+003, -2.691948e-004
3.793294e+003, -1.904215e-004
3.795222e+003, -8.619266e-004
3.797151e+003, -6.825441e-004
3.799079e+003, -1.591848e-003
3.801008e+003, -3.732479e-003
3.802936e+003, -2.570285e-003
3.804865e+003, -1.602199e-003
3.806793e+003, -2.929128e-003
3.808722e+003, -1.435755e-003
3.810650e+003, -6.647645e-004
3.812579e+003, -1.074926e-003
3.814507e+003, -2.432338e-003
3.816436e+003, -3.342937e-003
3.818364e+003, -2.441457e-003
3.820292e+003, -3.024132e-003
3.822221e+003, -1.615153e-003
3.824149e+003, -1.156351e-004
3.826078e+003, -1.014951e-003
3.828006e+003, -6.758414e-004
3.829935e+003, -6.071601e-004
3.831863e+003, -9.245886e-004
3.833792e+003, -1.058861e-003
3.835720e+003, -2.316443e-003
3.837649e+003, -3.380085e-003
3.839577e+003, -1.894883e-003
3.841506e+003, -5.908715e-004
3.843434e+003, -2.037225e-004
3.845363e+003, 8.501209e-005
3.847291e+003, 1.716368e-004
3.849219e+003, -9.090457e-004
3.851148e+003, -4.025301e-003
3.853076e+003, -7.305659e-003
3.855005e+003, -4.584531e-003
3.856933e+003, -1.681627e-004
3.858862e+003, 6.208881e-004
3.860790e+003, -2.861016e-004
3.862719e+003, -1.051536e-003
3.864647e+003, -1.323840e-003
3.866576e+003, -8.896845e-004
3.868504e+003, -1.930827e-003
3.870433e+003, -2.283351e-003
3.872361e+003, -5.312203e-004
3.874290e+003, -3.393371e-004
3.876218e+003, 8.753455e-005
3.878146e+003, -2.701301e-004
3.880075e+003, -1.216683e-003
3.882003e+003, -1.185526e-003
3.883932e+003, -1.535328e-003
3.885860e+003, -1.806436e-003
3.887789e+003, -5.118931e-004
3.889717e+003, -6.570593e-004
3.891646e+003, -9.117907e-004
3.893574e+003, -3.156267e-004
3.895503e+003, 3.098559e-004
3.897431e+003, 2.059405e-004
3.899360e+003, -3.211947e-004
3.901288e+003, -6.120887e-004
3.903217e+003, -8.840892e-004
3.905145e+003, -8.131166e-004
3.907073e+003, -3.861650e-004
3.909002e+003, 1.030871e-004
3.910930e+003, 4.400208e-004
3.912859e+003, 7.001648e-004
3.914787e+003, 4.507639e-004
3.916716e+003, 3.561335e-004
3.918644e+003, 1.059990e-003
3.920573e+003, 4.502444e-004
3.922501e+003, -2.710070e-004
3.924430e+003, 8.295992e-005
3.926358e+003, 6.831690e-004
3.928287e+003, 5.482588e-004
3.930215e+003, 6.589085e-004
3.932144e+003, 1.055372e-004
3.934072e+003, -6.461257e-004
3.936000e+003, -1.234307e-004
3.937929e+003, 4.730401e-004
3.939857e+003, 7.855479e-004
3.941786e+003, 1.088240e-003
3.943714e+003, 9.787239e-004
3.945643e+003, 8.761570e-004
3.947571e+003, 1.181710e-003
3.949500e+003, 1.539207e-003
3.951428e+003, 9.919422e-004
3.953357e+003, 2.954500e-004
3.955285e+003, 1.082425e-003
3.957214e+003, 9.722548e-004
3.959142e+003, -3.824555e-004
3.961071e+003, -8.124124e-004
3.962999e+003, -1.590246e-004
3.964927e+003, 6.985722e-004
3.966856e+003, 1.097550e-003
3.968784e+003, 9.137900e-004
3.970713e+003, 1.029194e-003
3.972641e+003, 1.249321e-003
3.974570e+003, 7.360717e-004
3.976498e+003, 4.584904e-004
3.978427e+003, 7.839629e-005
3.980355e+003, -1.962385e-004
3.982284e+003, -5.800479e-005
3.984212e+003, 5.823924e-004
3.986141e+003, 1.151483e-003
3.988069e+003, 1.155798e-003
3.989998e+003, 8.444751e-004
3.991926e+003, 5.005050e-004
3.993854e+003, -1.385871e-004
3.995783e+003, 7.597578e-004
3.997711e+003, 9.699614e-004
3.999640e+003, 8.560572e-004
4.001568e+003, 0.000000e+000
##END=



