##NAMES=Muscovite
##RRUFFID=R050198
##IDEAL CHEMISTRY=KAl_2_(Si_3_Al)O_10_(OH)_2_
##LOCALITY=California, USA
##OWNER=RRUFF
##SOURCE=University of Arizona Mineral Museum
##DESCRIPTION=Micaceous aggregate, polytype 2M1
##STATUS=The identification of this mineral has been confirmed by X-ray diffraction and chemical analysis
##URL=rruff.info/R050198
##MEASURED CHEMISTRY=(K_0.92_Na_0.08_)(Al_0.76_Mg_0.18_Fe^3+^_0.04_Fe^2+^_0.02_)_2_(Si_3.40_Al_0.60_)O_10_(OH)_2_
3.741225e+002, 2.369264e-001
3.760510e+002, 2.576559e-001
3.779795e+002, 2.598839e-001
3.799079e+002, 2.432963e-001
3.818364e+002, 2.521849e-001
3.837649e+002, 2.591122e-001
3.856933e+002, 2.590951e-001
3.876218e+002, 2.665254e-001
3.895503e+002, 2.657165e-001
3.914787e+002, 2.744333e-001
3.934072e+002, 2.798785e-001
3.953357e+002, 2.773294e-001
3.972641e+002, 2.763704e-001
3.991926e+002, 2.774760e-001
4.011211e+002, 2.973053e-001
4.030495e+002, 3.107284e-001
4.049780e+002, 3.052268e-001
4.069065e+002, 3.115792e-001
4.088349e+002, 3.177785e-001
4.107634e+002, 3.287733e-001
4.126919e+002, 3.339895e-001
4.146203e+002, 3.242115e-001
4.165488e+002, 3.188641e-001
4.184773e+002, 3.233901e-001
4.204057e+002, 3.277069e-001
4.223342e+002, 3.249659e-001
4.242627e+002, 3.228079e-001
4.261911e+002, 3.194880e-001
4.281196e+002, 3.093801e-001
4.300481e+002, 3.043557e-001
4.319765e+002, 3.047944e-001
4.339050e+002, 3.042377e-001
4.358335e+002, 3.020608e-001
4.377619e+002, 3.001004e-001
4.396904e+002, 2.979723e-001
4.416189e+002, 3.032562e-001
4.435473e+002, 3.059461e-001
4.454758e+002, 3.089748e-001
4.474043e+002, 3.128526e-001
4.493327e+002, 3.152027e-001
4.512612e+002, 3.186286e-001
4.531897e+002, 3.220094e-001
4.551181e+002, 3.266197e-001
4.570466e+002, 3.342976e-001
4.589751e+002, 3.389715e-001
4.609035e+002, 3.403841e-001
4.628320e+002, 3.376065e-001
4.647605e+002, 3.362646e-001
4.666889e+002, 3.334650e-001
4.686174e+002, 3.260649e-001
4.705459e+002, 3.170109e-001
4.724743e+002, 3.070587e-001
4.744028e+002, 2.924498e-001
4.763313e+002, 2.766484e-001
4.782597e+002, 2.643232e-001
4.801882e+002, 2.556293e-001
4.821167e+002, 2.491662e-001
4.840451e+002, 2.444707e-001
4.859736e+002, 2.421333e-001
4.879021e+002, 2.418356e-001
4.898305e+002, 2.434291e-001
4.917590e+002, 2.460638e-001
4.936875e+002, 2.507873e-001
4.956159e+002, 2.560018e-001
4.975444e+002, 2.620129e-001
4.994729e+002, 2.682811e-001
5.014013e+002, 2.757032e-001
5.033298e+002, 2.839929e-001
5.052583e+002, 2.922059e-001
5.071867e+002, 3.000173e-001
5.091152e+002, 3.039790e-001
5.110437e+002, 3.042457e-001
5.129721e+002, 3.014828e-001
5.149006e+002, 2.945748e-001
5.168290e+002, 2.855006e-001
5.187575e+002, 2.769424e-001
5.206860e+002, 2.676569e-001
5.226144e+002, 2.570418e-001
5.245429e+002, 2.472273e-001
5.264714e+002, 2.375339e-001
5.283998e+002, 2.282854e-001
5.303283e+002, 2.200138e-001
5.322568e+002, 2.109685e-001
5.341852e+002, 2.024096e-001
5.361137e+002, 1.942397e-001
5.380422e+002, 1.861457e-001
5.399706e+002, 1.794377e-001
5.418991e+002, 1.734068e-001
5.438276e+002, 1.675283e-001
5.457560e+002, 1.619007e-001
5.476845e+002, 1.576037e-001
5.496130e+002, 1.534488e-001
5.515414e+002, 1.501243e-001
5.534699e+002, 1.481714e-001
5.553984e+002, 1.452281e-001
5.573268e+002, 1.416058e-001
5.592553e+002, 1.379410e-001
5.611838e+002, 1.347518e-001
5.631122e+002, 1.315271e-001
5.650407e+002, 1.282582e-001
5.669692e+002, 1.250463e-001
5.688976e+002, 1.217771e-001
5.708261e+002, 1.180495e-001
5.727546e+002, 1.136980e-001
5.746830e+002, 1.099185e-001
5.766115e+002, 1.061705e-001
5.785400e+002, 1.024878e-001
5.804684e+002, 9.915276e-002
5.823969e+002, 9.641791e-002
5.843254e+002, 9.393763e-002
5.862538e+002, 9.223800e-002
5.881823e+002, 9.022044e-002
5.901108e+002, 8.845637e-002
5.920392e+002, 8.716482e-002
5.939677e+002, 8.553909e-002
5.958962e+002, 8.474270e-002
5.978246e+002, 8.394168e-002
5.997531e+002, 8.268595e-002
6.016816e+002, 8.186492e-002
6.036100e+002, 8.160142e-002
6.055385e+002, 8.154695e-002
6.074670e+002, 8.152233e-002
6.093954e+002, 8.111957e-002
6.113239e+002, 8.104391e-002
6.132524e+002, 8.093905e-002
6.151808e+002, 8.132367e-002
6.171093e+002, 8.156935e-002
6.190378e+002, 8.173051e-002
6.209662e+002, 8.181098e-002
6.228947e+002, 8.141077e-002
6.248232e+002, 8.053813e-002
6.267516e+002, 7.989927e-002
6.286801e+002, 7.929613e-002
6.306086e+002, 7.854388e-002
6.325370e+002, 7.757635e-002
6.344655e+002, 7.664909e-002
6.363940e+002, 7.585108e-002
6.383224e+002, 7.498014e-002
6.402509e+002, 7.387562e-002
6.421794e+002, 7.258940e-002
6.441078e+002, 7.115322e-002
6.460363e+002, 7.014830e-002
6.479648e+002, 6.956813e-002
6.498932e+002, 6.892084e-002
6.518217e+002, 6.824078e-002
6.537502e+002, 6.785431e-002
6.556786e+002, 6.783476e-002
6.576071e+002, 6.750219e-002
6.595356e+002, 6.751857e-002
6.614641e+002, 6.790100e-002
6.633925e+002, 6.793281e-002
6.653210e+002, 6.788480e-002
6.672495e+002, 6.818503e-002
6.691779e+002, 6.851699e-002
6.711064e+002, 6.869885e-002
6.730349e+002, 6.889068e-002
6.749633e+002, 6.900233e-002
6.768918e+002, 6.878668e-002
6.788203e+002, 6.839366e-002
6.807487e+002, 6.809483e-002
6.826772e+002, 6.782757e-002
6.846057e+002, 6.741830e-002
6.865341e+002, 6.690330e-002
6.884626e+002, 6.610286e-002
6.903911e+002, 6.559934e-002
6.923195e+002, 6.559898e-002
6.942480e+002, 6.531338e-002
6.961765e+002, 6.494571e-002
6.981049e+002, 6.445903e-002
7.000334e+002, 6.427840e-002
7.019619e+002, 6.365573e-002
7.038903e+002, 6.327204e-002
7.058188e+002, 6.294776e-002
7.077473e+002, 6.268473e-002
7.096757e+002, 6.258803e-002
7.116042e+002, 6.241143e-002
7.135327e+002, 6.237025e-002
7.154611e+002, 6.250145e-002
7.173896e+002, 6.279270e-002
7.193181e+002, 6.321725e-002
7.212465e+002, 6.370211e-002
7.231750e+002, 6.426992e-002
7.251035e+002, 6.549313e-002
7.270319e+002, 6.661826e-002
7.289604e+002, 6.806436e-002
7.308889e+002, 6.976687e-002
7.328173e+002, 7.149217e-002
7.347458e+002, 7.364775e-002
7.366743e+002, 7.585362e-002
7.386027e+002, 7.792369e-002
7.405312e+002, 7.991420e-002
7.424597e+002, 8.198520e-002
7.443881e+002, 8.385453e-002
7.463166e+002, 8.536275e-002
7.482451e+002, 8.623877e-002
7.501735e+002, 8.624279e-002
7.521020e+002, 8.568204e-002
7.540305e+002, 8.442377e-002
7.559589e+002, 8.260582e-002
7.578874e+002, 8.037852e-002
7.598159e+002, 7.837197e-002
7.617443e+002, 7.651403e-002
7.636728e+002, 7.479428e-002
7.656013e+002, 7.358658e-002
7.675297e+002, 7.299339e-002
7.694582e+002, 7.263630e-002
7.713867e+002, 7.286016e-002
7.733151e+002, 7.351875e-002
7.752436e+002, 7.433833e-002
7.771721e+002, 7.531880e-002
7.791005e+002, 7.688250e-002
7.810290e+002, 7.871034e-002
7.829575e+002, 8.045068e-002
7.848859e+002, 8.212221e-002
7.868144e+002, 8.445095e-002
7.887429e+002, 8.719720e-002
7.906713e+002, 8.994302e-002
7.925998e+002, 9.310636e-002
7.945283e+002, 9.659437e-002
7.964567e+002, 1.005503e-001
7.983852e+002, 1.045752e-001
8.003137e+002, 1.087347e-001
8.022421e+002, 1.132416e-001
8.041706e+002, 1.181253e-001
8.060991e+002, 1.230454e-001
8.080275e+002, 1.278737e-001
8.099560e+002, 1.330983e-001
8.118845e+002, 1.386464e-001
8.138129e+002, 1.442462e-001
8.157414e+002, 1.500436e-001
8.176699e+002, 1.556611e-001
8.195983e+002, 1.601661e-001
8.215268e+002, 1.635777e-001
8.234553e+002, 1.660452e-001
8.253837e+002, 1.668425e-001
8.273122e+002, 1.655820e-001
8.292407e+002, 1.629278e-001
8.311691e+002, 1.592062e-001
8.330976e+002, 1.545621e-001
8.350261e+002, 1.503113e-001
8.369545e+002, 1.458793e-001
8.388830e+002, 1.414674e-001
8.408115e+002, 1.377733e-001
8.427399e+002, 1.347044e-001
8.446684e+002, 1.323629e-001
8.465969e+002, 1.306843e-001
8.485253e+002, 1.297448e-001
8.504538e+002, 1.295310e-001
8.523823e+002, 1.301278e-001
8.543107e+002, 1.314708e-001
8.562392e+002, 1.333373e-001
8.581677e+002, 1.360626e-001
8.600961e+002, 1.387890e-001
8.620246e+002, 1.416843e-001
8.639531e+002, 1.453392e-001
8.658815e+002, 1.499012e-001
8.678100e+002, 1.547874e-001
8.697385e+002, 1.603285e-001
8.716669e+002, 1.670502e-001
8.735954e+002, 1.746207e-001
8.755239e+002, 1.831812e-001
8.774523e+002, 1.926225e-001
8.793808e+002, 2.021189e-001
8.813093e+002, 2.118029e-001
8.832377e+002, 2.216399e-001
8.851662e+002, 2.313526e-001
8.870947e+002, 2.409016e-001
8.890231e+002, 2.504454e-001
8.909516e+002, 2.599684e-001
8.928801e+002, 2.694986e-001
8.948085e+002, 2.783490e-001
8.967370e+002, 2.864437e-001
8.986655e+002, 2.935736e-001
9.005939e+002, 2.989466e-001
9.025224e+002, 3.022257e-001
9.044509e+002, 3.028687e-001
9.063793e+002, 3.007322e-001
9.083078e+002, 2.968778e-001
9.102363e+002, 2.920659e-001
9.121647e+002, 2.871038e-001
9.140932e+002, 2.825351e-001
9.160217e+002, 2.792724e-001
9.179501e+002, 2.777759e-001
9.198786e+002, 2.774407e-001
9.218071e+002, 2.781337e-001
9.237355e+002, 2.799268e-001
9.256640e+002, 2.826166e-001
9.275925e+002, 2.860482e-001
9.295209e+002, 2.901783e-001
9.314494e+002, 2.947015e-001
9.333779e+002, 2.994829e-001
9.353063e+002, 3.048311e-001
9.372348e+002, 3.114963e-001
9.391633e+002, 3.199256e-001
9.410917e+002, 3.303790e-001
9.430202e+002, 3.431836e-001
9.449487e+002, 3.575556e-001
9.468771e+002, 3.727274e-001
9.488056e+002, 3.885293e-001
9.507341e+002, 4.042709e-001
9.526625e+002, 4.195951e-001
9.545910e+002, 4.343283e-001
9.565195e+002, 4.485523e-001
9.584479e+002, 4.619395e-001
9.603764e+002, 4.744360e-001
9.623049e+002, 4.860315e-001
9.642333e+002, 4.960193e-001
9.661618e+002, 5.037349e-001
9.680903e+002, 5.094945e-001
9.700187e+002, 5.133435e-001
9.719472e+002, 5.150827e-001
9.738757e+002, 5.153556e-001
9.758041e+002, 5.148300e-001
9.777326e+002, 5.136339e-001
9.796611e+002, 5.114228e-001
9.815895e+002, 5.090346e-001
9.835180e+002, 5.064156e-001
9.854465e+002, 5.035189e-001
9.873749e+002, 5.003800e-001
9.893034e+002, 4.973880e-001
9.912319e+002, 4.944858e-001
9.931603e+002, 4.909933e-001
9.950888e+002, 4.865170e-001
9.970173e+002, 4.810214e-001
9.989457e+002, 4.742692e-001
1.000874e+003, 4.658490e-001
1.002803e+003, 4.567840e-001
1.004731e+003, 4.464608e-001
1.006660e+003, 4.355671e-001
1.008588e+003, 4.252854e-001
1.010517e+003, 4.155789e-001
1.012445e+003, 4.061607e-001
1.014373e+003, 3.968852e-001
1.016302e+003, 3.878339e-001
1.018230e+003, 3.788978e-001
1.020159e+003, 3.697976e-001
1.022087e+003, 3.602925e-001
1.024016e+003, 3.496210e-001
1.025944e+003, 3.377952e-001
1.027873e+003, 3.251911e-001
1.029801e+003, 3.115764e-001
1.031730e+003, 2.972146e-001
1.033658e+003, 2.825741e-001
1.035587e+003, 2.681183e-001
1.037515e+003, 2.544835e-001
1.039443e+003, 2.416544e-001
1.041372e+003, 2.293460e-001
1.043300e+003, 2.180335e-001
1.045229e+003, 2.076687e-001
1.047157e+003, 1.978268e-001
1.049086e+003, 1.885490e-001
1.051014e+003, 1.797540e-001
1.052943e+003, 1.714553e-001
1.054871e+003, 1.641596e-001
1.056800e+003, 1.578956e-001
1.058728e+003, 1.524591e-001
1.060657e+003, 1.477904e-001
1.062585e+003, 1.442574e-001
1.064514e+003, 1.419042e-001
1.066442e+003, 1.408557e-001
1.068370e+003, 1.408002e-001
1.070299e+003, 1.414016e-001
1.072227e+003, 1.428003e-001
1.074156e+003, 1.446019e-001
1.076084e+003, 1.463105e-001
1.078013e+003, 1.475383e-001
1.079941e+003, 1.477455e-001
1.081870e+003, 1.466084e-001
1.083798e+003, 1.441356e-001
1.085727e+003, 1.405035e-001
1.087655e+003, 1.358423e-001
1.089584e+003, 1.306793e-001
1.091512e+003, 1.249485e-001
1.093441e+003, 1.189679e-001
1.095369e+003, 1.131564e-001
1.097297e+003, 1.075010e-001
1.099226e+003, 1.020777e-001
1.101154e+003, 9.681044e-002
1.103083e+003, 9.210822e-002
1.105011e+003, 8.788373e-002
1.106940e+003, 8.388754e-002
1.108868e+003, 8.059339e-002
1.110797e+003, 7.748387e-002
1.112725e+003, 7.433090e-002
1.114654e+003, 7.145452e-002
1.116582e+003, 6.891923e-002
1.118511e+003, 6.639108e-002
1.120439e+003, 6.343541e-002
1.122368e+003, 6.042504e-002
1.124296e+003, 5.782280e-002
1.126224e+003, 5.523654e-002
1.128153e+003, 5.280299e-002
1.130081e+003, 5.019705e-002
1.132010e+003, 4.744189e-002
1.133938e+003, 4.503546e-002
1.135867e+003, 4.270633e-002
1.137795e+003, 4.040707e-002
1.139724e+003, 3.827515e-002
1.141652e+003, 3.611927e-002
1.143581e+003, 3.408150e-002
1.145509e+003, 3.212875e-002
1.147438e+003, 3.043888e-002
1.149366e+003, 2.898989e-002
1.151295e+003, 2.756610e-002
1.153223e+003, 2.632464e-002
1.155151e+003, 2.521915e-002
1.157080e+003, 2.415568e-002
1.159008e+003, 2.307850e-002
1.160937e+003, 2.211095e-002
1.162865e+003, 2.105014e-002
1.164794e+003, 2.007227e-002
1.166722e+003, 1.935082e-002
1.168651e+003, 1.846641e-002
1.170579e+003, 1.764879e-002
1.172508e+003, 1.693283e-002
1.174436e+003, 1.622543e-002
1.176365e+003, 1.545071e-002
1.178293e+003, 1.471355e-002
1.180222e+003, 1.416569e-002
1.182150e+003, 1.369499e-002
1.184078e+003, 1.305086e-002
1.186007e+003, 1.246290e-002
1.187935e+003, 1.207634e-002
1.189864e+003, 1.158282e-002
1.191792e+003, 1.093760e-002
1.193721e+003, 1.054536e-002
1.195649e+003, 1.001751e-002
1.197578e+003, 9.599225e-003
1.199506e+003, 9.194521e-003
1.201435e+003, 8.574673e-003
1.203363e+003, 8.030788e-003
1.205292e+003, 7.795685e-003
1.207220e+003, 7.539698e-003
1.209149e+003, 7.170646e-003
1.211077e+003, 6.760347e-003
1.213005e+003, 6.397408e-003
1.214934e+003, 6.169301e-003
1.216862e+003, 5.944735e-003
1.218791e+003, 5.734154e-003
1.220719e+003, 5.614965e-003
1.222648e+003, 5.499773e-003
1.224576e+003, 5.233065e-003
1.226505e+003, 5.024040e-003
1.228433e+003, 4.966679e-003
1.230362e+003, 4.841072e-003
1.232290e+003, 4.726212e-003
1.234219e+003, 4.495397e-003
1.236147e+003, 4.388005e-003
1.238076e+003, 4.326031e-003
1.240004e+003, 4.207738e-003
1.241932e+003, 4.252901e-003
1.243861e+003, 4.232697e-003
1.245789e+003, 4.179416e-003
1.247718e+003, 4.114806e-003
1.249646e+003, 3.937493e-003
1.251575e+003, 3.908763e-003
1.253503e+003, 4.024874e-003
1.255432e+003, 4.102205e-003
1.257360e+003, 4.012220e-003
1.259289e+003, 3.934721e-003
1.261217e+003, 3.938883e-003
1.263146e+003, 3.907709e-003
1.265074e+003, 3.884455e-003
1.267003e+003, 4.111081e-003
1.268931e+003, 4.362748e-003
1.270859e+003, 4.406920e-003
1.272788e+003, 4.567196e-003
1.274716e+003, 4.916703e-003
1.276645e+003, 5.327456e-003
1.278573e+003, 5.711081e-003
1.280502e+003, 5.967779e-003
1.282430e+003, 6.335132e-003
1.284359e+003, 6.597864e-003
1.286287e+003, 6.670690e-003
1.288216e+003, 6.491835e-003
1.290144e+003, 6.263257e-003
1.292073e+003, 6.011687e-003
1.294001e+003, 5.704121e-003
1.295930e+003, 5.228220e-003
1.297858e+003, 4.808374e-003
1.299786e+003, 4.595151e-003
1.301715e+003, 4.546802e-003
1.303643e+003, 4.430994e-003
1.305572e+003, 4.375296e-003
1.307500e+003, 4.397830e-003
1.309429e+003, 4.485813e-003
1.311357e+003, 4.380075e-003
1.313286e+003, 4.186624e-003
1.315214e+003, 3.998273e-003
1.317143e+003, 3.954447e-003
1.319071e+003, 3.873468e-003
1.321000e+003, 3.936868e-003
1.322928e+003, 3.972108e-003
1.324857e+003, 3.835117e-003
1.326785e+003, 3.792073e-003
1.328714e+003, 3.740008e-003
1.330642e+003, 3.705031e-003
1.332570e+003, 3.810878e-003
1.334499e+003, 3.908711e-003
1.336427e+003, 3.934125e-003
1.338356e+003, 4.049775e-003
1.340284e+003, 4.227004e-003
1.342213e+003, 4.318039e-003
1.344141e+003, 4.426373e-003
1.346070e+003, 4.499210e-003
1.347998e+003, 4.611496e-003
1.349927e+003, 4.628170e-003
1.351855e+003, 4.734299e-003
1.353784e+003, 4.832375e-003
1.355712e+003, 4.808254e-003
1.357641e+003, 4.839246e-003
1.359569e+003, 4.792560e-003
1.361497e+003, 4.744182e-003
1.363426e+003, 4.798381e-003
1.365354e+003, 4.765513e-003
1.367283e+003, 4.762685e-003
1.369211e+003, 4.913405e-003
1.371140e+003, 4.999869e-003
1.373068e+003, 5.034046e-003
1.374997e+003, 5.189604e-003
1.376925e+003, 5.272343e-003
1.378854e+003, 5.332894e-003
1.380782e+003, 5.276455e-003
1.382711e+003, 5.225447e-003
1.384639e+003, 5.198289e-003
1.386568e+003, 5.215066e-003
1.388496e+003, 5.117775e-003
1.390424e+003, 5.016766e-003
1.392353e+003, 5.041813e-003
1.394281e+003, 5.097375e-003
1.396210e+003, 5.162408e-003
1.398138e+003, 5.289460e-003
1.400067e+003, 5.112889e-003
1.401995e+003, 4.923552e-003
1.403924e+003, 5.016550e-003
1.405852e+003, 5.142312e-003
1.407781e+003, 5.171849e-003
1.409709e+003, 5.325203e-003
1.411638e+003, 5.392916e-003
1.413566e+003, 5.270132e-003
1.415495e+003, 5.105312e-003
1.417423e+003, 5.172920e-003
1.419351e+003, 5.224444e-003
1.421280e+003, 5.049023e-003
1.423208e+003, 5.094767e-003
1.425137e+003, 5.138466e-003
1.427065e+003, 4.995781e-003
1.428994e+003, 4.989270e-003
1.430922e+003, 4.976405e-003
1.432851e+003, 4.929238e-003
1.434779e+003, 5.071349e-003
1.436708e+003, 5.311588e-003
1.438636e+003, 5.172308e-003
1.440565e+003, 4.837611e-003
1.442493e+003, 4.570447e-003
1.444422e+003, 4.366125e-003
1.446350e+003, 4.242512e-003
1.448278e+003, 4.221756e-003
1.450207e+003, 4.071644e-003
1.452135e+003, 4.009234e-003
1.454064e+003, 4.036826e-003
1.455992e+003, 4.309705e-003
1.457921e+003, 4.133068e-003
1.459849e+003, 3.750222e-003
1.461778e+003, 3.544959e-003
1.463706e+003, 3.486980e-003
1.465635e+003, 3.363436e-003
1.467563e+003, 2.890693e-003
1.469492e+003, 2.583384e-003
1.471420e+003, 2.572490e-003
1.473349e+003, 2.553620e-003
1.475277e+003, 2.422004e-003
1.477205e+003, 2.208554e-003
1.479134e+003, 1.938103e-003
1.481062e+003, 1.885824e-003
1.482991e+003, 1.784087e-003
1.484919e+003, 1.654710e-003
1.486848e+003, 1.615941e-003
1.488776e+003, 1.648373e-003
1.490705e+003, 1.535063e-003
1.492633e+003, 1.509761e-003
1.494562e+003, 1.729414e-003
1.496490e+003, 1.914594e-003
1.498419e+003, 1.771653e-003
1.500347e+003, 1.512079e-003
1.502276e+003, 1.367544e-003
1.504204e+003, 1.657555e-003
1.506132e+003, 2.172194e-003
1.508061e+003, 2.208272e-003
1.509989e+003, 1.784335e-003
1.511918e+003, 1.523698e-003
1.513846e+003, 1.608478e-003
1.515775e+003, 1.731596e-003
1.517703e+003, 1.585825e-003
1.519632e+003, 1.608314e-003
1.521560e+003, 1.783778e-003
1.523489e+003, 1.606019e-003
1.525417e+003, 1.566038e-003
1.527346e+003, 1.598996e-003
1.529274e+003, 1.709599e-003
1.531203e+003, 1.853358e-003
1.533131e+003, 1.998676e-003
1.535059e+003, 2.043448e-003
1.536988e+003, 2.215150e-003
1.538916e+003, 2.692106e-003
1.540845e+003, 2.750778e-003
1.542773e+003, 2.463287e-003
1.544702e+003, 2.505469e-003
1.546630e+003, 2.599664e-003
1.548559e+003, 2.652067e-003
1.550487e+003, 2.709619e-003
1.552416e+003, 2.840447e-003
1.554344e+003, 3.016257e-003
1.556273e+003, 3.296523e-003
1.558201e+003, 3.888127e-003
1.560130e+003, 3.998718e-003
1.562058e+003, 3.520497e-003
1.563986e+003, 3.425463e-003
1.565915e+003, 3.489548e-003
1.567843e+003, 3.652276e-003
1.569772e+003, 3.819982e-003
1.571700e+003, 3.755134e-003
1.573629e+003, 3.868510e-003
1.575557e+003, 4.105016e-003
1.577486e+003, 4.086327e-003
1.579414e+003, 3.912046e-003
1.581343e+003, 3.898117e-003
1.583271e+003, 4.034247e-003
1.585200e+003, 4.062355e-003
1.587128e+003, 4.065025e-003
1.589057e+003, 4.248023e-003
1.590985e+003, 4.387382e-003
1.592913e+003, 4.394988e-003
1.594842e+003, 4.446952e-003
1.596770e+003, 4.435722e-003
1.598699e+003, 4.590951e-003
1.600627e+003, 4.679780e-003
1.602556e+003, 4.672521e-003
1.604484e+003, 4.781342e-003
1.606413e+003, 4.869953e-003
1.608341e+003, 5.042500e-003
1.610270e+003, 5.334342e-003
1.612198e+003, 5.670281e-003
1.614127e+003, 5.890662e-003
1.616055e+003, 6.219200e-003
1.617984e+003, 6.138696e-003
1.619912e+003, 5.993575e-003
1.621840e+003, 6.265787e-003
1.623769e+003, 6.411841e-003
1.625697e+003, 6.454638e-003
1.627626e+003, 6.561507e-003
1.629554e+003, 6.609950e-003
1.631483e+003, 6.796938e-003
1.633411e+003, 7.224152e-003
1.635340e+003, 7.521167e-003
1.637268e+003, 7.381604e-003
1.639197e+003, 7.053776e-003
1.641125e+003, 6.985852e-003
1.643054e+003, 7.251001e-003
1.644982e+003, 7.686532e-003
1.646911e+003, 7.617410e-003
1.648839e+003, 7.353307e-003
1.650767e+003, 7.535848e-003
1.652696e+003, 7.994756e-003
1.654624e+003, 7.547658e-003
1.656553e+003, 6.878952e-003
1.658481e+003, 6.543435e-003
1.660410e+003, 6.344242e-003
1.662338e+003, 6.385862e-003
1.664267e+003, 6.380999e-003
1.666195e+003, 6.159880e-003
1.668124e+003, 6.129109e-003
1.670052e+003, 5.945508e-003
1.671981e+003, 5.644490e-003
1.673909e+003, 5.648845e-003
1.675838e+003, 5.789579e-003
1.677766e+003, 5.606397e-003
1.679694e+003, 5.322585e-003
1.681623e+003, 5.096495e-003
1.683551e+003, 5.449983e-003
1.685480e+003, 5.485849e-003
1.687408e+003, 5.006589e-003
1.689337e+003, 4.661043e-003
1.691265e+003, 4.457598e-003
1.693194e+003, 4.447754e-003
1.695122e+003, 4.880186e-003
1.697051e+003, 4.824415e-003
1.698979e+003, 4.994266e-003
1.700908e+003, 5.080824e-003
1.702836e+003, 4.556776e-003
1.704765e+003, 4.532531e-003
1.706693e+003, 4.565855e-003
1.708621e+003, 4.499829e-003
1.710550e+003, 4.426145e-003
1.712478e+003, 4.323013e-003
1.714407e+003, 4.468424e-003
1.716335e+003, 4.718668e-003
1.718264e+003, 4.449396e-003
1.720192e+003, 4.111579e-003
1.722121e+003, 4.193606e-003
1.724049e+003, 4.315420e-003
1.725978e+003, 4.268406e-003
1.727906e+003, 4.302637e-003
1.729835e+003, 4.050832e-003
1.731763e+003, 3.826917e-003
1.733692e+003, 3.946178e-003
1.735620e+003, 3.254143e-003
1.737548e+003, 2.228892e-003
1.739477e+003, 1.843868e-003
1.741405e+003, 1.474775e-003
1.743334e+003, 1.082137e-003
1.745262e+003, 8.788118e-004
1.747191e+003, 9.940666e-004
1.749119e+003, 1.155191e-003
1.751048e+003, 1.116357e-003
1.752976e+003, 8.151646e-004
1.754905e+003, 6.103687e-004
1.756833e+003, 4.967942e-004
1.758762e+003, 6.665639e-004
1.760690e+003, 8.634907e-004
1.762619e+003, 6.396889e-004
1.764547e+003, 5.591051e-004
1.766475e+003, 8.333410e-004
1.768404e+003, 9.161867e-004
1.770332e+003, 8.296770e-004
1.772261e+003, 8.729545e-004
1.774189e+003, 6.636474e-004
1.776118e+003, 5.355365e-004
1.778046e+003, 5.549737e-004
1.779975e+003, 7.301634e-004
1.781903e+003, 6.738612e-004
1.783832e+003, 6.820949e-004
1.785760e+003, 6.479445e-004
1.787689e+003, 5.084283e-004
1.789617e+003, 6.190432e-004
1.791546e+003, 7.538561e-004
1.793474e+003, 6.317828e-004
1.795402e+003, 4.558930e-004
1.797331e+003, 3.726032e-004
1.799259e+003, 1.240841e-004
1.801188e+003, 1.235350e-004
1.803116e+003, 5.858662e-004
1.805045e+003, 6.290446e-004
1.806973e+003, 2.374012e-004
1.808902e+003, 8.574485e-005
1.810830e+003, 2.326202e-004
1.812759e+003, 3.374124e-004
1.814687e+003, 1.328360e-004
1.816616e+003, 1.691693e-005
1.818544e+003, 1.141320e-004
1.820473e+003, 2.107813e-004
1.822401e+003, 1.850935e-004
1.824329e+003, 4.019765e-005
1.826258e+003, -4.090374e-005
1.828186e+003, -4.211401e-004
1.830115e+003, -6.360991e-004
1.832043e+003, -4.780226e-004
1.833972e+003, -2.926309e-004
1.835900e+003, -4.466427e-004
1.837829e+003, -4.230697e-004
1.839757e+003, -3.497880e-004
1.841686e+003, -6.087478e-004
1.843614e+003, -6.873246e-004
1.845543e+003, -8.495632e-004
1.847471e+003, -6.797637e-004
1.849400e+003, -6.446511e-004
1.851328e+003, -1.274661e-003
1.853256e+003, -1.379402e-003
1.855185e+003, -1.149356e-003
1.857113e+003, -7.886145e-004
1.859042e+003, -4.845796e-004
1.860970e+003, -6.204508e-004
1.862899e+003, -8.150992e-004
1.864827e+003, -8.923486e-004
1.866756e+003, -7.868643e-004
1.868684e+003, -6.540074e-004
1.870613e+003, -1.218785e-003
1.872541e+003, -1.532701e-003
1.874470e+003, -1.532534e-003
1.876398e+003, -1.553454e-003
1.878327e+003, -1.655973e-003
1.880255e+003, -1.412753e-003
1.882183e+003, -1.639747e-003
1.884112e+003, -1.955090e-003
1.886040e+003, -1.615405e-003
1.887969e+003, -1.526465e-003
1.889897e+003, -1.973767e-003
1.891826e+003, -1.752040e-003
1.893754e+003, -1.981420e-003
1.895683e+003, -2.718754e-003
1.897611e+003, -2.465930e-003
1.899540e+003, -2.233919e-003
1.901468e+003, -2.174338e-003
1.903397e+003, -1.792159e-003
1.905325e+003, -1.567554e-003
1.907254e+003, -2.066753e-003
1.909182e+003, -2.422584e-003
1.911110e+003, -2.322753e-003
1.913039e+003, -2.494222e-003
1.914967e+003, -2.458793e-003
1.916896e+003, -2.424249e-003
1.918824e+003, -2.817955e-003
1.920753e+003, -3.048947e-003
1.922681e+003, -3.124627e-003
1.924610e+003, -3.068473e-003
1.926538e+003, -2.885725e-003
1.928467e+003, -2.777714e-003
1.930395e+003, -2.735962e-003
1.932324e+003, -2.627004e-003
1.934252e+003, -2.664407e-003
1.936181e+003, -2.397550e-003
1.938109e+003, -2.703225e-003
1.940037e+003, -3.189037e-003
1.941966e+003, -3.529729e-003
1.943894e+003, -3.705245e-003
1.945823e+003, -3.916787e-003
1.947751e+003, -4.168156e-003
1.949680e+003, -3.639330e-003
1.951608e+003, -3.681874e-003
1.953537e+003, -3.442599e-003
1.955465e+003, -3.630457e-003
1.957394e+003, -3.003162e-003
1.959322e+003, -2.415331e-003
1.961251e+003, -1.785149e-003
1.963179e+003, -2.141475e-003
1.965108e+003, -2.830469e-003
1.967036e+003, -2.660083e-003
1.968964e+003, -3.888748e-003
1.970893e+003, -2.924467e-003
1.972821e+003, -1.362570e-003
1.974750e+003, -2.133043e-003
1.976678e+003, -1.804460e-003
1.978607e+003, -1.065021e-003
1.980535e+003, -1.206445e-003
1.982464e+003, -2.292101e-003
1.984392e+003, -1.691196e-003
1.986321e+003, -1.829978e-003
1.988249e+003, -2.925888e-003
1.990178e+003, -2.321857e-003
1.992106e+003, -1.442970e-003
1.994035e+003, -2.053336e-003
1.995963e+003, -2.035361e-003
1.997891e+003, -1.723204e-003
1.999820e+003, -2.079478e-003
2.001748e+003, -3.245948e-003
2.003677e+003, -3.329392e-003
2.005605e+003, -1.923418e-003
2.007534e+003, 3.950512e-004
2.009462e+003, 8.868417e-004
2.011391e+003, -1.190233e-003
2.013319e+003, -2.489625e-003
2.015248e+003, -2.625362e-003
2.017176e+003, -2.073797e-003
2.019105e+003, -1.664554e-003
2.021033e+003, -1.091162e-003
2.022962e+003, -2.995050e-004
2.024890e+003, 2.633939e-004
2.026818e+003, 2.346057e-004
2.028747e+003, 1.208089e-003
2.030675e+003, 1.213342e-003
2.032604e+003, 1.456425e-003
2.034532e+003, 1.048948e-003
2.036461e+003, -4.367204e-005
2.038389e+003, 3.372985e-004
2.040318e+003, 5.030357e-004
2.042246e+003, 1.355712e-004
2.044175e+003, -7.224171e-004
2.046103e+003, -1.592728e-003
2.048031e+003, -7.018605e-004
2.049960e+003, -1.195767e-004
2.051888e+003, -1.070150e-003
2.053817e+003, -2.445792e-003
2.055745e+003, -2.099250e-003
2.057674e+003, -1.098450e-003
2.059602e+003, -1.297277e-003
2.061531e+003, -1.937189e-003
2.063459e+003, -2.465463e-003
2.065388e+003, -2.375891e-003
2.067316e+003, -1.355658e-003
2.069245e+003, -1.387997e-003
2.071173e+003, -1.060263e-003
2.073102e+003, -8.784782e-004
2.075030e+003, -1.149863e-003
2.076958e+003, -1.304233e-003
2.078887e+003, -1.785766e-003
2.080815e+003, -1.282263e-003
2.082744e+003, -1.237336e-003
2.084672e+003, -1.197821e-003
2.086601e+003, -7.848805e-004
2.088529e+003, -5.146367e-004
2.090458e+003, -8.113312e-004
2.092386e+003, -1.752319e-003
2.094315e+003, -1.579398e-003
2.096243e+003, -1.043810e-003
2.098172e+003, -2.389976e-004
2.100100e+003, 2.748687e-004
2.102029e+003, 3.891408e-004
2.103957e+003, 1.010553e-003
2.105885e+003, 1.063100e-003
2.107814e+003, 1.201781e-003
2.109742e+003, 9.000876e-004
2.111671e+003, 8.558143e-004
2.113599e+003, 6.427430e-005
2.115528e+003, -6.327429e-005
2.117456e+003, -6.109083e-004
2.119385e+003, -1.727697e-005
2.121313e+003, -4.760595e-005
2.123242e+003, 4.485750e-004
2.125170e+003, 7.425193e-004
2.127099e+003, 1.077522e-003
2.129027e+003, 4.276172e-004
2.130956e+003, 2.381140e-004
2.132884e+003, 1.948434e-004
2.134813e+003, 1.519497e-003
2.136741e+003, 2.981442e-003
2.138669e+003, 1.698279e-003
2.140598e+003, 8.773338e-004
2.142526e+003, 4.172251e-004
2.144455e+003, 1.186733e-004
2.146383e+003, 1.812922e-004
2.148312e+003, 1.251617e-003
2.150240e+003, 2.188195e-003
2.152169e+003, 1.663883e-003
2.154097e+003, 2.139597e-003
2.156026e+003, 2.693190e-003
2.157954e+003, 3.934495e-003
2.159883e+003, 6.278116e-003
2.161811e+003, 6.006006e-003
2.163740e+003, 3.847273e-003
2.165668e+003, 4.062891e-003
2.167596e+003, 4.226577e-003
2.169525e+003, 4.498908e-003
2.171453e+003, 3.800994e-003
2.173382e+003, 3.336065e-003
2.175310e+003, 3.351756e-003
2.177239e+003, 3.716171e-003
2.179167e+003, 4.490507e-003
2.181096e+003, 4.838997e-003
2.183024e+003, 4.669170e-003
2.184953e+003, 5.109952e-003
2.186881e+003, 4.789375e-003
2.188810e+003, 4.861045e-003
2.190738e+003, 3.675190e-003
2.192667e+003, 1.481528e-003
2.194595e+003, 1.841520e-003
2.196523e+003, 2.951002e-003
2.198452e+003, 2.997825e-003
2.200380e+003, 3.803895e-003
2.202309e+003, 3.206514e-003
2.204237e+003, 1.766182e-003
2.206166e+003, 1.415037e-003
2.208094e+003, 2.029816e-003
2.210023e+003, 1.850406e-003
2.211951e+003, 1.957808e-003
2.213880e+003, 2.265236e-003
2.215808e+003, 1.766132e-003
2.217737e+003, 2.644768e-003
2.219665e+003, 3.330904e-003
2.221594e+003, 3.001332e-003
2.223522e+003, 2.135005e-003
2.225450e+003, 1.598393e-003
2.227379e+003, 1.497705e-003
2.229307e+003, 1.408559e-003
2.231236e+003, 1.429729e-003
2.233164e+003, 1.934032e-003
2.235093e+003, 2.625441e-003
2.237021e+003, 2.901589e-003
2.238950e+003, 3.209760e-003
2.240878e+003, 3.292369e-003
2.242807e+003, 2.987190e-003
2.244735e+003, 2.432959e-003
2.246664e+003, 2.470650e-003
2.248592e+003, 2.673172e-003
2.250521e+003, 2.478139e-003
2.252449e+003, 1.806939e-003
2.254377e+003, 1.695820e-003
2.256306e+003, 1.928347e-003
2.258234e+003, 1.746984e-003
2.260163e+003, 1.947119e-003
2.262091e+003, 1.985305e-003
2.264020e+003, 1.359175e-003
2.265948e+003, 1.634401e-003
2.267877e+003, 1.812404e-003
2.269805e+003, 2.082393e-003
2.271734e+003, 2.437074e-003
2.273662e+003, 2.195302e-003
2.275591e+003, 1.648465e-003
2.277519e+003, 9.710656e-004
2.279448e+003, 1.011380e-003
2.281376e+003, 1.502841e-003
2.283304e+003, 1.408436e-003
2.285233e+003, 8.655563e-004
2.287161e+003, 5.408573e-004
2.289090e+003, 6.068028e-004
2.291018e+003, 7.308138e-004
2.292947e+003, 2.295426e-004
2.294875e+003, -1.212659e-004
2.296804e+003, 1.206009e-004
2.298732e+003, -1.004625e-004
2.300661e+003, -2.478693e-004
2.302589e+003, -3.466585e-004
2.304518e+003, -2.160053e-004
2.306446e+003, -3.909220e-004
2.308375e+003, -5.939879e-004
2.310303e+003, -1.140781e-003
2.312231e+003, -1.207287e-003
2.314160e+003, -9.647011e-004
2.316088e+003, -8.277170e-004
2.318017e+003, -7.163023e-004
2.319945e+003, -4.515853e-004
2.321874e+003, -2.655928e-004
2.323802e+003, 7.885974e-007
2.325731e+003, -6.421754e-004
2.327659e+003, -1.233105e-003
2.329588e+003, -1.297003e-003
2.331516e+003, -1.074280e-003
2.333445e+003, -1.021749e-003
2.335373e+003, -1.071730e-003
2.337302e+003, -1.257760e-003
2.339230e+003, -1.470861e-003
2.341158e+003, -1.418539e-003
2.343087e+003, -1.031386e-003
2.345015e+003, -1.006666e-003
2.346944e+003, -1.090849e-003
2.348872e+003, -1.377916e-003
2.350801e+003, -1.648945e-003
2.352729e+003, -1.681321e-003
2.354658e+003, -1.577802e-003
2.356586e+003, -1.466884e-003
2.358515e+003, -1.324953e-003
2.360443e+003, -1.147799e-003
2.362372e+003, -1.426520e-003
2.364300e+003, -1.550373e-003
2.366229e+003, -1.361589e-003
2.368157e+003, -1.293218e-003
2.370085e+003, -1.486937e-003
2.372014e+003, -1.344224e-003
2.373942e+003, -1.611570e-003
2.375871e+003, -1.803090e-003
2.377799e+003, -1.957459e-003
2.379728e+003, -1.899990e-003
2.381656e+003, -1.909391e-003
2.383585e+003, -1.936842e-003
2.385513e+003, -1.621720e-003
2.387442e+003, -1.731479e-003
2.389370e+003, -1.985619e-003
2.391299e+003, -1.732098e-003
2.393227e+003, -1.351946e-003
2.395156e+003, -1.161962e-003
2.397084e+003, -1.297209e-003
2.399012e+003, -1.307479e-003
2.400941e+003, -1.457135e-003
2.402869e+003, -1.820529e-003
2.404798e+003, -1.809027e-003
2.406726e+003, -1.474328e-003
2.408655e+003, -1.050514e-003
2.410583e+003, -1.250600e-003
2.412512e+003, -1.578633e-003
2.414440e+003, -1.452833e-003
2.416369e+003, -1.158226e-003
2.418297e+003, -1.306349e-003
2.420226e+003, -1.661196e-003
2.422154e+003, -1.583080e-003
2.424083e+003, -9.399904e-004
2.426011e+003, -8.672707e-004
2.427939e+003, -8.763003e-004
2.429868e+003, -1.328954e-003
2.431796e+003, -2.196166e-003
2.433725e+003, -2.171790e-003
2.435653e+003, -1.197071e-003
2.437582e+003, -1.326684e-003
2.439510e+003, -1.797708e-003
2.441439e+003, -1.956225e-003
2.443367e+003, -1.978077e-003
2.445296e+003, -2.140676e-003
2.447224e+003, -1.537445e-003
2.449153e+003, -9.106210e-004
2.451081e+003, -1.401428e-003
2.453010e+003, -2.326866e-003
2.454938e+003, -2.054716e-003
2.456866e+003, -1.672007e-003
2.458795e+003, -2.109643e-003
2.460723e+003, -1.627407e-003
2.462652e+003, -1.510227e-003
2.464580e+003, -1.702404e-003
2.466509e+003, -1.306428e-003
2.468437e+003, -1.195582e-003
2.470366e+003, -1.395678e-003
2.472294e+003, -1.799459e-003
2.474223e+003, -2.047352e-003
2.476151e+003, -2.265857e-003
2.478080e+003, -2.439048e-003
2.480008e+003, -2.214926e-003
2.481937e+003, -1.759841e-003
2.483865e+003, -1.893090e-003
2.485793e+003, -2.022767e-003
2.487722e+003, -1.674005e-003
2.489650e+003, -1.689800e-003
2.491579e+003, -2.159365e-003
2.493507e+003, -2.575863e-003
2.495436e+003, -2.809068e-003
2.497364e+003, -3.043138e-003
2.499293e+003, -2.535602e-003
2.501221e+003, -2.341785e-003
2.503150e+003, -2.493305e-003
2.505078e+003, -2.286491e-003
2.507007e+003, -2.219723e-003
2.508935e+003, -2.274562e-003
2.510864e+003, -2.325060e-003
2.512792e+003, -2.194955e-003
2.514720e+003, -2.260247e-003
2.516649e+003, -2.367441e-003
2.518577e+003, -2.074398e-003
2.520506e+003, -2.857468e-003
2.522434e+003, -3.513498e-003
2.524363e+003, -2.791243e-003
2.526291e+003, -2.249028e-003
2.528220e+003, -1.940843e-003
2.530148e+003, -2.163172e-003
2.532077e+003, -2.587746e-003
2.534005e+003, -2.523481e-003
2.535934e+003, -2.805639e-003
2.537862e+003, -3.556408e-003
2.539791e+003, -3.180195e-003
2.541719e+003, -2.506304e-003
2.543647e+003, -2.446693e-003
2.545576e+003, -2.643362e-003
2.547504e+003, -2.967490e-003
2.549433e+003, -2.627031e-003
2.551361e+003, -2.101423e-003
2.553290e+003, -2.184526e-003
2.555218e+003, -2.157888e-003
2.557147e+003, -2.048102e-003
2.559075e+003, -2.176347e-003
2.561004e+003, -2.389864e-003
2.562932e+003, -2.371704e-003
2.564861e+003, -1.735817e-003
2.566789e+003, -1.615372e-003
2.568718e+003, -2.126381e-003
2.570646e+003, -2.358021e-003
2.572574e+003, -2.029578e-003
2.574503e+003, -1.447926e-003
2.576431e+003, -1.723501e-003
2.578360e+003, -2.282063e-003
2.580288e+003, -2.254457e-003
2.582217e+003, -2.299787e-003
2.584145e+003, -2.633261e-003
2.586074e+003, -2.400830e-003
2.588002e+003, -1.850112e-003
2.589931e+003, -1.629776e-003
2.591859e+003, -1.689911e-003
2.593788e+003, -1.965583e-003
2.595716e+003, -2.022002e-003
2.597645e+003, -1.913568e-003
2.599573e+003, -2.138105e-003
2.601501e+003, -1.822061e-003
2.603430e+003, -1.398530e-003
2.605358e+003, -1.639055e-003
2.607287e+003, -1.973643e-003
2.609215e+003, -2.112062e-003
2.611144e+003, -2.064156e-003
2.613072e+003, -1.971581e-003
2.615001e+003, -1.932591e-003
2.616929e+003, -1.970209e-003
2.618858e+003, -2.208892e-003
2.620786e+003, -2.012770e-003
2.622715e+003, -1.881628e-003
2.624643e+003, -2.159779e-003
2.626572e+003, -2.097622e-003
2.628500e+003, -1.665500e-003
2.630428e+003, -1.724276e-003
2.632357e+003, -1.759687e-003
2.634285e+003, -1.639261e-003
2.636214e+003, -1.988766e-003
2.638142e+003, -1.800437e-003
2.640071e+003, -1.405204e-003
2.641999e+003, -1.582655e-003
2.643928e+003, -1.693446e-003
2.645856e+003, -1.980209e-003
2.647785e+003, -2.144015e-003
2.649713e+003, -2.024656e-003
2.651642e+003, -1.800751e-003
2.653570e+003, -1.641860e-003
2.655499e+003, -1.825020e-003
2.657427e+003, -2.245591e-003
2.659355e+003, -2.421510e-003
2.661284e+003, -2.383437e-003
2.663212e+003, -2.624550e-003
2.665141e+003, -2.459077e-003
2.667069e+003, -2.109690e-003
2.668998e+003, -2.314420e-003
2.670926e+003, -2.599649e-003
2.672855e+003, -2.798027e-003
2.674783e+003, -2.576383e-003
2.676712e+003, -2.390109e-003
2.678640e+003, -2.327736e-003
2.680569e+003, -2.295472e-003
2.682497e+003, -2.367667e-003
2.684426e+003, -2.551675e-003
2.686354e+003, -2.521988e-003
2.688282e+003, -2.701365e-003
2.690211e+003, -3.026066e-003
2.692139e+003, -2.774419e-003
2.694068e+003, -2.268374e-003
2.695996e+003, -2.161970e-003
2.697925e+003, -2.521429e-003
2.699853e+003, -2.587324e-003
2.701782e+003, -2.286998e-003
2.703710e+003, -2.013238e-003
2.705639e+003, -2.050318e-003
2.707567e+003, -2.394892e-003
2.709496e+003, -2.510396e-003
2.711424e+003, -2.367854e-003
2.713353e+003, -2.210463e-003
2.715281e+003, -2.075635e-003
2.717209e+003, -1.793098e-003
2.719138e+003, -1.843150e-003
2.721066e+003, -1.772899e-003
2.722995e+003, -1.732382e-003
2.724923e+003, -1.978165e-003
2.726852e+003, -1.850605e-003
2.728780e+003, -1.868617e-003
2.730709e+003, -2.080666e-003
2.732637e+003, -1.801320e-003
2.734566e+003, -1.440865e-003
2.736494e+003, -1.648898e-003
2.738423e+003, -1.782065e-003
2.740351e+003, -1.886669e-003
2.742280e+003, -1.896709e-003
2.744208e+003, -1.837860e-003
2.746136e+003, -2.038563e-003
2.748065e+003, -2.195869e-003
2.749993e+003, -2.022988e-003
2.751922e+003, -1.458391e-003
2.753850e+003, -1.357002e-003
2.755779e+003, -1.646389e-003
2.757707e+003, -1.745169e-003
2.759636e+003, -1.725687e-003
2.761564e+003, -1.511348e-003
2.763493e+003, -1.291932e-003
2.765421e+003, -1.091717e-003
2.767350e+003, -1.231274e-003
2.769278e+003, -1.555550e-003
2.771207e+003, -1.741665e-003
2.773135e+003, -1.628577e-003
2.775063e+003, -1.124968e-003
2.776992e+003, -1.240208e-003
2.778920e+003, -1.571956e-003
2.780849e+003, -1.154511e-003
2.782777e+003, -6.259277e-004
2.784706e+003, -9.019617e-004
2.786634e+003, -1.203331e-003
2.788563e+003, -1.353864e-003
2.790491e+003, -1.143574e-003
2.792420e+003, -6.631646e-004
2.794348e+003, -5.584299e-004
2.796277e+003, -1.027762e-003
2.798205e+003, -1.225596e-003
2.800134e+003, -1.222455e-003
2.802062e+003, -1.225336e-003
2.803990e+003, -1.002511e-003
2.805919e+003, -9.607481e-004
2.807847e+003, -1.201697e-003
2.809776e+003, -1.234699e-003
2.811704e+003, -1.128352e-003
2.813633e+003, -7.428315e-004
2.815561e+003, -4.114003e-004
2.817490e+003, -6.316106e-004
2.819418e+003, -1.197422e-003
2.821347e+003, -1.158103e-003
2.823275e+003, -7.172498e-004
2.825204e+003, -6.867721e-004
2.827132e+003, -5.739782e-004
2.829061e+003, -6.581285e-005
2.830989e+003, 2.763800e-005
2.832917e+003, 1.536368e-005
2.834846e+003, 2.696390e-004
2.836774e+003, 2.217880e-004
2.838703e+003, 3.853507e-004
2.840631e+003, 1.110823e-003
2.842560e+003, 1.166841e-003
2.844488e+003, 1.343748e-003
2.846417e+003, 1.521034e-003
2.848345e+003, 1.768024e-003
2.850274e+003, 2.027051e-003
2.852202e+003, 2.037135e-003
2.854131e+003, 2.144302e-003
2.856059e+003, 2.283400e-003
2.857988e+003, 2.551147e-003
2.859916e+003, 2.403146e-003
2.861844e+003, 2.156629e-003
2.863773e+003, 2.128148e-003
2.865701e+003, 2.223156e-003
2.867630e+003, 2.392588e-003
2.869558e+003, 2.356005e-003
2.871487e+003, 1.897270e-003
2.873415e+003, 1.666877e-003
2.875344e+003, 1.801253e-003
2.877272e+003, 1.890874e-003
2.879201e+003, 1.875311e-003
2.881129e+003, 2.167427e-003
2.883058e+003, 2.028613e-003
2.884986e+003, 1.261107e-003
2.886915e+003, 1.670667e-003
2.888843e+003, 2.435280e-003
2.890771e+003, 2.569446e-003
2.892700e+003, 2.725776e-003
2.894628e+003, 2.851998e-003
2.896557e+003, 2.844672e-003
2.898485e+003, 3.022607e-003
2.900414e+003, 3.232133e-003
2.902342e+003, 3.554674e-003
2.904271e+003, 3.710482e-003
2.906199e+003, 3.896820e-003
2.908128e+003, 4.123471e-003
2.910056e+003, 4.382191e-003
2.911985e+003, 4.678661e-003
2.913913e+003, 5.157163e-003
2.915842e+003, 5.358368e-003
2.917770e+003, 5.722555e-003
2.919698e+003, 6.737531e-003
2.921627e+003, 6.993966e-003
2.923555e+003, 7.051285e-003
2.925484e+003, 7.327402e-003
2.927412e+003, 7.086921e-003
2.929341e+003, 6.704953e-003
2.931269e+003, 6.615361e-003
2.933198e+003, 6.436059e-003
2.935126e+003, 6.184053e-003
2.937055e+003, 5.162564e-003
2.938983e+003, 4.373122e-003
2.940912e+003, 4.243623e-003
2.942840e+003, 4.234559e-003
2.944769e+003, 4.310471e-003
2.946697e+003, 3.940991e-003
2.948625e+003, 4.373266e-003
2.950554e+003, 4.269200e-003
2.952482e+003, 4.094954e-003
2.954411e+003, 4.228841e-003
2.956339e+003, 4.764443e-003
2.958268e+003, 4.479837e-003
2.960196e+003, 4.055773e-003
2.962125e+003, 4.181399e-003
2.964053e+003, 4.186478e-003
2.965982e+003, 3.790500e-003
2.967910e+003, 3.442024e-003
2.969839e+003, 3.404098e-003
2.971767e+003, 3.350939e-003
2.973696e+003, 2.419465e-003
2.975624e+003, 2.092763e-003
2.977552e+003, 2.000835e-003
2.979481e+003, 1.779706e-003
2.981409e+003, 1.825285e-003
2.983338e+003, 2.111267e-003
2.985266e+003, 2.421581e-003
2.987195e+003, 2.612246e-003
2.989123e+003, 2.004878e-003
2.991052e+003, 1.605560e-003
2.992980e+003, 1.604027e-003
2.994909e+003, 1.941122e-003
2.996837e+003, 2.080893e-003
2.998766e+003, 1.631223e-003
3.000694e+003, 1.515206e-003
3.002623e+003, 1.306653e-003
3.004551e+003, 1.390516e-003
3.006479e+003, 1.960216e-003
3.008408e+003, 2.323384e-003
3.010336e+003, 2.691035e-003
3.012265e+003, 2.626469e-003
3.014193e+003, 2.026875e-003
3.016122e+003, 1.847465e-003
3.018050e+003, 1.854048e-003
3.019979e+003, 2.162899e-003
3.021907e+003, 2.650361e-003
3.023836e+003, 2.825351e-003
3.025764e+003, 2.856606e-003
3.027693e+003, 2.509418e-003
3.029621e+003, 2.682113e-003
3.031550e+003, 2.858652e-003
3.033478e+003, 2.855853e-003
3.035406e+003, 2.813339e-003
3.037335e+003, 2.256738e-003
3.039263e+003, 2.404155e-003
3.041192e+003, 2.891819e-003
3.043120e+003, 2.836296e-003
3.045049e+003, 3.049925e-003
3.046977e+003, 3.778998e-003
3.048906e+003, 3.922534e-003
3.050834e+003, 3.507894e-003
3.052763e+003, 3.399897e-003
3.054691e+003, 3.259282e-003
3.056620e+003, 3.514172e-003
3.058548e+003, 3.718393e-003
3.060477e+003, 3.733771e-003
3.062405e+003, 3.826906e-003
3.064333e+003, 4.007004e-003
3.066262e+003, 4.299579e-003
3.068190e+003, 3.983636e-003
3.070119e+003, 4.263389e-003
3.072047e+003, 4.658737e-003
3.073976e+003, 4.837074e-003
3.075904e+003, 4.632307e-003
3.077833e+003, 4.402941e-003
3.079761e+003, 4.712884e-003
3.081690e+003, 4.878249e-003
3.083618e+003, 4.571992e-003
3.085547e+003, 4.631065e-003
3.087475e+003, 4.697110e-003
3.089404e+003, 4.924708e-003
3.091332e+003, 5.521005e-003
3.093260e+003, 5.477030e-003
3.095189e+003, 5.503200e-003
3.097117e+003, 5.631431e-003
3.099046e+003, 5.466777e-003
3.100974e+003, 5.853084e-003
3.102903e+003, 5.594277e-003
3.104831e+003, 5.286779e-003
3.106760e+003, 5.380508e-003
3.108688e+003, 5.723489e-003
3.110617e+003, 5.807483e-003
3.112545e+003, 5.532819e-003
3.114474e+003, 5.441569e-003
3.116402e+003, 5.915373e-003
3.118331e+003, 6.873477e-003
3.120259e+003, 6.807613e-003
3.122188e+003, 6.893959e-003
3.124116e+003, 6.734077e-003
3.126044e+003, 6.267108e-003
3.127973e+003, 6.042584e-003
3.129901e+003, 6.118082e-003
3.131830e+003, 6.032445e-003
3.133758e+003, 6.859909e-003
3.135687e+003, 7.658777e-003
3.137615e+003, 7.305287e-003
3.139544e+003, 7.129287e-003
3.141472e+003, 7.595292e-003
3.143401e+003, 7.100089e-003
3.145329e+003, 6.710642e-003
3.147258e+003, 6.840723e-003
3.149186e+003, 6.766712e-003
3.151115e+003, 7.010857e-003
3.153043e+003, 7.349422e-003
3.154971e+003, 7.960261e-003
3.156900e+003, 8.096958e-003
3.158828e+003, 8.060765e-003
3.160757e+003, 8.064953e-003
3.162685e+003, 8.413034e-003
3.164614e+003, 8.770063e-003
3.166542e+003, 8.874984e-003
3.168471e+003, 8.650539e-003
3.170399e+003, 8.827907e-003
3.172328e+003, 9.162856e-003
3.174256e+003, 8.676634e-003
3.176185e+003, 8.433196e-003
3.178113e+003, 8.418636e-003
3.180042e+003, 8.248425e-003
3.181970e+003, 8.445114e-003
3.183898e+003, 8.680148e-003
3.185827e+003, 9.068086e-003
3.187755e+003, 9.213496e-003
3.189684e+003, 9.529465e-003
3.191612e+003, 9.408232e-003
3.193541e+003, 9.083611e-003
3.195469e+003, 9.413473e-003
3.197398e+003, 9.106152e-003
3.199326e+003, 8.764941e-003
3.201255e+003, 9.143326e-003
3.203183e+003, 9.845887e-003
3.205112e+003, 1.034025e-002
3.207040e+003, 9.964792e-003
3.208969e+003, 9.833323e-003
3.210897e+003, 1.012361e-002
3.212825e+003, 9.953026e-003
3.214754e+003, 9.694083e-003
3.216682e+003, 1.042665e-002
3.218611e+003, 1.075260e-002
3.220539e+003, 1.048490e-002
3.222468e+003, 1.032415e-002
3.224396e+003, 1.030978e-002
3.226325e+003, 1.092788e-002
3.228253e+003, 1.080248e-002
3.230182e+003, 1.062325e-002
3.232110e+003, 1.100787e-002
3.234039e+003, 1.073045e-002
3.235967e+003, 1.062042e-002
3.237896e+003, 1.110493e-002
3.239824e+003, 1.199981e-002
3.241752e+003, 1.186723e-002
3.243681e+003, 1.089870e-002
3.245609e+003, 1.029457e-002
3.247538e+003, 1.039900e-002
3.249466e+003, 1.055684e-002
3.251395e+003, 1.071182e-002
3.253323e+003, 1.108156e-002
3.255252e+003, 1.106444e-002
3.257180e+003, 1.077641e-002
3.259109e+003, 1.081884e-002
3.261037e+003, 1.098171e-002
3.262966e+003, 1.088288e-002
3.264894e+003, 1.082065e-002
3.266823e+003, 1.131098e-002
3.268751e+003, 1.180455e-002
3.270679e+003, 1.096506e-002
3.272608e+003, 1.098607e-002
3.274536e+003, 1.158749e-002
3.276465e+003, 1.183449e-002
3.278393e+003, 1.170828e-002
3.280322e+003, 1.157911e-002
3.282250e+003, 1.086623e-002
3.284179e+003, 1.083701e-002
3.286107e+003, 1.145349e-002
3.288036e+003, 1.145278e-002
3.289964e+003, 1.091330e-002
3.291893e+003, 1.115184e-002
3.293821e+003, 1.091791e-002
3.295750e+003, 1.130783e-002
3.297678e+003, 1.212249e-002
3.299606e+003, 1.199432e-002
3.301535e+003, 1.167643e-002
3.303463e+003, 1.176505e-002
3.305392e+003, 1.221765e-002
3.307320e+003, 1.199761e-002
3.309249e+003, 1.164677e-002
3.311177e+003, 1.132359e-002
3.313106e+003, 1.178644e-002
3.315034e+003, 1.248008e-002
3.316963e+003, 1.246255e-002
3.318891e+003, 1.223845e-002
3.320820e+003, 1.206031e-002
3.322748e+003, 1.206644e-002
3.324677e+003, 1.229288e-002
3.326605e+003, 1.254026e-002
3.328533e+003, 1.239984e-002
3.330462e+003, 1.189707e-002
3.332390e+003, 1.187448e-002
3.334319e+003, 1.237346e-002
3.336247e+003, 1.226547e-002
3.338176e+003, 1.276034e-002
3.340104e+003, 1.291499e-002
3.342033e+003, 1.281915e-002
3.343961e+003, 1.276711e-002
3.345890e+003, 1.244508e-002
3.347818e+003, 1.222352e-002
3.349747e+003, 1.239780e-002
3.351675e+003, 1.230149e-002
3.353604e+003, 1.290327e-002
3.355532e+003, 1.330382e-002
3.357460e+003, 1.277331e-002
3.359389e+003, 1.206367e-002
3.361317e+003, 1.189580e-002
3.363246e+003, 1.247999e-002
3.365174e+003, 1.255690e-002
3.367103e+003, 1.264277e-002
3.369031e+003, 1.249693e-002
3.370960e+003, 1.240299e-002
3.372888e+003, 1.241709e-002
3.374817e+003, 1.235284e-002
3.376745e+003, 1.247512e-002
3.378674e+003, 1.243306e-002
3.380602e+003, 1.264566e-002
3.382531e+003, 1.239441e-002
3.384459e+003, 1.278649e-002
3.386387e+003, 1.311087e-002
3.388316e+003, 1.287803e-002
3.390244e+003, 1.291031e-002
3.392173e+003, 1.295409e-002
3.394101e+003, 1.288603e-002
3.396030e+003, 1.263473e-002
3.397958e+003, 1.159809e-002
3.399887e+003, 1.152047e-002
3.401815e+003, 1.259919e-002
3.403744e+003, 1.269791e-002
3.405672e+003, 1.258952e-002
3.407601e+003, 1.249123e-002
3.409529e+003, 1.157902e-002
3.411458e+003, 1.118889e-002
3.413386e+003, 1.215878e-002
3.415314e+003, 1.265944e-002
3.417243e+003, 1.224621e-002
3.419171e+003, 1.259257e-002
3.421100e+003, 1.229966e-002
3.423028e+003, 1.132646e-002
3.424957e+003, 1.094299e-002
3.426885e+003, 1.103612e-002
3.428814e+003, 1.112856e-002
3.430742e+003, 1.180678e-002
3.432671e+003, 1.155176e-002
3.434599e+003, 1.096261e-002
3.436528e+003, 1.100219e-002
3.438456e+003, 1.138693e-002
3.440385e+003, 1.144620e-002
3.442313e+003, 1.225681e-002
3.444241e+003, 1.242789e-002
3.446170e+003, 1.139136e-002
3.448098e+003, 1.151138e-002
3.450027e+003, 1.188721e-002
3.451955e+003, 1.128830e-002
3.453884e+003, 1.034474e-002
3.455812e+003, 1.080396e-002
3.457741e+003, 1.200018e-002
3.459669e+003, 1.144869e-002
3.461598e+003, 9.777727e-003
3.463526e+003, 9.728584e-003
3.465455e+003, 9.935350e-003
3.467383e+003, 1.015800e-002
3.469312e+003, 1.034493e-002
3.471240e+003, 9.562306e-003
3.473168e+003, 9.489376e-003
3.475097e+003, 9.561525e-003
3.477025e+003, 1.006281e-002
3.478954e+003, 1.000019e-002
3.480882e+003, 9.717532e-003
3.482811e+003, 1.028051e-002
3.484739e+003, 1.064119e-002
3.486668e+003, 1.072425e-002
3.488596e+003, 9.595652e-003
3.490525e+003, 8.897962e-003
3.492453e+003, 9.415829e-003
3.494382e+003, 9.498779e-003
3.496310e+003, 9.660510e-003
3.498239e+003, 9.701227e-003
3.500167e+003, 9.579174e-003
3.502095e+003, 8.994095e-003
3.504024e+003, 8.427179e-003
3.505952e+003, 8.643393e-003
3.507881e+003, 8.582736e-003
3.509809e+003, 7.550885e-003
3.511738e+003, 7.582420e-003
3.513666e+003, 7.465423e-003
3.515595e+003, 6.992395e-003
3.517523e+003, 7.509175e-003
3.519452e+003, 9.038173e-003
3.521380e+003, 9.093071e-003
3.523309e+003, 8.332485e-003
3.525237e+003, 8.940376e-003
3.527166e+003, 9.104013e-003
3.529094e+003, 8.348164e-003
3.531022e+003, 8.454763e-003
3.532951e+003, 8.164822e-003
3.534879e+003, 7.504206e-003
3.536808e+003, 7.727256e-003
3.538736e+003, 8.400637e-003
3.540665e+003, 8.797749e-003
3.542593e+003, 9.220873e-003
3.544522e+003, 9.244725e-003
3.546450e+003, 8.695113e-003
3.548379e+003, 8.845225e-003
3.550307e+003, 9.354256e-003
3.552236e+003, 9.466076e-003
3.554164e+003, 9.874281e-003
3.556093e+003, 9.645132e-003
3.558021e+003, 9.840817e-003
3.559949e+003, 1.120535e-002
3.561878e+003, 1.216775e-002
3.563806e+003, 1.347035e-002
3.565735e+003, 1.447658e-002
3.567663e+003, 1.530629e-002
3.569592e+003, 1.510761e-002
3.571520e+003, 1.521823e-002
3.573449e+003, 1.709572e-002
3.575377e+003, 1.887880e-002
3.577306e+003, 1.961863e-002
3.579234e+003, 2.107699e-002
3.581163e+003, 2.338010e-002
3.583091e+003, 2.613640e-002
3.585020e+003, 2.853621e-002
3.586948e+003, 3.048078e-002
3.588876e+003, 3.201819e-002
3.590805e+003, 3.454816e-002
3.592733e+003, 3.798992e-002
3.594662e+003, 4.125489e-002
3.596590e+003, 4.302004e-002
3.598519e+003, 4.513150e-002
3.600447e+003, 4.721465e-002
3.602376e+003, 4.935372e-002
3.604304e+003, 5.075032e-002
3.606233e+003, 5.091428e-002
3.608161e+003, 5.113273e-002
3.610090e+003, 5.069935e-002
3.612018e+003, 4.890281e-002
3.613947e+003, 4.824239e-002
3.615875e+003, 4.692164e-002
3.617803e+003, 4.584617e-002
3.619732e+003, 4.499257e-002
3.621660e+003, 4.309122e-002
3.623589e+003, 4.092069e-002
3.625517e+003, 3.762377e-002
3.627446e+003, 3.501991e-002
3.629374e+003, 3.366676e-002
3.631303e+003, 3.160010e-002
3.633231e+003, 2.965297e-002
3.635160e+003, 2.662777e-002
3.637088e+003, 2.359187e-002
3.639017e+003, 2.054531e-002
3.640945e+003, 1.789202e-002
3.642874e+003, 1.581365e-002
3.644802e+003, 1.313635e-002
3.646730e+003, 1.161459e-002
3.648659e+003, 1.056079e-002
3.650587e+003, 7.975955e-003
3.652516e+003, 4.684827e-003
3.654444e+003, 2.281717e-003
3.656373e+003, 1.471667e-003
3.658301e+003, -9.678655e-005
3.660230e+003, -2.674040e-003
3.662158e+003, -3.615504e-003
3.664087e+003, -4.047901e-003
3.666015e+003, -5.936734e-003
3.667944e+003, -7.641145e-003
3.669872e+003, -7.685648e-003
3.671801e+003, -7.451246e-003
3.673729e+003, -6.739026e-003
3.675657e+003, -7.729866e-003
3.677586e+003, -9.659541e-003
3.679514e+003, -1.045989e-002
3.681443e+003, -1.052108e-002
3.683371e+003, -1.013197e-002
3.685300e+003, -9.404344e-003
3.687228e+003, -9.513901e-003
3.689157e+003, -1.030032e-002
3.691085e+003, -1.018863e-002
3.693014e+003, -1.018758e-002
3.694942e+003, -1.147648e-002
3.696871e+003, -1.251314e-002
3.698799e+003, -1.237466e-002
3.700728e+003, -1.139482e-002
3.702656e+003, -1.223481e-002
3.704584e+003, -1.285142e-002
3.706513e+003, -1.263316e-002
3.708441e+003, -1.187292e-002
3.710370e+003, -1.091652e-002
3.712298e+003, -1.082601e-002
3.714227e+003, -1.063745e-002
3.716155e+003, -1.126371e-002
3.718084e+003, -1.219433e-002
3.720012e+003, -1.208585e-002
3.721941e+003, -1.189366e-002
3.723869e+003, -1.186484e-002
3.725798e+003, -1.102223e-002
3.727726e+003, -1.147533e-002
3.729655e+003, -1.293986e-002
3.731583e+003, -1.198988e-002
3.733511e+003, -1.158181e-002
3.735440e+003, -1.189456e-002
3.737368e+003, -1.220920e-002
3.739297e+003, -1.284977e-002
3.741225e+003, -1.304564e-002
3.743154e+003, -1.307107e-002
3.745082e+003, -1.410381e-002
3.747011e+003, -1.372543e-002
3.748939e+003, -1.167706e-002
3.750868e+003, -1.159693e-002
3.752796e+003, -1.281480e-002
3.754725e+003, -1.307352e-002
3.756653e+003, -1.181547e-002
3.758582e+003, -1.214442e-002
3.760510e+003, -1.224687e-002
3.762438e+003, -1.218099e-002
3.764367e+003, -1.230630e-002
3.766295e+003, -1.169012e-002
3.768224e+003, -1.161042e-002
3.770152e+003, -1.268692e-002
3.772081e+003, -1.254754e-002
3.774009e+003, -1.231928e-002
3.775938e+003, -1.314116e-002
3.777866e+003, -1.378386e-002
3.779795e+003, -1.418974e-002
3.781723e+003, -1.456970e-002
3.783652e+003, -1.417759e-002
3.785580e+003, -1.326306e-002
3.787509e+003, -1.361173e-002
3.789437e+003, -1.412474e-002
3.791365e+003, -1.413090e-002
3.793294e+003, -1.397308e-002
3.795222e+003, -1.329460e-002
3.797151e+003, -1.252539e-002
3.799079e+003, -1.131176e-002
3.801008e+003, -1.098161e-002
3.802936e+003, -1.282723e-002
3.804865e+003, -1.306098e-002
3.806793e+003, -1.254028e-002
3.808722e+003, -1.297412e-002
3.810650e+003, -1.288571e-002
3.812579e+003, -1.182956e-002
3.814507e+003, -1.184619e-002
3.816436e+003, -1.336998e-002
3.818364e+003, -1.353078e-002
3.820292e+003, -1.271352e-002
3.822221e+003, -1.332881e-002
3.824149e+003, -1.356841e-002
3.826078e+003, -1.262345e-002
3.828006e+003, -1.220743e-002
3.829935e+003, -1.202292e-002
3.831863e+003, -1.241938e-002
3.833792e+003, -1.322264e-002
3.835720e+003, -1.342353e-002
3.837649e+003, -1.291024e-002
3.839577e+003, -1.176840e-002
3.841506e+003, -1.043959e-002
3.843434e+003, -1.154454e-002
3.845363e+003, -1.373221e-002
3.847291e+003, -1.421562e-002
3.849219e+003, -1.418235e-002
3.851148e+003, -1.380118e-002
3.853076e+003, -1.306360e-002
3.855005e+003, -1.431637e-002
3.856933e+003, -1.504985e-002
3.858862e+003, -1.411697e-002
3.860790e+003, -1.299754e-002
3.862719e+003, -1.316297e-002
3.864647e+003, -1.413494e-002
3.866576e+003, -1.420418e-002
3.868504e+003, -1.312913e-002
3.870433e+003, -1.280792e-002
3.872361e+003, -1.399944e-002
3.874290e+003, -1.419781e-002
3.876218e+003, -1.441430e-002
3.878146e+003, -1.423133e-002
3.880075e+003, -1.436442e-002
3.882003e+003, -1.457122e-002
3.883932e+003, -1.388547e-002
3.885860e+003, -1.333416e-002
3.887789e+003, -1.382821e-002
3.889717e+003, -1.546483e-002
3.891646e+003, -1.592342e-002
3.893574e+003, -1.531526e-002
3.895503e+003, -1.527534e-002
3.897431e+003, -1.470786e-002
3.899360e+003, -1.374508e-002
3.901288e+003, -1.404387e-002
3.903217e+003, -1.372581e-002
3.905145e+003, -1.436288e-002
3.907073e+003, -1.515532e-002
3.909002e+003, -1.488210e-002
3.910930e+003, -1.458323e-002
3.912859e+003, -1.522691e-002
3.914787e+003, -1.611306e-002
3.916716e+003, -1.526697e-002
3.918644e+003, -1.408575e-002
3.920573e+003, -1.401929e-002
3.922501e+003, -1.373968e-002
3.924430e+003, -1.427564e-002
3.926358e+003, -1.480114e-002
3.928287e+003, -1.422718e-002
3.930215e+003, -1.388083e-002
3.932144e+003, -1.312894e-002
3.934072e+003, -1.355215e-002
3.936000e+003, -1.458135e-002
3.937929e+003, -1.537818e-002
3.939857e+003, -1.517294e-002
3.941786e+003, -1.436632e-002
3.943714e+003, -1.483036e-002
3.945643e+003, -1.527427e-002
3.947571e+003, -1.590782e-002
3.949500e+003, -1.762070e-002
3.951428e+003, -1.733227e-002
3.953357e+003, -1.512552e-002
3.955285e+003, -1.426143e-002
3.957214e+003, -1.469776e-002
3.959142e+003, -1.567694e-002
3.961071e+003, -1.536152e-002
3.962999e+003, -1.507945e-002
3.964927e+003, -1.560728e-002
3.966856e+003, -1.507676e-002
3.968784e+003, -1.531353e-002
3.970713e+003, -1.536627e-002
3.972641e+003, -1.548753e-002
3.974570e+003, -1.530712e-002
3.976498e+003, -1.526693e-002
3.978427e+003, -1.614019e-002
3.980355e+003, -1.674586e-002
3.982284e+003, -1.672277e-002
3.984212e+003, -1.716727e-002
3.986141e+003, -1.779734e-002
3.988069e+003, -1.694737e-002
3.989998e+003, -1.477205e-002
3.991926e+003, -1.477554e-002
3.993854e+003, -1.464416e-002
3.995783e+003, -1.495423e-002
3.997711e+003, -1.611692e-002
3.999640e+003, -1.513782e-002
##END=



