##NAMES=Muscovite
##RRUFFID=R040108
##IDEAL CHEMISTRY=KAl_2_(Si_3_Al)O_10_(OH)_2_
##LOCALITY=USSR
##OWNER=RRUFF
##SOURCE=University of Arizona Mineral Museum
##DESCRIPTION=Dark green hexagonal tablet
##STATUS=The identification of this mineral has been confirmed by X-ray diffraction and chemical analysis
##URL=rruff.info/R040108
##MEASURED CHEMISTRY=(K_0.96_Na_0.04_)_Σ=1_(Al_1.48_Fe^3+^_0.20_Mg_0.16_Fe^2+^_0.14_Ti_0.02_)_Σ=2_(Si_3.28_Al_0.72_)_Σ=4_O_10_(OH)_2_; OH estimated by charge balance
3.991926e+002, 0.000000e+000
4.011211e+002, 3.316308e-001
4.030496e+002, 3.332191e-001
4.049780e+002, 3.311220e-001
4.069065e+002, 3.352649e-001
4.088350e+002, 3.410215e-001
4.107634e+002, 3.523090e-001
4.126919e+002, 3.604323e-001
4.146204e+002, 3.610347e-001
4.165488e+002, 3.598146e-001
4.184773e+002, 3.603821e-001
4.204058e+002, 3.598128e-001
4.223342e+002, 3.590415e-001
4.242627e+002, 3.637817e-001
4.261912e+002, 3.629281e-001
4.281196e+002, 3.595949e-001
4.300481e+002, 3.566110e-001
4.319766e+002, 3.531642e-001
4.339050e+002, 3.559315e-001
4.358335e+002, 3.607340e-001
4.377620e+002, 3.655102e-001
4.396904e+002, 3.715597e-001
4.416189e+002, 3.731571e-001
4.435474e+002, 3.733401e-001
4.454758e+002, 3.770346e-001
4.474043e+002, 3.805625e-001
4.493328e+002, 3.851783e-001
4.512612e+002, 3.859843e-001
4.531897e+002, 3.828369e-001
4.551182e+002, 3.806566e-001
4.570466e+002, 3.822379e-001
4.589751e+002, 3.831518e-001
4.609036e+002, 3.785988e-001
4.628320e+002, 3.721637e-001
4.647605e+002, 3.640660e-001
4.666890e+002, 3.572254e-001
4.686174e+002, 3.482616e-001
4.705459e+002, 3.354431e-001
4.724744e+002, 3.235328e-001
4.744028e+002, 3.134587e-001
4.763313e+002, 3.024706e-001
4.782598e+002, 2.930517e-001
4.801882e+002, 2.857852e-001
4.821167e+002, 2.798201e-001
4.840452e+002, 2.749613e-001
4.859736e+002, 2.731888e-001
4.879021e+002, 2.738599e-001
4.898306e+002, 2.760732e-001
4.917590e+002, 2.793991e-001
4.936875e+002, 2.827244e-001
4.956160e+002, 2.901047e-001
4.975444e+002, 2.971833e-001
4.994729e+002, 3.044270e-001
5.014014e+002, 3.133815e-001
5.033298e+002, 3.227504e-001
5.052583e+002, 3.303615e-001
5.071868e+002, 3.357050e-001
5.091152e+002, 3.370350e-001
5.110437e+002, 3.344677e-001
5.129722e+002, 3.315594e-001
5.149006e+002, 3.267064e-001
5.168291e+002, 3.193247e-001
5.187576e+002, 3.096177e-001
5.206860e+002, 3.001652e-001
5.226145e+002, 2.920459e-001
5.245430e+002, 2.835484e-001
5.264714e+002, 2.731803e-001
5.283999e+002, 2.638265e-001
5.303284e+002, 2.561156e-001
5.322568e+002, 2.482923e-001
5.341853e+002, 2.392201e-001
5.361138e+002, 2.318019e-001
5.380422e+002, 2.248518e-001
5.399707e+002, 2.174523e-001
5.418992e+002, 2.108121e-001
5.438276e+002, 2.051311e-001
5.457561e+002, 2.004044e-001
5.476846e+002, 1.955657e-001
5.496130e+002, 1.903913e-001
5.515415e+002, 1.860847e-001
5.534700e+002, 1.823453e-001
5.553984e+002, 1.781583e-001
5.573269e+002, 1.737332e-001
5.592554e+002, 1.695359e-001
5.611838e+002, 1.658625e-001
5.631123e+002, 1.635272e-001
5.650408e+002, 1.612621e-001
5.669692e+002, 1.580373e-001
5.688977e+002, 1.553783e-001
5.708262e+002, 1.536985e-001
5.727546e+002, 1.512824e-001
5.746831e+002, 1.491591e-001
5.766116e+002, 1.481865e-001
5.785400e+002, 1.465793e-001
5.804685e+002, 1.456648e-001
5.823970e+002, 1.451895e-001
5.843254e+002, 1.447992e-001
5.862539e+002, 1.448926e-001
5.881824e+002, 1.444974e-001
5.901108e+002, 1.445331e-001
5.920393e+002, 1.452496e-001
5.939678e+002, 1.459117e-001
5.958962e+002, 1.462269e-001
5.978247e+002, 1.462601e-001
5.997532e+002, 1.465570e-001
6.016816e+002, 1.476434e-001
6.036101e+002, 1.488175e-001
6.055386e+002, 1.494197e-001
6.074670e+002, 1.496013e-001
6.093955e+002, 1.499875e-001
6.113240e+002, 1.505317e-001
6.132524e+002, 1.509190e-001
6.151809e+002, 1.506184e-001
6.171094e+002, 1.499093e-001
6.190378e+002, 1.492386e-001
6.209663e+002, 1.482421e-001
6.228948e+002, 1.466860e-001
6.248232e+002, 1.446079e-001
6.267517e+002, 1.426221e-001
6.286802e+002, 1.413066e-001
6.306086e+002, 1.412055e-001
6.325371e+002, 1.417496e-001
6.344656e+002, 1.429985e-001
6.363940e+002, 1.440667e-001
6.383225e+002, 1.447563e-001
6.402510e+002, 1.456469e-001
6.421794e+002, 1.465900e-001
6.441079e+002, 1.471233e-001
6.460364e+002, 1.473356e-001
6.479648e+002, 1.473681e-001
6.498933e+002, 1.474448e-001
6.518218e+002, 1.475690e-001
6.537502e+002, 1.479453e-001
6.556787e+002, 1.482846e-001
6.576072e+002, 1.485150e-001
6.595356e+002, 1.487868e-001
6.614641e+002, 1.488745e-001
6.633926e+002, 1.490562e-001
6.653210e+002, 1.494045e-001
6.672495e+002, 1.497950e-001
6.691780e+002, 1.500745e-001
6.711064e+002, 1.500755e-001
6.730349e+002, 1.500647e-001
6.749634e+002, 1.494987e-001
6.768918e+002, 1.486282e-001
6.788203e+002, 1.479628e-001
6.807488e+002, 1.473802e-001
6.826772e+002, 1.466328e-001
6.846057e+002, 1.458456e-001
6.865342e+002, 1.447385e-001
6.884626e+002, 1.439956e-001
6.903911e+002, 1.433960e-001
6.923196e+002, 1.424875e-001
6.942480e+002, 1.418046e-001
6.961765e+002, 1.414068e-001
6.981050e+002, 1.407148e-001
7.000334e+002, 1.398983e-001
7.019619e+002, 1.392902e-001
7.038904e+002, 1.387080e-001
7.058188e+002, 1.381723e-001
7.077473e+002, 1.379658e-001
7.096758e+002, 1.378386e-001
7.116042e+002, 1.376697e-001
7.135327e+002, 1.371768e-001
7.154612e+002, 1.362013e-001
7.173896e+002, 1.360570e-001
7.193181e+002, 1.363360e-001
7.212466e+002, 1.362738e-001
7.231750e+002, 1.362122e-001
7.251035e+002, 1.368247e-001
7.270320e+002, 1.381852e-001
7.289604e+002, 1.396636e-001
7.308889e+002, 1.411741e-001
7.328174e+002, 1.430679e-001
7.347458e+002, 1.453675e-001
7.366743e+002, 1.474909e-001
7.386028e+002, 1.491814e-001
7.405313e+002, 1.508632e-001
7.424597e+002, 1.519186e-001
7.443882e+002, 1.520434e-001
7.463167e+002, 1.513976e-001
7.482451e+002, 1.498004e-001
7.501736e+002, 1.475555e-001
7.521021e+002, 1.445341e-001
7.540305e+002, 1.411813e-001
7.559590e+002, 1.376204e-001
7.578875e+002, 1.337972e-001
7.598159e+002, 1.306461e-001
7.617444e+002, 1.281171e-001
7.636729e+002, 1.259566e-001
7.656013e+002, 1.246502e-001
7.675298e+002, 1.240577e-001
7.694583e+002, 1.241066e-001
7.713867e+002, 1.246948e-001
7.733152e+002, 1.257141e-001
7.752437e+002, 1.269423e-001
7.771721e+002, 1.283582e-001
7.791006e+002, 1.294839e-001
7.810291e+002, 1.305427e-001
7.829575e+002, 1.320203e-001
7.848860e+002, 1.338070e-001
7.868145e+002, 1.355944e-001
7.887429e+002, 1.372970e-001
7.906714e+002, 1.389544e-001
7.925999e+002, 1.408285e-001
7.945283e+002, 1.426393e-001
7.964568e+002, 1.443514e-001
7.983853e+002, 1.462779e-001
8.003137e+002, 1.475222e-001
8.022422e+002, 1.481736e-001
8.041707e+002, 1.489956e-001
8.060991e+002, 1.498611e-001
8.080276e+002, 1.508277e-001
8.099561e+002, 1.518089e-001
8.118845e+002, 1.532808e-001
8.138130e+002, 1.549858e-001
8.157415e+002, 1.561458e-001
8.176699e+002, 1.563213e-001
8.195984e+002, 1.557410e-001
8.215269e+002, 1.544608e-001
8.234553e+002, 1.521818e-001
8.253838e+002, 1.487190e-001
8.273123e+002, 1.450137e-001
8.292407e+002, 1.413689e-001
8.311692e+002, 1.380398e-001
8.330977e+002, 1.355041e-001
8.350261e+002, 1.334383e-001
8.369546e+002, 1.321300e-001
8.388831e+002, 1.317192e-001
8.408115e+002, 1.316580e-001
8.427400e+002, 1.321538e-001
8.446685e+002, 1.333811e-001
8.465969e+002, 1.353133e-001
8.485254e+002, 1.375519e-001
8.504539e+002, 1.401437e-001
8.523823e+002, 1.433330e-001
8.543108e+002, 1.470438e-001
8.562393e+002, 1.513657e-001
8.581677e+002, 1.557496e-001
8.600962e+002, 1.601679e-001
8.620247e+002, 1.650630e-001
8.639531e+002, 1.700239e-001
8.658816e+002, 1.751847e-001
8.678101e+002, 1.802386e-001
8.697385e+002, 1.854411e-001
8.716670e+002, 1.911037e-001
8.735955e+002, 1.968770e-001
8.755239e+002, 2.026379e-001
8.774524e+002, 2.084821e-001
8.793809e+002, 2.140241e-001
8.813093e+002, 2.197877e-001
8.832378e+002, 2.256307e-001
8.851663e+002, 2.312761e-001
8.870947e+002, 2.376571e-001
8.890232e+002, 2.445069e-001
8.909517e+002, 2.512362e-001
8.928801e+002, 2.586246e-001
8.948085e+002, 2.667425e-001
8.967370e+002, 2.751305e-001
8.986655e+002, 2.827023e-001
9.005939e+002, 2.891760e-001
9.025224e+002, 2.942384e-001
9.044509e+002, 2.971066e-001
9.063793e+002, 2.974649e-001
9.083078e+002, 2.965069e-001
9.102363e+002, 2.945290e-001
9.121647e+002, 2.916184e-001
9.140932e+002, 2.882913e-001
9.160217e+002, 2.854712e-001
9.179501e+002, 2.835740e-001
9.198786e+002, 2.822081e-001
9.218071e+002, 2.815470e-001
9.237355e+002, 2.818831e-001
9.256640e+002, 2.825867e-001
9.275925e+002, 2.834680e-001
9.295209e+002, 2.853521e-001
9.314494e+002, 2.884934e-001
9.333779e+002, 2.925086e-001
9.353063e+002, 2.976028e-001
9.372348e+002, 3.043038e-001
9.391633e+002, 3.123413e-001
9.410917e+002, 3.217202e-001
9.430202e+002, 3.329951e-001
9.449487e+002, 3.454206e-001
9.468771e+002, 3.589147e-001
9.488056e+002, 3.737838e-001
9.507341e+002, 3.894275e-001
9.526625e+002, 4.050788e-001
9.545910e+002, 4.204184e-001
9.565195e+002, 4.360802e-001
9.584479e+002, 4.518216e-001
9.603764e+002, 4.670043e-001
9.623049e+002, 4.813885e-001
9.642333e+002, 4.943723e-001
9.661618e+002, 5.057621e-001
9.680903e+002, 5.152087e-001
9.700187e+002, 5.230687e-001
9.719472e+002, 5.291342e-001
9.738757e+002, 5.328331e-001
9.758041e+002, 5.345619e-001
9.777326e+002, 5.343340e-001
9.796611e+002, 5.333230e-001
9.815895e+002, 5.314469e-001
9.835180e+002, 5.281779e-001
9.854465e+002, 5.246114e-001
9.873749e+002, 5.205679e-001
9.893034e+002, 5.165592e-001
9.912319e+002, 5.127196e-001
9.931603e+002, 5.081180e-001
9.950888e+002, 5.033762e-001
9.970173e+002, 4.975417e-001
9.989457e+002, 4.903845e-001
1.000874e+003, 4.823986e-001
1.002803e+003, 4.735238e-001
1.004731e+003, 4.644906e-001
1.006660e+003, 4.556686e-001
1.008588e+003, 4.472052e-001
1.010517e+003, 4.386513e-001
1.012445e+003, 4.303404e-001
1.014373e+003, 4.222736e-001
1.016302e+003, 4.142810e-001
1.018230e+003, 4.062710e-001
1.020159e+003, 3.974389e-001
1.022087e+003, 3.874516e-001
1.024016e+003, 3.768899e-001
1.025944e+003, 3.649609e-001
1.027873e+003, 3.511177e-001
1.029801e+003, 3.357828e-001
1.031730e+003, 3.192862e-001
1.033658e+003, 3.014033e-001
1.035587e+003, 2.833653e-001
1.037515e+003, 2.656128e-001
1.039444e+003, 2.485610e-001
1.041372e+003, 2.328822e-001
1.043301e+003, 2.181031e-001
1.045229e+003, 2.042224e-001
1.047157e+003, 1.920779e-001
1.049086e+003, 1.813348e-001
1.051014e+003, 1.717186e-001
1.052943e+003, 1.634308e-001
1.054871e+003, 1.569441e-001
1.056800e+003, 1.523347e-001
1.058728e+003, 1.497009e-001
1.060657e+003, 1.486379e-001
1.062585e+003, 1.485207e-001
1.064514e+003, 1.495280e-001
1.066442e+003, 1.516519e-001
1.068371e+003, 1.542320e-001
1.070299e+003, 1.565655e-001
1.072228e+003, 1.583265e-001
1.074156e+003, 1.591531e-001
1.076084e+003, 1.582714e-001
1.078013e+003, 1.556680e-001
1.079941e+003, 1.521126e-001
1.081870e+003, 1.471710e-001
1.083798e+003, 1.417423e-001
1.085727e+003, 1.362485e-001
1.087655e+003, 1.305515e-001
1.089584e+003, 1.245207e-001
1.091512e+003, 1.183183e-001
1.093441e+003, 1.122360e-001
1.095369e+003, 1.066987e-001
1.097298e+003, 1.014278e-001
1.099226e+003, 9.646004e-002
1.101155e+003, 9.184128e-002
1.103083e+003, 8.749736e-002
1.105011e+003, 8.349504e-002
1.106940e+003, 7.973605e-002
1.108868e+003, 7.627865e-002
1.110797e+003, 7.332322e-002
1.112725e+003, 7.060508e-002
1.114654e+003, 6.737486e-002
1.116582e+003, 6.425030e-002
1.118511e+003, 6.142059e-002
1.120439e+003, 5.867822e-002
1.122368e+003, 5.588780e-002
1.124296e+003, 5.284494e-002
1.126225e+003, 5.018098e-002
1.128153e+003, 4.803774e-002
1.130082e+003, 4.570653e-002
1.132010e+003, 4.312545e-002
1.133938e+003, 4.073531e-002
1.135867e+003, 3.849363e-002
1.137795e+003, 3.621873e-002
1.139724e+003, 3.407260e-002
1.141652e+003, 3.194210e-002
1.143581e+003, 3.005772e-002
1.145509e+003, 2.843476e-002
1.147438e+003, 2.717335e-002
1.149366e+003, 2.586312e-002
1.151295e+003, 2.463725e-002
1.153223e+003, 2.359496e-002
1.155152e+003, 2.258979e-002
1.157080e+003, 2.182567e-002
1.159009e+003, 2.118358e-002
1.160937e+003, 2.045496e-002
1.162865e+003, 1.973751e-002
1.164794e+003, 1.912504e-002
1.166722e+003, 1.844249e-002
1.168651e+003, 1.785351e-002
1.170579e+003, 1.745046e-002
1.172508e+003, 1.691374e-002
1.174436e+003, 1.625201e-002
1.176365e+003, 1.567190e-002
1.178293e+003, 1.523740e-002
1.180222e+003, 1.483375e-002
1.182150e+003, 1.453606e-002
1.184079e+003, 1.451898e-002
1.186007e+003, 1.432309e-002
1.187936e+003, 1.379965e-002
1.189864e+003, 1.344608e-002
1.191792e+003, 1.305755e-002
1.193721e+003, 1.272649e-002
1.195649e+003, 1.246632e-002
1.197578e+003, 1.202758e-002
1.199506e+003, 1.173436e-002
1.201435e+003, 1.147732e-002
1.203363e+003, 1.140510e-002
1.205292e+003, 1.119031e-002
1.207220e+003, 1.069459e-002
1.209149e+003, 1.047785e-002
1.211077e+003, 1.034929e-002
1.213006e+003, 1.009190e-002
1.214934e+003, 9.710659e-003
1.216863e+003, 9.464888e-003
1.218791e+003, 9.362635e-003
1.220719e+003, 9.110063e-003
1.222648e+003, 8.785035e-003
1.224576e+003, 8.539103e-003
1.226505e+003, 8.581791e-003
1.228433e+003, 8.521626e-003
1.230362e+003, 8.243152e-003
1.232290e+003, 8.021574e-003
1.234219e+003, 7.930173e-003
1.236147e+003, 7.850428e-003
1.238076e+003, 7.754641e-003
1.240004e+003, 7.837353e-003
1.241933e+003, 7.660022e-003
1.243861e+003, 7.578165e-003
1.245790e+003, 7.468698e-003
1.247718e+003, 7.310274e-003
1.249646e+003, 7.186902e-003
1.251575e+003, 7.066886e-003
1.253503e+003, 7.051320e-003
1.255432e+003, 7.076945e-003
1.257360e+003, 7.057886e-003
1.259289e+003, 6.972257e-003
1.261217e+003, 6.907343e-003
1.263146e+003, 6.841282e-003
1.265074e+003, 6.813574e-003
1.267003e+003, 6.807994e-003
1.268931e+003, 6.957765e-003
1.270860e+003, 6.915191e-003
1.272788e+003, 6.706276e-003
1.274717e+003, 6.537496e-003
1.276645e+003, 6.414606e-003
1.278573e+003, 6.438938e-003
1.280502e+003, 6.274994e-003
1.282430e+003, 6.120378e-003
1.284359e+003, 6.385072e-003
1.286287e+003, 6.452505e-003
1.288216e+003, 6.357388e-003
1.290144e+003, 6.386876e-003
1.292073e+003, 6.272362e-003
1.294001e+003, 6.295598e-003
1.295930e+003, 6.472616e-003
1.297858e+003, 6.501444e-003
1.299787e+003, 6.340034e-003
1.301715e+003, 6.462526e-003
1.303644e+003, 6.398608e-003
1.305572e+003, 6.054850e-003
1.307500e+003, 5.929099e-003
1.309429e+003, 6.152174e-003
1.311357e+003, 6.471758e-003
1.313286e+003, 6.311665e-003
1.315214e+003, 5.839573e-003
1.317143e+003, 5.835028e-003
1.319071e+003, 6.119732e-003
1.321000e+003, 6.307365e-003
1.322928e+003, 6.147302e-003
1.324857e+003, 5.975196e-003
1.326785e+003, 6.102799e-003
1.328714e+003, 6.385829e-003
1.330642e+003, 6.250414e-003
1.332571e+003, 5.993264e-003
1.334499e+003, 6.015517e-003
1.336427e+003, 6.054480e-003
1.338356e+003, 6.217282e-003
1.340284e+003, 6.294410e-003
1.342213e+003, 6.375062e-003
1.344141e+003, 6.398595e-003
1.346070e+003, 6.321382e-003
1.347998e+003, 6.170781e-003
1.349927e+003, 6.170967e-003
1.351855e+003, 6.311331e-003
1.353784e+003, 6.328685e-003
1.355712e+003, 6.336054e-003
1.357641e+003, 6.412945e-003
1.359569e+003, 6.362910e-003
1.361498e+003, 6.456214e-003
1.363426e+003, 6.487276e-003
1.365354e+003, 6.227972e-003
1.367283e+003, 6.121348e-003
1.369211e+003, 6.306932e-003
1.371140e+003, 6.644245e-003
1.373068e+003, 7.035459e-003
1.374997e+003, 7.464680e-003
1.376925e+003, 7.507334e-003
1.378854e+003, 7.065376e-003
1.380782e+003, 6.811445e-003
1.382711e+003, 6.727126e-003
1.384639e+003, 6.573408e-003
1.386568e+003, 6.518240e-003
1.388496e+003, 6.602588e-003
1.390424e+003, 6.605785e-003
1.392353e+003, 6.510412e-003
1.394281e+003, 6.747532e-003
1.396210e+003, 7.031427e-003
1.398138e+003, 7.007200e-003
1.400067e+003, 7.087992e-003
1.401995e+003, 7.144148e-003
1.403924e+003, 6.977440e-003
1.405852e+003, 7.117187e-003
1.407781e+003, 7.521689e-003
1.409709e+003, 7.720333e-003
1.411638e+003, 7.539727e-003
1.413566e+003, 7.381683e-003
1.415495e+003, 7.543235e-003
1.417423e+003, 7.821742e-003
1.419351e+003, 7.593559e-003
1.421280e+003, 7.564352e-003
1.423208e+003, 7.325819e-003
1.425137e+003, 7.165920e-003
1.427065e+003, 7.324906e-003
1.428994e+003, 7.336101e-003
1.430922e+003, 7.164640e-003
1.432851e+003, 7.044929e-003
1.434779e+003, 7.151161e-003
1.436708e+003, 7.246563e-003
1.438636e+003, 7.207361e-003
1.440565e+003, 7.125014e-003
1.442493e+003, 7.057244e-003
1.444422e+003, 7.064985e-003
1.446350e+003, 7.227240e-003
1.448278e+003, 7.396257e-003
1.450207e+003, 7.245763e-003
1.452135e+003, 7.207585e-003
1.454064e+003, 7.433385e-003
1.455992e+003, 7.495630e-003
1.457921e+003, 7.443165e-003
1.459849e+003, 7.163158e-003
1.461778e+003, 7.087642e-003
1.463706e+003, 7.068942e-003
1.465635e+003, 6.949160e-003
1.467563e+003, 6.458457e-003
1.469492e+003, 6.060083e-003
1.471420e+003, 5.764431e-003
1.473349e+003, 5.693784e-003
1.475277e+003, 5.620602e-003
1.477205e+003, 5.657038e-003
1.479134e+003, 5.564545e-003
1.481062e+003, 5.465527e-003
1.482991e+003, 5.332883e-003
1.484919e+003, 5.220247e-003
1.486848e+003, 5.032150e-003
1.488776e+003, 5.110412e-003
1.490705e+003, 5.250170e-003
1.492633e+003, 4.999691e-003
1.494562e+003, 5.096729e-003
1.496490e+003, 5.198674e-003
1.498419e+003, 5.141695e-003
1.500347e+003, 5.204786e-003
1.502276e+003, 5.438414e-003
1.504204e+003, 5.609417e-003
1.506132e+003, 5.618202e-003
1.508061e+003, 5.664753e-003
1.509989e+003, 5.546966e-003
1.511918e+003, 5.639107e-003
1.513846e+003, 5.809708e-003
1.515775e+003, 5.854039e-003
1.517703e+003, 6.066579e-003
1.519632e+003, 5.900633e-003
1.521560e+003, 6.137382e-003
1.523489e+003, 6.324860e-003
1.525417e+003, 6.354618e-003
1.527346e+003, 6.555868e-003
1.529274e+003, 6.481332e-003
1.531203e+003, 6.371898e-003
1.533131e+003, 6.773577e-003
1.535059e+003, 7.032904e-003
1.536988e+003, 7.044875e-003
1.538916e+003, 7.414620e-003
1.540845e+003, 7.710729e-003
1.542773e+003, 7.849880e-003
1.544702e+003, 7.969451e-003
1.546630e+003, 8.331873e-003
1.548559e+003, 8.612630e-003
1.550487e+003, 8.812041e-003
1.552416e+003, 8.736547e-003
1.554344e+003, 8.828674e-003
1.556273e+003, 9.097368e-003
1.558201e+003, 9.135736e-003
1.560130e+003, 9.182140e-003
1.562058e+003, 9.383171e-003
1.563986e+003, 9.477486e-003
1.565915e+003, 9.273474e-003
1.567843e+003, 9.069961e-003
1.569772e+003, 9.248219e-003
1.571700e+003, 9.255807e-003
1.573629e+003, 9.222429e-003
1.575557e+003, 9.218482e-003
1.577486e+003, 9.210622e-003
1.579414e+003, 8.629302e-003
1.581343e+003, 8.272646e-003
1.583271e+003, 8.365986e-003
1.585200e+003, 8.663062e-003
1.587128e+003, 8.589293e-003
1.589057e+003, 8.131171e-003
1.590985e+003, 8.022366e-003
1.592913e+003, 7.978827e-003
1.594842e+003, 7.954624e-003
1.596770e+003, 8.200615e-003
1.598699e+003, 8.287768e-003
1.600627e+003, 8.081668e-003
1.602556e+003, 8.087835e-003
1.604484e+003, 7.959076e-003
1.606413e+003, 7.707073e-003
1.608341e+003, 7.845366e-003
1.610270e+003, 7.985939e-003
1.612198e+003, 7.815098e-003
1.614127e+003, 7.888209e-003
1.616055e+003, 7.802867e-003
1.617984e+003, 7.950114e-003
1.619912e+003, 8.015693e-003
1.621840e+003, 8.197493e-003
1.623769e+003, 8.221483e-003
1.625697e+003, 8.110486e-003
1.627626e+003, 8.082850e-003
1.629554e+003, 8.254210e-003
1.631483e+003, 8.373106e-003
1.633411e+003, 8.565864e-003
1.635340e+003, 8.860266e-003
1.637268e+003, 8.933673e-003
1.639197e+003, 8.870648e-003
1.641125e+003, 8.881837e-003
1.643054e+003, 8.793005e-003
1.644982e+003, 8.808649e-003
1.646911e+003, 8.780858e-003
1.648839e+003, 8.752831e-003
1.650767e+003, 8.812261e-003
1.652696e+003, 8.838019e-003
1.654624e+003, 8.968816e-003
1.656553e+003, 8.964495e-003
1.658481e+003, 8.966893e-003
1.660410e+003, 8.978515e-003
1.662338e+003, 8.383770e-003
1.664267e+003, 7.959316e-003
1.666195e+003, 8.201107e-003
1.668124e+003, 8.368324e-003
1.670052e+003, 8.237945e-003
1.671981e+003, 8.254490e-003
1.673909e+003, 8.187429e-003
1.675838e+003, 8.302538e-003
1.677766e+003, 8.122969e-003
1.679694e+003, 7.945673e-003
1.681623e+003, 8.110767e-003
1.683551e+003, 8.193787e-003
1.685480e+003, 8.274183e-003
1.687408e+003, 7.996533e-003
1.689337e+003, 7.956713e-003
1.691265e+003, 7.875677e-003
1.693194e+003, 7.680623e-003
1.695122e+003, 7.887025e-003
1.697051e+003, 8.114608e-003
1.698979e+003, 7.724687e-003
1.700908e+003, 8.010150e-003
1.702836e+003, 8.030226e-003
1.704765e+003, 7.997017e-003
1.706693e+003, 7.525938e-003
1.708621e+003, 7.331491e-003
1.710550e+003, 7.562569e-003
1.712478e+003, 8.314917e-003
1.714407e+003, 8.823644e-003
1.716335e+003, 8.945740e-003
1.718264e+003, 8.959346e-003
1.720192e+003, 8.892069e-003
1.722121e+003, 8.998681e-003
1.724049e+003, 9.128199e-003
1.725978e+003, 9.295790e-003
1.727906e+003, 9.647427e-003
1.729835e+003, 9.465993e-003
1.731763e+003, 9.343578e-003
1.733692e+003, 9.642027e-003
1.735620e+003, 9.770425e-003
1.737548e+003, 9.471090e-003
1.739477e+003, 9.682668e-003
1.741405e+003, 9.750560e-003
1.743334e+003, 9.489927e-003
1.745262e+003, 9.429495e-003
1.747191e+003, 9.186937e-003
1.749119e+003, 8.902208e-003
1.751048e+003, 8.435764e-003
1.752976e+003, 8.240384e-003
1.754905e+003, 8.003041e-003
1.756833e+003, 7.856718e-003
1.758762e+003, 7.918647e-003
1.760690e+003, 7.528345e-003
1.762619e+003, 7.507875e-003
1.764547e+003, 7.261348e-003
1.766475e+003, 7.230717e-003
1.768404e+003, 7.241253e-003
1.770332e+003, 6.961771e-003
1.772261e+003, 7.145211e-003
1.774189e+003, 6.896947e-003
1.776118e+003, 6.830245e-003
1.778046e+003, 7.021549e-003
1.779975e+003, 6.952187e-003
1.781903e+003, 6.911152e-003
1.783832e+003, 6.939062e-003
1.785760e+003, 7.036339e-003
1.787689e+003, 7.295543e-003
1.789617e+003, 7.433376e-003
1.791546e+003, 7.011375e-003
1.793474e+003, 6.908732e-003
1.795402e+003, 6.966689e-003
1.797331e+003, 6.859435e-003
1.799259e+003, 6.786800e-003
1.801188e+003, 6.695553e-003
1.803116e+003, 6.474084e-003
1.805045e+003, 6.566232e-003
1.806973e+003, 6.950214e-003
1.808902e+003, 7.411713e-003
1.810830e+003, 7.300600e-003
1.812759e+003, 6.629054e-003
1.814687e+003, 6.607549e-003
1.816616e+003, 6.571964e-003
1.818544e+003, 6.317641e-003
1.820473e+003, 6.427666e-003
1.822401e+003, 6.464377e-003
1.824329e+003, 6.061430e-003
1.826258e+003, 6.013189e-003
1.828186e+003, 6.097577e-003
1.830115e+003, 6.077049e-003
1.832043e+003, 5.964661e-003
1.833972e+003, 5.598072e-003
1.835900e+003, 5.892967e-003
1.837829e+003, 6.648663e-003
1.839757e+003, 6.520218e-003
1.841686e+003, 6.027789e-003
1.843614e+003, 6.247535e-003
1.845543e+003, 6.163210e-003
1.847471e+003, 5.819897e-003
1.849400e+003, 5.977013e-003
1.851328e+003, 6.064608e-003
1.853256e+003, 6.032558e-003
1.855185e+003, 5.962058e-003
1.857113e+003, 5.886041e-003
1.859042e+003, 5.904607e-003
1.860970e+003, 5.546925e-003
1.862899e+003, 5.423613e-003
1.864827e+003, 5.604468e-003
1.866756e+003, 5.368418e-003
1.868684e+003, 5.270283e-003
1.870613e+003, 5.342888e-003
1.872541e+003, 5.294909e-003
1.874470e+003, 5.174433e-003
1.876398e+003, 5.191547e-003
1.878327e+003, 5.171187e-003
1.880255e+003, 5.112302e-003
1.882183e+003, 5.050186e-003
1.884112e+003, 5.112572e-003
1.886040e+003, 5.054521e-003
1.887969e+003, 4.844377e-003
1.889897e+003, 4.489663e-003
1.891826e+003, 4.576357e-003
1.893754e+003, 4.522343e-003
1.895683e+003, 4.257098e-003
1.897611e+003, 4.548026e-003
1.899540e+003, 4.823072e-003
1.901468e+003, 4.259940e-003
1.903397e+003, 3.645171e-003
1.905325e+003, 3.149115e-003
1.907254e+003, 2.807803e-003
1.909182e+003, 3.523576e-003
1.911110e+003, 3.693748e-003
1.913039e+003, 2.825815e-003
1.914967e+003, 1.612627e-003
1.916896e+003, 1.485113e-003
1.918824e+003, 2.948006e-003
1.920753e+003, 3.661822e-003
1.922681e+003, 3.423667e-003
1.924610e+003, 3.002840e-003
1.926538e+003, 2.920516e-003
1.928467e+003, 3.282564e-003
1.930395e+003, 2.743424e-003
1.932324e+003, 1.848150e-003
1.934252e+003, 1.317189e-003
1.936181e+003, 1.321094e-003
1.938109e+003, 1.769507e-003
1.940037e+003, 1.794699e-003
1.941966e+003, 1.294454e-003
1.943894e+003, 1.081948e-003
1.945823e+003, 1.245402e-003
1.947751e+003, 1.306008e-003
1.949680e+003, 2.440786e-004
1.951608e+003, -7.962686e-004
1.953537e+003, -8.333717e-004
1.955465e+003, -1.158352e-003
1.957394e+003, -2.343894e-003
1.959322e+003, -2.141218e-003
1.961251e+003, -1.085444e-003
1.963179e+003, -1.381084e-003
1.965108e+003, -3.599813e-003
1.967036e+003, -3.562211e-003
1.968964e+003, -2.800514e-003
1.970893e+003, -3.025091e-003
1.972821e+003, -4.328913e-003
1.974750e+003, -2.845028e-003
1.976678e+003, -9.923961e-004
1.978607e+003, -1.997143e-003
1.980535e+003, -2.897691e-003
1.982464e+003, -2.261227e-003
1.984392e+003, -2.623486e-004
1.986321e+003, 1.020707e-003
1.988249e+003, 2.529583e-003
1.990178e+003, 9.929904e-004
1.992106e+003, -7.703041e-004
1.994035e+003, -4.282525e-004
1.995963e+003, -4.456611e-004
1.997891e+003, -1.716279e-003
1.999820e+003, -2.553672e-003
2.001748e+003, -2.268441e-003
2.003677e+003, -2.154910e-003
2.005605e+003, -1.865207e-003
2.007534e+003, -2.280300e-003
2.009462e+003, -3.500614e-003
2.011391e+003, -3.515491e-003
2.013319e+003, -3.196453e-003
2.015248e+003, -1.770569e-003
2.017176e+003, -1.259148e-003
2.019105e+003, -2.480769e-003
2.021033e+003, -1.006886e-003
2.022962e+003, -4.138612e-004
2.024890e+003, -1.711439e-003
2.026818e+003, -3.422363e-003
2.028747e+003, -3.334052e-003
2.030675e+003, -2.204594e-003
2.032604e+003, -2.061918e-003
2.034532e+003, -1.955986e-003
2.036461e+003, -1.419383e-003
2.038389e+003, -1.351247e-003
2.040318e+003, 3.690952e-004
2.042246e+003, 1.992740e-004
2.044175e+003, 4.085864e-004
2.046103e+003, 6.302291e-004
2.048032e+003, 5.863327e-004
2.049960e+003, 1.282275e-003
2.051889e+003, 1.870464e-004
2.053817e+003, -8.707289e-004
2.055746e+003, 1.783158e-004
2.057674e+003, 1.335431e-003
2.059603e+003, 1.085753e-003
2.061531e+003, 3.858356e-004
2.063459e+003, 9.436222e-004
2.065388e+003, 2.801736e-003
2.067316e+003, 3.752676e-003
2.069245e+003, 3.136860e-003
2.071173e+003, 1.790585e-003
2.073102e+003, 1.659262e-003
2.075030e+003, 1.891263e-003
2.076959e+003, 3.046664e-003
2.078887e+003, 3.726742e-003
2.080816e+003, 3.321920e-003
2.082744e+003, 3.062817e-003
2.084673e+003, 2.684149e-003
2.086601e+003, 2.616729e-003
2.088530e+003, 3.757624e-003
2.090458e+003, 4.631819e-003
2.092386e+003, 4.528444e-003
2.094315e+003, 4.239970e-003
2.096243e+003, 4.262312e-003
2.098172e+003, 3.867120e-003
2.100100e+003, 3.761516e-003
2.102029e+003, 4.558793e-003
2.103957e+003, 5.172239e-003
2.105886e+003, 5.826186e-003
2.107814e+003, 5.503994e-003
2.109743e+003, 4.123178e-003
2.111671e+003, 5.001685e-003
2.113600e+003, 6.104324e-003
2.115528e+003, 5.983877e-003
2.117457e+003, 5.171512e-003
2.119385e+003, 4.613488e-003
2.121313e+003, 3.767573e-003
2.123242e+003, 3.645990e-003
2.125170e+003, 4.222443e-003
2.127099e+003, 3.954780e-003
2.129027e+003, 3.534093e-003
2.130956e+003, 3.587153e-003
2.132884e+003, 3.087653e-003
2.134813e+003, 3.271881e-003
2.136741e+003, 2.387262e-003
2.138670e+003, 1.367380e-003
2.140598e+003, 1.875669e-004
2.142527e+003, -7.091233e-004
2.144455e+003, -2.043992e-003
2.146384e+003, -6.421235e-004
2.148312e+003, 1.648972e-003
2.150240e+003, 1.824427e-003
2.152169e+003, 1.570652e-003
2.154097e+003, -6.966841e-004
2.156026e+003, -2.830537e-003
2.157954e+003, -1.838971e-003
2.159883e+003, 2.337560e-004
2.161811e+003, 5.621961e-004
2.163740e+003, -8.804493e-004
2.165668e+003, 6.982970e-004
2.167597e+003, 1.942190e-003
2.169525e+003, 2.393281e-003
2.171454e+003, 2.462456e-003
2.173382e+003, 3.912085e-004
2.175311e+003, 8.302798e-004
2.177239e+003, 3.213173e-003
2.179167e+003, 4.759580e-003
2.181096e+003, 4.127394e-003
2.183024e+003, 5.372938e-003
2.184953e+003, 6.855721e-003
2.186881e+003, 4.188110e-003
2.188810e+003, 3.461771e-003
2.190738e+003, 5.783016e-003
2.192667e+003, 4.851198e-003
2.194595e+003, 5.170522e-003
2.196524e+003, 7.048671e-003
2.198452e+003, 6.698128e-003
2.200381e+003, 7.125054e-003
2.202309e+003, 6.794537e-003
2.204238e+003, 5.714167e-003
2.206166e+003, 6.954665e-003
2.208094e+003, 6.480270e-003
2.210023e+003, 4.894816e-003
2.211951e+003, 6.515716e-003
2.213880e+003, 7.717567e-003
2.215808e+003, 7.886114e-003
2.217737e+003, 6.713125e-003
2.219665e+003, 6.785830e-003
2.221594e+003, 6.736192e-003
2.223522e+003, 6.531250e-003
2.225451e+003, 6.946275e-003
2.227379e+003, 7.559167e-003
2.229308e+003, 8.620736e-003
2.231236e+003, 8.442976e-003
2.233165e+003, 7.454473e-003
2.235093e+003, 6.335661e-003
2.237021e+003, 7.269973e-003
2.238950e+003, 8.274468e-003
2.240878e+003, 7.883707e-003
2.242807e+003, 7.735640e-003
2.244735e+003, 7.286890e-003
2.246664e+003, 6.796040e-003
2.248592e+003, 7.296640e-003
2.250521e+003, 8.427732e-003
2.252449e+003, 8.889398e-003
2.254378e+003, 9.139324e-003
2.256306e+003, 9.404875e-003
2.258235e+003, 9.237740e-003
2.260163e+003, 8.889184e-003
2.262092e+003, 8.904035e-003
2.264020e+003, 9.907860e-003
2.265948e+003, 1.023054e-002
2.267877e+003, 1.001983e-002
2.269805e+003, 9.219222e-003
2.271734e+003, 9.486900e-003
2.273662e+003, 1.029935e-002
2.275591e+003, 1.025555e-002
2.277519e+003, 9.884096e-003
2.279448e+003, 9.686746e-003
2.281376e+003, 9.581213e-003
2.283305e+003, 1.074024e-002
2.285233e+003, 1.140279e-002
2.287162e+003, 1.110420e-002
2.289090e+003, 1.126085e-002
2.291019e+003, 1.119481e-002
2.292947e+003, 1.104931e-002
2.294875e+003, 1.184084e-002
2.296804e+003, 1.144497e-002
2.298732e+003, 1.105812e-002
2.300661e+003, 1.120089e-002
2.302589e+003, 1.092160e-002
2.304518e+003, 1.034185e-002
2.306446e+003, 1.031891e-002
2.308375e+003, 1.050572e-002
2.310303e+003, 1.074651e-002
2.312232e+003, 1.093634e-002
2.314160e+003, 1.083641e-002
2.316089e+003, 1.120044e-002
2.318017e+003, 1.201034e-002
2.319946e+003, 1.210023e-002
2.321874e+003, 1.223451e-002
2.323802e+003, 1.253457e-002
2.325731e+003, 1.178696e-002
2.327659e+003, 1.116665e-002
2.329588e+003, 1.138699e-002
2.331516e+003, 1.159437e-002
2.333445e+003, 1.120955e-002
2.335373e+003, 1.093569e-002
2.337302e+003, 1.120960e-002
2.339230e+003, 1.115649e-002
2.341159e+003, 1.130367e-002
2.343087e+003, 1.083211e-002
2.345016e+003, 1.061093e-002
2.346944e+003, 1.092653e-002
2.348873e+003, 1.120732e-002
2.350801e+003, 1.112273e-002
2.352729e+003, 1.118092e-002
2.354658e+003, 1.124833e-002
2.356586e+003, 1.092987e-002
2.358515e+003, 1.066151e-002
2.360443e+003, 1.044087e-002
2.362372e+003, 1.035415e-002
2.364300e+003, 1.104928e-002
2.366229e+003, 1.099722e-002
2.368157e+003, 1.067852e-002
2.370086e+003, 1.061688e-002
2.372014e+003, 1.039075e-002
2.373942e+003, 1.036891e-002
2.375871e+003, 1.063424e-002
2.377799e+003, 1.070812e-002
2.379728e+003, 1.075360e-002
2.381656e+003, 1.021828e-002
2.383585e+003, 1.008568e-002
2.385513e+003, 1.072787e-002
2.387442e+003, 1.113535e-002
2.389370e+003, 1.040579e-002
2.391299e+003, 9.516471e-003
2.393227e+003, 1.003047e-002
2.395156e+003, 1.068872e-002
2.397084e+003, 1.035175e-002
2.399012e+003, 9.985412e-003
2.400941e+003, 9.642616e-003
2.402869e+003, 1.029261e-002
2.404798e+003, 1.041786e-002
2.406726e+003, 9.826337e-003
2.408655e+003, 1.027228e-002
2.410583e+003, 1.066211e-002
2.412512e+003, 1.140172e-002
2.414440e+003, 1.142613e-002
2.416369e+003, 1.074301e-002
2.418297e+003, 1.107375e-002
2.420226e+003, 1.144230e-002
2.422154e+003, 1.122650e-002
2.424083e+003, 1.139485e-002
2.426011e+003, 1.189518e-002
2.427939e+003, 1.185733e-002
2.429868e+003, 1.140864e-002
2.431796e+003, 1.143561e-002
2.433725e+003, 1.178235e-002
2.435653e+003, 1.212654e-002
2.437582e+003, 1.158948e-002
2.439510e+003, 1.160839e-002
2.441439e+003, 1.204615e-002
2.443367e+003, 1.131008e-002
2.445296e+003, 1.089779e-002
2.447224e+003, 1.120039e-002
2.449153e+003, 1.113576e-002
2.451081e+003, 1.057684e-002
2.453010e+003, 1.045802e-002
2.454938e+003, 1.031449e-002
2.456866e+003, 1.041877e-002
2.458795e+003, 1.185239e-002
2.460723e+003, 1.165073e-002
2.462652e+003, 1.194708e-002
2.464580e+003, 1.241863e-002
2.466509e+003, 1.214369e-002
2.468437e+003, 1.212973e-002
2.470366e+003, 1.190616e-002
2.472294e+003, 1.103319e-002
2.474223e+003, 1.098120e-002
2.476151e+003, 1.144100e-002
2.478080e+003, 1.173268e-002
2.480008e+003, 1.189359e-002
2.481937e+003, 1.229593e-002
2.483865e+003, 1.251889e-002
2.485793e+003, 1.200028e-002
2.487722e+003, 1.188499e-002
2.489650e+003, 1.218731e-002
2.491579e+003, 1.190464e-002
2.493507e+003, 1.184096e-002
2.495436e+003, 1.237563e-002
2.497364e+003, 1.206934e-002
2.499293e+003, 1.084552e-002
2.501221e+003, 1.104871e-002
2.503150e+003, 1.248581e-002
2.505078e+003, 1.244719e-002
2.507007e+003, 1.130919e-002
2.508935e+003, 1.096325e-002
2.510864e+003, 1.091056e-002
2.512792e+003, 1.111605e-002
2.514720e+003, 1.118129e-002
2.516649e+003, 1.144450e-002
2.518577e+003, 1.194705e-002
2.520506e+003, 1.228691e-002
2.522434e+003, 1.197924e-002
2.524363e+003, 1.130612e-002
2.526291e+003, 1.146407e-002
2.528220e+003, 1.176487e-002
2.530148e+003, 1.195852e-002
2.532077e+003, 1.227125e-002
2.534005e+003, 1.286740e-002
2.535934e+003, 1.231035e-002
2.537862e+003, 1.253933e-002
2.539791e+003, 1.262654e-002
2.541719e+003, 1.196040e-002
2.543647e+003, 1.167169e-002
2.545576e+003, 1.220715e-002
2.547504e+003, 1.312870e-002
2.549433e+003, 1.238022e-002
2.551361e+003, 1.166487e-002
2.553290e+003, 1.246166e-002
2.555218e+003, 1.285638e-002
2.557147e+003, 1.287698e-002
2.559075e+003, 1.344458e-002
2.561004e+003, 1.372685e-002
2.562932e+003, 1.325125e-002
2.564861e+003, 1.302398e-002
2.566789e+003, 1.282582e-002
2.568718e+003, 1.303516e-002
2.570646e+003, 1.370849e-002
2.572574e+003, 1.398512e-002
2.574503e+003, 1.385157e-002
2.576431e+003, 1.321150e-002
2.578360e+003, 1.326097e-002
2.580288e+003, 1.417401e-002
2.582217e+003, 1.497599e-002
2.584145e+003, 1.451764e-002
2.586074e+003, 1.327232e-002
2.588002e+003, 1.319605e-002
2.589931e+003, 1.450246e-002
2.591859e+003, 1.459322e-002
2.593788e+003, 1.308234e-002
2.595716e+003, 1.309527e-002
2.597645e+003, 1.451808e-002
2.599573e+003, 1.467246e-002
2.601501e+003, 1.450826e-002
2.603430e+003, 1.443023e-002
2.605358e+003, 1.438217e-002
2.607287e+003, 1.382697e-002
2.609215e+003, 1.389159e-002
2.611144e+003, 1.432709e-002
2.613072e+003, 1.447292e-002
2.615001e+003, 1.403231e-002
2.616929e+003, 1.345330e-002
2.618858e+003, 1.276369e-002
2.620786e+003, 1.264004e-002
2.622715e+003, 1.370276e-002
2.624643e+003, 1.453127e-002
2.626572e+003, 1.420538e-002
2.628500e+003, 1.399207e-002
2.630428e+003, 1.422304e-002
2.632357e+003, 1.496301e-002
2.634285e+003, 1.460902e-002
2.636214e+003, 1.450621e-002
2.638142e+003, 1.475216e-002
2.640071e+003, 1.433322e-002
2.641999e+003, 1.424056e-002
2.643928e+003, 1.465077e-002
2.645856e+003, 1.482010e-002
2.647785e+003, 1.459341e-002
2.649713e+003, 1.416985e-002
2.651642e+003, 1.379145e-002
2.653570e+003, 1.341571e-002
2.655499e+003, 1.370324e-002
2.657427e+003, 1.425497e-002
2.659355e+003, 1.445245e-002
2.661284e+003, 1.435075e-002
2.663212e+003, 1.407494e-002
2.665141e+003, 1.370774e-002
2.667069e+003, 1.349348e-002
2.668998e+003, 1.365413e-002
2.670926e+003, 1.389725e-002
2.672855e+003, 1.371940e-002
2.674783e+003, 1.400205e-002
2.676712e+003, 1.426107e-002
2.678640e+003, 1.425875e-002
2.680569e+003, 1.427486e-002
2.682497e+003, 1.415821e-002
2.684426e+003, 1.445166e-002
2.686354e+003, 1.513624e-002
2.688282e+003, 1.493575e-002
2.690211e+003, 1.420681e-002
2.692139e+003, 1.335051e-002
2.694068e+003, 1.314033e-002
2.695996e+003, 1.330067e-002
2.697925e+003, 1.379882e-002
2.699853e+003, 1.424932e-002
2.701782e+003, 1.378294e-002
2.703710e+003, 1.403702e-002
2.705639e+003, 1.407841e-002
2.707567e+003, 1.355475e-002
2.709496e+003, 1.406111e-002
2.711424e+003, 1.501094e-002
2.713353e+003, 1.494536e-002
2.715281e+003, 1.442668e-002
2.717209e+003, 1.468408e-002
2.719138e+003, 1.461308e-002
2.721066e+003, 1.434063e-002
2.722995e+003, 1.481515e-002
2.724923e+003, 1.496285e-002
2.726852e+003, 1.428552e-002
2.728780e+003, 1.419190e-002
2.730709e+003, 1.474949e-002
2.732637e+003, 1.451755e-002
2.734566e+003, 1.477769e-002
2.736494e+003, 1.536494e-002
2.738423e+003, 1.501742e-002
2.740351e+003, 1.522793e-002
2.742280e+003, 1.576863e-002
2.744208e+003, 1.585759e-002
2.746136e+003, 1.574404e-002
2.748065e+003, 1.556579e-002
2.749993e+003, 1.494287e-002
2.751922e+003, 1.471904e-002
2.753850e+003, 1.499085e-002
2.755779e+003, 1.509502e-002
2.757707e+003, 1.524070e-002
2.759636e+003, 1.535825e-002
2.761564e+003, 1.596977e-002
2.763493e+003, 1.553308e-002
2.765421e+003, 1.493672e-002
2.767350e+003, 1.532165e-002
2.769278e+003, 1.517322e-002
2.771207e+003, 1.541624e-002
2.773135e+003, 1.593522e-002
2.775063e+003, 1.592279e-002
2.776992e+003, 1.549150e-002
2.778920e+003, 1.537527e-002
2.780849e+003, 1.522524e-002
2.782777e+003, 1.567202e-002
2.784706e+003, 1.563249e-002
2.786634e+003, 1.574399e-002
2.788563e+003, 1.606841e-002
2.790491e+003, 1.579598e-002
2.792420e+003, 1.555072e-002
2.794348e+003, 1.564741e-002
2.796277e+003, 1.583436e-002
2.798205e+003, 1.500850e-002
2.800134e+003, 1.465277e-002
2.802062e+003, 1.533283e-002
2.803990e+003, 1.576943e-002
2.805919e+003, 1.567712e-002
2.807847e+003, 1.600820e-002
2.809776e+003, 1.619650e-002
2.811704e+003, 1.571183e-002
2.813633e+003, 1.581549e-002
2.815561e+003, 1.614436e-002
2.817490e+003, 1.624161e-002
2.819418e+003, 1.660276e-002
2.821347e+003, 1.679442e-002
2.823275e+003, 1.642631e-002
2.825204e+003, 1.601841e-002
2.827132e+003, 1.551159e-002
2.829061e+003, 1.578364e-002
2.830989e+003, 1.625974e-002
2.832917e+003, 1.636766e-002
2.834846e+003, 1.696075e-002
2.836774e+003, 1.724112e-002
2.838703e+003, 1.659358e-002
2.840631e+003, 1.641802e-002
2.842560e+003, 1.642551e-002
2.844488e+003, 1.640099e-002
2.846417e+003, 1.698756e-002
2.848345e+003, 1.652270e-002
2.850274e+003, 1.502351e-002
2.852202e+003, 1.397736e-002
2.854131e+003, 1.502394e-002
2.856059e+003, 1.682301e-002
2.857988e+003, 1.752655e-002
2.859916e+003, 1.775599e-002
2.861844e+003, 1.764125e-002
2.863773e+003, 1.784103e-002
2.865701e+003, 1.762235e-002
2.867630e+003, 1.777154e-002
2.869558e+003, 1.753696e-002
2.871487e+003, 1.704580e-002
2.873415e+003, 1.684765e-002
2.875344e+003, 1.686163e-002
2.877272e+003, 1.736282e-002
2.879201e+003, 1.766383e-002
2.881129e+003, 1.764823e-002
2.883058e+003, 1.786369e-002
2.884986e+003, 1.739101e-002
2.886915e+003, 1.751872e-002
2.888843e+003, 1.794910e-002
2.890771e+003, 1.716957e-002
2.892700e+003, 1.662705e-002
2.894628e+003, 1.652855e-002
2.896557e+003, 1.631518e-002
2.898485e+003, 1.702690e-002
2.900414e+003, 1.870949e-002
2.902342e+003, 1.923922e-002
2.904271e+003, 1.886468e-002
2.906199e+003, 1.870468e-002
2.908128e+003, 1.823902e-002
2.910056e+003, 1.842133e-002
2.911985e+003, 1.818949e-002
2.913913e+003, 1.797274e-002
2.915842e+003, 1.833464e-002
2.917770e+003, 1.737242e-002
2.919698e+003, 1.654158e-002
2.921627e+003, 1.673176e-002
2.923555e+003, 1.588132e-002
2.925484e+003, 1.621724e-002
2.927412e+003, 1.742991e-002
2.929341e+003, 1.820910e-002
2.931269e+003, 1.752769e-002
2.933198e+003, 1.818030e-002
2.935126e+003, 1.870669e-002
2.937055e+003, 1.831662e-002
2.938983e+003, 1.819352e-002
2.940912e+003, 1.866628e-002
2.942840e+003, 1.913157e-002
2.944769e+003, 1.938630e-002
2.946697e+003, 1.979847e-002
2.948625e+003, 2.057227e-002
2.950554e+003, 2.105503e-002
2.952482e+003, 2.142630e-002
2.954411e+003, 2.127364e-002
2.956339e+003, 2.025374e-002
2.958268e+003, 2.001631e-002
2.960196e+003, 2.088441e-002
2.962125e+003, 2.024443e-002
2.964053e+003, 1.962317e-002
2.965982e+003, 2.000144e-002
2.967910e+003, 2.054129e-002
2.969839e+003, 2.000134e-002
2.971767e+003, 1.865069e-002
2.973696e+003, 1.844851e-002
2.975624e+003, 1.812195e-002
2.977552e+003, 1.750575e-002
2.979481e+003, 1.726808e-002
2.981409e+003, 1.805532e-002
2.983338e+003, 1.822469e-002
2.985266e+003, 1.861306e-002
2.987195e+003, 1.919484e-002
2.989123e+003, 1.888050e-002
2.991052e+003, 1.882033e-002
2.992980e+003, 1.853159e-002
2.994909e+003, 1.836675e-002
2.996837e+003, 1.825058e-002
2.998766e+003, 1.917065e-002
3.000694e+003, 1.881143e-002
3.002623e+003, 1.862521e-002
3.004551e+003, 1.908075e-002
3.006479e+003, 1.889054e-002
3.008408e+003, 1.805914e-002
3.010336e+003, 1.819613e-002
3.012265e+003, 1.906104e-002
3.014193e+003, 1.888868e-002
3.016122e+003, 1.903860e-002
3.018050e+003, 1.949434e-002
3.019979e+003, 1.958164e-002
3.021907e+003, 2.052121e-002
3.023836e+003, 2.107369e-002
3.025764e+003, 2.062242e-002
3.027693e+003, 2.004277e-002
3.029621e+003, 1.933150e-002
3.031550e+003, 1.945348e-002
3.033478e+003, 2.045907e-002
3.035406e+003, 2.050506e-002
3.037335e+003, 2.015268e-002
3.039263e+003, 2.010632e-002
3.041192e+003, 1.987153e-002
3.043120e+003, 1.962426e-002
3.045049e+003, 2.089724e-002
3.046977e+003, 2.190202e-002
3.048906e+003, 2.198192e-002
3.050834e+003, 2.240484e-002
3.052763e+003, 2.265047e-002
3.054691e+003, 2.176696e-002
3.056620e+003, 2.124218e-002
3.058548e+003, 2.074886e-002
3.060477e+003, 2.042490e-002
3.062405e+003, 2.078921e-002
3.064333e+003, 2.175512e-002
3.066262e+003, 2.230120e-002
3.068190e+003, 2.102954e-002
3.070119e+003, 2.020223e-002
3.072047e+003, 2.138689e-002
3.073976e+003, 2.142156e-002
3.075904e+003, 2.122962e-002
3.077833e+003, 2.099310e-002
3.079761e+003, 2.094892e-002
3.081690e+003, 2.261166e-002
3.083618e+003, 2.302451e-002
3.085547e+003, 2.272800e-002
3.087475e+003, 2.280072e-002
3.089404e+003, 2.205991e-002
3.091332e+003, 2.217681e-002
3.093260e+003, 2.181502e-002
3.095189e+003, 2.113795e-002
3.097117e+003, 2.182643e-002
3.099046e+003, 2.350627e-002
3.100974e+003, 2.355543e-002
3.102903e+003, 2.311449e-002
3.104831e+003, 2.264847e-002
3.106760e+003, 2.147700e-002
3.108688e+003, 2.250044e-002
3.110617e+003, 2.332316e-002
3.112545e+003, 2.427674e-002
3.114474e+003, 2.413898e-002
3.116402e+003, 2.347345e-002
3.118331e+003, 2.322532e-002
3.120259e+003, 2.246055e-002
3.122188e+003, 2.267413e-002
3.124116e+003, 2.326961e-002
3.126044e+003, 2.425033e-002
3.127973e+003, 2.541175e-002
3.129901e+003, 2.448769e-002
3.131830e+003, 2.377509e-002
3.133758e+003, 2.459100e-002
3.135687e+003, 2.474805e-002
3.137615e+003, 2.486939e-002
3.139544e+003, 2.483485e-002
3.141472e+003, 2.410538e-002
3.143401e+003, 2.399505e-002
3.145329e+003, 2.518093e-002
3.147258e+003, 2.505012e-002
3.149186e+003, 2.486844e-002
3.151115e+003, 2.515237e-002
3.153043e+003, 2.400600e-002
3.154971e+003, 2.367818e-002
3.156900e+003, 2.352938e-002
3.158828e+003, 2.394713e-002
3.160757e+003, 2.494433e-002
3.162685e+003, 2.504000e-002
3.164614e+003, 2.499313e-002
3.166542e+003, 2.475812e-002
3.168471e+003, 2.451089e-002
3.170399e+003, 2.380966e-002
3.172328e+003, 2.437221e-002
3.174256e+003, 2.519561e-002
3.176185e+003, 2.538477e-002
3.178113e+003, 2.626157e-002
3.180042e+003, 2.665431e-002
3.181970e+003, 2.533718e-002
3.183898e+003, 2.431025e-002
3.185827e+003, 2.445108e-002
3.187755e+003, 2.424862e-002
3.189684e+003, 2.441540e-002
3.191612e+003, 2.552055e-002
3.193541e+003, 2.555024e-002
3.195469e+003, 2.500013e-002
3.197398e+003, 2.567147e-002
3.199326e+003, 2.627827e-002
3.201255e+003, 2.714886e-002
3.203183e+003, 2.748468e-002
3.205112e+003, 2.674481e-002
3.207040e+003, 2.665771e-002
3.208969e+003, 2.622300e-002
3.210897e+003, 2.626957e-002
3.212825e+003, 2.609344e-002
3.214754e+003, 2.549413e-002
3.216682e+003, 2.627724e-002
3.218611e+003, 2.728625e-002
3.220539e+003, 2.615241e-002
3.222468e+003, 2.414904e-002
3.224396e+003, 2.483699e-002
3.226325e+003, 2.713716e-002
3.228253e+003, 2.690374e-002
3.230182e+003, 2.586720e-002
3.232110e+003, 2.556074e-002
3.234039e+003, 2.560600e-002
3.235967e+003, 2.623541e-002
3.237896e+003, 2.679910e-002
3.239824e+003, 2.681739e-002
3.241752e+003, 2.667804e-002
3.243681e+003, 2.687882e-002
3.245609e+003, 2.731241e-002
3.247538e+003, 2.698445e-002
3.249466e+003, 2.695378e-002
3.251395e+003, 2.750716e-002
3.253323e+003, 2.799596e-002
3.255252e+003, 2.838350e-002
3.257180e+003, 2.783723e-002
3.259109e+003, 2.764376e-002
3.261037e+003, 2.819179e-002
3.262966e+003, 2.810614e-002
3.264894e+003, 2.796637e-002
3.266823e+003, 2.811027e-002
3.268751e+003, 2.761277e-002
3.270679e+003, 2.795255e-002
3.272608e+003, 2.824933e-002
3.274536e+003, 2.758922e-002
3.276465e+003, 2.722192e-002
3.278393e+003, 2.765580e-002
3.280322e+003, 2.881199e-002
3.282250e+003, 2.826316e-002
3.284179e+003, 2.806997e-002
3.286107e+003, 2.816015e-002
3.288036e+003, 2.852198e-002
3.289964e+003, 2.786843e-002
3.291893e+003, 2.796706e-002
3.293821e+003, 2.899245e-002
3.295750e+003, 2.925610e-002
3.297678e+003, 2.917303e-002
3.299606e+003, 2.759565e-002
3.301535e+003, 2.782224e-002
3.303463e+003, 2.807019e-002
3.305392e+003, 2.840448e-002
3.307320e+003, 2.905549e-002
3.309249e+003, 2.948229e-002
3.311177e+003, 2.920141e-002
3.313106e+003, 2.687814e-002
3.315034e+003, 2.870749e-002
3.316963e+003, 3.149251e-002
3.318891e+003, 3.076151e-002
3.320820e+003, 3.026528e-002
3.322748e+003, 3.020732e-002
3.324677e+003, 2.966104e-002
3.326605e+003, 2.999596e-002
3.328533e+003, 2.962353e-002
3.330462e+003, 2.857423e-002
3.332390e+003, 2.833859e-002
3.334319e+003, 2.867054e-002
3.336247e+003, 2.952350e-002
3.338176e+003, 2.954067e-002
3.340104e+003, 2.997058e-002
3.342033e+003, 2.994643e-002
3.343961e+003, 2.949820e-002
3.345890e+003, 2.936239e-002
3.347818e+003, 3.011368e-002
3.349747e+003, 3.073071e-002
3.351675e+003, 3.008735e-002
3.353604e+003, 2.921562e-002
3.355532e+003, 3.032005e-002
3.357460e+003, 3.099964e-002
3.359389e+003, 3.108765e-002
3.361317e+003, 3.065961e-002
3.363246e+003, 3.034012e-002
3.365174e+003, 3.083509e-002
3.367103e+003, 3.178255e-002
3.369031e+003, 3.190381e-002
3.370960e+003, 3.100930e-002
3.372888e+003, 3.115086e-002
3.374817e+003, 3.049494e-002
3.376745e+003, 2.891631e-002
3.378674e+003, 2.968402e-002
3.380602e+003, 3.012788e-002
3.382531e+003, 3.016188e-002
3.384459e+003, 2.976035e-002
3.386387e+003, 3.025265e-002
3.388316e+003, 3.122585e-002
3.390244e+003, 3.008629e-002
3.392173e+003, 2.942204e-002
3.394101e+003, 2.949131e-002
3.396030e+003, 3.040712e-002
3.397958e+003, 3.084949e-002
3.399887e+003, 3.104812e-002
3.401815e+003, 3.128557e-002
3.403744e+003, 3.098629e-002
3.405672e+003, 3.056014e-002
3.407601e+003, 3.126159e-002
3.409529e+003, 3.192955e-002
3.411458e+003, 3.195733e-002
3.413386e+003, 3.023590e-002
3.415314e+003, 2.904833e-002
3.417243e+003, 3.116225e-002
3.419171e+003, 3.269296e-002
3.421100e+003, 3.217064e-002
3.423028e+003, 3.085112e-002
3.424957e+003, 2.980191e-002
3.426885e+003, 2.998942e-002
3.428814e+003, 3.103184e-002
3.430742e+003, 3.274339e-002
3.432671e+003, 3.190270e-002
3.434599e+003, 3.016130e-002
3.436528e+003, 3.006799e-002
3.438456e+003, 2.982943e-002
3.440385e+003, 2.903520e-002
3.442313e+003, 2.932205e-002
3.444241e+003, 3.073328e-002
3.446170e+003, 3.094766e-002
3.448098e+003, 3.049952e-002
3.450027e+003, 3.017072e-002
3.451955e+003, 3.070482e-002
3.453884e+003, 3.201496e-002
3.455812e+003, 3.133385e-002
3.457741e+003, 3.264094e-002
3.459669e+003, 3.381816e-002
3.461598e+003, 3.252209e-002
3.463526e+003, 3.031657e-002
3.465455e+003, 2.932909e-002
3.467383e+003, 3.051042e-002
3.469312e+003, 3.077701e-002
3.471240e+003, 3.124583e-002
3.473168e+003, 3.228045e-002
3.475097e+003, 3.167574e-002
3.477025e+003, 3.120968e-002
3.478954e+003, 3.165268e-002
3.480882e+003, 3.179105e-002
3.482811e+003, 3.131359e-002
3.484739e+003, 3.096068e-002
3.486668e+003, 3.139062e-002
3.488596e+003, 3.175564e-002
3.490525e+003, 3.234313e-002
3.492453e+003, 3.303850e-002
3.494382e+003, 3.223298e-002
3.496310e+003, 3.177827e-002
3.498239e+003, 3.149397e-002
3.500167e+003, 3.274605e-002
3.502095e+003, 3.368884e-002
3.504024e+003, 3.372592e-002
3.505952e+003, 3.292966e-002
3.507881e+003, 3.136798e-002
3.509809e+003, 3.190741e-002
3.511738e+003, 3.424474e-002
3.513666e+003, 3.501984e-002
3.515595e+003, 3.454356e-002
3.517523e+003, 3.314480e-002
3.519452e+003, 3.317392e-002
3.521380e+003, 3.451774e-002
3.523309e+003, 3.514759e-002
3.525237e+003, 3.344909e-002
3.527166e+003, 3.452835e-002
3.529094e+003, 3.649215e-002
3.531022e+003, 3.564684e-002
3.532951e+003, 3.578949e-002
3.534879e+003, 3.603723e-002
3.536808e+003, 3.506508e-002
3.538736e+003, 3.528316e-002
3.540665e+003, 3.640480e-002
3.542593e+003, 3.686704e-002
3.544522e+003, 3.639960e-002
3.546450e+003, 3.689282e-002
3.548379e+003, 3.653781e-002
3.550307e+003, 3.620651e-002
3.552236e+003, 3.914115e-002
3.554164e+003, 4.218374e-002
3.556093e+003, 4.224291e-002
3.558021e+003, 4.160637e-002
3.559949e+003, 4.477473e-002
3.561878e+003, 4.744808e-002
3.563806e+003, 4.723709e-002
3.565735e+003, 4.911521e-002
3.567663e+003, 5.077316e-002
3.569592e+003, 5.105174e-002
3.571520e+003, 5.259627e-002
3.573449e+003, 5.396570e-002
3.575377e+003, 5.480590e-002
3.577306e+003, 5.738601e-002
3.579234e+003, 6.118232e-002
3.581163e+003, 6.416704e-002
3.583091e+003, 6.580087e-002
3.585020e+003, 6.713548e-002
3.586948e+003, 6.753623e-002
3.588876e+003, 6.746414e-002
3.590805e+003, 7.146823e-002
3.592733e+003, 7.558347e-002
3.594662e+003, 7.727234e-002
3.596590e+003, 7.889725e-002
3.598519e+003, 7.996702e-002
3.600447e+003, 8.199970e-002
3.602376e+003, 8.325649e-002
3.604304e+003, 8.542226e-002
3.606233e+003, 8.673172e-002
3.608161e+003, 8.571891e-002
3.610090e+003, 8.562464e-002
3.612018e+003, 8.476097e-002
3.613947e+003, 8.594640e-002
3.615875e+003, 8.838069e-002
3.617803e+003, 8.767349e-002
3.619732e+003, 8.568040e-002
3.621660e+003, 8.281592e-002
3.623589e+003, 7.795134e-002
3.625517e+003, 7.436144e-002
3.627446e+003, 7.381075e-002
3.629374e+003, 7.105982e-002
3.631303e+003, 6.628765e-002
3.633231e+003, 6.365259e-002
3.635160e+003, 6.045574e-002
3.637088e+003, 5.875801e-002
3.639017e+003, 5.733942e-002
3.640945e+003, 5.364820e-002
3.642874e+003, 5.023552e-002
3.644802e+003, 4.668011e-002
3.646730e+003, 4.469173e-002
3.648659e+003, 4.374498e-002
3.650587e+003, 4.364807e-002
3.652516e+003, 4.375483e-002
3.654444e+003, 4.121720e-002
3.656373e+003, 3.797514e-002
3.658301e+003, 3.638375e-002
3.660230e+003, 3.512141e-002
3.662158e+003, 3.345739e-002
3.664087e+003, 3.298554e-002
3.666015e+003, 3.178221e-002
3.667944e+003, 3.190889e-002
3.669872e+003, 2.920563e-002
3.671801e+003, 2.753396e-002
3.673729e+003, 2.826216e-002
3.675657e+003, 2.667862e-002
3.677586e+003, 2.568793e-002
3.679514e+003, 2.620361e-002
3.681443e+003, 2.458500e-002
3.683371e+003, 2.389182e-002
3.685300e+003, 2.283026e-002
3.687228e+003, 2.453389e-002
3.689157e+003, 2.682620e-002
3.691085e+003, 2.572013e-002
3.693014e+003, 2.685576e-002
3.694942e+003, 2.825565e-002
3.696871e+003, 2.723636e-002
3.698799e+003, 2.772713e-002
3.700728e+003, 2.829446e-002
3.702656e+003, 2.796443e-002
3.704584e+003, 2.876942e-002
3.706513e+003, 2.702412e-002
3.708441e+003, 2.522473e-002
3.710370e+003, 2.740951e-002
3.712298e+003, 2.879470e-002
3.714227e+003, 2.542802e-002
3.716155e+003, 2.267911e-002
3.718084e+003, 2.310513e-002
3.720012e+003, 2.427686e-002
3.721941e+003, 2.659420e-002
3.723869e+003, 2.740775e-002
3.725798e+003, 2.617732e-002
3.727726e+003, 2.644569e-002
3.729655e+003, 2.647508e-002
3.731583e+003, 2.593714e-002
3.733511e+003, 2.720889e-002
3.735440e+003, 2.915449e-002
3.737368e+003, 2.742639e-002
3.739297e+003, 2.611450e-002
3.741225e+003, 2.457492e-002
3.743154e+003, 2.432102e-002
3.745082e+003, 2.537289e-002
3.747011e+003, 2.635847e-002
3.748939e+003, 2.624644e-002
3.750868e+003, 2.628883e-002
3.752796e+003, 2.499285e-002
3.754725e+003, 2.577222e-002
3.756653e+003, 2.725997e-002
3.758582e+003, 2.678638e-002
3.760510e+003, 2.548741e-002
3.762438e+003, 2.618151e-002
3.764367e+003, 2.640801e-002
3.766295e+003, 2.570756e-002
3.768224e+003, 2.624384e-002
3.770152e+003, 2.747595e-002
3.772081e+003, 2.796266e-002
3.774009e+003, 2.859636e-002
3.775938e+003, 2.954386e-002
3.777866e+003, 2.737172e-002
3.779795e+003, 2.458490e-002
3.781723e+003, 2.382745e-002
3.783652e+003, 2.632796e-002
3.785580e+003, 2.673458e-002
3.787509e+003, 2.754237e-002
3.789437e+003, 2.911043e-002
3.791365e+003, 2.690301e-002
3.793294e+003, 2.541216e-002
3.795222e+003, 2.615911e-002
3.797151e+003, 2.745417e-002
3.799079e+003, 2.743151e-002
3.801008e+003, 2.761145e-002
3.802936e+003, 2.949271e-002
3.804865e+003, 3.040922e-002
3.806793e+003, 2.853036e-002
3.808722e+003, 2.707062e-002
3.810650e+003, 2.533548e-002
3.812579e+003, 2.625974e-002
3.814507e+003, 2.754989e-002
3.816436e+003, 2.716741e-002
3.818364e+003, 2.588160e-002
3.820292e+003, 2.594901e-002
3.822221e+003, 2.680361e-002
3.824149e+003, 2.626906e-002
3.826078e+003, 2.663829e-002
3.828006e+003, 2.688893e-002
3.829935e+003, 2.731805e-002
3.831863e+003, 2.783256e-002
3.833792e+003, 2.737758e-002
3.835720e+003, 2.710580e-002
3.837649e+003, 2.799501e-002
3.839577e+003, 2.798744e-002
3.841506e+003, 2.738734e-002
3.843434e+003, 2.767595e-002
3.845363e+003, 2.744378e-002
3.847291e+003, 2.792475e-002
3.849219e+003, 2.812328e-002
3.851148e+003, 2.872507e-002
3.853076e+003, 2.836821e-002
3.855005e+003, 2.830835e-002
3.856933e+003, 3.008667e-002
3.858862e+003, 2.917577e-002
3.860790e+003, 2.955266e-002
3.862719e+003, 2.987158e-002
3.864647e+003, 2.878703e-002
3.866576e+003, 2.962529e-002
3.868504e+003, 2.980661e-002
3.870433e+003, 2.877628e-002
3.872361e+003, 2.986594e-002
3.874290e+003, 2.825552e-002
3.876218e+003, 2.812999e-002
3.878146e+003, 2.921819e-002
3.880075e+003, 2.962171e-002
3.882003e+003, 2.805718e-002
3.883932e+003, 2.750196e-002
3.885860e+003, 2.663318e-002
3.887789e+003, 2.590121e-002
3.889717e+003, 2.708597e-002
3.891646e+003, 2.729527e-002
3.893574e+003, 2.879801e-002
3.895503e+003, 2.964947e-002
3.897431e+003, 2.946167e-002
3.899360e+003, 3.122985e-002
3.901288e+003, 3.083407e-002
3.903217e+003, 2.847833e-002
3.905145e+003, 2.670161e-002
3.907073e+003, 2.612316e-002
3.909002e+003, 2.824387e-002
3.910930e+003, 2.830566e-002
3.912859e+003, 2.755024e-002
3.914787e+003, 2.745066e-002
3.916716e+003, 2.720474e-002
3.918644e+003, 2.783214e-002
3.920573e+003, 2.970485e-002
3.922501e+003, 3.125131e-002
3.924430e+003, 2.899460e-002
3.926358e+003, 2.643528e-002
3.928287e+003, 2.958781e-002
3.930215e+003, 3.090449e-002
3.932144e+003, 3.202210e-002
3.934072e+003, 3.192117e-002
3.936000e+003, 3.089905e-002
3.937929e+003, 2.980811e-002
3.939857e+003, 2.977805e-002
3.941786e+003, 2.909976e-002
3.943714e+003, 2.834214e-002
3.945643e+003, 2.750420e-002
3.947571e+003, 2.717160e-002
3.949500e+003, 2.812624e-002
3.951428e+003, 2.936362e-002
3.953357e+003, 2.947136e-002
3.955285e+003, 3.021700e-002
3.957214e+003, 3.024643e-002
3.959142e+003, 2.930954e-002
3.961071e+003, 2.881869e-002
3.962999e+003, 2.774128e-002
3.964927e+003, 2.845816e-002
3.966856e+003, 2.782262e-002
3.968784e+003, 2.693785e-002
3.970713e+003, 2.766326e-002
3.972641e+003, 2.820304e-002
3.974570e+003, 2.967547e-002
3.976498e+003, 3.118455e-002
3.978427e+003, 3.206183e-002
3.980355e+003, 3.206635e-002
3.982284e+003, 3.113759e-002
3.984212e+003, 2.902955e-002
3.986141e+003, 2.757258e-002
3.988069e+003, 2.722505e-002
3.989998e+003, 2.885907e-002
3.991926e+003, 2.982609e-002
3.993854e+003, 3.120648e-002
3.995783e+003, 3.293349e-002
3.997711e+003, 3.350428e-002
3.999640e+003, 3.352070e-002
##END=



