##NAMES=Nitratine
##RRUFFID=R050394
##IDEAL CHEMISTRY=NaN^5+^O_3_
##LOCALITY=Tarapaca, Chile
##OWNER=RRUFF
##SOURCE=Mark Candee
##DESCRIPTION=Colorless coarse powder
##STATUS=The identification of this mineral has been confirmed by X-ray diffraction and chemical analysis
##URL=rruff.info/R050394
##MEASURED CHEMISTRY=Na_1.00_NO_3_ ; = darker grains. The lighter grains are NaCl ; N not analyzed but estimated by difference and stiochiometry
399.1926, 5.2180351E-03
401.1211, 6.2581720E-03
403.0496, 6.2882588E-03
404.9780, 7.4662450E-03
406.9065, 1.8806760E-03
408.8350, 4.8547569E-03
410.7634, 1.0711720E-02
412.6919, 6.6954070E-03
414.6204, 4.9592960E-03
416.5488, 8.2878415E-03
418.4773, 9.2434110E-03
420.4058, 7.9787467E-03
422.3342, 6.1560040E-03
424.2627, 4.1845879E-03
426.1912, 3.4508689E-03
428.1196, 6.0327151E-03
430.0481, 8.1929779E-03
431.9766, 8.2760993E-03
433.9050, 7.9438696E-03
435.8335, 7.6366030E-03
437.7620, 9.3602119E-03
439.6904, 9.6057244E-03
441.6189, 7.6860110E-03
443.5474, 6.5725991E-03
445.4758, 6.6382792E-03
447.4043, 8.0020456E-03
449.3328, 9.4290804E-03
451.2612, 9.0496782E-03
453.1897, 7.8443196E-03
455.1182, 7.2691059E-03
457.0466, 7.5924750E-03
458.9751, 8.4239189E-03
460.9036, 8.5241934E-03
462.8320, 8.6777853E-03
464.7605, 9.1314083E-03
466.6890, 9.5005110E-03
468.6174, 9.1047212E-03
470.5459, 8.0595938E-03
472.4744, 8.4224278E-03
474.4028, 8.3536198E-03
476.3313, 8.4603867E-03
478.2598, 9.4842492E-03
480.1882, 9.8316511E-03
482.1167, 9.2814323E-03
484.0452, 8.6970814E-03
485.9736, 8.7636728E-03
487.9021, 8.6488770E-03
489.8306, 8.6797476E-03
491.7590, 8.7081483E-03
493.6875, 8.5065784E-03
495.6160, 8.4843542E-03
497.5444, 9.4426526E-03
499.4729, 1.0247060E-02
501.4014, 9.8015890E-03
503.3298, 1.0118500E-02
505.2583, 9.8925000E-03
507.1868, 8.9526763E-03
509.1152, 9.4589954E-03
511.0437, 9.5592346E-03
512.9722, 8.7504778E-03
514.9006, 9.1288369E-03
516.8291, 9.4377995E-03
518.7576, 1.0253820E-02
520.6860, 1.0165560E-02
522.6145, 9.2316726E-03
524.5430, 8.8258022E-03
526.4714, 8.8069411E-03
528.3999, 8.9500919E-03
530.3284, 9.7276531E-03
532.2568, 1.0435430E-02
534.1853, 1.0690860E-02
536.1138, 9.9485395E-03
538.0422, 9.3629947E-03
539.9707, 9.7064925E-03
541.8992, 9.9548018E-03
543.8276, 1.0100670E-02
545.7561, 1.1079330E-02
547.6846, 1.1279800E-02
549.6130, 1.0942800E-02
551.5415, 1.1131770E-02
553.4700, 1.1654180E-02
555.3984, 1.1308240E-02
557.3269, 1.0875530E-02
559.2554, 1.0780180E-02
561.1838, 1.0747940E-02
563.1123, 1.0851240E-02
565.0408, 1.1029280E-02
566.9692, 1.0864010E-02
568.8977, 1.0653650E-02
570.8262, 1.0614740E-02
572.7546, 1.0718210E-02
574.6831, 1.1224930E-02
576.6116, 1.1576650E-02
578.5400, 1.2014680E-02
580.4685, 1.1813450E-02
582.3970, 1.2021630E-02
584.3254, 1.2265360E-02
586.2539, 1.2385730E-02
588.1824, 1.2439290E-02
590.1108, 1.2825670E-02
592.0393, 1.3408610E-02
593.9678, 1.3420630E-02
595.8962, 1.3770620E-02
597.8247, 1.4186820E-02
599.7532, 1.4527840E-02
601.6816, 1.4970330E-02
603.6101, 1.5403530E-02
605.5386, 1.6449470E-02
607.4670, 1.7248100E-02
609.3955, 1.7608270E-02
611.3240, 1.7860850E-02
613.2524, 1.8486610E-02
615.1809, 1.9251250E-02
617.1094, 1.9415259E-02
619.0378, 1.9255901E-02
620.9663, 1.9138239E-02
622.8948, 1.8785531E-02
624.8232, 1.8588630E-02
626.7517, 1.8963451E-02
628.6802, 1.8626699E-02
630.6086, 1.7418429E-02
632.5371, 1.6682209E-02
634.4656, 1.6151359E-02
636.3940, 1.5436350E-02
638.3225, 1.4752200E-02
640.2510, 1.4690020E-02
642.1794, 1.4563470E-02
644.1079, 1.4076640E-02
646.0364, 1.4102420E-02
647.9648, 1.4047950E-02
649.8933, 1.3887790E-02
651.8218, 1.4534740E-02
653.7502, 1.4938280E-02
655.6787, 1.4946510E-02
657.6072, 1.5243090E-02
659.5356, 1.5627280E-02
661.4641, 1.5511140E-02
663.3926, 1.5335880E-02
665.3210, 1.5427840E-02
667.2495, 1.5356960E-02
669.1780, 1.5265750E-02
671.1064, 1.5584570E-02
673.0349, 1.6197380E-02
674.9634, 1.6879151E-02
676.8918, 1.6847940E-02
678.8203, 1.6582301E-02
680.7488, 1.6417090E-02
682.6772, 1.6380919E-02
684.6057, 1.6301829E-02
686.5342, 1.6072011E-02
688.4626, 1.5930930E-02
690.3911, 1.5957341E-02
692.3196, 1.5765149E-02
694.2480, 1.5547030E-02
696.1765, 1.5371190E-02
698.1050, 1.5628770E-02
700.0334, 1.5800480E-02
701.9619, 1.5763341E-02
703.8904, 1.5920529E-02
705.8188, 1.6088201E-02
707.7473, 1.6131610E-02
709.6758, 1.6354861E-02
711.6042, 1.6245861E-02
713.5327, 1.6247179E-02
715.4612, 1.6565621E-02
717.3896, 1.7060909E-02
719.3181, 1.7155370E-02
721.2466, 1.7610701E-02
723.1750, 1.9017089E-02
725.1035, 2.0837231E-02
727.0320, 1.9990239E-02
728.9604, 1.8456429E-02
730.8889, 1.8369811E-02
732.8174, 1.8317491E-02
734.7458, 1.8517811E-02
736.6743, 1.9017771E-02
738.6028, 1.9182710E-02
740.5313, 1.9088419E-02
742.4597, 1.8910909E-02
744.3882, 1.9283069E-02
746.3167, 1.9706460E-02
748.2451, 1.9908881E-02
750.1736, 2.0113559E-02
752.1021, 2.0400761E-02
754.0305, 2.0615280E-02
755.9590, 2.0578070E-02
757.8875, 2.0630430E-02
759.8159, 2.0750970E-02
761.7444, 2.1001350E-02
763.6729, 2.1360731E-02
765.6013, 2.1279560E-02
767.5298, 2.1268470E-02
769.4583, 2.1426771E-02
771.3867, 2.1388350E-02
773.3152, 2.1233549E-02
775.2437, 2.1362960E-02
777.1721, 2.1981711E-02
779.1006, 2.2143090E-02
781.0291, 2.1896720E-02
782.9575, 2.1892730E-02
784.8860, 2.2122040E-02
786.8145, 2.2266259E-02
788.7429, 2.2100819E-02
790.6714, 2.2216620E-02
792.5999, 2.2349549E-02
794.5283, 2.2809779E-02
796.4568, 2.3486771E-02
798.3853, 2.3774691E-02
800.3137, 2.4092700E-02
802.2422, 2.4537740E-02
804.1707, 2.5146769E-02
806.0991, 2.5581559E-02
808.0276, 2.5616810E-02
809.9561, 2.5655840E-02
811.8845, 2.5472470E-02
813.8130, 2.5418529E-02
815.7415, 2.4584830E-02
817.6699, 2.4545969E-02
819.5984, 2.6009779E-02
821.5269, 2.8635800E-02
823.4553, 3.1977251E-02
825.3838, 3.5525419E-02
827.3123, 4.2030159E-02
829.2407, 5.6830861E-02
831.1692, 7.7206187E-02
833.0977, 9.2545517E-02
835.0261, 9.1460988E-02
836.9546, 7.0866533E-02
838.8831, 4.3873910E-02
840.8115, 2.7590601E-02
842.7400, 2.3194689E-02
844.6685, 2.2221509E-02
846.5969, 2.1411261E-02
848.5254, 2.1195579E-02
850.4539, 2.1740239E-02
852.3823, 2.2121171E-02
854.3108, 2.1998379E-02
856.2393, 2.1893941E-02
858.1677, 2.2086291E-02
860.0962, 2.2228921E-02
862.0247, 2.2316050E-02
863.9531, 2.2753371E-02
865.8816, 2.3260619E-02
867.8101, 2.3257701E-02
869.7385, 2.3076691E-02
871.6670, 2.2769650E-02
873.5955, 2.2227820E-02
875.5239, 2.1137699E-02
877.4524, 2.0007581E-02
879.3809, 1.8830130E-02
881.3093, 1.8161019E-02
883.2378, 1.8503061E-02
885.1663, 1.9548209E-02
887.0947, 2.0426100E-02
889.0232, 2.0880319E-02
890.9517, 2.0915110E-02
892.8801, 2.0760950E-02
894.8085, 2.0958530E-02
896.7370, 2.1291640E-02
898.6655, 2.1431450E-02
900.5939, 2.1515680E-02
902.5224, 2.1930991E-02
904.4509, 2.2544010E-02
906.3793, 2.2956800E-02
908.3078, 2.3016719E-02
910.2363, 2.3185341E-02
912.1647, 2.3709839E-02
914.0932, 2.4171490E-02
916.0217, 2.4555450E-02
917.9501, 2.4876660E-02
919.8786, 2.5372000E-02
921.8071, 2.5734300E-02
923.7355, 2.6060989E-02
925.6640, 2.6466521E-02
927.5925, 2.6786190E-02
929.5209, 2.6941560E-02
931.4494, 2.6832299E-02
933.3779, 2.6717560E-02
935.3063, 2.6651030E-02
937.2348, 2.6616000E-02
939.1633, 2.6764590E-02
941.0917, 2.7079379E-02
943.0202, 2.6953280E-02
944.9487, 2.6653500E-02
946.8771, 2.6699521E-02
948.8056, 2.7160520E-02
950.7341, 2.7733110E-02
952.6625, 2.8084520E-02
954.5910, 2.8248150E-02
956.5195, 2.8348690E-02
958.4479, 2.8617440E-02
960.3764, 2.9356129E-02
962.3049, 2.9958211E-02
964.2333, 3.0179150E-02
966.1618, 3.0035440E-02
968.0903, 3.0146319E-02
970.0187, 3.0716131E-02
971.9472, 3.1158140E-02
973.8757, 3.1617291E-02
975.8041, 3.2353170E-02
977.7326, 3.3007581E-02
979.6611, 3.3741139E-02
981.5895, 3.4603439E-02
983.5180, 3.5273291E-02
985.4465, 3.5827540E-02
987.3749, 3.6165599E-02
989.3034, 3.6629859E-02
991.2319, 3.6893550E-02
993.1603, 3.6902592E-02
995.0888, 3.7025139E-02
997.0173, 3.7299529E-02
998.9457, 3.7770111E-02
1000.874, 3.7840281E-02
1002.803, 3.7766550E-02
1004.731, 3.7927698E-02
1006.660, 3.8001090E-02
1008.588, 3.8022410E-02
1010.517, 3.8315520E-02
1012.445, 3.8660120E-02
1014.373, 3.8889252E-02
1016.302, 3.8952190E-02
1018.230, 3.9191630E-02
1020.159, 3.9506000E-02
1022.087, 3.9882150E-02
1024.016, 4.0434249E-02
1025.944, 4.1047521E-02
1027.873, 4.1531350E-02
1029.801, 4.1964758E-02
1031.730, 4.2124011E-02
1033.658, 4.1914180E-02
1035.587, 4.1685648E-02
1037.515, 4.1348889E-02
1039.444, 4.0949728E-02
1041.372, 4.0379390E-02
1043.301, 3.9895650E-02
1045.229, 3.9546121E-02
1047.157, 3.9692670E-02
1049.086, 4.0612832E-02
1051.014, 4.2086840E-02
1052.943, 4.3830201E-02
1054.871, 4.5872170E-02
1056.800, 4.7896940E-02
1058.728, 4.9585249E-02
1060.657, 5.0858419E-02
1062.585, 5.1911831E-02
1064.514, 5.3249490E-02
1066.442, 5.4972202E-02
1068.371, 5.6567870E-02
1070.299, 5.8210719E-02
1072.228, 5.9696428E-02
1074.156, 6.1264690E-02
1076.084, 6.2766843E-02
1078.013, 6.4435348E-02
1079.941, 6.5995410E-02
1081.870, 6.7113213E-02
1083.798, 6.7636043E-02
1085.727, 6.7797340E-02
1087.655, 6.7740120E-02
1089.584, 6.8021059E-02
1091.512, 6.8697266E-02
1093.441, 6.9414340E-02
1095.369, 7.0583843E-02
1097.298, 7.2067559E-02
1099.226, 7.3161103E-02
1101.155, 7.4064054E-02
1103.083, 7.5151332E-02
1105.011, 7.6133229E-02
1106.940, 7.6897077E-02
1108.868, 7.7361450E-02
1110.797, 7.8266889E-02
1112.725, 7.9470977E-02
1114.654, 8.0123939E-02
1116.582, 8.0439441E-02
1118.511, 8.0578320E-02
1120.439, 8.0542549E-02
1122.368, 8.0240138E-02
1124.296, 7.9733513E-02
1126.225, 7.9676591E-02
1128.153, 7.9794757E-02
1130.082, 8.0071270E-02
1132.010, 8.0998033E-02
1133.938, 8.2011439E-02
1135.867, 8.2917079E-02
1137.795, 8.4336951E-02
1139.724, 8.5636564E-02
1141.652, 8.6816311E-02
1143.581, 8.8049613E-02
1145.509, 8.9108847E-02
1147.438, 9.0142913E-02
1149.366, 9.1152579E-02
1151.295, 9.1948591E-02
1153.223, 9.2742063E-02
1155.152, 9.3397312E-02
1157.080, 9.3703210E-02
1159.009, 9.4106883E-02
1160.937, 9.4825491E-02
1162.865, 9.5483683E-02
1164.794, 9.6178897E-02
1166.722, 9.7150162E-02
1168.651, 9.8039977E-02
1170.579, 9.8624073E-02
1172.508, 9.9353299E-02
1174.436, 0.1003458
1176.365, 0.1010173
1178.293, 0.1016664
1180.222, 0.1024279
1182.150, 0.1031668
1184.079, 0.1039292
1186.007, 0.1047128
1187.936, 0.1052958
1189.864, 0.1061250
1191.792, 0.1071919
1193.721, 0.1082704
1195.649, 0.1092110
1197.578, 0.1097983
1199.506, 0.1099410
1201.435, 0.1103620
1203.363, 0.1108337
1205.292, 0.1109437
1207.220, 0.1111699
1209.149, 0.1115667
1211.077, 0.1116718
1213.006, 0.1121370
1214.934, 0.1126465
1216.863, 0.1130521
1218.791, 0.1134182
1220.719, 0.1138846
1222.648, 0.1143987
1224.576, 0.1149614
1226.505, 0.1154824
1228.433, 0.1162034
1230.362, 0.1171773
1232.290, 0.1180483
1234.219, 0.1188121
1236.147, 0.1196342
1238.076, 0.1205796
1240.004, 0.1215173
1241.933, 0.1224293
1243.861, 0.1234910
1245.790, 0.1244028
1247.718, 0.1255114
1249.646, 0.1265226
1251.575, 0.1275822
1253.503, 0.1287709
1255.432, 0.1299407
1257.360, 0.1310957
1259.289, 0.1322355
1261.217, 0.1337406
1263.146, 0.1351811
1265.074, 0.1363337
1267.003, 0.1377234
1268.931, 0.1393087
1270.860, 0.1409192
1272.788, 0.1425136
1274.717, 0.1439360
1276.645, 0.1452197
1278.573, 0.1468710
1280.502, 0.1487455
1282.430, 0.1507267
1284.359, 0.1523486
1286.287, 0.1534680
1288.216, 0.1547779
1290.144, 0.1564218
1292.073, 0.1582313
1294.001, 0.1601819
1295.930, 0.1619901
1297.858, 0.1639513
1299.787, 0.1661573
1301.715, 0.1682318
1303.644, 0.1702965
1305.572, 0.1725114
1307.500, 0.1749456
1309.429, 0.1771937
1311.357, 0.1794309
1313.286, 0.1817861
1315.214, 0.1838832
1317.143, 0.1860988
1319.071, 0.1881210
1321.000, 0.1900411
1322.928, 0.1920836
1324.857, 0.1938333
1326.785, 0.1952349
1328.714, 0.1965838
1330.642, 0.1979115
1332.571, 0.1988986
1334.499, 0.2000071
1336.427, 0.2008916
1338.356, 0.2016383
1340.284, 0.2024568
1342.213, 0.2029653
1344.141, 0.2029312
1346.070, 0.2019663
1347.998, 0.2002087
1349.927, 0.1975003
1351.855, 0.1925894
1353.784, 0.1856102
1355.712, 0.1781095
1357.641, 0.1710650
1359.569, 0.1652794
1361.498, 0.1599750
1363.426, 0.1550622
1365.354, 0.1505737
1367.283, 0.1462177
1369.211, 0.1421235
1371.140, 0.1382035
1373.068, 0.1342124
1374.997, 0.1301735
1376.925, 0.1264005
1378.854, 0.1230153
1380.782, 0.1198123
1382.711, 0.1167103
1384.639, 0.1142308
1386.568, 0.1120843
1388.496, 0.1104453
1390.424, 0.1090682
1392.353, 0.1075572
1394.281, 0.1060358
1396.210, 0.1047779
1398.138, 0.1035313
1400.067, 0.1019034
1401.995, 9.9619418E-02
1403.924, 9.6849471E-02
1405.852, 9.4287530E-02
1407.781, 9.1891728E-02
1409.709, 8.9289367E-02
1411.638, 8.6673453E-02
1413.566, 8.4366761E-02
1415.495, 8.2053043E-02
1417.423, 7.9780757E-02
1419.351, 7.7722900E-02
1421.280, 7.5737081E-02
1423.208, 7.4054159E-02
1425.137, 7.2658241E-02
1427.065, 7.1159400E-02
1428.994, 6.9735274E-02
1430.922, 6.8298839E-02
1432.851, 6.6743597E-02
1434.779, 6.4922959E-02
1436.708, 6.2939823E-02
1438.636, 6.0812511E-02
1440.565, 5.8703519E-02
1442.493, 5.6651540E-02
1444.422, 5.5372812E-02
1446.350, 5.5465631E-02
1448.278, 5.5311829E-02
1450.207, 5.3229049E-02
1452.135, 5.0061218E-02
1454.064, 4.6689920E-02
1455.992, 4.3287430E-02
1457.921, 3.9737452E-02
1459.849, 3.5837039E-02
1461.778, 3.1414699E-02
1463.706, 2.7136950E-02
1465.635, 2.3387970E-02
1467.563, 1.9872369E-02
1469.492, 1.7509000E-02
1471.420, 1.6072080E-02
1473.349, 1.5180030E-02
1475.277, 1.4468550E-02
1477.205, 1.3881680E-02
1479.134, 1.3679630E-02
1481.062, 1.3555670E-02
1482.991, 1.3336940E-02
1484.919, 1.3024100E-02
1486.848, 1.2807650E-02
1488.776, 1.2478780E-02
1490.705, 1.2243060E-02
1492.633, 1.2123840E-02
1494.562, 1.1795030E-02
1496.490, 1.1913320E-02
1498.419, 1.1939800E-02
1500.347, 1.1491380E-02
1502.276, 1.1081380E-02
1504.204, 1.0862560E-02
1506.132, 1.0985480E-02
1508.061, 1.1213610E-02
1509.989, 1.1118840E-02
1511.918, 1.1150420E-02
1513.846, 1.0934430E-02
1515.775, 1.0713760E-02
1517.703, 1.0828750E-02
1519.632, 1.0744040E-02
1521.560, 1.0530910E-02
1523.489, 1.0354100E-02
1525.417, 1.0510250E-02
1527.346, 1.0567200E-02
1529.274, 1.0359810E-02
1531.203, 1.0238590E-02
1533.131, 1.0208160E-02
1535.059, 1.0143530E-02
1536.988, 1.0073600E-02
1538.916, 1.0264800E-02
1540.845, 1.0422430E-02
1542.773, 1.0434950E-02
1544.702, 1.0659510E-02
1546.630, 1.0728580E-02
1548.559, 1.0470860E-02
1550.487, 1.0479770E-02
1552.416, 1.0377510E-02
1554.344, 1.0665660E-02
1556.273, 1.0966720E-02
1558.201, 1.0810790E-02
1560.130, 1.0517060E-02
1562.058, 1.0504990E-02
1563.986, 1.0659340E-02
1565.915, 1.0747700E-02
1567.843, 1.0538890E-02
1569.772, 1.0409190E-02
1571.700, 1.0667210E-02
1573.629, 1.0721400E-02
1575.557, 1.0707120E-02
1577.486, 1.0786020E-02
1579.414, 1.0727010E-02
1581.343, 1.0543110E-02
1583.271, 1.0576950E-02
1585.200, 1.0900650E-02
1587.128, 1.1129960E-02
1589.057, 1.0978530E-02
1590.985, 1.1032240E-02
1592.913, 1.1403900E-02
1594.842, 1.1308550E-02
1596.770, 1.1183920E-02
1598.699, 1.1296650E-02
1600.627, 1.1247530E-02
1602.556, 1.1272950E-02
1604.484, 1.1029160E-02
1606.413, 1.0868690E-02
1608.341, 1.0790710E-02
1610.270, 1.1221920E-02
1612.198, 1.1478100E-02
1614.127, 1.1299340E-02
1616.055, 1.1361270E-02
1617.984, 1.1532200E-02
1619.912, 1.1860410E-02
1621.840, 1.2051450E-02
1623.769, 1.2024740E-02
1625.697, 1.1975460E-02
1627.626, 1.2035910E-02
1629.554, 1.1947480E-02
1631.483, 1.1818470E-02
1633.411, 1.1783630E-02
1635.340, 1.1592020E-02
1637.268, 1.1621570E-02
1639.197, 1.1504150E-02
1641.125, 1.1933330E-02
1643.054, 1.2516510E-02
1644.982, 1.2610920E-02
1646.911, 1.2371090E-02
1648.839, 1.1703030E-02
1650.767, 1.1419110E-02
1652.696, 1.1604510E-02
1654.624, 1.1583950E-02
1656.553, 1.1516630E-02
1658.481, 1.1420160E-02
1660.410, 1.1132450E-02
1662.338, 1.0705340E-02
1664.267, 1.0305340E-02
1666.195, 9.8892283E-03
1668.124, 9.8900842E-03
1670.052, 1.0332750E-02
1671.981, 1.0311800E-02
1673.909, 9.9621704E-03
1675.838, 1.0031460E-02
1677.766, 1.0103600E-02
1679.694, 1.0161550E-02
1681.623, 1.0176320E-02
1683.551, 9.9881701E-03
1685.480, 9.9295815E-03
1687.408, 9.6438592E-03
1689.337, 9.4150128E-03
1691.265, 9.1932416E-03
1693.194, 9.4359964E-03
1695.122, 1.0198780E-02
1697.051, 1.0097100E-02
1698.979, 9.6155955E-03
1700.908, 9.8610446E-03
1702.836, 1.0080330E-02
1704.765, 1.0253530E-02
1706.693, 1.0540690E-02
1708.621, 1.0432310E-02
1710.550, 1.0221210E-02
1712.478, 1.0162200E-02
1714.407, 1.0281230E-02
1716.335, 1.0308530E-02
1718.264, 1.0431710E-02
1720.192, 1.0418790E-02
1722.121, 1.0440890E-02
1724.049, 1.0671930E-02
1725.978, 1.0689670E-02
1727.906, 1.0332170E-02
1729.835, 1.0178450E-02
1731.763, 1.0250700E-02
1733.692, 1.0719440E-02
1735.620, 1.1302770E-02
1737.548, 1.1489040E-02
1739.477, 1.1834200E-02
1741.405, 1.2148050E-02
1743.334, 1.2255370E-02
1745.262, 1.1590660E-02
1747.191, 1.0808360E-02
1749.119, 1.0643660E-02
1751.048, 1.0175190E-02
1752.976, 9.8303473E-03
1754.905, 9.2485342E-03
1756.833, 8.4742056E-03
1758.762, 8.4408484E-03
1760.690, 8.7299300E-03
1762.619, 8.9590382E-03
1764.547, 8.8700587E-03
1766.475, 8.1302598E-03
1768.404, 7.8258142E-03
1770.332, 7.9607591E-03
1772.261, 7.7273892E-03
1774.189, 7.1062190E-03
1776.118, 7.9026986E-03
1778.046, 8.8155083E-03
1779.975, 9.4300890E-03
1781.903, 1.0646550E-02
1783.832, 1.3041270E-02
1785.760, 1.8993020E-02
1787.689, 2.7952330E-02
1789.617, 2.8376861E-02
1791.546, 1.9450730E-02
1793.474, 1.2718740E-02
1795.402, 9.5183272E-03
1797.331, 8.0550266E-03
1799.259, 7.7152280E-03
1801.188, 7.9540741E-03
1803.116, 7.5090919E-03
1805.045, 7.4743722E-03
1806.973, 7.1596419E-03
1808.902, 7.2041801E-03
1810.830, 7.1594240E-03
1812.759, 6.9005159E-03
1814.687, 6.8840799E-03
1816.616, 6.9660838E-03
1818.544, 7.5757741E-03
1820.473, 7.2618900E-03
1822.401, 6.7443270E-03
1824.329, 6.7432942E-03
1826.258, 6.6671232E-03
1828.186, 7.1216868E-03
1830.115, 7.4350019E-03
1832.043, 7.0106699E-03
1833.972, 6.6223638E-03
1835.900, 6.6281622E-03
1837.829, 7.0635262E-03
1839.757, 7.1405601E-03
1841.686, 6.8668411E-03
1843.614, 6.7159482E-03
1845.543, 6.8445238E-03
1847.471, 7.1041049E-03
1849.400, 7.0103230E-03
1851.328, 7.0975241E-03
1853.256, 7.0171379E-03
1855.185, 6.7497911E-03
1857.113, 6.6818530E-03
1859.042, 7.0405970E-03
1860.970, 6.9518681E-03
1862.899, 7.3427381E-03
1864.827, 8.0711432E-03
1866.756, 8.2548074E-03
1868.684, 7.6298192E-03
1870.613, 7.4137989E-03
1872.541, 7.2577861E-03
1874.470, 7.5199101E-03
1876.398, 8.3382092E-03
1878.327, 8.4391506E-03
1880.255, 7.3731770E-03
1882.183, 7.2260089E-03
1884.112, 7.2362460E-03
1886.040, 7.4118800E-03
1887.969, 8.0871480E-03
1889.897, 8.4710792E-03
1891.826, 8.4354561E-03
1893.754, 8.2475524E-03
1895.683, 8.4539214E-03
1897.611, 8.3643179E-03
1899.540, 8.1311809E-03
1901.468, 7.6667569E-03
1903.397, 7.6185181E-03
1905.325, 7.6658051E-03
1907.254, 7.8697205E-03
1909.182, 7.4441619E-03
1911.110, 6.6212858E-03
1913.039, 7.1792388E-03
1914.967, 7.5180051E-03
1916.896, 6.9824499E-03
1918.824, 6.9115162E-03
1920.753, 6.7889742E-03
1922.681, 6.3880491E-03
1924.610, 6.9916430E-03
1926.538, 7.7005140E-03
1928.467, 8.4795393E-03
1930.395, 8.2322564E-03
1932.324, 8.5861459E-03
1934.252, 8.9726737E-03
1936.181, 8.9589888E-03
1938.109, 8.8968445E-03
1940.037, 7.4491571E-03
1941.966, 6.7490740E-03
1943.894, 7.4451230E-03
1945.823, 7.9195891E-03
1947.751, 8.2323691E-03
1949.680, 9.1794096E-03
1951.608, 8.6792205E-03
1953.537, 6.4207120E-03
1955.465, 4.8540370E-03
1957.394, 5.9014172E-03
1959.322, 8.1658391E-03
1961.251, 9.1437632E-03
1963.179, 7.8509748E-03
1965.108, 6.1680218E-03
1967.036, 5.4485719E-03
1968.964, 4.9500782E-03
1970.893, 6.2501188E-03
1972.821, 7.4984091E-03
1974.750, 9.2785936E-03
1976.678, 1.2206610E-02
1978.607, 1.2077560E-02
1980.535, 9.5878206E-03
1982.464, 9.1300616E-03
1984.392, 8.9447265E-03
1986.321, 9.9846758E-03
1988.249, 9.8874094E-03
1990.178, 7.9142889E-03
1992.106, 7.1161748E-03
1994.035, 7.8456830E-03
1995.963, 8.3739692E-03
1997.891, 8.2205888E-03
1999.820, 6.2474771E-03
2001.748, 5.4430692E-03
2003.677, 4.6662888E-03
2005.605, 6.7037409E-03
2007.534, 8.8358019E-03
2009.462, 7.0484192E-03
2011.391, 6.0541481E-03
2013.319, 6.9459481E-03
2015.248, 8.4293252E-03
2017.176, 7.0334990E-03
2019.105, 6.0222629E-03
2021.033, 7.4235019E-03
2022.962, 7.3617068E-03
2024.890, 7.3841512E-03
2026.818, 7.7877222E-03
2028.747, 8.3934888E-03
2030.675, 7.6129660E-03
2032.604, 7.9713408E-03
2034.532, 1.0642780E-02
2036.461, 1.2376850E-02
2038.389, 9.0712244E-03
2040.318, 6.6976249E-03
2042.246, 5.2927029E-03
2044.175, 5.2966122E-03
2046.103, 6.8165599E-03
2048.032, 7.9792570E-03
2049.960, 8.7457830E-03
2051.889, 8.3905375E-03
2053.817, 9.5523521E-03
2055.746, 1.0622840E-02
2057.674, 8.6381761E-03
2059.603, 7.3654731E-03
2061.531, 7.3305648E-03
2063.459, 9.0074278E-03
2065.388, 9.8830359E-03
2067.316, 9.3273008E-03
2069.245, 8.0004064E-03
2071.173, 7.2543621E-03
2073.102, 8.2811397E-03
2075.030, 9.0297395E-03
2076.959, 9.1909999E-03
2078.887, 9.4785541E-03
2080.816, 9.0944041E-03
2082.744, 8.2870619E-03
2084.673, 8.2699191E-03
2086.601, 9.5685711E-03
2088.530, 9.4979713E-03
2090.458, 8.5932137E-03
2092.386, 9.0535898E-03
2094.315, 1.0566140E-02
2096.243, 1.0155340E-02
2098.172, 9.1583934E-03
2100.100, 1.0280710E-02
2102.029, 1.0922200E-02
2103.957, 8.8698510E-03
2105.886, 7.7006971E-03
2107.814, 9.3663502E-03
2109.743, 1.1485660E-02
2111.671, 1.0559210E-02
2113.600, 9.5280530E-03
2115.528, 9.4028926E-03
2117.457, 8.1635192E-03
2119.385, 7.7471570E-03
2121.313, 9.0602068E-03
2123.242, 9.2889983E-03
2125.170, 8.5243806E-03
2127.099, 7.9421103E-03
2129.027, 7.3116510E-03
2130.956, 7.6437099E-03
2132.884, 7.8104702E-03
2134.813, 6.3735042E-03
2136.741, 5.4465090E-03
2138.670, 7.0920251E-03
2140.598, 7.5372802E-03
2142.527, 5.4622549E-03
2144.455, 4.8308531E-03
2146.384, 6.5443302E-03
2148.312, 5.3464849E-03
2150.240, 3.5355070E-03
2152.169, 3.4233681E-03
2154.097, 2.7218759E-03
2156.026, 4.3513021E-03
2157.954, 6.8529099E-03
2159.883, 9.1369860E-03
2161.811, 9.3672257E-03
2163.740, 7.4447361E-03
2165.668, 1.1104810E-02
2167.597, 1.1147400E-02
2169.525, 6.5623350E-03
2171.454, 6.1838161E-03
2173.382, 7.4758069E-03
2175.311, 9.1489749E-03
2177.239, 8.7274835E-03
2179.167, 7.0018880E-03
2181.096, 7.0527880E-03
2183.024, 8.0032712E-03
2184.953, 7.9280632E-03
2186.881, 5.9381621E-03
2188.810, 7.1822209E-03
2190.738, 7.4539329E-03
2192.667, 5.5487230E-03
2194.595, 7.5384411E-03
2196.524, 1.1189380E-02
2198.452, 1.0331750E-02
2200.381, 7.8306189E-03
2202.309, 6.1847959E-03
2204.238, 7.1432181E-03
2206.166, 7.1744332E-03
2208.094, 7.1640462E-03
2210.023, 7.4911341E-03
2211.951, 7.0851492E-03
2213.880, 9.2154983E-03
2215.808, 8.9549311E-03
2217.737, 8.6726919E-03
2219.665, 7.9042912E-03
2221.594, 5.9170220E-03
2223.522, 6.5892390E-03
2225.451, 8.1383623E-03
2227.379, 8.0351960E-03
2229.308, 8.8126035E-03
2231.236, 9.6227210E-03
2233.165, 9.0406844E-03
2235.093, 8.5228337E-03
2237.021, 7.8134323E-03
2238.950, 7.8779776E-03
2240.878, 9.1515072E-03
2242.807, 9.0768700E-03
2244.735, 9.1042686E-03
2246.664, 9.2097009E-03
2248.592, 8.6572925E-03
2250.521, 8.4145982E-03
2252.449, 8.6064842E-03
2254.378, 8.3469758E-03
2256.306, 8.3737196E-03
2258.235, 8.6327409E-03
2260.163, 8.0290996E-03
2262.092, 8.6041596E-03
2264.020, 8.8184141E-03
2265.948, 8.7647168E-03
2267.877, 8.9298869E-03
2269.805, 9.4641643E-03
2271.734, 9.0416959E-03
2273.662, 8.6886780E-03
2275.591, 8.0919648E-03
2277.519, 8.3166743E-03
2279.448, 9.9291299E-03
2281.376, 1.0080930E-02
2283.305, 9.4524706E-03
2285.233, 9.1813952E-03
2287.162, 9.1747642E-03
2289.090, 9.6779056E-03
2291.019, 1.0491700E-02
2292.947, 1.0117710E-02
2294.875, 9.2461528E-03
2296.804, 9.0736616E-03
2298.732, 9.2107244E-03
2300.661, 8.8734496E-03
2302.589, 8.9514758E-03
2304.518, 9.3132872E-03
2306.446, 1.0481500E-02
2308.375, 1.1212180E-02
2310.303, 1.0549380E-02
2312.232, 1.0563610E-02
2314.160, 1.1457570E-02
2316.089, 1.1017330E-02
2318.017, 1.0121110E-02
2319.946, 9.9294530E-03
2321.874, 1.0153800E-02
2323.802, 1.0923250E-02
2325.731, 1.0418850E-02
2327.659, 1.0201300E-02
2329.588, 1.0473330E-02
2331.516, 1.1297630E-02
2333.445, 1.1516920E-02
2335.373, 1.0875880E-02
2337.302, 1.0440330E-02
2339.230, 1.0398360E-02
2341.159, 1.0703760E-02
2343.087, 1.0427030E-02
2345.016, 1.0146540E-02
2346.944, 9.7273095E-03
2348.873, 9.4710933E-03
2350.801, 9.5777744E-03
2352.729, 9.8138591E-03
2354.658, 9.9092666E-03
2356.586, 9.9903932E-03
2358.515, 1.0383350E-02
2360.443, 1.0044890E-02
2362.372, 9.6383505E-03
2364.300, 9.5472168E-03
2366.229, 9.2351101E-03
2368.157, 8.9345342E-03
2370.086, 9.0787038E-03
2372.014, 9.3170917E-03
2373.942, 9.3513336E-03
2375.871, 9.1080917E-03
2377.799, 8.3338106E-03
2379.728, 8.7369774E-03
2381.656, 9.8594697E-03
2383.585, 9.8849935E-03
2385.513, 9.1497609E-03
2387.442, 9.1339340E-03
2389.370, 1.0121140E-02
2391.299, 1.0497580E-02
2393.227, 1.0202660E-02
2395.156, 9.7718649E-03
2397.084, 9.6274931E-03
2399.012, 1.0481820E-02
2400.941, 1.0756420E-02
2402.869, 1.0367190E-02
2404.798, 1.0107160E-02
2406.726, 9.5558790E-03
2408.655, 1.0650120E-02
2410.583, 1.2732090E-02
2412.512, 1.3172010E-02
2414.440, 1.3197860E-02
2416.369, 1.4931180E-02
2418.297, 1.5795050E-02
2420.226, 1.7852951E-02
2422.154, 2.0228950E-02
2424.083, 2.1975029E-02
2426.011, 2.4754969E-02
2427.939, 2.5255250E-02
2429.868, 2.5220800E-02
2431.796, 2.5192540E-02
2433.725, 2.4885610E-02
2435.653, 2.5371861E-02
2437.582, 2.4730001E-02
2439.510, 2.4284991E-02
2441.439, 2.3949580E-02
2443.367, 2.3110950E-02
2445.296, 2.1854160E-02
2447.224, 2.1598529E-02
2449.153, 2.1953490E-02
2451.081, 2.1249389E-02
2453.010, 1.9296581E-02
2454.938, 1.7434100E-02
2456.866, 1.5643431E-02
2458.795, 1.5297390E-02
2460.723, 1.5249090E-02
2462.652, 1.5370880E-02
2464.580, 1.5192060E-02
2466.509, 1.4013600E-02
2468.437, 1.2908930E-02
2470.366, 1.3467420E-02
2472.294, 1.4616720E-02
2474.223, 1.4710060E-02
2476.151, 1.4455650E-02
2478.080, 1.4470320E-02
2480.008, 1.4531550E-02
2481.937, 1.3132760E-02
2483.865, 1.2700350E-02
2485.793, 1.4146700E-02
2487.722, 1.3522560E-02
2489.650, 1.2764070E-02
2491.579, 1.3044150E-02
2493.507, 1.2637720E-02
2495.436, 1.2149620E-02
2497.364, 1.2888610E-02
2499.293, 1.3387410E-02
2501.221, 1.2624000E-02
2503.150, 1.1752290E-02
2505.078, 1.1050720E-02
2507.007, 1.0636970E-02
2508.935, 1.0685280E-02
2510.864, 1.0066420E-02
2512.792, 9.1996510E-03
2514.720, 9.4305007E-03
2516.649, 9.2717130E-03
2518.577, 8.5333996E-03
2520.506, 9.2547592E-03
2522.434, 1.0215550E-02
2524.363, 9.8212305E-03
2526.291, 9.4516044E-03
2528.220, 9.0382826E-03
2530.148, 7.3047080E-03
2532.077, 6.1651221E-03
2534.005, 6.1195800E-03
2535.934, 6.0294401E-03
2537.862, 6.3231429E-03
2539.791, 6.5320279E-03
2541.719, 6.1395639E-03
2543.647, 6.8076020E-03
2545.576, 7.8212665E-03
2547.504, 7.1447012E-03
2549.433, 6.3823881E-03
2551.361, 6.0127410E-03
2553.290, 5.7962341E-03
2555.218, 5.5570579E-03
2557.147, 6.3264542E-03
2559.075, 6.4233281E-03
2561.004, 6.2453672E-03
2562.932, 6.4618788E-03
2564.861, 6.4231469E-03
2566.789, 6.6335481E-03
2568.718, 7.4764681E-03
2570.646, 6.7400010E-03
2572.574, 6.8177800E-03
2574.503, 7.5135729E-03
2576.431, 6.8766172E-03
2578.360, 6.4199199E-03
2580.288, 7.2494680E-03
2582.217, 7.5593418E-03
2584.145, 7.2003249E-03
2586.074, 7.4006151E-03
2588.002, 8.0524087E-03
2589.931, 7.3704491E-03
2591.859, 6.5141669E-03
2593.788, 7.2210510E-03
2595.716, 7.2283251E-03
2597.645, 6.4687170E-03
2599.573, 7.5017610E-03
2601.501, 8.6724190E-03
2603.430, 8.3868988E-03
2605.358, 7.8110918E-03
2607.287, 7.3829722E-03
2609.215, 6.9422852E-03
2611.144, 7.1570501E-03
2613.072, 7.8324750E-03
2615.001, 7.4379561E-03
2616.929, 7.6197591E-03
2618.858, 7.7143940E-03
2620.786, 7.9622772E-03
2622.715, 7.5737038E-03
2624.643, 6.9931340E-03
2626.572, 7.7607748E-03
2628.500, 8.2479790E-03
2630.428, 8.0143921E-03
2632.357, 7.6861051E-03
2634.285, 7.5341901E-03
2636.214, 7.5884182E-03
2638.142, 7.9312092E-03
2640.071, 7.8860084E-03
2641.999, 7.5194188E-03
2643.928, 7.1650129E-03
2645.856, 7.7634738E-03
2647.785, 8.3078733E-03
2649.713, 8.4577249E-03
2651.642, 8.6548068E-03
2653.570, 9.0422649E-03
2655.499, 8.3048688E-03
2657.427, 7.4465200E-03
2659.355, 8.2756625E-03
2661.284, 8.1721619E-03
2663.212, 7.6107052E-03
2665.141, 7.5154188E-03
2667.069, 7.9016108E-03
2668.998, 8.3477106E-03
2670.926, 7.6332842E-03
2672.855, 7.6708882E-03
2674.783, 7.8008831E-03
2676.712, 7.2873249E-03
2678.640, 7.3224949E-03
2680.569, 8.5865445E-03
2682.497, 8.4182210E-03
2684.426, 7.1682590E-03
2686.354, 7.2430880E-03
2688.282, 8.6545059E-03
2690.211, 8.6649358E-03
2692.139, 7.4655940E-03
2694.068, 7.4336608E-03
2695.996, 7.4200132E-03
2697.925, 6.9413381E-03
2699.853, 6.8263509E-03
2701.782, 7.0569878E-03
2703.710, 7.6823719E-03
2705.639, 7.7830139E-03
2707.567, 8.3803963E-03
2709.496, 9.1136592E-03
2711.424, 8.7734982E-03
2713.353, 7.4402988E-03
2715.281, 7.2091888E-03
2717.209, 8.0555780E-03
2719.138, 8.2505615E-03
2721.066, 8.0480631E-03
2722.995, 7.6929410E-03
2724.923, 7.8912340E-03
2726.852, 8.2988590E-03
2728.780, 8.7951897E-03
2730.709, 1.0016510E-02
2732.637, 1.0483510E-02
2734.566, 1.0443100E-02
2736.494, 1.0493180E-02
2738.423, 1.0448840E-02
2740.351, 1.0596510E-02
2742.280, 1.1228650E-02
2744.208, 1.1899320E-02
2746.136, 1.1739500E-02
2748.065, 1.1286690E-02
2749.993, 1.0793560E-02
2751.922, 1.1596210E-02
2753.850, 1.2417210E-02
2755.779, 1.2728020E-02
2757.707, 1.2570580E-02
2759.636, 1.2798410E-02
2761.564, 1.2663200E-02
2763.493, 1.1775350E-02
2765.421, 1.1623670E-02
2767.350, 1.2099800E-02
2769.278, 1.2052860E-02
2771.207, 1.2780410E-02
2773.135, 1.3034010E-02
2775.063, 1.1685470E-02
2776.992, 1.0980060E-02
2778.920, 1.0305430E-02
2780.849, 1.1076510E-02
2782.777, 1.2142580E-02
2784.706, 1.1161000E-02
2786.634, 1.0108830E-02
2788.563, 1.0431590E-02
2790.491, 1.1040670E-02
2792.420, 1.2228840E-02
2794.348, 1.2022040E-02
2796.277, 1.0927750E-02
2798.205, 1.0345100E-02
2800.134, 1.0209530E-02
2802.062, 1.0946920E-02
2803.990, 1.1121700E-02
2805.919, 1.1022600E-02
2807.847, 1.0508140E-02
2809.776, 9.7912792E-03
2811.704, 1.0411270E-02
2813.633, 1.1832190E-02
2815.561, 1.2610440E-02
2817.490, 1.2561320E-02
2819.418, 1.1710450E-02
2821.347, 1.1022670E-02
2823.275, 1.1069310E-02
2825.204, 1.0474350E-02
2827.132, 1.0470550E-02
2829.061, 1.0263480E-02
2830.989, 1.0632450E-02
2832.917, 1.1018650E-02
2834.846, 1.1395490E-02
2836.774, 1.1133260E-02
2838.703, 1.0938540E-02
2840.631, 1.3245930E-02
2842.560, 1.4178680E-02
2844.488, 1.3916810E-02
2846.417, 1.3730620E-02
2848.345, 1.3774840E-02
2850.274, 1.3358300E-02
2852.202, 1.3058830E-02
2854.131, 1.4018900E-02
2856.059, 1.3598120E-02
2857.988, 1.1171780E-02
2859.916, 9.5364163E-03
2861.844, 8.3196647E-03
2863.773, 7.4513890E-03
2865.701, 6.8458691E-03
2867.630, 6.9317711E-03
2869.558, 6.6701472E-03
2871.487, 4.9324329E-03
2873.415, 4.1995100E-03
2875.344, 4.3049408E-03
2877.272, 4.3956148E-03
2879.201, 4.8390380E-03
2881.129, 5.0958470E-03
2883.058, 5.8137239E-03
2884.986, 6.0733659E-03
2886.915, 6.7882072E-03
2888.843, 6.8317479E-03
2890.771, 6.3246130E-03
2892.700, 6.2960768E-03
2894.628, 6.5928800E-03
2896.557, 7.0459368E-03
2898.485, 6.1479979E-03
2900.414, 6.3646859E-03
2902.342, 8.1463885E-03
2904.271, 9.4899293E-03
2906.199, 9.6844397E-03
2908.128, 9.3028946E-03
2910.056, 1.0014740E-02
2911.985, 1.0429090E-02
2913.913, 9.7194714E-03
2915.842, 1.0740590E-02
2917.770, 1.1237540E-02
2919.698, 9.1521312E-03
2921.627, 9.2509948E-03
2923.555, 9.5857400E-03
2925.484, 8.6726397E-03
2927.412, 8.8641010E-03
2929.341, 9.2699369E-03
2931.269, 8.5995868E-03
2933.198, 8.8906363E-03
2935.126, 9.0840813E-03
2937.055, 8.2304981E-03
2938.983, 8.7132156E-03
2940.912, 8.4053986E-03
2942.840, 7.2132638E-03
2944.769, 7.5816908E-03
2946.697, 8.6379284E-03
2948.625, 9.1717280E-03
2950.554, 9.4830301E-03
2952.482, 9.5215309E-03
2954.411, 9.2233112E-03
2956.339, 8.0743060E-03
2958.268, 5.7820091E-03
2960.196, 4.3806802E-03
2962.125, 3.9508040E-03
2964.053, 2.4841549E-03
2965.982, 2.4378570E-03
2967.910, 1.4762121E-03
2969.839, -6.9446192E-04
2971.767, -2.1016931E-03
2973.696, -1.7511920E-03
2975.624, -1.0523010E-03
2977.552, -8.2098268E-04
2979.481, 7.8548118E-04
2981.409, 2.9673120E-03
2983.338, 5.1498250E-03
2985.266, 5.4331939E-03
2987.195, 6.0030851E-03
2989.123, 7.8972913E-03
2991.052, 9.5427260E-03
2992.980, 9.2074610E-03
2994.909, 8.8641644E-03
2996.837, 1.0005660E-02
2998.766, 9.4183236E-03
3000.694, 8.6692479E-03
3002.623, 9.5069576E-03
3004.551, 9.8522650E-03
3006.479, 1.1118170E-02
3008.408, 1.1108560E-02
3010.336, 1.1032140E-02
3012.265, 1.0479920E-02
3014.193, 1.0141590E-02
3016.122, 1.2435790E-02
3018.050, 1.3031220E-02
3019.979, 1.1721870E-02
3021.907, 1.0865970E-02
3023.836, 1.1855370E-02
3025.764, 1.3270840E-02
3027.693, 1.2776520E-02
3029.621, 1.1936540E-02
3031.550, 1.3242120E-02
3033.478, 1.4797170E-02
3035.406, 1.5622390E-02
3037.335, 1.4492120E-02
3039.263, 1.3689150E-02
3041.192, 1.3292780E-02
3043.120, 1.5105050E-02
3045.049, 1.6906951E-02
3046.977, 1.5578240E-02
3048.906, 1.3527640E-02
3050.834, 1.3451020E-02
3052.763, 1.4059250E-02
3054.691, 1.3496750E-02
3056.620, 1.3523740E-02
3058.548, 1.5091410E-02
3060.477, 1.5050600E-02
3062.405, 1.4335950E-02
3064.333, 1.3992130E-02
3066.262, 1.5800580E-02
3068.190, 1.7273011E-02
3070.119, 1.7413501E-02
3072.047, 1.7502431E-02
3073.976, 1.6599949E-02
3075.904, 1.5893269E-02
3077.833, 1.5684940E-02
3079.761, 1.5061970E-02
3081.690, 1.4192950E-02
3083.618, 1.4854000E-02
3085.547, 1.5051610E-02
3087.475, 1.3461590E-02
3089.404, 1.3782660E-02
3091.332, 1.6316140E-02
3093.260, 1.5510100E-02
3095.189, 1.4374360E-02
3097.117, 1.4523450E-02
3099.046, 1.4467360E-02
3100.974, 1.5379910E-02
3102.903, 1.5124710E-02
3104.831, 1.4712560E-02
3106.760, 1.5871910E-02
3108.688, 1.4822280E-02
3110.617, 1.2352840E-02
3112.545, 1.3321390E-02
3114.474, 1.5551840E-02
3116.402, 1.5087010E-02
3118.331, 1.5210330E-02
3120.259, 1.5927801E-02
3122.188, 1.5515560E-02
3124.116, 1.6070699E-02
3126.044, 1.4787860E-02
3127.973, 1.5213300E-02
3129.901, 1.6412970E-02
3131.830, 1.5667969E-02
3133.758, 1.5165780E-02
3135.687, 1.5027740E-02
3137.615, 1.5899600E-02
3139.544, 1.5198090E-02
3141.472, 1.5216970E-02
3143.401, 1.4877540E-02
3145.329, 1.4744450E-02
3147.258, 1.5752450E-02
3149.186, 1.5405370E-02
3151.115, 1.5810300E-02
3153.043, 1.7390329E-02
3154.971, 1.7324951E-02
3156.900, 1.6157979E-02
3158.828, 1.5670920E-02
3160.757, 1.6812200E-02
3162.685, 1.7722560E-02
3164.614, 1.7072311E-02
3166.542, 1.4680260E-02
3168.471, 1.3532550E-02
3170.399, 1.5426060E-02
3172.328, 1.6037639E-02
3174.256, 1.5800970E-02
3176.185, 1.6999099E-02
3178.113, 1.6422020E-02
3180.042, 1.4498560E-02
3181.970, 1.3910090E-02
3183.898, 1.5579120E-02
3185.827, 1.6008919E-02
3187.755, 1.4689150E-02
3189.684, 1.4978880E-02
3191.612, 1.5102960E-02
3193.541, 1.4240630E-02
3195.469, 1.3866540E-02
3197.398, 1.5115020E-02
3199.326, 1.4511170E-02
3201.255, 1.3580450E-02
3203.183, 1.3194810E-02
3205.112, 1.3766690E-02
3207.040, 1.4507400E-02
3208.969, 1.3396410E-02
3210.897, 1.1993920E-02
3212.825, 1.2398570E-02
3214.754, 1.1705170E-02
3216.682, 1.1889110E-02
3218.611, 1.1629630E-02
3220.539, 1.1288130E-02
3222.468, 1.1576070E-02
3224.396, 1.0695840E-02
3226.325, 1.1330170E-02
3228.253, 1.1957670E-02
3230.182, 1.2358760E-02
3232.110, 1.3066310E-02
3234.039, 1.1783930E-02
3235.967, 1.1254330E-02
3237.896, 1.1296940E-02
3239.824, 1.0145390E-02
3241.752, 1.0126540E-02
3243.681, 1.1025170E-02
3245.609, 1.1009720E-02
3247.538, 1.0900990E-02
3249.466, 9.6834246E-03
3251.395, 1.0793000E-02
3253.323, 1.2080750E-02
3255.252, 1.2487970E-02
3257.180, 1.4337640E-02
3259.109, 1.3994370E-02
3261.037, 1.2345350E-02
3262.966, 1.0258150E-02
3264.894, 9.6896421E-03
3266.823, 1.1473920E-02
3268.751, 1.2133890E-02
3270.679, 1.1398210E-02
3272.608, 1.0926570E-02
3274.536, 1.1421930E-02
3276.465, 1.1886400E-02
3278.393, 1.1230520E-02
3280.322, 1.0466320E-02
3282.250, 9.8512052E-03
3284.179, 1.0146950E-02
3286.107, 9.5954007E-03
3288.036, 9.3647987E-03
3289.964, 8.2403310E-03
3291.893, 8.2441736E-03
3293.821, 9.4464226E-03
3295.750, 1.0721820E-02
3297.678, 1.0913820E-02
3299.606, 9.4492584E-03
3301.535, 9.7727235E-03
3303.463, 1.3434530E-02
3305.392, 1.4071660E-02
3307.320, 1.1847840E-02
3309.249, 1.0027080E-02
3311.177, 9.4098374E-03
3313.106, 1.0808810E-02
3315.034, 1.0483580E-02
3316.963, 9.5664486E-03
3318.891, 1.0429090E-02
3320.820, 9.2464220E-03
3322.748, 6.3339449E-03
3324.677, 6.1701150E-03
3326.605, 8.5202483E-03
3328.533, 9.2159547E-03
3330.462, 8.3362153E-03
3332.390, 9.6411770E-03
3334.319, 1.0919090E-02
3336.247, 1.1660480E-02
3338.176, 1.1597420E-02
3340.104, 9.8163588E-03
3342.033, 8.2897786E-03
3343.961, 9.7324327E-03
3345.890, 1.1632940E-02
3347.818, 1.2434440E-02
3349.747, 1.2359330E-02
3351.675, 1.1804750E-02
3353.604, 1.2308000E-02
3355.532, 1.1327580E-02
3357.460, 1.1278820E-02
3359.389, 1.3031110E-02
3361.317, 1.1168990E-02
3363.246, 9.8969359E-03
3365.174, 1.1203160E-02
3367.103, 1.2393100E-02
3369.031, 1.3797860E-02
3370.960, 1.4559360E-02
3372.888, 1.3206380E-02
3374.817, 1.3265730E-02
3376.745, 1.3324450E-02
3378.674, 1.3622200E-02
3380.602, 1.3208440E-02
3382.531, 1.2653580E-02
3384.459, 1.4081810E-02
3386.387, 1.4577380E-02
3388.316, 1.4055810E-02
3390.244, 1.3355620E-02
3392.173, 1.4597970E-02
3394.101, 1.3862390E-02
3396.030, 1.2152920E-02
3397.958, 1.2986360E-02
3399.887, 1.4795920E-02
3401.815, 1.4805220E-02
3403.744, 1.4304840E-02
3405.672, 1.2747890E-02
3407.601, 1.1466720E-02
3409.529, 1.1611770E-02
3411.458, 1.3157240E-02
3413.386, 1.5295470E-02
3415.314, 1.4343990E-02
3417.243, 1.1882960E-02
3419.171, 1.1568910E-02
3421.100, 1.3062110E-02
3423.028, 1.4786770E-02
3424.957, 1.5403160E-02
3426.885, 1.5531840E-02
3428.814, 1.6288590E-02
3430.742, 1.4956380E-02
3432.671, 1.2659550E-02
3434.599, 1.0897460E-02
3436.528, 1.2983520E-02
3438.456, 1.5202350E-02
3440.385, 1.2673280E-02
3442.313, 1.4000700E-02
3444.241, 1.3717940E-02
3446.170, 1.2525320E-02
3448.098, 1.2425650E-02
3450.027, 1.2527810E-02
3451.955, 1.4964990E-02
3453.884, 1.8390590E-02
3455.812, 1.7545739E-02
3457.741, 1.2779390E-02
3459.669, 1.3904560E-02
3461.598, 1.4688120E-02
3463.526, 1.4084780E-02
3465.455, 1.4861030E-02
3467.383, 1.4973150E-02
3469.312, 1.5658971E-02
3471.240, 1.5542860E-02
3473.168, 1.2476890E-02
3475.097, 1.1862690E-02
3477.025, 1.3450800E-02
3478.954, 1.2230720E-02
3480.882, 1.2262610E-02
3482.811, 1.2397620E-02
3484.739, 1.2462340E-02
3486.668, 1.4901830E-02
3488.596, 1.5541270E-02
3490.525, 1.2382400E-02
3492.453, 1.3385450E-02
3494.382, 1.5011390E-02
3496.310, 1.4084450E-02
3498.239, 1.3328220E-02
3500.167, 1.2084690E-02
3502.095, 9.5202969E-03
3504.024, 1.1283930E-02
3505.952, 1.3607830E-02
3507.881, 1.2941960E-02
3509.809, 1.1831160E-02
3511.738, 1.1666820E-02
3513.666, 1.2419070E-02
3515.595, 1.1670710E-02
3517.523, 9.9301916E-03
3519.452, 1.0722600E-02
3521.380, 1.3316810E-02
3523.309, 1.3796530E-02
3525.237, 1.2359170E-02
3527.166, 1.0907930E-02
3529.094, 1.1391640E-02
3531.022, 1.2647330E-02
3532.951, 1.4607230E-02
3534.879, 1.3230700E-02
3536.808, 1.4283430E-02
3538.736, 1.4913500E-02
3540.665, 1.0993280E-02
3542.593, 8.9465221E-03
3544.522, 1.1467240E-02
3546.450, 1.1375810E-02
3548.379, 1.0359450E-02
3550.307, 1.2447180E-02
3552.236, 1.4933540E-02
3554.164, 1.6279250E-02
3556.093, 1.4332050E-02
3558.021, 1.1656770E-02
3559.949, 1.0080240E-02
3561.878, 9.5866201E-03
3563.806, 1.1718680E-02
3565.735, 1.5426980E-02
3567.663, 1.7128790E-02
3569.592, 1.4606370E-02
3571.520, 1.1915990E-02
3573.449, 1.3827040E-02
3575.377, 1.4669500E-02
3577.306, 1.4596650E-02
3579.234, 1.5593310E-02
3581.163, 1.3483410E-02
3583.091, 1.1319090E-02
3585.020, 1.2058230E-02
3586.948, 1.1308770E-02
3588.876, 1.0902740E-02
3590.805, 1.1750990E-02
3592.733, 1.2558960E-02
3594.662, 1.1446110E-02
3596.590, 1.1447330E-02
3598.519, 1.2101720E-02
3600.447, 1.3423290E-02
3602.376, 1.6362200E-02
3604.304, 1.5121810E-02
3606.233, 1.1366320E-02
3608.161, 1.0472970E-02
3610.090, 1.0860340E-02
3612.018, 1.1470510E-02
3613.947, 1.2177010E-02
3615.875, 1.2803760E-02
3617.803, 1.1593820E-02
3619.732, 9.8033966E-03
3621.660, 1.2566090E-02
3623.589, 1.3472630E-02
3625.517, 1.0784590E-02
3627.446, 9.6394978E-03
3629.374, 9.4989520E-03
3631.303, 1.1613440E-02
3633.231, 1.1164780E-02
3635.160, 1.0647370E-02
3637.088, 9.7195636E-03
3639.017, 6.5023601E-03
3640.945, 8.6616902E-03
3642.874, 1.1819350E-02
3644.802, 1.2788820E-02
3646.730, 1.2334360E-02
3648.659, 8.9650014E-03
3650.587, 1.0818360E-02
3652.516, 1.1841010E-02
3654.444, 9.1163386E-03
3656.373, 6.7248610E-03
3658.301, 7.6918178E-03
3660.230, 1.1527960E-02
3662.158, 1.1633650E-02
3664.087, 1.0355190E-02
3666.015, 1.3152640E-02
3667.944, 1.3446330E-02
3669.872, 1.2720500E-02
3671.801, 1.1191290E-02
3673.729, 8.8726077E-03
3675.657, 8.4808832E-03
3677.586, 1.0115450E-02
3679.514, 1.0520650E-02
3681.443, 1.0210140E-02
3683.371, 7.5148470E-03
3685.300, 5.8836271E-03
3687.228, 8.7247482E-03
3689.157, 1.1894770E-02
3691.085, 1.1517720E-02
3693.014, 1.1921260E-02
3694.942, 1.1597820E-02
3696.871, 1.2617890E-02
3698.799, 1.3064150E-02
3700.728, 1.3146620E-02
3702.656, 1.2486920E-02
3704.584, 1.4631960E-02
3706.513, 1.5044890E-02
3708.441, 1.2556950E-02
3710.370, 9.0026390E-03
3712.298, 8.0868127E-03
3714.227, 8.1975115E-03
3716.155, 8.8480404E-03
3718.084, 1.1706570E-02
3720.012, 1.0415360E-02
3721.941, 5.6742942E-03
3723.869, 6.5507768E-03
3725.798, 1.0144820E-02
3727.726, 1.1398690E-02
3729.655, 1.3573860E-02
3731.583, 1.1049170E-02
3733.511, 8.5128909E-03
3735.440, 1.2762880E-02
3737.368, 1.5064390E-02
3739.297, 1.1636960E-02
3741.225, 7.9558594E-03
3743.154, 8.7888679E-03
3745.082, 1.2587970E-02
3747.011, 1.0778250E-02
3748.939, 7.4347220E-03
3750.868, 9.2828786E-03
3752.796, 8.3326288E-03
3754.725, 5.8583650E-03
3756.653, 9.8274378E-03
3758.582, 1.2418370E-02
3760.510, 9.6748276E-03
3762.438, 1.0006500E-02
3764.367, 1.1486110E-02
3766.295, 1.1668700E-02
3768.224, 1.0933920E-02
3770.152, 1.0969700E-02
3772.081, 1.0141680E-02
3774.009, 7.7756541E-03
3775.938, 9.7312573E-03
3777.866, 1.2252670E-02
3779.795, 1.0730350E-02
3781.723, 9.4398959E-03
3783.652, 9.4745932E-03
3785.580, 7.3387991E-03
3787.509, 7.4340580E-03
3789.437, 9.4673587E-03
3791.365, 1.2529480E-02
3793.294, 1.6348289E-02
3795.222, 1.4117490E-02
3797.151, 1.0199970E-02
3799.079, 8.7945098E-03
3801.008, 1.0102490E-02
3802.936, 8.6168479E-03
3804.865, 8.2246009E-03
3806.793, 1.0658970E-02
3808.722, 1.4657570E-02
3810.650, 1.4745760E-02
3812.579, 1.1999510E-02
3814.507, 1.0422990E-02
3816.436, 1.2310110E-02
3818.364, 1.1390080E-02
3820.292, 9.4697168E-03
3822.221, 1.1387560E-02
3824.149, 1.1140070E-02
3826.078, 8.4703667E-03
3828.006, 7.2809081E-03
3829.935, 8.3972756E-03
3831.863, 1.1017350E-02
3833.792, 1.0135690E-02
3835.720, 9.2899119E-03
3837.649, 9.9321259E-03
3839.577, 9.5148329E-03
3841.506, 9.5420144E-03
3843.434, 1.0921910E-02
3845.363, 1.4192590E-02
3847.291, 1.2984710E-02
3849.219, 8.8778827E-03
3851.148, 9.3629500E-03
3853.076, 1.1934600E-02
3855.005, 1.2816370E-02
3856.933, 1.3045070E-02
3858.862, 1.2729220E-02
3860.790, 1.0946000E-02
3862.719, 1.0013230E-02
3864.647, 9.3008690E-03
3866.576, 9.3254773E-03
3868.504, 1.0314260E-02
3870.433, 8.0047259E-03
3872.361, 7.8147016E-03
3874.290, 8.6401962E-03
3876.218, 9.4851209E-03
3878.146, 9.9579571E-03
3880.075, 1.0518190E-02
3882.003, 1.3208290E-02
3883.932, 1.3279450E-02
3885.860, 1.1897790E-02
3887.789, 1.3212910E-02
3889.717, 1.7056489E-02
3891.646, 1.9390160E-02
3893.574, 1.7441209E-02
3895.503, 1.5344350E-02
3897.431, 1.4625210E-02
3899.360, 1.3342740E-02
3901.288, 1.0768480E-02
3903.217, 7.5012492E-03
3905.145, 7.5926860E-03
3907.073, 9.5925210E-03
3909.002, 1.0690320E-02
3910.930, 1.4066210E-02
3912.859, 1.4069880E-02
3914.787, 1.1740270E-02
3916.716, 8.8069504E-03
3918.644, 7.5889351E-03
3920.573, 8.4965173E-03
3922.501, 9.1955988E-03
3924.430, 8.4957294E-03
3926.358, 9.1804424E-03
3928.287, 1.2918880E-02
3930.215, 1.2346800E-02
3932.144, 1.0518940E-02
3934.072, 1.1197850E-02
3936.000, 1.3911020E-02
3937.929, 1.2142370E-02
3939.857, 1.2373150E-02
3941.786, 1.0213990E-02
3943.714, 1.0218070E-02
3945.643, 1.0822630E-02
3947.571, 8.5903890E-03
3949.500, 7.7208560E-03
3951.428, 9.1666644E-03
3953.357, 8.0192164E-03
3955.285, 1.0183320E-02
3957.214, 1.2345510E-02
3959.142, 1.5573320E-02
3961.071, 1.8764401E-02
3962.999, 1.5401660E-02
3964.927, 1.1687730E-02
3966.856, 1.2994210E-02
3968.784, 1.2150500E-02
3970.713, 1.0449230E-02
3972.641, 1.2217050E-02
3974.570, 1.1847150E-02
3976.498, 1.3998360E-02
3978.427, 1.6191719E-02
3980.355, 1.3569780E-02
3982.284, 1.0669930E-02
3984.212, 1.2798220E-02
3986.141, 1.4817420E-02
3988.069, 1.2671510E-02
3989.998, 1.0447450E-02
3991.926, 1.2008370E-02
3993.854, 1.5889339E-02
3995.783, 1.3460250E-02
3997.711, 9.5533123E-03
3999.640, 9.5579214E-03
##END=



