##NAMES=Olivenite
##RRUFFID=R050532
##IDEAL CHEMISTRY=Cu^2+^_2_As^5+^O_4_(OH)
##LOCALITY=Tsumeb mine, Tsumeb, Otavi District, Oshikoto, Namibia
##OWNER=RRUFF
##SOURCE=University of Arizona Mineral Museum
##DESCRIPTION=Dark green prismatic crystals on botryoidal bayldonite R050670
##STATUS=The identification of this mineral has been confirmed by X-ray diffraction and chemical analysis
##URL=rruff.info/R050532
##MEASURED CHEMISTRY=(Cu_0.99_Zn_0.01_)_2_(As_1.00_O_4_)(OH)
399.1926, 0.1869107
401.1211, 0.1436184
403.0496, 0.1436184
404.9780, 0.1302067
406.9065, 0.1316040
408.8350, 0.1364092
410.7634, 0.1437009
412.6919, 0.1577021
414.6204, 0.1702999
416.5488, 0.1804615
418.4773, 0.1942083
420.4058, 0.2122136
422.3342, 0.2223928
424.2627, 0.2261757
426.1912, 0.2379076
428.1196, 0.2542675
430.0481, 0.2708039
431.9766, 0.2885306
433.9050, 0.3055037
435.8335, 0.3208884
437.7620, 0.3335179
439.6904, 0.3509637
441.6189, 0.3712810
443.5474, 0.3769534
445.4758, 0.3766971
447.4043, 0.3729756
449.3328, 0.3603312
451.2612, 0.3491903
453.1897, 0.3382146
455.1182, 0.3225129
457.0466, 0.3093137
458.9751, 0.2950576
460.9036, 0.2821556
462.8320, 0.2752902
464.7605, 0.2698475
466.6890, 0.2682566
468.6174, 0.2760854
470.5459, 0.2868774
472.4744, 0.2980139
474.4028, 0.3131070
476.3313, 0.3233882
478.2598, 0.3326546
480.1882, 0.3449261
482.1167, 0.3557877
484.0452, 0.3632992
485.9736, 0.3670648
487.9021, 0.3654435
489.8306, 0.3611656
491.7590, 0.3531306
493.6875, 0.3401148
495.6160, 0.3240561
497.5444, 0.3076189
499.4729, 0.2944521
501.4014, 0.2834446
503.3298, 0.2765494
505.2583, 0.2758555
507.1868, 0.2798250
509.1152, 0.2885592
511.0437, 0.3026006
512.9722, 0.3198848
514.9006, 0.3387386
516.8291, 0.3619985
518.7576, 0.3862228
520.6860, 0.4084377
522.6145, 0.4259843
524.5430, 0.4365621
526.4714, 0.4406729
528.3999, 0.4387690
530.3284, 0.4318599
532.2568, 0.4252576
534.1853, 0.4208393
536.1138, 0.4147042
538.0422, 0.4042937
539.9707, 0.3880416
541.8992, 0.3671531
543.8276, 0.3463461
545.7561, 0.3262118
547.6846, 0.3036806
549.6130, 0.2791855
551.5415, 0.2560561
553.4700, 0.2332715
555.3984, 0.2112348
557.3269, 0.1933257
559.2554, 0.1761529
561.1838, 0.1586704
563.1123, 0.1416352
565.0408, 0.1282403
566.9692, 0.1160375
568.8977, 0.1026899
570.8262, 9.1481283E-02
572.7546, 8.1745893E-02
574.6831, 7.3512353E-02
576.6116, 6.6714764E-02
578.5400, 6.0518071E-02
580.4685, 5.6717310E-02
582.3970, 5.3852070E-02
584.3254, 5.0621271E-02
586.2539, 4.8665989E-02
588.1824, 4.7870759E-02
590.1108, 4.7049168E-02
592.0393, 4.6891712E-02
593.9678, 4.8305850E-02
595.8962, 4.9957220E-02
597.8247, 5.0544251E-02
599.7532, 5.0460469E-02
601.6816, 4.9199991E-02
603.6101, 4.7089752E-02
605.5386, 4.5119472E-02
607.4670, 4.3298259E-02
609.3955, 4.1401811E-02
611.3240, 4.0862530E-02
613.2524, 4.0868942E-02
615.1809, 4.0480610E-02
617.1094, 4.0956091E-02
619.0378, 4.0983729E-02
620.9663, 4.1366462E-02
622.8948, 4.2901319E-02
624.8232, 4.4819150E-02
626.7517, 4.7584072E-02
628.6802, 5.1808570E-02
630.6086, 5.5994678E-02
632.5371, 5.8392771E-02
634.4656, 5.7819080E-02
636.3940, 5.4001272E-02
638.3225, 4.9545981E-02
640.2510, 4.6574902E-02
642.1794, 4.5434479E-02
644.1079, 4.4564020E-02
646.0364, 4.4514321E-02
647.9648, 4.5644041E-02
649.8933, 4.6664432E-02
651.8218, 4.7461901E-02
653.7502, 4.8332591E-02
655.6787, 4.9260709E-02
657.6072, 5.0535649E-02
659.5356, 5.2386779E-02
661.4641, 5.4279350E-02
663.3926, 5.6053869E-02
665.3210, 5.8203980E-02
667.2495, 6.0665190E-02
669.1780, 6.2811397E-02
671.1064, 6.5082647E-02
673.0349, 6.7905478E-02
674.9634, 7.0194550E-02
676.8918, 7.2018430E-02
678.8203, 7.4591517E-02
680.7488, 7.7580594E-02
682.6772, 8.0440968E-02
684.6057, 8.3064333E-02
686.5342, 8.6635791E-02
688.4626, 9.0582132E-02
690.3911, 9.4528541E-02
692.3196, 9.8394386E-02
694.2480, 0.1022363
696.1765, 0.1066505
698.1050, 0.1114440
700.0334, 0.1161744
701.9619, 0.1209056
703.8904, 0.1258709
705.8188, 0.1308895
707.7473, 0.1365841
709.6758, 0.1427452
711.6042, 0.1490282
713.5327, 0.1554748
715.4612, 0.1622046
717.3896, 0.1692717
719.3181, 0.1767963
721.2466, 0.1848330
723.1750, 0.1930145
725.1035, 0.2013696
727.0320, 0.2100278
728.9604, 0.2192927
730.8889, 0.2294498
732.8174, 0.2397801
734.7458, 0.2505286
736.6743, 0.2618335
738.6028, 0.2733030
740.5313, 0.2847328
742.4597, 0.2972338
744.3882, 0.3102656
746.3167, 0.3224173
748.2451, 0.3349858
750.1736, 0.3477081
752.1021, 0.3602396
754.0305, 0.3722550
755.9590, 0.3845905
757.8875, 0.3960360
759.8159, 0.4048021
761.7444, 0.4116307
763.6729, 0.4161575
765.6013, 0.4177756
767.5298, 0.4167041
769.4583, 0.4158943
771.3867, 0.4153882
773.3152, 0.4144784
775.2437, 0.4139791
777.1721, 0.4119827
779.1006, 0.4083070
781.0291, 0.4041375
782.9575, 0.4008410
784.8860, 0.3976058
786.8145, 0.3934852
788.7429, 0.3875732
790.6714, 0.3785471
792.5999, 0.3677163
794.5283, 0.3570019
796.4568, 0.3460421
798.3853, 0.3359335
800.3137, 0.3274970
802.2422, 0.3215833
804.1707, 0.3172759
806.0991, 0.3138609
808.0276, 0.3106002
809.9561, 0.3070124
811.8845, 0.3025794
813.8130, 0.2966743
815.7415, 0.2909380
817.6699, 0.2849208
819.5984, 0.2781761
821.5269, 0.2712549
823.4553, 0.2641996
825.3838, 0.2561740
827.3123, 0.2477084
829.2407, 0.2386431
831.1692, 0.2298947
833.0977, 0.2213873
835.0261, 0.2146139
836.9546, 0.2110278
838.8831, 0.2108157
840.8115, 0.2130081
842.7400, 0.2144616
844.6685, 0.2137131
846.5969, 0.2120006
848.5254, 0.2098383
850.4539, 0.2068896
852.3823, 0.2036110
854.3108, 0.1993976
856.2393, 0.1934928
858.1677, 0.1867856
860.0962, 0.1807883
862.0247, 0.1758185
863.9531, 0.1708248
865.8816, 0.1655770
867.8101, 0.1610397
869.7385, 0.1563885
871.6670, 0.1510926
873.5955, 0.1459184
875.5239, 0.1404656
877.4524, 0.1345051
879.3809, 0.1281537
881.3093, 0.1221668
883.2378, 0.1160836
885.1663, 0.1097937
887.0947, 0.1033697
889.0232, 9.6731327E-02
890.9517, 9.0138987E-02
892.8801, 8.3790630E-02
894.8085, 7.7936307E-02
896.7370, 7.2084218E-02
898.6655, 6.6304132E-02
900.5939, 6.1278179E-02
902.5224, 5.6924339E-02
904.4509, 5.3435069E-02
906.3793, 5.0641160E-02
908.3078, 4.9044609E-02
910.2363, 4.8296079E-02
912.1647, 4.8102040E-02
914.0932, 4.8717219E-02
916.0217, 5.0082181E-02
917.9501, 5.1761009E-02
919.8786, 5.3622209E-02
921.8071, 5.6404911E-02
923.7355, 5.9665430E-02
925.6640, 6.2979832E-02
927.5925, 6.6575110E-02
929.5209, 7.0553087E-02
931.4494, 7.4426793E-02
933.3779, 7.7945791E-02
935.3063, 8.1383757E-02
937.2348, 8.4189773E-02
939.1633, 8.5762240E-02
941.0917, 8.6232543E-02
943.0202, 8.6249843E-02
944.9487, 8.5383996E-02
946.8771, 8.3279453E-02
948.8056, 8.0478407E-02
950.7341, 7.7170059E-02
952.6625, 7.3255919E-02
954.5910, 6.9477633E-02
956.5195, 6.5866373E-02
958.4479, 6.1942320E-02
960.3764, 5.7516970E-02
962.3049, 5.3109109E-02
964.2333, 4.9166039E-02
966.1618, 4.5302909E-02
968.0903, 4.1805040E-02
970.0187, 3.9421070E-02
971.9472, 3.7429899E-02
973.8757, 3.5491779E-02
975.8041, 3.3815932E-02
977.7326, 3.2126751E-02
979.6611, 3.0248979E-02
981.5895, 2.7806830E-02
983.5180, 2.4929799E-02
985.4465, 2.2094300E-02
987.3749, 1.9736459E-02
989.3034, 1.7962869E-02
991.2319, 1.6296869E-02
993.1603, 1.4624600E-02
995.0888, 1.3157730E-02
997.0173, 1.2278800E-02
998.9457, 1.1468390E-02
1000.874, 1.0901940E-02
1002.803, 1.0472590E-02
1004.731, 9.8230718E-03
1006.660, 9.5703108E-03
1008.588, 9.5522907E-03
1010.517, 9.4719566E-03
1012.445, 9.7487867E-03
1014.373, 1.0234270E-02
1016.302, 1.0516720E-02
1018.230, 1.1231770E-02
1020.159, 1.2552140E-02
1022.087, 1.3769920E-02
1024.016, 1.5118730E-02
1025.944, 1.7046120E-02
1027.873, 1.9935360E-02
1029.801, 2.3322839E-02
1031.730, 2.5744690E-02
1033.658, 2.6035540E-02
1035.587, 2.4015820E-02
1037.515, 2.0922450E-02
1039.444, 1.8132361E-02
1041.372, 1.5588590E-02
1043.301, 1.3379440E-02
1045.229, 1.1969050E-02
1047.157, 1.0559490E-02
1049.086, 9.4841141E-03
1051.014, 8.8414149E-03
1052.943, 8.1071910E-03
1054.871, 7.7954088E-03
1056.800, 7.4675698E-03
1058.728, 7.1931328E-03
1060.657, 7.4283350E-03
1062.585, 7.6483870E-03
1064.514, 7.9405578E-03
1066.442, 8.4734550E-03
1068.371, 9.2853336E-03
1070.299, 1.0537120E-02
1072.228, 1.2161600E-02
1074.156, 1.3977260E-02
1076.084, 1.6565800E-02
1078.013, 1.9989099E-02
1079.941, 2.3532519E-02
1081.870, 2.5770949E-02
1083.798, 2.4624720E-02
1085.727, 2.1183200E-02
1087.655, 1.7402690E-02
1089.584, 1.3914240E-02
1091.512, 1.0971660E-02
1093.441, 8.7967468E-03
1095.369, 7.4968981E-03
1097.298, 6.4987168E-03
1099.226, 5.6445249E-03
1101.155, 4.9836142E-03
1103.083, 4.5006089E-03
1105.011, 3.9771758E-03
1106.940, 3.5273221E-03
1108.868, 3.4325980E-03
1110.797, 3.3673791E-03
1112.725, 3.1744160E-03
1114.654, 3.0761319E-03
1116.582, 3.0286489E-03
1118.511, 2.8405399E-03
1120.439, 2.7784440E-03
1122.368, 3.0579790E-03
1124.296, 3.0839399E-03
1126.225, 2.8704570E-03
1128.153, 2.7952839E-03
1130.082, 2.8713581E-03
1132.010, 2.9457761E-03
1133.938, 2.9399721E-03
1135.867, 2.9571520E-03
1137.795, 2.9038789E-03
1139.724, 2.9855431E-03
1141.652, 2.9252940E-03
1143.581, 2.5601450E-03
1145.509, 2.5490120E-03
1147.438, 2.7057210E-03
1149.366, 2.5876430E-03
1151.295, 2.5480790E-03
1153.223, 2.3823320E-03
1155.152, 1.9989640E-03
1157.080, 2.0476331E-03
1159.009, 2.1891741E-03
1160.937, 2.0823230E-03
1162.865, 2.0915780E-03
1164.794, 2.1064610E-03
1166.722, 2.1192799E-03
1168.651, 2.2185801E-03
1170.579, 2.1071271E-03
1172.508, 2.0960059E-03
1174.436, 2.0824231E-03
1176.365, 2.0717359E-03
1178.293, 2.0778279E-03
1180.222, 2.1843449E-03
1182.150, 2.3215010E-03
1184.079, 2.2628100E-03
1186.007, 2.3130400E-03
1187.936, 2.6167091E-03
1189.864, 2.7771429E-03
1191.792, 2.8504450E-03
1193.721, 2.7810449E-03
1195.649, 2.5111190E-03
1197.578, 2.4574001E-03
1199.506, 2.5861091E-03
1201.435, 2.7995859E-03
1203.363, 2.8857330E-03
1205.292, 2.9353681E-03
1207.220, 2.8715581E-03
1209.149, 2.8069229E-03
1211.077, 2.9488120E-03
1213.006, 3.1327300E-03
1214.934, 3.1984481E-03
1216.863, 3.2419430E-03
1218.791, 3.1248869E-03
1220.719, 2.8511791E-03
1222.648, 2.9904470E-03
1224.576, 3.2462501E-03
1226.505, 3.3225690E-03
1228.433, 3.2310609E-03
1230.362, 3.0443650E-03
1232.290, 2.8934050E-03
1234.219, 2.7865469E-03
1236.147, 2.8497451E-03
1238.076, 3.1614660E-03
1240.004, 3.2995651E-03
1241.933, 3.2039559E-03
1243.861, 3.0338881E-03
1245.790, 2.9721980E-03
1247.718, 3.0101980E-03
1249.646, 3.2126680E-03
1251.575, 3.3105160E-03
1253.503, 3.2290251E-03
1255.432, 3.3409670E-03
1257.360, 3.3957290E-03
1259.289, 3.2833731E-03
1261.217, 3.2844080E-03
1263.146, 3.4439201E-03
1265.074, 3.5850820E-03
1267.003, 3.7866500E-03
1268.931, 3.8605910E-03
1270.860, 3.8127219E-03
1272.788, 3.8871679E-03
1274.717, 3.9872420E-03
1276.645, 3.9062579E-03
1278.573, 3.9009419E-03
1280.502, 4.0661660E-03
1282.430, 4.1268738E-03
1284.359, 4.0146960E-03
1286.287, 3.9816238E-03
1288.216, 4.0057008E-03
1290.144, 4.1715670E-03
1292.073, 4.4169528E-03
1294.001, 4.5587672E-03
1295.930, 4.6858890E-03
1297.858, 4.6024309E-03
1299.787, 4.6183378E-03
1301.715, 4.7052819E-03
1303.644, 4.7793789E-03
1305.572, 4.9654492E-03
1307.500, 5.1474399E-03
1309.429, 5.1071062E-03
1311.357, 5.1220590E-03
1313.286, 5.2001169E-03
1315.214, 5.1409360E-03
1317.143, 5.1563922E-03
1319.071, 5.3294739E-03
1321.000, 5.2704760E-03
1322.928, 5.2888221E-03
1324.857, 5.5031618E-03
1326.785, 5.3603691E-03
1328.714, 5.2072941E-03
1330.642, 5.3320900E-03
1332.571, 5.3336672E-03
1334.499, 5.3162579E-03
1336.427, 5.4959129E-03
1338.356, 5.5101421E-03
1340.284, 5.6121671E-03
1342.213, 5.7603479E-03
1344.141, 5.6861169E-03
1346.070, 5.5782008E-03
1347.998, 5.5645080E-03
1349.927, 5.3906948E-03
1351.855, 5.3881779E-03
1353.784, 5.5056112E-03
1355.712, 5.5562179E-03
1357.641, 5.5753482E-03
1359.569, 5.4603461E-03
1361.498, 5.4416228E-03
1363.426, 5.6078369E-03
1365.354, 5.6890040E-03
1367.283, 5.4143472E-03
1369.211, 5.3265900E-03
1371.140, 5.2872789E-03
1373.068, 5.1564928E-03
1374.997, 5.0440491E-03
1376.925, 4.9664881E-03
1378.854, 5.0134449E-03
1380.782, 5.1641720E-03
1382.711, 5.3638569E-03
1384.639, 5.5498080E-03
1386.568, 5.7027680E-03
1388.496, 5.7597440E-03
1390.424, 5.9852339E-03
1392.353, 6.1127748E-03
1394.281, 5.8934661E-03
1396.210, 5.7964451E-03
1398.138, 5.9933299E-03
1400.067, 6.1508170E-03
1401.995, 6.0100271E-03
1403.924, 6.0737971E-03
1405.852, 6.2606232E-03
1407.781, 6.4470591E-03
1409.709, 6.5856348E-03
1411.638, 6.5589929E-03
1413.566, 6.2695309E-03
1415.495, 6.2794820E-03
1417.423, 6.3616149E-03
1419.351, 6.2086908E-03
1421.280, 6.2029441E-03
1423.208, 6.2790448E-03
1425.137, 6.4619230E-03
1427.065, 6.4476309E-03
1428.994, 6.4601079E-03
1430.922, 6.4547271E-03
1432.851, 6.2175980E-03
1434.779, 5.8598798E-03
1436.708, 5.8937678E-03
1438.636, 6.0046520E-03
1440.565, 6.0215839E-03
1442.493, 5.9562102E-03
1444.422, 5.7541030E-03
1446.350, 5.6561059E-03
1448.278, 5.6255930E-03
1450.207, 5.6466060E-03
1452.135, 5.6636920E-03
1454.064, 5.4302830E-03
1455.992, 5.2190311E-03
1457.921, 5.1181032E-03
1459.849, 5.0284280E-03
1461.778, 5.0290320E-03
1463.706, 5.0449539E-03
1465.635, 4.9353871E-03
1467.563, 5.0267521E-03
1469.492, 5.5718911E-03
1471.420, 6.1322660E-03
1473.349, 6.6018840E-03
1475.277, 6.8821749E-03
1477.205, 6.9840178E-03
1479.134, 7.2123348E-03
1481.062, 7.4219638E-03
1482.991, 7.5722141E-03
1484.919, 7.7371211E-03
1486.848, 7.7172210E-03
1488.776, 7.4878968E-03
1490.705, 7.4527040E-03
1492.633, 7.6687899E-03
1494.562, 7.8386590E-03
1496.490, 7.8759063E-03
1498.419, 7.9813246E-03
1500.347, 7.9944516E-03
1502.276, 7.9011116E-03
1504.204, 8.1355488E-03
1506.132, 8.2994541E-03
1508.061, 8.1390943E-03
1509.989, 8.1869019E-03
1511.918, 8.1061106E-03
1513.846, 8.1258258E-03
1515.775, 8.4729148E-03
1517.703, 8.6028781E-03
1519.632, 8.4955189E-03
1521.560, 8.4398044E-03
1523.489, 8.4214937E-03
1525.417, 8.5742194E-03
1527.346, 8.7228063E-03
1529.274, 8.6478982E-03
1531.203, 8.5247131E-03
1533.131, 8.4290951E-03
1535.059, 8.4909573E-03
1536.988, 8.5623916E-03
1538.916, 8.6509734E-03
1540.845, 8.7570874E-03
1542.773, 8.7881926E-03
1544.702, 8.7145241E-03
1546.630, 8.6342767E-03
1548.559, 8.6496221E-03
1550.487, 8.7697320E-03
1552.416, 8.8620093E-03
1554.344, 9.0100514E-03
1556.273, 8.9939497E-03
1558.201, 8.8510187E-03
1560.130, 8.9424672E-03
1562.058, 8.9995647E-03
1563.986, 9.1355406E-03
1565.915, 9.3991533E-03
1567.843, 9.3125850E-03
1569.772, 9.2925113E-03
1571.700, 9.4914967E-03
1573.629, 9.4742253E-03
1575.557, 9.2541603E-03
1577.486, 9.1397362E-03
1579.414, 9.1899559E-03
1581.343, 9.3067959E-03
1583.271, 9.2610307E-03
1585.200, 9.2812730E-03
1587.128, 9.2242733E-03
1589.057, 9.2966072E-03
1590.985, 9.3598450E-03
1592.913, 9.3713226E-03
1594.842, 9.4938679E-03
1596.770, 9.5009794E-03
1598.699, 9.6253566E-03
1600.627, 9.8798107E-03
1602.556, 9.9605257E-03
1604.484, 9.9442527E-03
1606.413, 9.8853018E-03
1608.341, 9.8309685E-03
1610.270, 9.7631887E-03
1612.198, 9.8076845E-03
1614.127, 1.0105650E-02
1616.055, 1.0302640E-02
1617.984, 1.0327470E-02
1619.912, 1.0382620E-02
1621.840, 1.0426900E-02
1623.769, 1.0214260E-02
1625.697, 1.0050850E-02
1627.626, 1.0132790E-02
1629.554, 1.0356860E-02
1631.483, 1.0460980E-02
1633.411, 1.0259040E-02
1635.340, 1.0131160E-02
1637.268, 1.0104160E-02
1639.197, 1.0046240E-02
1641.125, 9.9373367E-03
1643.054, 1.0124100E-02
1644.982, 1.0368230E-02
1646.911, 1.0183530E-02
1648.839, 9.8968605E-03
1650.767, 9.7362483E-03
1652.696, 9.4245151E-03
1654.624, 9.4354181E-03
1656.553, 9.6739046E-03
1658.481, 9.6863387E-03
1660.410, 9.5458897E-03
1662.338, 9.5356936E-03
1664.267, 9.6556768E-03
1666.195, 9.5232641E-03
1668.124, 9.4327088E-03
1670.052, 9.5735285E-03
1671.981, 9.5959865E-03
1673.909, 9.5065339E-03
1675.838, 9.4088372E-03
1677.766, 9.3686478E-03
1679.694, 9.2771091E-03
1681.623, 9.2866886E-03
1683.551, 9.1764526E-03
1685.480, 9.0213167E-03
1687.408, 9.0380292E-03
1689.337, 9.0151262E-03
1691.265, 8.8748597E-03
1693.194, 8.6624324E-03
1695.122, 8.4585892E-03
1697.051, 8.2371468E-03
1698.979, 8.0644218E-03
1700.908, 7.7523668E-03
1702.836, 7.3011820E-03
1704.765, 7.0139868E-03
1706.693, 6.7835860E-03
1708.621, 6.4413762E-03
1710.550, 6.2626060E-03
1712.478, 6.1032660E-03
1714.407, 6.1491020E-03
1716.335, 6.3356250E-03
1718.264, 6.6060890E-03
1720.192, 6.6456199E-03
1722.121, 6.5020472E-03
1724.049, 6.4539872E-03
1725.978, 6.5699592E-03
1727.906, 6.5905801E-03
1729.835, 6.6766748E-03
1731.763, 6.2651951E-03
1733.692, 5.8066859E-03
1735.620, 5.7662912E-03
1737.548, 5.4710489E-03
1739.477, 5.1982058E-03
1741.405, 5.2714478E-03
1743.334, 5.2653439E-03
1745.262, 5.4659820E-03
1747.191, 6.0509150E-03
1749.119, 6.5478249E-03
1751.048, 6.7875241E-03
1752.976, 7.0615360E-03
1754.905, 7.8421338E-03
1756.833, 8.3389701E-03
1758.762, 8.3976099E-03
1760.690, 8.7367687E-03
1762.619, 9.1119213E-03
1764.547, 9.2167938E-03
1766.475, 9.3241967E-03
1768.404, 9.4943075E-03
1770.332, 9.7718975E-03
1772.261, 1.0049120E-02
1774.189, 1.0173490E-02
1776.118, 9.9324547E-03
1778.046, 9.7583421E-03
1779.975, 9.9698147E-03
1781.903, 1.0130070E-02
1783.832, 1.0017110E-02
1785.760, 1.0046580E-02
1787.689, 1.0155610E-02
1789.617, 1.0095750E-02
1791.546, 9.9751037E-03
1793.474, 9.8788273E-03
1795.402, 9.9368282E-03
1797.331, 9.9381162E-03
1799.259, 1.0211950E-02
1801.188, 1.0307520E-02
1803.116, 1.0342300E-02
1805.045, 1.0127120E-02
1806.973, 9.8112430E-03
1808.902, 9.8790983E-03
1810.830, 1.0237500E-02
1812.759, 1.0577990E-02
1814.687, 1.0396840E-02
1816.616, 1.0240520E-02
1818.544, 1.0421610E-02
1820.473, 1.0516990E-02
1822.401, 1.0460880E-02
1824.329, 1.0489120E-02
1826.258, 1.0406510E-02
1828.186, 1.0198150E-02
1830.115, 1.0355570E-02
1832.043, 1.0681660E-02
1833.972, 1.0755700E-02
1835.900, 1.0541400E-02
1837.829, 1.0601930E-02
1839.757, 1.0655170E-02
1841.686, 1.0612860E-02
1843.614, 1.0540450E-02
1845.543, 1.0361750E-02
1847.471, 1.0412680E-02
1849.400, 1.0577890E-02
1851.328, 1.0677110E-02
1853.256, 1.0530130E-02
1855.185, 1.0513900E-02
1857.113, 1.0591440E-02
1859.042, 1.0555930E-02
1860.970, 1.0371550E-02
1862.899, 1.0144080E-02
1864.827, 1.0351910E-02
1866.756, 1.0461390E-02
1868.684, 1.0701290E-02
1870.613, 1.0721600E-02
1872.541, 1.0851520E-02
1874.470, 1.0609740E-02
1876.398, 1.0324350E-02
1878.327, 1.0346920E-02
1880.255, 1.0711850E-02
1882.183, 1.0533380E-02
1884.112, 1.0380650E-02
1886.040, 1.0781710E-02
1887.969, 1.1236160E-02
1889.897, 1.0936770E-02
1891.826, 1.0583940E-02
1893.754, 1.0803620E-02
1895.683, 1.0986310E-02
1897.611, 1.0840450E-02
1899.540, 1.1175430E-02
1901.468, 1.1592340E-02
1903.397, 1.1090410E-02
1905.325, 1.0279090E-02
1907.254, 1.0250690E-02
1909.182, 1.0561120E-02
1911.110, 1.0544450E-02
1913.039, 1.0762220E-02
1914.967, 1.1055100E-02
1916.896, 1.0749450E-02
1918.824, 1.0676160E-02
1920.753, 1.0869560E-02
1922.681, 1.0188450E-02
1924.610, 9.7015854E-03
1926.538, 1.0376270E-02
1928.467, 1.1127530E-02
1930.395, 1.0686140E-02
1932.324, 1.0634050E-02
1934.252, 1.1304100E-02
1936.181, 1.1550620E-02
1938.109, 1.1642570E-02
1940.037, 1.1873180E-02
1941.966, 1.1583560E-02
1943.894, 1.2134720E-02
1945.823, 1.2255970E-02
1947.751, 1.1111560E-02
1949.680, 1.1429270E-02
1951.608, 1.1768760E-02
1953.537, 1.2508930E-02
1955.465, 1.2197180E-02
1957.394, 1.0411020E-02
1959.322, 1.0467840E-02
1961.251, 1.1243840E-02
1963.179, 1.1568050E-02
1965.108, 1.2000730E-02
1967.036, 1.2027030E-02
1968.964, 1.1984180E-02
1970.893, 1.1793310E-02
1972.821, 1.1975010E-02
1974.750, 1.0563570E-02
1976.678, 1.0794250E-02
1978.607, 1.3304310E-02
1980.535, 1.4398590E-02
1982.464, 1.3387510E-02
1984.392, 1.1994460E-02
1986.321, 1.1549770E-02
1988.249, 1.1776380E-02
1990.178, 1.3412040E-02
1992.106, 1.3207840E-02
1994.035, 1.2030020E-02
1995.963, 1.1461960E-02
1997.891, 1.1873900E-02
1999.820, 1.1562190E-02
2001.748, 1.1439000E-02
2003.677, 1.1775330E-02
2005.605, 1.2500950E-02
2007.534, 1.2811490E-02
2009.462, 1.2034010E-02
2011.391, 1.1556990E-02
2013.319, 1.0919300E-02
2015.248, 1.1420320E-02
2017.176, 1.2160550E-02
2019.105, 1.2071450E-02
2021.033, 1.2328160E-02
2022.962, 1.2213330E-02
2024.890, 1.1464440E-02
2026.818, 1.2093290E-02
2028.747, 1.2260460E-02
2030.675, 1.1301340E-02
2032.604, 1.2109440E-02
2034.532, 1.3923200E-02
2036.461, 1.4411570E-02
2038.389, 1.3537030E-02
2040.318, 1.2611150E-02
2042.246, 1.2795860E-02
2044.175, 1.2948120E-02
2046.103, 1.3375690E-02
2048.032, 1.3975040E-02
2049.960, 1.3619800E-02
2051.889, 1.2980450E-02
2053.817, 1.2895110E-02
2055.746, 1.2741060E-02
2057.674, 1.2298370E-02
2059.603, 1.1796300E-02
2061.531, 1.1861200E-02
2063.459, 1.1857660E-02
2065.388, 1.1748060E-02
2067.316, 1.1293830E-02
2069.245, 1.2066640E-02
2071.173, 1.2182560E-02
2073.102, 1.1816630E-02
2075.030, 1.2686440E-02
2076.959, 1.2773100E-02
2078.887, 1.2245500E-02
2080.816, 1.2229720E-02
2082.744, 1.3240730E-02
2084.673, 1.2760780E-02
2086.601, 1.1875500E-02
2088.530, 1.1724880E-02
2090.458, 1.2264110E-02
2092.386, 1.2341690E-02
2094.315, 1.2021510E-02
2096.243, 1.2203380E-02
2098.172, 1.2256680E-02
2100.100, 1.2283680E-02
2102.029, 1.2236740E-02
2103.957, 1.1750990E-02
2105.886, 1.1411240E-02
2107.814, 1.1620080E-02
2109.743, 1.2499690E-02
2111.671, 1.2768660E-02
2113.600, 1.2604190E-02
2115.528, 1.2109570E-02
2117.457, 1.1582750E-02
2119.385, 1.1582070E-02
2121.313, 1.1561210E-02
2123.242, 1.1758510E-02
2125.170, 1.1961460E-02
2127.099, 1.1566380E-02
2129.027, 1.1541470E-02
2130.956, 1.1573420E-02
2132.884, 1.0469840E-02
2134.813, 1.0808890E-02
2136.741, 1.1518060E-02
2138.670, 1.1478730E-02
2140.598, 1.1657070E-02
2142.527, 1.1986800E-02
2144.455, 1.1594900E-02
2146.384, 1.2155200E-02
2148.312, 1.2904630E-02
2150.240, 1.2803810E-02
2152.169, 1.2308050E-02
2154.097, 1.2891220E-02
2156.026, 1.1590640E-02
2157.954, 9.8281894E-03
2159.883, 1.2126400E-02
2161.811, 1.3345620E-02
2163.740, 1.3652490E-02
2165.668, 1.2701690E-02
2167.597, 1.2613840E-02
2169.525, 1.2727440E-02
2171.454, 1.1428250E-02
2173.382, 1.1374160E-02
2175.311, 1.2964470E-02
2177.239, 1.2801050E-02
2179.167, 1.2390480E-02
2181.096, 1.3982020E-02
2183.024, 1.4423660E-02
2184.953, 1.3714070E-02
2186.881, 1.3825530E-02
2188.810, 1.3323070E-02
2190.738, 1.2443630E-02
2192.667, 1.2202320E-02
2194.595, 1.2243220E-02
2196.524, 1.2443460E-02
2198.452, 1.2928010E-02
2200.381, 1.2703460E-02
2202.309, 1.2611520E-02
2204.238, 1.3192540E-02
2206.166, 1.3376300E-02
2208.094, 1.3155450E-02
2210.023, 1.3284600E-02
2211.951, 1.2697800E-02
2213.880, 1.2473940E-02
2215.808, 1.2395660E-02
2217.737, 1.2129610E-02
2219.665, 1.1933190E-02
2221.594, 1.1922770E-02
2223.522, 1.2419490E-02
2225.451, 1.2696360E-02
2227.379, 1.3041970E-02
2229.308, 1.2909480E-02
2231.236, 1.2751060E-02
2233.165, 1.2609780E-02
2235.093, 1.2659280E-02
2237.021, 1.3956800E-02
2238.950, 1.4106280E-02
2240.878, 1.2866810E-02
2242.807, 1.2400120E-02
2244.735, 1.2231730E-02
2246.664, 1.2287390E-02
2248.592, 1.2786990E-02
2250.521, 1.3580070E-02
2252.449, 1.3647080E-02
2254.378, 1.3390000E-02
2256.306, 1.3914510E-02
2258.235, 1.4157970E-02
2260.163, 1.3362330E-02
2262.092, 1.2933060E-02
2264.020, 1.3306090E-02
2265.948, 1.3841710E-02
2267.877, 1.3845820E-02
2269.805, 1.3944280E-02
2271.734, 1.3763450E-02
2273.662, 1.3254260E-02
2275.591, 1.3384570E-02
2277.519, 1.3489180E-02
2279.448, 1.3422190E-02
2281.376, 1.3818590E-02
2283.305, 1.3926420E-02
2285.233, 1.3716940E-02
2287.162, 1.3276500E-02
2289.090, 1.3312130E-02
2291.019, 1.3321800E-02
2292.947, 1.3358740E-02
2294.875, 1.3599590E-02
2296.804, 1.3434160E-02
2298.732, 1.3169690E-02
2300.661, 1.3226280E-02
2302.589, 1.3436820E-02
2304.518, 1.3354060E-02
2306.446, 1.3265430E-02
2308.375, 1.3550020E-02
2310.303, 1.3608930E-02
2312.232, 1.3531800E-02
2314.160, 1.3380300E-02
2316.089, 1.3396190E-02
2318.017, 1.3259730E-02
2319.946, 1.3352380E-02
2321.874, 1.3794680E-02
2323.802, 1.4225280E-02
2325.731, 1.3501420E-02
2327.659, 1.2791010E-02
2329.588, 1.2908420E-02
2331.516, 1.3083080E-02
2333.445, 1.2932520E-02
2335.373, 1.2807940E-02
2337.302, 1.2981910E-02
2339.230, 1.3169480E-02
2341.159, 1.2979390E-02
2343.087, 1.2800330E-02
2345.016, 1.2945930E-02
2346.944, 1.3245580E-02
2348.873, 1.3167880E-02
2350.801, 1.2836330E-02
2352.729, 1.3022200E-02
2354.658, 1.3330310E-02
2356.586, 1.2973720E-02
2358.515, 1.2543000E-02
2360.443, 1.2321440E-02
2362.372, 1.2515920E-02
2364.300, 1.2766790E-02
2366.229, 1.2493350E-02
2368.157, 1.2279820E-02
2370.086, 1.2298810E-02
2372.014, 1.2429170E-02
2373.942, 1.2953070E-02
2375.871, 1.3098210E-02
2377.799, 1.3204350E-02
2379.728, 1.3369400E-02
2381.656, 1.3157290E-02
2383.585, 1.2899440E-02
2385.513, 1.3185880E-02
2387.442, 1.3316030E-02
2389.370, 1.3001070E-02
2391.299, 1.3045380E-02
2393.227, 1.2991510E-02
2395.156, 1.2836090E-02
2397.084, 1.3078780E-02
2399.012, 1.3256550E-02
2400.941, 1.3059790E-02
2402.869, 1.3099710E-02
2404.798, 1.3027730E-02
2406.726, 1.3026130E-02
2408.655, 1.3153600E-02
2410.583, 1.3171190E-02
2412.512, 1.3017830E-02
2414.440, 1.2844630E-02
2416.369, 1.2899990E-02
2418.297, 1.2897530E-02
2420.226, 1.2736040E-02
2422.154, 1.2538570E-02
2424.083, 1.3031280E-02
2426.011, 1.3716640E-02
2427.939, 1.3834500E-02
2429.868, 1.3630500E-02
2431.796, 1.3556620E-02
2433.725, 1.3497490E-02
2435.653, 1.3640960E-02
2437.582, 1.3902190E-02
2439.510, 1.4135890E-02
2441.439, 1.3738210E-02
2443.367, 1.3768650E-02
2445.296, 1.4151710E-02
2447.224, 1.4294780E-02
2449.153, 1.3958890E-02
2451.081, 1.3579530E-02
2453.010, 1.3833400E-02
2454.938, 1.3723030E-02
2456.866, 1.3218600E-02
2458.795, 1.3110230E-02
2460.723, 1.3470010E-02
2462.652, 1.3770770E-02
2464.580, 1.3733630E-02
2466.509, 1.3724360E-02
2468.437, 1.3842640E-02
2470.366, 1.3675770E-02
2472.294, 1.3230960E-02
2474.223, 1.2905350E-02
2476.151, 1.3224170E-02
2478.080, 1.3814070E-02
2480.008, 1.4277590E-02
2481.937, 1.3936750E-02
2483.865, 1.3562260E-02
2485.793, 1.3893300E-02
2487.722, 1.3830250E-02
2489.650, 1.3585230E-02
2491.579, 1.3595560E-02
2493.507, 1.3573060E-02
2495.436, 1.3738520E-02
2497.364, 1.4388280E-02
2499.293, 1.4205690E-02
2501.221, 1.3639940E-02
2503.150, 1.3423870E-02
2505.078, 1.3257850E-02
2507.007, 1.2985460E-02
2508.935, 1.3202510E-02
2510.864, 1.3182290E-02
2512.792, 1.3264710E-02
2514.720, 1.3529580E-02
2516.649, 1.3660040E-02
2518.577, 1.3517990E-02
2520.506, 1.3606910E-02
2522.434, 1.3565610E-02
2524.363, 1.3539560E-02
2526.291, 1.4141570E-02
2528.220, 1.4441370E-02
2530.148, 1.3982840E-02
2532.077, 1.3981950E-02
2534.005, 1.3929630E-02
2535.934, 1.3257030E-02
2537.862, 1.3164870E-02
2539.791, 1.3564420E-02
2541.719, 1.3544380E-02
2543.647, 1.3475780E-02
2545.576, 1.3943250E-02
2547.504, 1.4081130E-02
2549.433, 1.3842700E-02
2551.361, 1.3462110E-02
2553.290, 1.3758840E-02
2555.218, 1.4108610E-02
2557.147, 1.4268310E-02
2559.075, 1.4175460E-02
2561.004, 1.3815990E-02
2562.932, 1.3670370E-02
2564.861, 1.3704080E-02
2566.789, 1.3823510E-02
2568.718, 1.4342550E-02
2570.646, 1.4899860E-02
2572.574, 1.4243250E-02
2574.503, 1.3545440E-02
2576.431, 1.3452370E-02
2578.360, 1.3368000E-02
2580.288, 1.3054470E-02
2582.217, 1.3601640E-02
2584.145, 1.4196110E-02
2586.074, 1.4334130E-02
2588.002, 1.4062580E-02
2589.931, 1.3813250E-02
2591.859, 1.4114260E-02
2593.788, 1.4437260E-02
2595.716, 1.4138010E-02
2597.645, 1.3863370E-02
2599.573, 1.3911600E-02
2601.501, 1.4081400E-02
2603.430, 1.4214660E-02
2605.358, 1.3963850E-02
2607.287, 1.3930320E-02
2609.215, 1.3883690E-02
2611.144, 1.3885090E-02
2613.072, 1.3855020E-02
2615.001, 1.3231340E-02
2616.929, 1.2954160E-02
2618.858, 1.3634500E-02
2620.786, 1.4210720E-02
2622.715, 1.4348580E-02
2624.643, 1.4155160E-02
2626.572, 1.4035610E-02
2628.500, 1.3931280E-02
2630.428, 1.3771390E-02
2632.357, 1.4189600E-02
2634.285, 1.4591490E-02
2636.214, 1.4275160E-02
2638.142, 1.4005940E-02
2640.071, 1.3888990E-02
2641.999, 1.3749840E-02
2643.928, 1.3746830E-02
2645.856, 1.3997140E-02
2647.785, 1.4048480E-02
2649.713, 1.3946570E-02
2651.642, 1.3919300E-02
2653.570, 1.4009630E-02
2655.499, 1.4039950E-02
2657.427, 1.4007170E-02
2659.355, 1.4096320E-02
2661.284, 1.3833710E-02
2663.212, 1.3615420E-02
2665.141, 1.3588180E-02
2667.069, 1.3716770E-02
2668.998, 1.3660450E-02
2670.926, 1.3664760E-02
2672.855, 1.3677580E-02
2674.783, 1.3670200E-02
2676.712, 1.3589410E-02
2678.640, 1.3523260E-02
2680.569, 1.3582090E-02
2682.497, 1.3690510E-02
2684.426, 1.3782440E-02
2686.354, 1.3743070E-02
2688.282, 1.3491160E-02
2690.211, 1.3587970E-02
2692.139, 1.3905310E-02
2694.068, 1.3821870E-02
2695.996, 1.3612380E-02
2697.925, 1.3536900E-02
2699.853, 1.3533720E-02
2701.782, 1.3471030E-02
2703.710, 1.3396830E-02
2705.639, 1.3655300E-02
2707.567, 1.3740120E-02
2709.496, 1.3788060E-02
2711.424, 1.3973320E-02
2713.353, 1.4622660E-02
2715.281, 1.5024710E-02
2717.209, 1.4365480E-02
2719.138, 1.3584270E-02
2721.066, 1.3469450E-02
2722.995, 1.4039160E-02
2724.923, 1.4222980E-02
2726.852, 1.4405980E-02
2728.780, 1.4576740E-02
2730.709, 1.4331830E-02
2732.637, 1.4147430E-02
2734.566, 1.3940360E-02
2736.494, 1.4388400E-02
2738.423, 1.4831540E-02
2740.351, 1.4077720E-02
2742.280, 1.3475520E-02
2744.208, 1.3554450E-02
2746.136, 1.3876100E-02
2748.065, 1.4320640E-02
2749.993, 1.4802800E-02
2751.922, 1.4679080E-02
2753.850, 1.4459690E-02
2755.779, 1.4339290E-02
2757.707, 1.4585950E-02
2759.636, 1.4415430E-02
2761.564, 1.4448210E-02
2763.493, 1.4465120E-02
2765.421, 1.4418080E-02
2767.350, 1.4488220E-02
2769.278, 1.4569360E-02
2771.207, 1.4389460E-02
2773.135, 1.4294940E-02
2775.063, 1.4780230E-02
2776.992, 1.4892640E-02
2778.920, 1.4420150E-02
2780.849, 1.4643500E-02
2782.777, 1.4599790E-02
2784.706, 1.4528210E-02
2786.634, 1.4667210E-02
2788.563, 1.4289920E-02
2790.491, 1.4216270E-02
2792.420, 1.4438880E-02
2794.348, 1.4464470E-02
2796.277, 1.4415890E-02
2798.205, 1.4749840E-02
2800.134, 1.4936560E-02
2802.062, 1.4644760E-02
2803.990, 1.4448780E-02
2805.919, 1.4601920E-02
2807.847, 1.5078230E-02
2809.776, 1.5227600E-02
2811.704, 1.4909790E-02
2813.633, 1.4746600E-02
2815.561, 1.4353550E-02
2817.490, 1.4275520E-02
2819.418, 1.4419160E-02
2821.347, 1.4672160E-02
2823.275, 1.5201780E-02
2825.204, 1.5467100E-02
2827.132, 1.4890070E-02
2829.061, 1.4477490E-02
2830.989, 1.5035740E-02
2832.917, 1.5251070E-02
2834.846, 1.4692720E-02
2836.774, 1.4437220E-02
2838.703, 1.4701080E-02
2840.631, 1.4475310E-02
2842.560, 1.4379940E-02
2844.488, 1.4119560E-02
2846.417, 1.4122790E-02
2848.345, 1.4717080E-02
2850.274, 1.5124260E-02
2852.202, 1.4897450E-02
2854.131, 1.4357190E-02
2856.059, 1.3912610E-02
2857.988, 1.4433900E-02
2859.916, 1.4636390E-02
2861.844, 1.4467460E-02
2863.773, 1.4579800E-02
2865.701, 1.4537460E-02
2867.630, 1.4146500E-02
2869.558, 1.3701790E-02
2871.487, 1.3864820E-02
2873.415, 1.4615590E-02
2875.344, 1.5012930E-02
2877.272, 1.4843290E-02
2879.201, 1.4618020E-02
2881.129, 1.4739030E-02
2883.058, 1.4212010E-02
2884.986, 1.3956590E-02
2886.915, 1.4199580E-02
2888.843, 1.4438850E-02
2890.771, 1.4519210E-02
2892.700, 1.4297810E-02
2894.628, 1.4077930E-02
2896.557, 1.4316700E-02
2898.485, 1.4914070E-02
2900.414, 1.4944100E-02
2902.342, 1.4615020E-02
2904.271, 1.4347200E-02
2906.199, 1.4598840E-02
2908.128, 1.5293070E-02
2910.056, 1.5569260E-02
2911.985, 1.5425970E-02
2913.913, 1.5736289E-02
2915.842, 1.5589150E-02
2917.770, 1.5929449E-02
2919.698, 1.6780101E-02
2921.627, 1.5907859E-02
2923.555, 1.4619740E-02
2925.484, 1.4598300E-02
2927.412, 1.4344610E-02
2929.341, 1.4198060E-02
2931.269, 1.4192660E-02
2933.198, 1.4558360E-02
2935.126, 1.4765000E-02
2937.055, 1.3716770E-02
2938.983, 1.3559160E-02
2940.912, 1.4305710E-02
2942.840, 1.4558040E-02
2944.769, 1.4189150E-02
2946.697, 1.3599200E-02
2948.625, 1.3420240E-02
2950.554, 1.3711860E-02
2952.482, 1.3990900E-02
2954.411, 1.3856330E-02
2956.339, 1.4574980E-02
2958.268, 1.5062670E-02
2960.196, 1.4553180E-02
2962.125, 1.4560340E-02
2964.053, 1.5037410E-02
2965.982, 1.4738630E-02
2967.910, 1.4754380E-02
2969.839, 1.5084370E-02
2971.767, 1.4742790E-02
2973.696, 1.4128330E-02
2975.624, 1.4190720E-02
2977.552, 1.4377330E-02
2979.481, 1.4718530E-02
2981.409, 1.4941930E-02
2983.338, 1.5416970E-02
2985.266, 1.5939681E-02
2987.195, 1.5947299E-02
2989.123, 1.5667871E-02
2991.052, 1.5779730E-02
2992.980, 1.5584150E-02
2994.909, 1.4561770E-02
2996.837, 1.4623950E-02
2998.766, 1.5646029E-02
3000.694, 1.6268389E-02
3002.623, 1.6302450E-02
3004.551, 1.6657559E-02
3006.479, 1.6109040E-02
3008.408, 1.5052130E-02
3010.336, 1.5243420E-02
3012.265, 1.5343120E-02
3014.193, 1.5415500E-02
3016.122, 1.5607250E-02
3018.050, 1.5599220E-02
3019.979, 1.5896291E-02
3021.907, 1.6584231E-02
3023.836, 1.6680310E-02
3025.764, 1.6551690E-02
3027.693, 1.5956551E-02
3029.621, 1.5592050E-02
3031.550, 1.4452180E-02
3033.478, 1.3981010E-02
3035.406, 1.4928810E-02
3037.335, 1.4843480E-02
3039.263, 1.4828570E-02
3041.192, 1.5608790E-02
3043.120, 1.5494110E-02
3045.049, 1.4891590E-02
3046.977, 1.4862190E-02
3048.906, 1.4956650E-02
3050.834, 1.5038650E-02
3052.763, 1.5192000E-02
3054.691, 1.5304920E-02
3056.620, 1.5786750E-02
3058.548, 1.5709970E-02
3060.477, 1.5136920E-02
3062.405, 1.5006270E-02
3064.333, 1.4685760E-02
3066.262, 1.4980580E-02
3068.190, 1.5173180E-02
3070.119, 1.4376750E-02
3072.047, 1.4065990E-02
3073.976, 1.4461250E-02
3075.904, 1.5082430E-02
3077.833, 1.5959259E-02
3079.761, 1.5707210E-02
3081.690, 1.5390210E-02
3083.618, 1.5457040E-02
3085.547, 1.6197279E-02
3087.475, 1.6856991E-02
3089.404, 1.6418779E-02
3091.332, 1.5546990E-02
3093.260, 1.5711920E-02
3095.189, 1.5821390E-02
3097.117, 1.5719891E-02
3099.046, 1.5747851E-02
3100.974, 1.6065490E-02
3102.903, 1.6672270E-02
3104.831, 1.6521949E-02
3106.760, 1.5845411E-02
3108.688, 1.5319600E-02
3110.617, 1.5368210E-02
3112.545, 1.6406020E-02
3114.474, 1.6379170E-02
3116.402, 1.5970759E-02
3118.331, 1.5364300E-02
3120.259, 1.5110550E-02
3122.188, 1.5278350E-02
3124.116, 1.5701121E-02
3126.044, 1.6545299E-02
3127.973, 1.6603511E-02
3129.901, 1.6002260E-02
3131.830, 1.6483050E-02
3133.758, 1.6557351E-02
3135.687, 1.5944980E-02
3137.615, 1.5796060E-02
3139.544, 1.6010219E-02
3141.472, 1.6091449E-02
3143.401, 1.5743989E-02
3145.329, 1.5446120E-02
3147.258, 1.5415780E-02
3149.186, 1.4970710E-02
3151.115, 1.4703150E-02
3153.043, 1.5362280E-02
3154.971, 1.5788039E-02
3156.900, 1.6132809E-02
3158.828, 1.5822060E-02
3160.757, 1.5787210E-02
3162.685, 1.5905119E-02
3164.614, 1.5508710E-02
3166.542, 1.5573610E-02
3168.471, 1.5712380E-02
3170.399, 1.6148429E-02
3172.328, 1.6597159E-02
3174.256, 1.6346211E-02
3176.185, 1.6182199E-02
3178.113, 1.6157370E-02
3180.042, 1.6036469E-02
3181.970, 1.6103551E-02
3183.898, 1.6049501E-02
3185.827, 1.6372530E-02
3187.755, 1.6196540E-02
3189.684, 1.6097151E-02
3191.612, 1.6017489E-02
3193.541, 1.5741279E-02
3195.469, 1.5748831E-02
3197.398, 1.6349480E-02
3199.326, 1.6448090E-02
3201.255, 1.6061939E-02
3203.183, 1.5883500E-02
3205.112, 1.6227700E-02
3207.040, 1.6391139E-02
3208.969, 1.6701959E-02
3210.897, 1.7034439E-02
3212.825, 1.6878471E-02
3214.754, 1.6177000E-02
3216.682, 1.5912130E-02
3218.611, 1.5576080E-02
3220.539, 1.5533810E-02
3222.468, 1.5558910E-02
3224.396, 1.5750760E-02
3226.325, 1.6232450E-02
3228.253, 1.6501261E-02
3230.182, 1.6425140E-02
3232.110, 1.6290510E-02
3234.039, 1.6306849E-02
3235.967, 1.6910641E-02
3237.896, 1.7132729E-02
3239.824, 1.6519200E-02
3241.752, 1.6122321E-02
3243.681, 1.6683470E-02
3245.609, 1.6761711E-02
3247.538, 1.6677519E-02
3249.466, 1.7143000E-02
3251.395, 1.7531460E-02
3253.323, 1.7400829E-02
3255.252, 1.7159609E-02
3257.180, 1.7479680E-02
3259.109, 1.8017890E-02
3261.037, 1.7656291E-02
3262.966, 1.7689969E-02
3264.894, 1.7502129E-02
3266.823, 1.7071109E-02
3268.751, 1.6605290E-02
3270.679, 1.6549110E-02
3272.608, 1.7100710E-02
3274.536, 1.7234420E-02
3276.465, 1.6996231E-02
3278.393, 1.6917670E-02
3280.322, 1.6765529E-02
3282.250, 1.7423769E-02
3284.179, 1.8057950E-02
3286.107, 1.8084830E-02
3288.036, 1.7853661E-02
3289.964, 1.7713480E-02
3291.893, 1.7849240E-02
3293.821, 1.8076049E-02
3295.750, 1.7699290E-02
3297.678, 1.7518800E-02
3299.606, 1.7903520E-02
3301.535, 1.7963670E-02
3303.463, 1.8070631E-02
3305.392, 1.8085210E-02
3307.320, 1.8420540E-02
3309.249, 1.8900361E-02
3311.177, 1.8597919E-02
3313.106, 1.8524330E-02
3315.034, 1.8579381E-02
3316.963, 1.8314909E-02
3318.891, 1.8514309E-02
3320.820, 1.8428460E-02
3322.748, 1.8145731E-02
3324.677, 1.8642880E-02
3326.605, 1.8984981E-02
3328.533, 1.8559881E-02
3330.462, 1.7873820E-02
3332.390, 1.8255809E-02
3334.319, 1.9069349E-02
3336.247, 1.9101029E-02
3338.176, 1.9624259E-02
3340.104, 1.9462680E-02
3342.033, 1.8318711E-02
3343.961, 1.8267671E-02
3345.890, 1.8191300E-02
3347.818, 1.8147910E-02
3349.747, 1.8574920E-02
3351.675, 1.8713409E-02
3353.604, 1.8804610E-02
3355.532, 1.8658200E-02
3357.460, 1.8945901E-02
3359.389, 1.9385239E-02
3361.317, 1.9185551E-02
3363.246, 1.8853091E-02
3365.174, 1.9069239E-02
3367.103, 1.9328810E-02
3369.031, 1.9305181E-02
3370.960, 1.9515321E-02
3372.888, 1.9352879E-02
3374.817, 1.9413130E-02
3376.745, 1.9827070E-02
3378.674, 1.9591160E-02
3380.602, 1.9582940E-02
3382.531, 2.0072689E-02
3384.459, 2.0043500E-02
3386.387, 2.0256920E-02
3388.316, 2.0406401E-02
3390.244, 2.1103950E-02
3392.173, 2.1850331E-02
3394.101, 2.1749429E-02
3396.030, 2.1823950E-02
3397.958, 2.1794301E-02
3399.887, 2.2492411E-02
3401.815, 2.3648741E-02
3403.744, 2.3477331E-02
3405.672, 2.2826420E-02
3407.601, 2.4381660E-02
3409.529, 2.6108230E-02
3411.458, 2.6931509E-02
3413.386, 2.7781039E-02
3415.314, 2.8214000E-02
3417.243, 2.8307069E-02
3419.171, 2.9243600E-02
3421.100, 3.0109070E-02
3423.028, 3.0713281E-02
3424.957, 3.0730460E-02
3426.885, 3.1033959E-02
3428.814, 3.0981470E-02
3430.742, 3.0203300E-02
3432.671, 2.9490490E-02
3434.599, 2.9062221E-02
3436.528, 2.8390329E-02
3438.456, 2.8378550E-02
3440.385, 2.8065840E-02
3442.313, 2.7265809E-02
3444.241, 2.6210360E-02
3446.170, 2.4511360E-02
3448.098, 2.3847900E-02
3450.027, 2.3930980E-02
3451.955, 2.2879429E-02
3453.884, 2.1895001E-02
3455.812, 2.1447441E-02
3457.741, 2.1067500E-02
3459.669, 2.0329449E-02
3461.598, 2.0152610E-02
3463.526, 1.9991489E-02
3465.455, 1.9414861E-02
3467.383, 1.8279970E-02
3469.312, 1.7088030E-02
3471.240, 1.7031889E-02
3473.168, 1.7751999E-02
3475.097, 1.7569650E-02
3477.025, 1.7578760E-02
3478.954, 1.7387930E-02
3480.882, 1.7077889E-02
3482.811, 1.7424449E-02
3484.739, 1.6993850E-02
3486.668, 1.6470321E-02
3488.596, 1.6634140E-02
3490.525, 1.6648490E-02
3492.453, 1.5662570E-02
3494.382, 1.4759570E-02
3496.310, 1.5207080E-02
3498.239, 1.5948670E-02
3500.167, 1.5117250E-02
3502.095, 1.4343890E-02
3504.024, 1.4257390E-02
3505.952, 1.4694820E-02
3507.881, 1.4913170E-02
3509.809, 1.4657740E-02
3511.738, 1.4568430E-02
3513.666, 1.4330670E-02
3515.595, 1.3829640E-02
3517.523, 1.4418760E-02
3519.452, 1.4652840E-02
3521.380, 1.4404440E-02
3523.309, 1.4471170E-02
3525.237, 1.4616130E-02
3527.166, 1.4616960E-02
3529.094, 1.4829880E-02
3531.022, 1.4992110E-02
3532.951, 1.4899930E-02
3534.879, 1.4342210E-02
3536.808, 1.3807060E-02
3538.736, 1.4334880E-02
3540.665, 1.4458630E-02
3542.593, 1.3809250E-02
3544.522, 1.4000560E-02
3546.450, 1.4577450E-02
3548.379, 1.4307550E-02
3550.307, 1.4029040E-02
3552.236, 1.4422360E-02
3554.164, 1.4409000E-02
3556.093, 1.4289950E-02
3558.021, 1.4222060E-02
3559.949, 1.4140680E-02
3561.878, 1.4568370E-02
3563.806, 1.4581930E-02
3565.735, 1.3931040E-02
3567.663, 1.3700530E-02
3569.592, 1.4134800E-02
3571.520, 1.3800800E-02
3573.449, 1.3869870E-02
3575.377, 1.4110830E-02
3577.306, 1.4202470E-02
3579.234, 1.4222430E-02
3581.163, 1.3613060E-02
3583.091, 1.3678170E-02
3585.020, 1.4015830E-02
3586.948, 1.4513310E-02
3588.876, 1.3845510E-02
3590.805, 1.2899950E-02
3592.733, 1.3764860E-02
3594.662, 1.4357040E-02
3596.590, 1.4256290E-02
3598.519, 1.3811580E-02
3600.447, 1.4151910E-02
3602.376, 1.5338690E-02
3604.304, 1.4754190E-02
3606.233, 1.4051930E-02
3608.161, 1.4085880E-02
3610.090, 1.4688030E-02
3612.018, 1.4519850E-02
3613.947, 1.4283380E-02
3615.875, 1.3826830E-02
3617.803, 1.3219180E-02
3619.732, 1.3157490E-02
3621.660, 1.3100190E-02
3623.589, 1.3836960E-02
3625.517, 1.3659840E-02
3627.446, 1.4048820E-02
3629.374, 1.5214280E-02
3631.303, 1.4903050E-02
3633.231, 1.4814350E-02
3635.160, 1.4967110E-02
3637.088, 1.4702870E-02
3639.017, 1.3787260E-02
3640.945, 1.3548620E-02
3642.874, 1.4049710E-02
3644.802, 1.4326490E-02
3646.730, 1.4244480E-02
3648.659, 1.4712440E-02
3650.587, 1.4834850E-02
3652.516, 1.4605850E-02
3654.444, 1.4149750E-02
3656.373, 1.3725320E-02
3658.301, 1.3569540E-02
3660.230, 1.4081500E-02
3662.158, 1.4500430E-02
3664.087, 1.3933600E-02
3666.015, 1.4093690E-02
3667.944, 1.4545410E-02
3669.872, 1.5471860E-02
3671.801, 1.5482440E-02
3673.729, 1.6078720E-02
3675.657, 1.6835211E-02
3677.586, 1.5740620E-02
3679.514, 1.4821480E-02
3681.443, 1.4172690E-02
3683.371, 1.4253620E-02
3685.300, 1.4448490E-02
3687.228, 1.4150820E-02
3689.157, 1.4579570E-02
3691.085, 1.5261200E-02
3693.014, 1.5243560E-02
3694.942, 1.5321460E-02
3696.871, 1.5381400E-02
3698.799, 1.5131830E-02
3700.728, 1.4833760E-02
3702.656, 1.4635800E-02
3704.584, 1.4066200E-02
3706.513, 1.4280780E-02
3708.441, 1.5369660E-02
3710.370, 1.5275060E-02
3712.298, 1.4552430E-02
3714.227, 1.4244110E-02
3716.155, 1.4688820E-02
3718.084, 1.5190710E-02
3720.012, 1.5474880E-02
3721.941, 1.5476570E-02
3723.869, 1.4979360E-02
3725.798, 1.5009160E-02
3727.726, 1.4871160E-02
3729.655, 1.4696290E-02
3731.583, 1.5488860E-02
3733.511, 1.5586970E-02
3735.440, 1.5361520E-02
3737.368, 1.5114640E-02
3739.297, 1.4047690E-02
3741.225, 1.4238220E-02
3743.154, 1.4922360E-02
3745.082, 1.4680730E-02
3747.011, 1.4267420E-02
3748.939, 1.4720420E-02
3750.868, 1.5216820E-02
3752.796, 1.4900820E-02
3754.725, 1.5963901E-02
3756.653, 1.6484680E-02
3758.582, 1.5597450E-02
3760.510, 1.5368760E-02
3762.438, 1.5703660E-02
3764.367, 1.5568250E-02
3766.295, 1.4728030E-02
3768.224, 1.4142500E-02
3770.152, 1.4607260E-02
3772.081, 1.4781300E-02
3774.009, 1.3652930E-02
3775.938, 1.3570430E-02
3777.866, 1.4957960E-02
3779.795, 1.5926881E-02
3781.723, 1.5603560E-02
3783.652, 1.5407590E-02
3785.580, 1.5705129E-02
3787.509, 1.5658690E-02
3789.437, 1.5779961E-02
3791.365, 1.5835799E-02
3793.294, 1.5605760E-02
3795.222, 1.5450440E-02
3797.151, 1.5952179E-02
3799.079, 1.5756739E-02
3801.008, 1.5301380E-02
3802.936, 1.4865230E-02
3804.865, 1.4399030E-02
3806.793, 1.4445890E-02
3808.722, 1.5039140E-02
3810.650, 1.5788451E-02
3812.579, 1.5700011E-02
3814.507, 1.5141100E-02
3816.436, 1.4841850E-02
3818.364, 1.4723580E-02
3820.292, 1.4464350E-02
3822.221, 1.4056180E-02
3824.149, 1.3817700E-02
3826.078, 1.4242500E-02
3828.006, 1.5654260E-02
3829.935, 1.5719971E-02
3831.863, 1.5041850E-02
3833.792, 1.4833410E-02
3835.720, 1.4930490E-02
3837.649, 1.5610840E-02
3839.577, 1.5886730E-02
3841.506, 1.5949739E-02
3843.434, 1.5963860E-02
3845.363, 1.6292229E-02
3847.291, 1.6601050E-02
3849.219, 1.6322849E-02
3851.148, 1.5367010E-02
3853.076, 1.4884840E-02
3855.005, 1.4719360E-02
3856.933, 1.4897570E-02
3858.862, 1.4485150E-02
3860.790, 1.5267480E-02
3862.719, 1.6441420E-02
3864.647, 1.5560490E-02
3866.576, 1.4895920E-02
3868.504, 1.5321600E-02
3870.433, 1.5488450E-02
3872.361, 1.5696511E-02
3874.290, 1.6161630E-02
3876.218, 1.6198879E-02
3878.146, 1.6025260E-02
3880.075, 1.5302760E-02
3882.003, 1.4956960E-02
3883.932, 1.5671119E-02
3885.860, 1.5383940E-02
3887.789, 1.5452260E-02
3889.717, 1.5750520E-02
3891.646, 1.5393100E-02
3893.574, 1.5308150E-02
3895.503, 1.6110079E-02
3897.431, 1.6105680E-02
3899.360, 1.5918629E-02
3901.288, 1.6346959E-02
3903.217, 1.6125491E-02
3905.145, 1.5371510E-02
3907.073, 1.5078490E-02
3909.002, 1.5597550E-02
3910.930, 1.5472650E-02
3912.859, 1.5055640E-02
3914.787, 1.5278800E-02
3916.716, 1.5802201E-02
3918.644, 1.5655320E-02
3920.573, 1.5816150E-02
3922.501, 1.5300660E-02
3924.430, 1.5368590E-02
3926.358, 1.5620940E-02
3928.287, 1.4620830E-02
3930.215, 1.4583990E-02
3932.144, 1.5844669E-02
3934.072, 1.5270770E-02
3936.000, 1.4866710E-02
3937.929, 1.4645060E-02
3939.857, 1.5126340E-02
3941.786, 1.6088830E-02
3943.714, 1.6406830E-02
3945.643, 1.6418289E-02
3947.571, 1.6051419E-02
3949.500, 1.5859621E-02
3951.428, 1.5466130E-02
3953.357, 1.5036460E-02
3955.285, 1.5571520E-02
3957.214, 1.6232889E-02
3959.142, 1.5899690E-02
3961.071, 1.5094740E-02
3962.999, 1.4911900E-02
3964.927, 1.4766290E-02
3966.856, 1.5126450E-02
3968.784, 1.5852980E-02
3970.713, 1.5129220E-02
3972.641, 1.4243220E-02
3974.570, 1.3448200E-02
3976.498, 1.4113500E-02
3978.427, 1.5576910E-02
3980.355, 1.6537230E-02
3982.284, 1.6239220E-02
3984.212, 1.5623030E-02
3986.141, 1.5234390E-02
3988.069, 1.5001410E-02
3989.998, 1.5247600E-02
3991.926, 1.5916631E-02
3993.854, 1.6188420E-02
3995.783, 1.6482580E-02
3997.711, 1.6306160E-02
3999.640, 1.6306160E-02
##END=



