##NAMES=Orthoclase
##RRUFFID=R040055
##IDEAL CHEMISTRY=KAlSi_3_O_8_
##LOCALITY=Madagascar
##OWNER=RRUFF
##SOURCE=Bob Downs
##DESCRIPTION=Pale yellow fragments
##STATUS=The identification of this mineral has been confirmed by X-ray diffraction and chemical analysis
##URL=rruff.info/R040055
##MEASURED CHEMISTRY=K_0.96_(Al_0.96_Si_0.03_Fe_0.02_)Si_3.00_O_8_; = light material. (K_0.90_Na_0.02_)(Al_0.91_Si_0.08_Fe_0.02_)Si_3.00_O_8_ = dark
3.991926e+002, 0.000000e+000
4.011211e+002, 2.162510e-001
4.030496e+002, 2.172157e-001
4.049780e+002, 2.203915e-001
4.069065e+002, 2.236639e-001
4.088350e+002, 2.262325e-001
4.107634e+002, 2.264019e-001
4.126919e+002, 2.250582e-001
4.146204e+002, 2.274659e-001
4.165488e+002, 2.263378e-001
4.184773e+002, 2.215986e-001
4.204058e+002, 2.238196e-001
4.223342e+002, 2.245074e-001
4.242627e+002, 2.147849e-001
4.261912e+002, 2.071899e-001
4.281196e+002, 1.995424e-001
4.300481e+002, 1.891173e-001
4.319766e+002, 1.771507e-001
4.339050e+002, 1.666574e-001
4.358335e+002, 1.563634e-001
4.377620e+002, 1.446702e-001
4.396904e+002, 1.345159e-001
4.416189e+002, 1.248765e-001
4.435474e+002, 1.147864e-001
4.454758e+002, 1.062979e-001
4.474043e+002, 9.674750e-002
4.493328e+002, 8.736610e-002
4.512612e+002, 7.998125e-002
4.531897e+002, 7.404295e-002
4.551182e+002, 6.990102e-002
4.570466e+002, 6.655331e-002
4.589751e+002, 6.304245e-002
4.609036e+002, 5.997529e-002
4.628320e+002, 5.909615e-002
4.647605e+002, 5.783174e-002
4.666890e+002, 5.445951e-002
4.686174e+002, 5.149326e-002
4.705459e+002, 4.823087e-002
4.724744e+002, 4.516186e-002
4.744028e+002, 4.177608e-002
4.763313e+002, 3.969098e-002
4.782598e+002, 3.855731e-002
4.801882e+002, 3.663263e-002
4.821167e+002, 3.482062e-002
4.840452e+002, 3.381747e-002
4.859736e+002, 3.304697e-002
4.879021e+002, 3.260650e-002
4.898306e+002, 3.164464e-002
4.917590e+002, 3.163876e-002
4.936875e+002, 3.166635e-002
4.956160e+002, 3.121439e-002
4.975444e+002, 3.128738e-002
4.994729e+002, 3.211296e-002
5.014014e+002, 3.291950e-002
5.033298e+002, 3.388255e-002
5.052583e+002, 3.638041e-002
5.071868e+002, 3.893163e-002
5.091152e+002, 4.093911e-002
5.110437e+002, 4.190497e-002
5.129722e+002, 4.243489e-002
5.149006e+002, 4.323936e-002
5.168291e+002, 4.484872e-002
5.187576e+002, 4.698633e-002
5.206860e+002, 4.961738e-002
5.226145e+002, 5.313683e-002
5.245430e+002, 5.808033e-002
5.264714e+002, 6.402338e-002
5.283999e+002, 7.091084e-002
5.303284e+002, 7.867741e-002
5.322568e+002, 8.772665e-002
5.341853e+002, 9.816679e-002
5.361138e+002, 1.085197e-001
5.380422e+002, 1.177140e-001
5.399707e+002, 1.247763e-001
5.418992e+002, 1.272512e-001
5.438276e+002, 1.239151e-001
5.457561e+002, 1.169808e-001
5.476846e+002, 1.102737e-001
5.496130e+002, 1.047673e-001
5.515415e+002, 1.011970e-001
5.534700e+002, 9.982808e-002
5.553984e+002, 1.007548e-001
5.573269e+002, 1.042198e-001
5.592554e+002, 1.087869e-001
5.611838e+002, 1.139198e-001
5.631123e+002, 1.194087e-001
5.650408e+002, 1.244748e-001
5.669692e+002, 1.299912e-001
5.688977e+002, 1.350726e-001
5.708262e+002, 1.400600e-001
5.727546e+002, 1.437112e-001
5.746831e+002, 1.456079e-001
5.766116e+002, 1.470907e-001
5.785400e+002, 1.476637e-001
5.804685e+002, 1.471700e-001
5.823970e+002, 1.457342e-001
5.843254e+002, 1.431731e-001
5.862539e+002, 1.398131e-001
5.881824e+002, 1.357463e-001
5.901108e+002, 1.314508e-001
5.920393e+002, 1.261901e-001
5.939678e+002, 1.205714e-001
5.958962e+002, 1.148203e-001
5.978247e+002, 1.083801e-001
5.997532e+002, 1.020669e-001
6.016816e+002, 9.664322e-002
6.036101e+002, 9.177314e-002
6.055386e+002, 8.731974e-002
6.074670e+002, 8.259284e-002
6.093955e+002, 7.768495e-002
6.113240e+002, 7.291099e-002
6.132524e+002, 6.803449e-002
6.151809e+002, 6.343756e-002
6.171094e+002, 5.940679e-002
6.190378e+002, 5.569908e-002
6.209663e+002, 5.229331e-002
6.228948e+002, 5.010976e-002
6.248232e+002, 4.887830e-002
6.267517e+002, 4.874815e-002
6.286802e+002, 4.980553e-002
6.306086e+002, 5.144192e-002
6.325371e+002, 5.385859e-002
6.344656e+002, 5.710145e-002
6.363940e+002, 6.033465e-002
6.383225e+002, 6.325788e-002
6.402510e+002, 6.541323e-002
6.421794e+002, 6.570244e-002
6.441079e+002, 6.329112e-002
6.460364e+002, 5.870060e-002
6.479648e+002, 5.310272e-002
6.498933e+002, 4.723193e-002
6.518218e+002, 4.202165e-002
6.537502e+002, 3.794439e-002
6.556787e+002, 3.493264e-002
6.576072e+002, 3.249520e-002
6.595356e+002, 3.099029e-002
6.614641e+002, 2.997051e-002
6.633926e+002, 2.911075e-002
6.653210e+002, 2.839590e-002
6.672495e+002, 2.802308e-002
6.691780e+002, 2.775262e-002
6.711064e+002, 2.755518e-002
6.730349e+002, 2.737858e-002
6.749634e+002, 2.754978e-002
6.768918e+002, 2.823878e-002
6.788203e+002, 2.908618e-002
6.807488e+002, 2.934231e-002
6.826772e+002, 2.964615e-002
6.846057e+002, 3.045410e-002
6.865342e+002, 3.160372e-002
6.884626e+002, 3.309020e-002
6.903911e+002, 3.479252e-002
6.923196e+002, 3.699530e-002
6.942480e+002, 3.961829e-002
6.961765e+002, 4.260270e-002
6.981050e+002, 4.643132e-002
7.000334e+002, 5.025847e-002
7.019619e+002, 5.406125e-002
7.038904e+002, 5.764515e-002
7.058188e+002, 6.111091e-002
7.077473e+002, 6.458873e-002
7.096758e+002, 6.747391e-002
7.116042e+002, 6.997076e-002
7.135327e+002, 7.220766e-002
7.154612e+002, 7.416344e-002
7.173896e+002, 7.586035e-002
7.193181e+002, 7.696182e-002
7.212466e+002, 7.741057e-002
7.231750e+002, 7.747837e-002
7.251035e+002, 7.699300e-002
7.270320e+002, 7.604321e-002
7.289604e+002, 7.526419e-002
7.308889e+002, 7.379024e-002
7.328174e+002, 7.190893e-002
7.347458e+002, 7.027169e-002
7.366743e+002, 6.857765e-002
7.386028e+002, 6.720537e-002
7.405313e+002, 6.591125e-002
7.424597e+002, 6.509958e-002
7.443882e+002, 6.489681e-002
7.463167e+002, 6.470864e-002
7.482451e+002, 6.435563e-002
7.501736e+002, 6.342064e-002
7.521021e+002, 6.275342e-002
7.540305e+002, 6.245114e-002
7.559590e+002, 6.206033e-002
7.578875e+002, 6.184182e-002
7.598159e+002, 6.159297e-002
7.617444e+002, 6.151852e-002
7.636729e+002, 6.176664e-002
7.656013e+002, 6.228834e-002
7.675298e+002, 6.272200e-002
7.694583e+002, 6.266557e-002
7.713867e+002, 6.240413e-002
7.733152e+002, 6.165324e-002
7.752437e+002, 6.053122e-002
7.771721e+002, 5.894186e-002
7.791006e+002, 5.735059e-002
7.810291e+002, 5.588287e-002
7.829575e+002, 5.423762e-002
7.848860e+002, 5.270668e-002
7.868145e+002, 5.125290e-002
7.887429e+002, 4.940818e-002
7.906714e+002, 4.701552e-002
7.925999e+002, 4.427027e-002
7.945283e+002, 4.153453e-002
7.964568e+002, 3.851974e-002
7.983853e+002, 3.533392e-002
8.003137e+002, 3.239663e-002
8.022422e+002, 2.960072e-002
8.041707e+002, 2.698537e-002
8.060991e+002, 2.501866e-002
8.080276e+002, 2.355448e-002
8.099561e+002, 2.237064e-002
8.118845e+002, 2.126302e-002
8.138130e+002, 2.065726e-002
8.157415e+002, 2.027149e-002
8.176699e+002, 1.983219e-002
8.195984e+002, 1.958965e-002
8.215269e+002, 1.949866e-002
8.234553e+002, 1.957117e-002
8.253838e+002, 1.997067e-002
8.273123e+002, 2.016300e-002
8.292407e+002, 2.063435e-002
8.311692e+002, 2.118148e-002
8.330977e+002, 2.137011e-002
8.350261e+002, 2.187810e-002
8.369546e+002, 2.278604e-002
8.388831e+002, 2.384476e-002
8.408115e+002, 2.459483e-002
8.427400e+002, 2.490438e-002
8.446685e+002, 2.545922e-002
8.465969e+002, 2.622743e-002
8.485254e+002, 2.710500e-002
8.504539e+002, 2.826041e-002
8.523823e+002, 2.941976e-002
8.543108e+002, 3.056267e-002
8.562393e+002, 3.168555e-002
8.581677e+002, 3.264385e-002
8.600962e+002, 3.363695e-002
8.620247e+002, 3.485297e-002
8.639531e+002, 3.615209e-002
8.658816e+002, 3.728450e-002
8.678101e+002, 3.868189e-002
8.697385e+002, 4.042069e-002
8.716670e+002, 4.211108e-002
8.735955e+002, 4.363316e-002
8.755239e+002, 4.547242e-002
8.774524e+002, 4.733003e-002
8.793809e+002, 4.912613e-002
8.813093e+002, 5.083970e-002
8.832378e+002, 5.269745e-002
8.851663e+002, 5.485925e-002
8.870947e+002, 5.707344e-002
8.890232e+002, 5.929681e-002
8.909517e+002, 6.197892e-002
8.928801e+002, 6.453821e-002
8.948085e+002, 6.700461e-002
8.967370e+002, 6.942583e-002
8.986655e+002, 7.222987e-002
9.005939e+002, 7.544487e-002
9.025224e+002, 7.878697e-002
9.044509e+002, 8.208090e-002
9.063793e+002, 8.554001e-002
9.083078e+002, 8.926988e-002
9.102363e+002, 9.311975e-002
9.121647e+002, 9.724459e-002
9.140932e+002, 1.016070e-001
9.160217e+002, 1.063337e-001
9.179501e+002, 1.114640e-001
9.198786e+002, 1.165513e-001
9.218071e+002, 1.216756e-001
9.237355e+002, 1.271519e-001
9.256640e+002, 1.331429e-001
9.275925e+002, 1.394160e-001
9.295209e+002, 1.460319e-001
9.314494e+002, 1.528383e-001
9.333779e+002, 1.598193e-001
9.353063e+002, 1.670656e-001
9.372348e+002, 1.746956e-001
9.391633e+002, 1.826587e-001
9.410917e+002, 1.910295e-001
9.430202e+002, 1.995730e-001
9.449487e+002, 2.083888e-001
9.468771e+002, 2.171958e-001
9.488056e+002, 2.260455e-001
9.507341e+002, 2.351346e-001
9.526625e+002, 2.443415e-001
9.545910e+002, 2.533609e-001
9.565195e+002, 2.623594e-001
9.584479e+002, 2.712436e-001
9.603764e+002, 2.798835e-001
9.623049e+002, 2.882037e-001
9.642333e+002, 2.964225e-001
9.661618e+002, 3.042993e-001
9.680903e+002, 3.116969e-001
9.700187e+002, 3.186129e-001
9.719472e+002, 3.247772e-001
9.738757e+002, 3.299879e-001
9.758041e+002, 3.348461e-001
9.777326e+002, 3.394113e-001
9.796611e+002, 3.432027e-001
9.815895e+002, 3.464676e-001
9.835180e+002, 3.491562e-001
9.854465e+002, 3.512728e-001
9.873749e+002, 3.528761e-001
9.893034e+002, 3.542216e-001
9.912319e+002, 3.553160e-001
9.931603e+002, 3.557853e-001
9.950888e+002, 3.556840e-001
9.970173e+002, 3.548867e-001
9.989457e+002, 3.537839e-001
1.000874e+003, 3.524304e-001
1.002803e+003, 3.503632e-001
1.004731e+003, 3.480453e-001
1.006660e+003, 3.454297e-001
1.008588e+003, 3.426971e-001
1.010517e+003, 3.396037e-001
1.012445e+003, 3.358494e-001
1.014373e+003, 3.318544e-001
1.016302e+003, 3.278731e-001
1.018230e+003, 3.236886e-001
1.020159e+003, 3.194238e-001
1.022087e+003, 3.156060e-001
1.024016e+003, 3.119707e-001
1.025944e+003, 3.080232e-001
1.027873e+003, 3.045169e-001
1.029801e+003, 3.009300e-001
1.031730e+003, 2.969698e-001
1.033658e+003, 2.930845e-001
1.035587e+003, 2.889061e-001
1.037515e+003, 2.841528e-001
1.039444e+003, 2.789939e-001
1.041372e+003, 2.732826e-001
1.043301e+003, 2.673015e-001
1.045229e+003, 2.616444e-001
1.047157e+003, 2.556444e-001
1.049086e+003, 2.490451e-001
1.051014e+003, 2.417363e-001
1.052943e+003, 2.337510e-001
1.054871e+003, 2.248846e-001
1.056800e+003, 2.153306e-001
1.058728e+003, 2.050948e-001
1.060657e+003, 1.945699e-001
1.062585e+003, 1.850179e-001
1.064514e+003, 1.770026e-001
1.066442e+003, 1.700171e-001
1.068371e+003, 1.642382e-001
1.070299e+003, 1.602301e-001
1.072228e+003, 1.575686e-001
1.074156e+003, 1.553864e-001
1.076084e+003, 1.538972e-001
1.078013e+003, 1.528629e-001
1.079941e+003, 1.520259e-001
1.081870e+003, 1.516069e-001
1.083798e+003, 1.515872e-001
1.085727e+003, 1.515416e-001
1.087655e+003, 1.515562e-001
1.089584e+003, 1.517523e-001
1.091512e+003, 1.519331e-001
1.093441e+003, 1.520954e-001
1.095369e+003, 1.521729e-001
1.097298e+003, 1.519494e-001
1.099226e+003, 1.517979e-001
1.101155e+003, 1.517293e-001
1.103083e+003, 1.517691e-001
1.105011e+003, 1.517759e-001
1.106940e+003, 1.517955e-001
1.108868e+003, 1.519037e-001
1.110797e+003, 1.514065e-001
1.112725e+003, 1.507283e-001
1.114654e+003, 1.504257e-001
1.116582e+003, 1.501766e-001
1.118511e+003, 1.501640e-001
1.120439e+003, 1.501450e-001
1.122368e+003, 1.495911e-001
1.124296e+003, 1.491055e-001
1.126225e+003, 1.484295e-001
1.128153e+003, 1.469696e-001
1.130082e+003, 1.448295e-001
1.132010e+003, 1.421434e-001
1.133938e+003, 1.388726e-001
1.135867e+003, 1.348353e-001
1.137795e+003, 1.303142e-001
1.139724e+003, 1.254961e-001
1.141652e+003, 1.206160e-001
1.143581e+003, 1.153082e-001
1.145509e+003, 1.099033e-001
1.147438e+003, 1.046957e-001
1.149366e+003, 9.969803e-002
1.151295e+003, 9.473822e-002
1.153223e+003, 8.964789e-002
1.155152e+003, 8.482203e-002
1.157080e+003, 8.033734e-002
1.159009e+003, 7.572228e-002
1.160937e+003, 7.144684e-002
1.162865e+003, 6.755462e-002
1.164794e+003, 6.374278e-002
1.166722e+003, 5.978032e-002
1.168651e+003, 5.604709e-002
1.170579e+003, 5.244068e-002
1.172508e+003, 4.921996e-002
1.174436e+003, 4.631997e-002
1.176365e+003, 4.351975e-002
1.178293e+003, 4.072207e-002
1.180222e+003, 3.798942e-002
1.182150e+003, 3.534869e-002
1.184079e+003, 3.279393e-002
1.186007e+003, 3.057191e-002
1.187936e+003, 2.842384e-002
1.189864e+003, 2.615357e-002
1.191792e+003, 2.403278e-002
1.193721e+003, 2.218727e-002
1.195649e+003, 2.059521e-002
1.197578e+003, 1.910628e-002
1.199506e+003, 1.753067e-002
1.201435e+003, 1.608629e-002
1.203363e+003, 1.480614e-002
1.205292e+003, 1.367596e-002
1.207220e+003, 1.265482e-002
1.209149e+003, 1.170513e-002
1.211077e+003, 1.089941e-002
1.213006e+003, 9.884018e-003
1.214934e+003, 9.160544e-003
1.216863e+003, 8.670403e-003
1.218791e+003, 8.034466e-003
1.220719e+003, 7.378587e-003
1.222648e+003, 6.858777e-003
1.224576e+003, 6.553064e-003
1.226505e+003, 6.207349e-003
1.228433e+003, 5.610729e-003
1.230362e+003, 5.083168e-003
1.232290e+003, 4.951607e-003
1.234219e+003, 4.819681e-003
1.236147e+003, 4.487420e-003
1.238076e+003, 4.184048e-003
1.240004e+003, 3.807667e-003
1.241933e+003, 3.547735e-003
1.243861e+003, 3.205606e-003
1.245790e+003, 2.930279e-003
1.247718e+003, 2.690192e-003
1.249646e+003, 2.503459e-003
1.251575e+003, 2.409736e-003
1.253503e+003, 2.249464e-003
1.255432e+003, 2.006549e-003
1.257360e+003, 1.748420e-003
1.259289e+003, 1.525945e-003
1.261217e+003, 1.344716e-003
1.263146e+003, 1.225476e-003
1.265074e+003, 1.088526e-003
1.267003e+003, 7.970877e-004
1.268931e+003, 7.914861e-004
1.270860e+003, 9.087935e-004
1.272788e+003, 7.867717e-004
1.274717e+003, 5.666988e-004
1.276645e+003, 5.253982e-004
1.278573e+003, 4.330851e-004
1.280502e+003, 3.435367e-004
1.282430e+003, 2.491347e-004
1.284359e+003, 1.477783e-004
1.286287e+003, 3.896770e-006
1.288216e+003, -1.298574e-004
1.290144e+003, -2.341270e-004
1.292073e+003, -1.165429e-004
1.294001e+003, -6.101403e-005
1.295930e+003, -1.219854e-004
1.297858e+003, -1.880183e-004
1.299787e+003, -3.447232e-005
1.301715e+003, -1.959823e-004
1.303644e+003, -5.035070e-004
1.305572e+003, -3.556298e-004
1.307500e+003, -1.194395e-004
1.309429e+003, -1.893531e-004
1.311357e+003, -2.529291e-004
1.313286e+003, -2.655212e-004
1.315214e+003, -3.295530e-004
1.317143e+003, -4.263426e-004
1.319071e+003, -6.728899e-004
1.321000e+003, -8.366574e-004
1.322928e+003, -7.611876e-004
1.324857e+003, -6.969111e-004
1.326785e+003, -6.724258e-004
1.328714e+003, -9.188111e-004
1.330642e+003, -9.580239e-004
1.332571e+003, -7.301987e-004
1.334499e+003, -6.680583e-004
1.336427e+003, -7.749228e-004
1.338356e+003, -7.508513e-004
1.340284e+003, -9.684529e-004
1.342213e+003, -1.135454e-003
1.344141e+003, -9.889739e-004
1.346070e+003, -1.004130e-003
1.347998e+003, -1.000727e-003
1.349927e+003, -7.318187e-004
1.351855e+003, -7.563294e-004
1.353784e+003, -9.237729e-004
1.355712e+003, -1.014453e-003
1.357641e+003, -1.105917e-003
1.359569e+003, -1.321814e-003
1.361498e+003, -1.322305e-003
1.363426e+003, -9.931151e-004
1.365354e+003, -1.090659e-003
1.367283e+003, -1.368340e-003
1.369211e+003, -1.178504e-003
1.371140e+003, -1.029482e-003
1.373068e+003, -1.146613e-003
1.374997e+003, -1.155603e-003
1.376925e+003, -1.279219e-003
1.378854e+003, -1.359052e-003
1.380782e+003, -1.492833e-003
1.382711e+003, -1.446558e-003
1.384639e+003, -1.183043e-003
1.386568e+003, -1.090544e-003
1.388496e+003, -7.797669e-004
1.390424e+003, -1.002181e-003
1.392353e+003, -1.215268e-003
1.394281e+003, -1.390226e-003
1.396210e+003, -1.095504e-003
1.398138e+003, -1.282619e-003
1.400067e+003, -1.040034e-003
1.401995e+003, -1.369141e-003
1.403924e+003, -1.305539e-003
1.405852e+003, -7.469042e-004
1.407781e+003, -7.877099e-004
1.409709e+003, -1.140676e-003
1.411638e+003, -1.273955e-003
1.413566e+003, -1.168163e-003
1.415495e+003, -1.230398e-003
1.417423e+003, -1.289953e-003
1.419351e+003, -8.460223e-004
1.421280e+003, -7.223968e-004
1.423208e+003, -8.507177e-004
1.425137e+003, -7.911767e-004
1.427065e+003, -1.052349e-003
1.428994e+003, -9.751681e-004
1.430922e+003, -7.364458e-004
1.432851e+003, -9.747212e-004
1.434779e+003, -1.258766e-003
1.436708e+003, -9.310602e-004
1.438636e+003, -7.166878e-004
1.440565e+003, -9.134022e-004
1.442493e+003, -6.636790e-004
1.444422e+003, -5.813645e-004
1.446350e+003, -7.435955e-004
1.448278e+003, -6.410723e-004
1.450207e+003, -6.377839e-004
1.452135e+003, -6.308793e-004
1.454064e+003, -9.004301e-004
1.455992e+003, -1.649971e-003
1.457921e+003, -5.204381e-004
1.459849e+003, -4.040096e-004
1.461778e+003, -4.547357e-004
1.463706e+003, -8.124991e-004
1.465635e+003, -4.831147e-004
1.467563e+003, -6.118140e-004
1.469492e+003, -4.868810e-004
1.471420e+003, -8.852954e-004
1.473349e+003, -5.503106e-004
1.475277e+003, -7.189894e-004
1.477205e+003, -3.972902e-004
1.479134e+003, -5.670211e-004
1.481062e+003, -4.004425e-004
1.482991e+003, -2.983459e-004
1.484919e+003, -6.759108e-004
1.486848e+003, -9.136933e-004
1.488776e+003, -8.720915e-004
1.490705e+003, -5.294292e-004
1.492633e+003, -6.776486e-004
1.494562e+003, -1.166826e-003
1.496490e+003, -1.024500e-003
1.498419e+003, -1.166412e-003
1.500347e+003, -7.992592e-004
1.502276e+003, -8.742042e-004
1.504204e+003, -1.685949e-003
1.506132e+003, -1.695314e-003
1.508061e+003, -9.637687e-004
1.509989e+003, -1.213778e-003
1.511918e+003, -1.249266e-003
1.513846e+003, -1.224821e-003
1.515775e+003, -1.507702e-003
1.517703e+003, -1.308700e-003
1.519632e+003, -1.994479e-003
1.521560e+003, -1.284538e-003
1.523489e+003, -1.055561e-003
1.525417e+003, -9.939173e-004
1.527346e+003, -8.979484e-004
1.529274e+003, -9.802143e-004
1.531203e+003, -1.285539e-003
1.533131e+003, -1.274033e-003
1.535059e+003, -8.271402e-004
1.536988e+003, -1.753478e-003
1.538916e+003, -2.278157e-003
1.540845e+003, -1.371262e-003
1.542773e+003, -9.988935e-004
1.544702e+003, -1.215263e-003
1.546630e+003, -1.136640e-003
1.548559e+003, -1.429128e-003
1.550487e+003, -8.795403e-004
1.552416e+003, -1.232430e-003
1.554344e+003, -1.225480e-003
1.556273e+003, -1.737286e-003
1.558201e+003, -1.589024e-003
1.560130e+003, -3.986676e-004
1.562058e+003, -4.694476e-004
1.563986e+003, -4.557901e-004
1.565915e+003, 8.415425e-005
1.567843e+003, -1.443272e-004
1.569772e+003, 5.340192e-005
1.571700e+003, -7.277145e-005
1.573629e+003, -3.739513e-004
1.575557e+003, -6.083483e-004
1.577486e+003, 5.022848e-004
1.579414e+003, 4.733473e-004
1.581343e+003, 8.184749e-004
1.583271e+003, 6.595606e-004
1.585200e+003, 3.865442e-004
1.587128e+003, 6.217508e-004
1.589057e+003, 1.108916e-003
1.590985e+003, 1.080286e-003
1.592913e+003, 8.879483e-004
1.594842e+003, 6.811259e-004
1.596770e+003, 5.720410e-004
1.598699e+003, 9.894919e-004
1.600627e+003, 9.760160e-004
1.602556e+003, 6.726640e-004
1.604484e+003, 9.825410e-004
1.606413e+003, 9.171217e-004
1.608341e+003, 9.827233e-004
1.610270e+003, 1.448208e-003
1.612198e+003, 1.465447e-003
1.614127e+003, 9.710405e-004
1.616055e+003, 6.399185e-004
1.617984e+003, 1.695772e-003
1.619912e+003, 1.165458e-003
1.621840e+003, 7.620417e-004
1.623769e+003, 1.103813e-003
1.625697e+003, 1.205418e-003
1.627626e+003, 1.663420e-003
1.629554e+003, 1.749529e-003
1.631483e+003, 1.690281e-003
1.633411e+003, 9.896625e-004
1.635340e+003, 5.293963e-004
1.637268e+003, 8.714724e-004
1.639197e+003, 1.302391e-003
1.641125e+003, 1.451351e-003
1.643054e+003, 1.294356e-003
1.644982e+003, 5.277137e-004
1.646911e+003, 9.233928e-004
1.648839e+003, 7.958155e-004
1.650767e+003, -3.184169e-004
1.652696e+003, -3.975655e-004
1.654624e+003, 1.092377e-003
1.656553e+003, 9.415657e-004
1.658481e+003, 1.106536e-003
1.660410e+003, 9.103499e-004
1.662338e+003, 9.897689e-004
1.664267e+003, 1.457046e-003
1.666195e+003, 1.032177e-003
1.668124e+003, 6.779465e-004
1.670052e+003, 1.405108e-003
1.671981e+003, 1.060396e-003
1.673909e+003, 4.223249e-004
1.675838e+003, 9.345264e-004
1.677766e+003, 6.354989e-004
1.679694e+003, 7.888590e-004
1.681623e+003, 4.225919e-004
1.683551e+003, -3.086976e-004
1.685480e+003, 1.064542e-003
1.687408e+003, 3.724709e-004
1.689337e+003, 4.806431e-004
1.691265e+003, 6.819130e-004
1.693194e+003, 4.921927e-004
1.695122e+003, -1.463952e-004
1.697051e+003, 9.433523e-004
1.698979e+003, -1.735642e-004
1.700908e+003, 1.470088e-003
1.702836e+003, 7.275225e-004
1.704765e+003, 9.991778e-004
1.706693e+003, 1.563670e-003
1.708621e+003, 1.557798e-003
1.710550e+003, 1.504439e-003
1.712478e+003, 9.693528e-004
1.714407e+003, 6.956294e-004
1.716335e+003, 1.336865e-004
1.718264e+003, 5.300787e-004
1.720192e+003, 2.002320e-004
1.722121e+003, -6.411294e-005
1.724049e+003, -1.221220e-005
1.725978e+003, -2.870890e-004
1.727906e+003, -6.741404e-004
1.729835e+003, -6.722077e-004
1.731763e+003, -1.212714e-003
1.733692e+003, -1.634350e-003
1.735620e+003, -7.948347e-004
1.737548e+003, -1.494406e-003
1.739477e+003, -1.638395e-003
1.741405e+003, -1.622364e-003
1.743334e+003, -1.397843e-003
1.745262e+003, -7.848034e-004
1.747191e+003, -6.129229e-004
1.749119e+003, -5.175483e-004
1.751048e+003, -7.919779e-004
1.752976e+003, -5.696199e-004
1.754905e+003, -5.745600e-004
1.756833e+003, -3.885441e-004
1.758762e+003, -4.580849e-004
1.760690e+003, -6.003574e-004
1.762619e+003, -1.337764e-004
1.764547e+003, -3.432119e-004
1.766475e+003, -3.499523e-004
1.768404e+003, -1.464016e-005
1.770332e+003, -4.655055e-004
1.772261e+003, -4.906047e-004
1.774189e+003, -3.182616e-005
1.776118e+003, -7.484037e-005
1.778046e+003, -2.555093e-004
1.779975e+003, -1.636475e-004
1.781903e+003, 1.880300e-004
1.783832e+003, -1.132021e-004
1.785760e+003, -2.577201e-004
1.787689e+003, -5.685262e-004
1.789617e+003, -8.534447e-004
1.791546e+003, -9.252002e-004
1.793474e+003, -4.664131e-004
1.795402e+003, -6.568439e-004
1.797331e+003, -3.603701e-004
1.799259e+003, -5.002152e-004
1.801188e+003, -4.965331e-004
1.803116e+003, -3.690889e-004
1.805045e+003, -3.186377e-004
1.806973e+003, -7.375507e-004
1.808902e+003, -1.692014e-003
1.810830e+003, -1.804479e-003
1.812759e+003, -1.729370e-003
1.814687e+003, -2.324303e-003
1.816616e+003, -2.197181e-003
1.818544e+003, -1.323637e-003
1.820473e+003, -1.319355e-003
1.822401e+003, -1.704674e-003
1.824329e+003, -1.501823e-003
1.826258e+003, -5.240357e-004
1.828186e+003, -1.056360e-003
1.830115e+003, -1.169870e-003
1.832043e+003, -1.425159e-003
1.833972e+003, -1.544443e-003
1.835900e+003, -1.692862e-003
1.837829e+003, -2.064749e-003
1.839757e+003, -1.850341e-003
1.841686e+003, -1.541645e-003
1.843614e+003, -2.344507e-003
1.845543e+003, -1.867986e-003
1.847471e+003, -1.777032e-003
1.849400e+003, -1.993769e-003
1.851328e+003, -3.009214e-003
1.853256e+003, -2.998488e-003
1.855185e+003, -2.319694e-003
1.857113e+003, -2.605157e-003
1.859042e+003, -2.669007e-003
1.860970e+003, -2.637537e-003
1.862899e+003, -2.848093e-003
1.864827e+003, -3.050057e-003
1.866756e+003, -3.583468e-003
1.868684e+003, -3.471346e-003
1.870613e+003, -2.822537e-003
1.872541e+003, -2.950127e-003
1.874470e+003, -2.639063e-003
1.876398e+003, -2.904696e-003
1.878327e+003, -3.766929e-003
1.880255e+003, -4.165156e-003
1.882183e+003, -3.630766e-003
1.884112e+003, -3.198324e-003
1.886040e+003, -3.712066e-003
1.887969e+003, -4.022119e-003
1.889897e+003, -4.045460e-003
1.891826e+003, -4.220906e-003
1.893754e+003, -4.068823e-003
1.895683e+003, -4.126130e-003
1.897611e+003, -4.725142e-003
1.899540e+003, -5.125416e-003
1.901468e+003, -4.720339e-003
1.903397e+003, -4.831949e-003
1.905325e+003, -4.696297e-003
1.907254e+003, -4.174979e-003
1.909182e+003, -4.901676e-003
1.911110e+003, -5.388795e-003
1.913039e+003, -4.978007e-003
1.914967e+003, -4.385189e-003
1.916896e+003, -4.515566e-003
1.918824e+003, -4.909253e-003
1.920753e+003, -5.342482e-003
1.922681e+003, -6.122471e-003
1.924610e+003, -6.773349e-003
1.926538e+003, -6.772645e-003
1.928467e+003, -7.274018e-003
1.930395e+003, -7.309945e-003
1.932324e+003, -6.687717e-003
1.934252e+003, -6.807635e-003
1.936181e+003, -6.765881e-003
1.938109e+003, -6.608123e-003
1.940037e+003, -7.268084e-003
1.941966e+003, -7.813961e-003
1.943894e+003, -7.851044e-003
1.945823e+003, -8.159645e-003
1.947751e+003, -8.165607e-003
1.949680e+003, -7.510228e-003
1.951608e+003, -7.497927e-003
1.953537e+003, -8.143536e-003
1.955465e+003, -9.101250e-003
1.957394e+003, -9.772464e-003
1.959322e+003, -9.195083e-003
1.961251e+003, -9.170638e-003
1.963179e+003, -1.030699e-002
1.965108e+003, -1.069146e-002
1.967036e+003, -9.526799e-003
1.968964e+003, -9.786372e-003
1.970893e+003, -1.078008e-002
1.972821e+003, -1.086391e-002
1.974750e+003, -1.259681e-002
1.976678e+003, -1.318730e-002
1.978607e+003, -9.877477e-003
1.980535e+003, -9.266047e-003
1.982464e+003, -9.821329e-003
1.984392e+003, -9.316012e-003
1.986321e+003, -9.755723e-003
1.988249e+003, -9.660661e-003
1.990178e+003, -1.066635e-002
1.992106e+003, -1.140707e-002
1.994035e+003, -9.776847e-003
1.995963e+003, -9.618932e-003
1.997891e+003, -1.029078e-002
1.999820e+003, -1.063751e-002
2.001748e+003, -1.191769e-002
2.003677e+003, -1.268001e-002
2.005605e+003, -1.174333e-002
2.007534e+003, -1.059319e-002
2.009462e+003, -1.161894e-002
2.011391e+003, -1.209431e-002
2.013319e+003, -1.196388e-002
2.015248e+003, -1.208477e-002
2.017176e+003, -1.231091e-002
2.019105e+003, -1.296070e-002
2.021033e+003, -1.431846e-002
2.022962e+003, -1.421928e-002
2.024890e+003, -1.335317e-002
2.026818e+003, -1.264197e-002
2.028747e+003, -1.341506e-002
2.030675e+003, -1.293988e-002
2.032604e+003, -9.901016e-003
2.034532e+003, -9.740351e-003
2.036461e+003, -9.748979e-003
2.038389e+003, -9.333877e-003
2.040318e+003, -9.510669e-003
2.042246e+003, -9.780043e-003
2.044175e+003, -9.173552e-003
2.046103e+003, -9.922606e-003
2.048032e+003, -1.030998e-002
2.049960e+003, -8.523660e-003
2.051889e+003, -8.080627e-003
2.053817e+003, -7.482913e-003
2.055746e+003, -6.918967e-003
2.057674e+003, -7.370712e-003
2.059603e+003, -5.889453e-003
2.061531e+003, -6.739487e-003
2.063459e+003, -8.056004e-003
2.065388e+003, -8.115480e-003
2.067316e+003, -7.172029e-003
2.069245e+003, -7.185881e-003
2.071173e+003, -6.096360e-003
2.073102e+003, -5.775993e-003
2.075030e+003, -5.646758e-003
2.076959e+003, -6.871516e-003
2.078887e+003, -7.058714e-003
2.080816e+003, -6.890284e-003
2.082744e+003, -6.258765e-003
2.084673e+003, -5.785582e-003
2.086601e+003, -5.702200e-003
2.088530e+003, -5.138428e-003
2.090458e+003, -6.430573e-003
2.092386e+003, -8.228562e-003
2.094315e+003, -8.292668e-003
2.096243e+003, -7.034095e-003
2.098172e+003, -6.139576e-003
2.100100e+003, -5.720872e-003
2.102029e+003, -5.557831e-003
2.103957e+003, -6.115120e-003
2.105886e+003, -6.565295e-003
2.107814e+003, -7.259235e-003
2.109743e+003, -6.522097e-003
2.111671e+003, -6.111175e-003
2.113600e+003, -7.040698e-003
2.115528e+003, -7.527998e-003
2.117457e+003, -6.974306e-003
2.119385e+003, -7.131480e-003
2.121313e+003, -7.205457e-003
2.123242e+003, -7.565251e-003
2.125170e+003, -8.073323e-003
2.127099e+003, -7.792159e-003
2.129027e+003, -6.886302e-003
2.130956e+003, -7.040991e-003
2.132884e+003, -8.007677e-003
2.134813e+003, -8.098702e-003
2.136741e+003, -8.650730e-003
2.138670e+003, -8.583558e-003
2.140598e+003, -9.223535e-003
2.142527e+003, -8.588793e-003
2.144455e+003, -8.648451e-003
2.146384e+003, -1.079705e-002
2.148312e+003, -9.931127e-003
2.150240e+003, -1.065845e-002
2.152169e+003, -1.272200e-002
2.154097e+003, -1.259945e-002
2.156026e+003, -1.378274e-002
2.157954e+003, -1.281095e-002
2.159883e+003, -8.170997e-003
2.161811e+003, -7.352399e-003
2.163740e+003, -7.240475e-003
2.165668e+003, -7.408132e-003
2.167597e+003, -5.852738e-003
2.169525e+003, -6.293764e-003
2.171454e+003, -8.381527e-003
2.173382e+003, -1.069723e-002
2.175311e+003, -9.303833e-003
2.177239e+003, -6.061244e-003
2.179167e+003, -5.738251e-003
2.181096e+003, -8.578867e-003
2.183024e+003, -9.660736e-003
2.184953e+003, -8.403104e-003
2.186881e+003, -5.593175e-003
2.188810e+003, -5.340189e-003
2.190738e+003, -5.377544e-003
2.192667e+003, -5.348406e-003
2.194595e+003, -5.897409e-003
2.196524e+003, -6.457681e-003
2.198452e+003, -5.367188e-003
2.200381e+003, -5.618330e-003
2.202309e+003, -6.732786e-003
2.204238e+003, -6.617156e-003
2.206166e+003, -6.133774e-003
2.208094e+003, -6.072654e-003
2.210023e+003, -6.468358e-003
2.211951e+003, -6.871043e-003
2.213880e+003, -6.000245e-003
2.215808e+003, -4.983191e-003
2.217737e+003, -4.204112e-003
2.219665e+003, -3.781998e-003
2.221594e+003, -4.848672e-003
2.223522e+003, -5.136182e-003
2.225451e+003, -4.713655e-003
2.227379e+003, -5.180300e-003
2.229308e+003, -5.071418e-003
2.231236e+003, -4.975598e-003
2.233165e+003, -3.739337e-003
2.235093e+003, -2.951923e-003
2.237021e+003, -4.060015e-003
2.238950e+003, -4.493146e-003
2.240878e+003, -4.889302e-003
2.242807e+003, -4.777587e-003
2.244735e+003, -4.137104e-003
2.246664e+003, -3.898407e-003
2.248592e+003, -4.279717e-003
2.250521e+003, -5.512812e-003
2.252449e+003, -6.287831e-003
2.254378e+003, -6.406993e-003
2.256306e+003, -5.083948e-003
2.258235e+003, -3.309641e-003
2.260163e+003, -2.785112e-003
2.262092e+003, -3.243738e-003
2.264020e+003, -4.035164e-003
2.265948e+003, -3.192690e-003
2.267877e+003, -2.359587e-003
2.269805e+003, -3.020183e-003
2.271734e+003, -3.024391e-003
2.273662e+003, -2.797439e-003
2.275591e+003, -2.638797e-003
2.277519e+003, -2.945135e-003
2.279448e+003, -2.408380e-003
2.281376e+003, -2.049158e-003
2.283305e+003, -2.145593e-003
2.285233e+003, -2.259127e-003
2.287162e+003, -2.237729e-003
2.289090e+003, -1.897775e-003
2.291019e+003, -1.138173e-003
2.292947e+003, -1.610512e-003
2.294875e+003, -2.408220e-003
2.296804e+003, -2.166797e-003
2.298732e+003, -1.940473e-003
2.300661e+003, -2.196974e-003
2.302589e+003, -2.017778e-003
2.304518e+003, -1.960655e-003
2.306446e+003, -1.690195e-003
2.308375e+003, -1.354421e-003
2.310303e+003, -9.921282e-004
2.312232e+003, -7.085906e-004
2.314160e+003, -1.351104e-004
2.316089e+003, -1.229947e-004
2.318017e+003, -5.625045e-004
2.319946e+003, -5.324127e-004
2.321874e+003, -6.351084e-005
2.323802e+003, 3.329237e-004
2.325731e+003, -8.966933e-004
2.327659e+003, -1.740497e-003
2.329588e+003, -1.353752e-003
2.331516e+003, -1.370725e-003
2.333445e+003, -1.111867e-003
2.335373e+003, -1.082253e-003
2.337302e+003, -1.750973e-003
2.339230e+003, -1.898913e-003
2.341159e+003, -2.037814e-003
2.343087e+003, -1.720621e-003
2.345016e+003, -7.903071e-004
2.346944e+003, -1.035427e-003
2.348873e+003, -1.586662e-003
2.350801e+003, -1.570540e-003
2.352729e+003, -1.161247e-003
2.354658e+003, -9.805096e-004
2.356586e+003, -9.665772e-004
2.358515e+003, -1.286125e-003
2.360443e+003, -1.777438e-003
2.362372e+003, -1.943516e-003
2.364300e+003, -2.378014e-003
2.366229e+003, -2.464631e-003
2.368157e+003, -1.661333e-003
2.370086e+003, -1.825590e-003
2.372014e+003, -1.900146e-003
2.373942e+003, -1.592571e-003
2.375871e+003, -1.700259e-003
2.377799e+003, -1.381634e-003
2.379728e+003, -1.296300e-003
2.381656e+003, -1.669883e-003
2.383585e+003, -1.654607e-003
2.385513e+003, -2.358253e-003
2.387442e+003, -2.435566e-003
2.389370e+003, -1.698775e-003
2.391299e+003, -1.305084e-003
2.393227e+003, -1.706789e-003
2.395156e+003, -2.174092e-003
2.397084e+003, -1.728351e-003
2.399012e+003, -1.026882e-003
2.400941e+003, -7.237017e-004
2.402869e+003, -1.151960e-003
2.404798e+003, -8.267708e-004
2.406726e+003, -9.450140e-004
2.408655e+003, -1.807920e-003
2.410583e+003, -1.689623e-003
2.412512e+003, -1.241734e-003
2.414440e+003, -1.446591e-003
2.416369e+003, -1.484903e-003
2.418297e+003, -1.727613e-003
2.420226e+003, -1.960111e-003
2.422154e+003, -1.453633e-003
2.424083e+003, -1.415298e-003
2.426011e+003, -1.669044e-003
2.427939e+003, -1.754135e-003
2.429868e+003, -8.512451e-004
2.431796e+003, -1.132112e-003
2.433725e+003, -1.705103e-003
2.435653e+003, -1.035330e-003
2.437582e+003, 7.702876e-005
2.439510e+003, -3.412090e-004
2.441439e+003, -1.175794e-003
2.443367e+003, -1.175860e-003
2.445296e+003, -5.941241e-004
2.447224e+003, -5.031348e-005
2.449153e+003, 4.384308e-006
2.451081e+003, -5.284577e-004
2.453010e+003, -6.298968e-004
2.454938e+003, -4.149824e-004
2.456866e+003, -5.216586e-004
2.458795e+003, -7.978138e-004
2.460723e+003, -3.225526e-004
2.462652e+003, -8.265608e-004
2.464580e+003, -2.072474e-003
2.466509e+003, -1.941354e-003
2.468437e+003, -1.837412e-003
2.470366e+003, -1.826593e-003
2.472294e+003, -5.197697e-004
2.474223e+003, -2.805623e-004
2.476151e+003, -7.445129e-004
2.478080e+003, -1.779398e-003
2.480008e+003, -1.378946e-003
2.481937e+003, -1.090113e-003
2.483865e+003, -1.286007e-003
2.485793e+003, -7.497658e-004
2.487722e+003, 3.994520e-004
2.489650e+003, 2.180501e-004
2.491579e+003, 5.763681e-004
2.493507e+003, 8.833896e-004
2.495436e+003, 3.287067e-004
2.497364e+003, 8.697853e-005
2.499293e+003, -2.312049e-004
2.501221e+003, -6.707173e-004
2.503150e+003, -3.348637e-004
2.505078e+003, -3.879505e-004
2.507007e+003, -6.180324e-004
2.508935e+003, -4.721000e-004
2.510864e+003, -5.922259e-004
2.512792e+003, -1.387384e-003
2.514720e+003, -8.220241e-004
2.516649e+003, 5.131178e-005
2.518577e+003, 2.458863e-005
2.520506e+003, -9.790163e-004
2.522434e+003, -1.204815e-003
2.524363e+003, -1.084689e-003
2.526291e+003, -6.383050e-004
2.528220e+003, -5.256011e-004
2.530148e+003, -3.144365e-004
2.532077e+003, -4.274769e-004
2.534005e+003, -1.349158e-003
2.535934e+003, -1.431463e-003
2.537862e+003, -6.328799e-004
2.539791e+003, 3.307975e-004
2.541719e+003, 2.242383e-004
2.543647e+003, -4.824785e-004
2.545576e+003, -3.231622e-004
2.547504e+003, -3.288195e-004
2.549433e+003, 3.098349e-004
2.551361e+003, 1.374024e-003
2.553290e+003, 4.922944e-004
2.555218e+003, -3.936356e-004
2.557147e+003, -8.803103e-005
2.559075e+003, -1.026597e-004
2.561004e+003, 3.576956e-004
2.562932e+003, 8.743393e-005
2.564861e+003, -3.965134e-004
2.566789e+003, -1.381860e-004
2.568718e+003, -1.543859e-005
2.570646e+003, -4.408297e-004
2.572574e+003, -3.079518e-004
2.574503e+003, -1.611737e-004
2.576431e+003, -1.454175e-004
2.578360e+003, 2.238339e-005
2.580288e+003, -7.612495e-004
2.582217e+003, -1.695480e-003
2.584145e+003, -1.450129e-003
2.586074e+003, -8.188199e-004
2.588002e+003, -3.758443e-004
2.589931e+003, -4.733301e-004
2.591859e+003, -4.690294e-004
2.593788e+003, -1.071658e-004
2.595716e+003, -1.502877e-004
2.597645e+003, -1.373334e-004
2.599573e+003, 1.619615e-004
2.601501e+003, -4.172839e-004
2.603430e+003, -4.088391e-004
2.605358e+003, 1.182966e-004
2.607287e+003, 7.669762e-004
2.609215e+003, 4.695214e-004
2.611144e+003, 1.368971e-004
2.613072e+003, 1.138189e-004
2.615001e+003, 2.719330e-004
2.616929e+003, 2.354688e-004
2.618858e+003, 1.795592e-004
2.620786e+003, 3.574326e-004
2.622715e+003, 4.394267e-004
2.624643e+003, -1.270308e-004
2.626572e+003, 3.047902e-004
2.628500e+003, 2.261912e-004
2.630428e+003, 5.257241e-005
2.632357e+003, 1.298578e-004
2.634285e+003, 8.404048e-004
2.636214e+003, 1.069758e-003
2.638142e+003, 7.812079e-004
2.640071e+003, 6.212415e-004
2.641999e+003, 6.399984e-004
2.643928e+003, 2.244898e-004
2.645856e+003, 3.562076e-006
2.647785e+003, 2.820346e-004
2.649713e+003, 8.956530e-004
2.651642e+003, 6.704232e-004
2.653570e+003, 2.580104e-004
2.655499e+003, 5.407765e-004
2.657427e+003, 8.648348e-004
2.659355e+003, 3.979940e-004
2.661284e+003, 9.391605e-005
2.663212e+003, 2.155731e-004
2.665141e+003, -4.008601e-004
2.667069e+003, -7.700905e-004
2.668998e+003, -7.251459e-004
2.670926e+003, -9.184289e-004
2.672855e+003, -7.192850e-004
2.674783e+003, -4.601532e-004
2.676712e+003, -3.426652e-004
2.678640e+003, -3.458235e-004
2.680569e+003, -7.185921e-004
2.682497e+003, -1.433199e-003
2.684426e+003, -1.727989e-003
2.686354e+003, -1.594819e-003
2.688282e+003, -1.210207e-003
2.690211e+003, -8.100680e-004
2.692139e+003, -3.572650e-004
2.694068e+003, -6.190756e-004
2.695996e+003, -1.006850e-003
2.697925e+003, -1.016356e-003
2.699853e+003, -1.237200e-003
2.701782e+003, -1.113609e-003
2.703710e+003, -6.930841e-004
2.705639e+003, -3.028876e-004
2.707567e+003, -9.024906e-005
2.709496e+003, -8.503183e-004
2.711424e+003, -1.438533e-003
2.713353e+003, -2.146274e-003
2.715281e+003, -1.571769e-003
2.717209e+003, -1.123295e-003
2.719138e+003, -1.061239e-003
2.721066e+003, -1.227679e-003
2.722995e+003, -9.668852e-004
2.724923e+003, -1.863324e-004
2.726852e+003, -5.610232e-004
2.728780e+003, -1.315469e-003
2.730709e+003, -1.416561e-003
2.732637e+003, -1.242699e-003
2.734566e+003, -9.463330e-004
2.736494e+003, -8.557014e-004
2.738423e+003, -7.237661e-004
2.740351e+003, -1.316580e-003
2.742280e+003, -1.940828e-003
2.744208e+003, -1.421612e-003
2.746136e+003, -1.441202e-004
2.748065e+003, -2.439192e-007
2.749993e+003, -5.487632e-004
2.751922e+003, -9.178283e-004
2.753850e+003, -1.221327e-003
2.755779e+003, -1.474959e-003
2.757707e+003, -1.457848e-003
2.759636e+003, -1.429464e-003
2.761564e+003, -9.008433e-004
2.763493e+003, -7.533279e-004
2.765421e+003, -1.072945e-003
2.767350e+003, -8.896118e-004
2.769278e+003, -9.006226e-004
2.771207e+003, -1.043690e-003
2.773135e+003, -1.046013e-003
2.775063e+003, -1.158749e-003
2.776992e+003, -7.263073e-004
2.778920e+003, -7.455408e-004
2.780849e+003, -7.896174e-004
2.782777e+003, -8.546019e-004
2.784706e+003, -5.532200e-004
2.786634e+003, -4.660314e-004
2.788563e+003, -1.006865e-003
2.790491e+003, -1.353418e-003
2.792420e+003, -7.388516e-004
2.794348e+003, -3.822955e-004
2.796277e+003, -3.131666e-004
2.798205e+003, -3.691787e-004
2.800134e+003, -3.637913e-004
2.802062e+003, -5.477520e-004
2.803990e+003, -6.127091e-004
2.805919e+003, -9.340123e-004
2.807847e+003, -2.259513e-003
2.809776e+003, -2.232425e-003
2.811704e+003, -1.362158e-003
2.813633e+003, -1.353909e-003
2.815561e+003, -8.473949e-004
2.817490e+003, -4.761937e-004
2.819418e+003, -6.302813e-004
2.821347e+003, -1.068660e-003
2.823275e+003, -1.443522e-003
2.825204e+003, -1.646613e-003
2.827132e+003, -4.685678e-004
2.829061e+003, -6.879913e-006
2.830989e+003, -2.881788e-004
2.832917e+003, -2.249412e-004
2.834846e+003, -8.078897e-004
2.836774e+003, -1.812218e-003
2.838703e+003, -1.692798e-003
2.840631e+003, -9.026416e-004
2.842560e+003, -9.517586e-004
2.844488e+003, -1.830423e-003
2.846417e+003, -2.451174e-003
2.848345e+003, -1.375343e-003
2.850274e+003, -3.734864e-004
2.852202e+003, -3.881073e-004
2.854131e+003, -2.362272e-004
2.856059e+003, -5.316660e-004
2.857988e+003, -3.784662e-004
2.859916e+003, -1.715533e-004
2.861844e+003, -6.718994e-004
2.863773e+003, -1.026693e-003
2.865701e+003, -9.167204e-004
2.867630e+003, -8.607283e-004
2.869558e+003, -7.555834e-004
2.871487e+003, -1.237818e-003
2.873415e+003, -1.416362e-003
2.875344e+003, -1.254769e-003
2.877272e+003, -2.348502e-004
2.879201e+003, 1.222459e-004
2.881129e+003, -5.528433e-004
2.883058e+003, -1.298334e-003
2.884986e+003, -1.338852e-003
2.886915e+003, -1.471615e-003
2.888843e+003, -1.387695e-003
2.890771e+003, -6.945608e-004
2.892700e+003, 1.381920e-004
2.894628e+003, -8.878624e-005
2.896557e+003, -5.453997e-004
2.898485e+003, -4.635546e-004
2.900414e+003, -4.074411e-004
2.902342e+003, -6.911792e-004
2.904271e+003, -7.434385e-004
2.906199e+003, -4.816046e-004
2.908128e+003, -8.001747e-004
2.910056e+003, -1.782387e-003
2.911985e+003, -2.773067e-003
2.913913e+003, -2.485794e-003
2.915842e+003, -1.388370e-003
2.917770e+003, -9.089764e-004
2.919698e+003, -4.584789e-004
2.921627e+003, -7.468220e-004
2.923555e+003, 1.795795e-004
2.925484e+003, 1.268078e-003
2.927412e+003, 1.031160e-003
2.929341e+003, 1.790784e-004
2.931269e+003, 6.651497e-004
2.933198e+003, 1.225351e-003
2.935126e+003, 1.078900e-003
2.937055e+003, 1.154136e-003
2.938983e+003, 4.512426e-004
2.940912e+003, -1.075678e-004
2.942840e+003, 7.254728e-004
2.944769e+003, 4.110523e-004
2.946697e+003, 3.753807e-004
2.948625e+003, -2.487712e-004
2.950554e+003, -1.230444e-003
2.952482e+003, -1.540240e-003
2.954411e+003, -9.761117e-004
2.956339e+003, -3.840541e-004
2.958268e+003, -4.750798e-004
2.960196e+003, -1.000267e-003
2.962125e+003, -9.962074e-004
2.964053e+003, -3.076969e-004
2.965982e+003, -3.819438e-004
2.967910e+003, -6.535156e-004
2.969839e+003, -3.783526e-004
2.971767e+003, -5.890483e-004
2.973696e+003, -1.458449e-003
2.975624e+003, -1.206182e-003
2.977552e+003, -7.161449e-004
2.979481e+003, -1.945954e-004
2.981409e+003, 6.557744e-004
2.983338e+003, 6.614834e-004
2.985266e+003, 4.839028e-004
2.987195e+003, 7.022362e-004
2.989123e+003, 1.190912e-003
2.991052e+003, 5.276693e-004
2.992980e+003, 9.530247e-005
2.994909e+003, 2.304824e-004
2.996837e+003, 5.130748e-004
2.998766e+003, 3.989177e-004
3.000694e+003, 9.929365e-005
3.002623e+003, 8.206477e-005
3.004551e+003, 5.225345e-004
3.006479e+003, 4.603555e-004
3.008408e+003, 7.288872e-004
3.010336e+003, 7.477646e-004
3.012265e+003, -2.337449e-004
3.014193e+003, -1.766094e-004
3.016122e+003, 2.743209e-004
3.018050e+003, -8.683623e-005
3.019979e+003, 8.085638e-005
3.021907e+003, 2.597400e-005
3.023836e+003, 1.815927e-004
3.025764e+003, 5.473304e-004
3.027693e+003, 5.998139e-004
3.029621e+003, 7.115146e-004
3.031550e+003, 2.095418e-005
3.033478e+003, -7.442003e-004
3.035406e+003, -1.090878e-003
3.037335e+003, -9.742690e-004
3.039263e+003, -9.100825e-004
3.041192e+003, -6.819082e-004
3.043120e+003, -2.547218e-004
3.045049e+003, -7.572846e-004
3.046977e+003, -3.440263e-004
3.048906e+003, 1.453439e-004
3.050834e+003, -3.678155e-004
3.052763e+003, -8.055240e-004
3.054691e+003, -2.131473e-004
3.056620e+003, -6.725286e-004
3.058548e+003, -8.454120e-004
3.060477e+003, 2.537404e-004
3.062405e+003, 9.359580e-004
3.064333e+003, -1.401635e-004
3.066262e+003, -1.055523e-003
3.068190e+003, -7.837795e-004
3.070119e+003, -1.305820e-004
3.072047e+003, -2.219425e-004
3.073976e+003, -6.648991e-005
3.075904e+003, -3.001317e-004
3.077833e+003, -7.364633e-004
3.079761e+003, 1.616583e-004
3.081690e+003, 5.298137e-004
3.083618e+003, -3.700239e-004
3.085547e+003, -1.213575e-003
3.087475e+003, -1.015000e-003
3.089404e+003, -2.703302e-006
3.091332e+003, -2.477024e-004
3.093260e+003, 8.524726e-005
3.095189e+003, 3.220144e-004
3.097117e+003, -3.424956e-004
3.099046e+003, -1.001819e-003
3.100974e+003, -1.259879e-003
3.102903e+003, -3.375111e-004
3.104831e+003, 7.156283e-004
3.106760e+003, 1.938544e-004
3.108688e+003, -8.357730e-005
3.110617e+003, -5.183462e-004
3.112545e+003, -1.071729e-003
3.114474e+003, -5.398368e-004
3.116402e+003, 3.835659e-005
3.118331e+003, -6.379284e-005
3.120259e+003, 4.582438e-004
3.122188e+003, 7.764554e-004
3.124116e+003, 9.836261e-004
3.126044e+003, 5.487996e-004
3.127973e+003, 5.767046e-004
3.129901e+003, 1.473210e-004
3.131830e+003, -8.970016e-004
3.133758e+003, -1.113213e-003
3.135687e+003, -7.912444e-005
3.137615e+003, 1.074021e-003
3.139544e+003, 6.137001e-004
3.141472e+003, 8.257240e-005
3.143401e+003, 4.194149e-004
3.145329e+003, 1.214080e-003
3.147258e+003, 1.430689e-003
3.149186e+003, -7.430020e-004
3.151115e+003, -8.689071e-004
3.153043e+003, 3.647320e-004
3.154971e+003, 9.492817e-004
3.156900e+003, 1.235597e-003
3.158828e+003, 7.516642e-004
3.160757e+003, -8.432870e-004
3.162685e+003, -7.920825e-004
3.164614e+003, -1.127104e-004
3.166542e+003, 5.098223e-004
3.168471e+003, 7.743854e-004
3.170399e+003, 3.709936e-004
3.172328e+003, 4.998776e-004
3.174256e+003, 5.134128e-004
3.176185e+003, -1.660865e-004
3.178113e+003, -1.606315e-004
3.180042e+003, -4.585279e-004
3.181970e+003, -3.966736e-006
3.183898e+003, 8.506966e-004
3.185827e+003, 7.990052e-004
3.187755e+003, -2.799962e-004
3.189684e+003, 4.132860e-006
3.191612e+003, 1.682763e-004
3.193541e+003, 7.074823e-004
3.195469e+003, 1.295744e-003
3.197398e+003, 5.962285e-004
3.199326e+003, 5.964350e-004
3.201255e+003, 7.314297e-004
3.203183e+003, -5.356552e-004
3.205112e+003, -4.138419e-004
3.207040e+003, 1.799374e-004
3.208969e+003, -6.902422e-005
3.210897e+003, -2.009844e-004
3.212825e+003, 3.697655e-004
3.214754e+003, 1.956227e-004
3.216682e+003, 5.044583e-004
3.218611e+003, 6.554435e-004
3.220539e+003, 1.775587e-003
3.222468e+003, 7.110420e-004
3.224396e+003, -3.717488e-004
3.226325e+003, -2.561077e-004
3.228253e+003, 5.406780e-004
3.230182e+003, 1.262103e-003
3.232110e+003, 8.400245e-004
3.234039e+003, 6.647117e-004
3.235967e+003, 6.467403e-004
3.237896e+003, 8.946972e-004
3.239824e+003, 6.737972e-004
3.241752e+003, -1.190541e-003
3.243681e+003, -1.788375e-003
3.245609e+003, -2.462296e-003
3.247538e+003, -1.709513e-003
3.249466e+003, -2.269150e-004
3.251395e+003, 4.978300e-004
3.253323e+003, -5.709379e-004
3.255252e+003, -7.710223e-004
3.257180e+003, 5.869386e-004
3.259109e+003, 1.073977e-003
3.261037e+003, 4.353097e-004
3.262966e+003, 2.198252e-004
3.264894e+003, -1.348855e-004
3.266823e+003, 1.843093e-004
3.268751e+003, 1.828976e-004
3.270679e+003, -2.689551e-004
3.272608e+003, -7.046957e-005
3.274536e+003, 4.602497e-004
3.276465e+003, -5.479910e-004
3.278393e+003, -1.496252e-004
3.280322e+003, 2.849762e-004
3.282250e+003, 1.499885e-004
3.284179e+003, -1.918588e-004
3.286107e+003, 2.179955e-004
3.288036e+003, 2.960255e-005
3.289964e+003, -4.568141e-004
3.291893e+003, 5.032842e-004
3.293821e+003, 1.230018e-003
3.295750e+003, 1.056128e-003
3.297678e+003, 1.231799e-003
3.299606e+003, -1.031207e-005
3.301535e+003, -7.413796e-004
3.303463e+003, -3.894656e-004
3.305392e+003, -8.909489e-005
3.307320e+003, -2.160967e-004
3.309249e+003, 3.541564e-004
3.311177e+003, -1.381014e-004
3.313106e+003, 9.329239e-004
3.315034e+003, 2.597839e-004
3.316963e+003, -4.724627e-004
3.318891e+003, -7.431603e-004
3.320820e+003, -8.483612e-004
3.322748e+003, 9.467894e-004
3.324677e+003, 2.152866e-003
3.326605e+003, 6.294015e-004
3.328533e+003, 3.860291e-004
3.330462e+003, 5.438725e-004
3.332390e+003, 6.403725e-005
3.334319e+003, 4.767178e-004
3.336247e+003, -1.100384e-004
3.338176e+003, -4.400486e-004
3.340104e+003, 1.414748e-003
3.342033e+003, 1.544793e-003
3.343961e+003, 7.043493e-004
3.345890e+003, 6.287494e-004
3.347818e+003, 2.427959e-004
3.349747e+003, -4.457913e-004
3.351675e+003, 5.512750e-004
3.353604e+003, 1.546758e-003
3.355532e+003, 1.052787e-003
3.357460e+003, 2.017631e-004
3.359389e+003, 1.839764e-004
3.361317e+003, -2.209289e-004
3.363246e+003, 4.226372e-004
3.365174e+003, 6.965932e-005
3.367103e+003, -6.456855e-004
3.369031e+003, 1.907314e-005
3.370960e+003, 8.147848e-004
3.372888e+003, -1.532896e-004
3.374817e+003, 4.298621e-004
3.376745e+003, 1.824058e-003
3.378674e+003, 2.919300e-003
3.380602e+003, 1.682652e-003
3.382531e+003, -1.635568e-003
3.384459e+003, -1.046315e-003
3.386387e+003, 1.864884e-003
3.388316e+003, 1.706717e-003
3.390244e+003, 2.232081e-003
3.392173e+003, 2.590192e-003
3.394101e+003, 1.591845e-003
3.396030e+003, 5.906448e-004
3.397958e+003, 7.232165e-004
3.399887e+003, 9.025465e-005
3.401815e+003, 8.187894e-004
3.403744e+003, 7.937283e-004
3.405672e+003, 2.423563e-004
3.407601e+003, -3.404375e-004
3.409529e+003, -1.124219e-003
3.411458e+003, -1.463715e-003
3.413386e+003, -3.360874e-004
3.415314e+003, 1.368176e-004
3.417243e+003, -8.962663e-004
3.419171e+003, -7.586388e-004
3.421100e+003, 6.423268e-004
3.423028e+003, 8.788978e-004
3.424957e+003, 6.121787e-004
3.426885e+003, 5.894060e-004
3.428814e+003, 3.233138e-004
3.430742e+003, -1.671978e-003
3.432671e+003, 4.596858e-004
3.434599e+003, 3.491069e-003
3.436528e+003, 3.456263e-003
3.438456e+003, 1.207844e-003
3.440385e+003, -4.902181e-004
3.442313e+003, -4.967888e-004
3.444241e+003, -4.155284e-004
3.446170e+003, -1.467142e-003
3.448098e+003, 2.432489e-004
3.450027e+003, 1.911784e-003
3.451955e+003, 2.460335e-003
3.453884e+003, 1.056725e-003
3.455812e+003, -3.546682e-004
3.457741e+003, -2.476785e-003
3.459669e+003, -2.201756e-003
3.461598e+003, -6.064029e-004
3.463526e+003, 3.558560e-004
3.465455e+003, 7.091166e-004
3.467383e+003, 4.063253e-004
3.469312e+003, -3.442338e-004
3.471240e+003, -1.683998e-004
3.473168e+003, -1.933628e-004
3.475097e+003, 1.703212e-003
3.477025e+003, 2.921266e-003
3.478954e+003, 5.152599e-004
3.480882e+003, -3.195973e-004
3.482811e+003, 1.309356e-003
3.484739e+003, 6.549259e-004
3.486668e+003, -2.707257e-004
3.488596e+003, -6.177695e-006
3.490525e+003, 8.737317e-005
3.492453e+003, -1.258176e-003
3.494382e+003, -8.485604e-004
3.496310e+003, 4.746835e-004
3.498239e+003, 4.682782e-004
3.500167e+003, -8.801155e-005
3.502095e+003, -2.998446e-003
3.504024e+003, -4.789858e-003
3.505952e+003, -1.531173e-003
3.507881e+003, 9.150076e-004
3.509809e+003, 3.921167e-004
3.511738e+003, -9.560844e-004
3.513666e+003, -1.674127e-003
3.515595e+003, -1.683354e-003
3.517523e+003, -1.154059e-003
3.519452e+003, -7.306254e-004
3.521380e+003, -7.701300e-004
3.523309e+003, -2.168762e-004
3.525237e+003, 1.450395e-003
3.527166e+003, 8.442811e-004
3.529094e+003, -2.106032e-004
3.531022e+003, -1.254060e-003
3.532951e+003, -2.836435e-003
3.534879e+003, -3.996001e-003
3.536808e+003, -1.281049e-003
3.538736e+003, -3.780326e-004
3.540665e+003, -1.363015e-003
3.542593e+003, -2.391485e-003
3.544522e+003, -1.209151e-003
3.546450e+003, 3.688102e-004
3.548379e+003, 8.607893e-004
3.550307e+003, -9.740828e-005
3.552236e+003, -7.551325e-004
3.554164e+003, -9.923236e-005
3.556093e+003, -1.513761e-003
3.558021e+003, -1.446063e-003
3.559949e+003, -1.851806e-004
3.561878e+003, -1.127956e-004
3.563806e+003, -1.738458e-003
3.565735e+003, -2.837149e-003
3.567663e+003, -1.151703e-003
3.569592e+003, 1.382645e-003
3.571520e+003, 1.296797e-003
3.573449e+003, 1.589155e-004
3.575377e+003, 4.127045e-005
3.577306e+003, -3.368926e-004
3.579234e+003, -1.195207e-005
3.581163e+003, -8.993984e-004
3.583091e+003, -1.928810e-003
3.585020e+003, -1.076138e-003
3.586948e+003, -1.646715e-003
3.588876e+003, -2.786493e-003
3.590805e+003, -1.351890e-003
3.592733e+003, -6.721217e-004
3.594662e+003, 5.091879e-004
3.596590e+003, 3.715430e-004
3.598519e+003, 9.699538e-005
3.600447e+003, 2.978632e-005
3.602376e+003, 9.542156e-004
3.604304e+003, -8.645114e-004
3.606233e+003, -1.989818e-003
3.608161e+003, -1.973040e-003
3.610090e+003, -9.298039e-004
3.612018e+003, -1.305810e-003
3.613947e+003, -1.932868e-003
3.615875e+003, -2.762723e-003
3.617803e+003, -1.212227e-003
3.619732e+003, -1.686409e-003
3.621660e+003, -2.089933e-003
3.623589e+003, -1.639963e-003
3.625517e+003, -1.791357e-003
3.627446e+003, -3.784250e-003
3.629374e+003, -2.906099e-003
3.631303e+003, -1.002737e-003
3.633231e+003, -8.061624e-004
3.635160e+003, -9.313744e-004
3.637088e+003, -4.625660e-004
3.639017e+003, -8.419605e-004
3.640945e+003, -1.157589e-003
3.642874e+003, -2.986579e-003
3.644802e+003, -3.528310e-003
3.646730e+003, -2.759267e-003
3.648659e+003, -1.999550e-003
3.650587e+003, -3.340193e-003
3.652516e+003, -3.013544e-003
3.654444e+003, -3.358918e-003
3.656373e+003, -3.385152e-003
3.658301e+003, -2.894911e-003
3.660230e+003, -2.551646e-003
3.662158e+003, -4.736719e-003
3.664087e+003, -5.036621e-003
3.666015e+003, -3.203095e-003
3.667944e+003, -3.146188e-003
3.669872e+003, -3.733409e-003
3.671801e+003, -2.883744e-003
3.673729e+003, -3.955995e-003
3.675657e+003, -3.984119e-003
3.677586e+003, -4.100175e-003
3.679514e+003, -3.701165e-003
3.681443e+003, -1.243580e-003
3.683371e+003, -2.514671e-003
3.685300e+003, -4.591679e-003
3.687228e+003, -4.129973e-003
3.689157e+003, -2.735439e-003
3.691085e+003, -2.453941e-003
3.693014e+003, -2.855920e-003
3.694942e+003, -4.473018e-003
3.696871e+003, -3.091944e-003
3.698799e+003, -1.239002e-003
3.700728e+003, -1.536528e-003
3.702656e+003, -2.909194e-003
3.704584e+003, -4.471472e-003
3.706513e+003, -5.661082e-003
3.708441e+003, -4.311848e-003
3.710370e+003, -3.160210e-003
3.712298e+003, -2.667063e-003
3.714227e+003, -5.788825e-004
3.716155e+003, 8.780938e-004
3.718084e+003, -7.269612e-004
3.720012e+003, -1.687352e-003
3.721941e+003, -1.199645e-003
3.723869e+003, -2.291450e-003
3.725798e+003, -4.106234e-003
3.727726e+003, -3.773996e-003
3.729655e+003, -2.655514e-003
3.731583e+003, -4.468877e-003
3.733511e+003, -5.071939e-003
3.735440e+003, -6.459589e-003
3.737368e+003, -4.837639e-003
3.739297e+003, -3.405676e-003
3.741225e+003, -1.767784e-003
3.743154e+003, -3.934369e-003
3.745082e+003, -4.643308e-003
3.747011e+003, -5.871498e-003
3.748939e+003, -7.068304e-003
3.750868e+003, -5.215446e-003
3.752796e+003, -2.567778e-003
3.754725e+003, -1.117252e-003
3.756653e+003, -9.461731e-004
3.758582e+003, -6.330275e-004
3.760510e+003, -1.783883e-003
3.762438e+003, -2.668497e-003
3.764367e+003, -1.115837e-003
3.766295e+003, -6.563014e-004
3.768224e+003, -4.256024e-003
3.770152e+003, -6.170127e-003
3.772081e+003, -4.848501e-003
3.774009e+003, -6.288893e-004
3.775938e+003, 2.381451e-004
3.777866e+003, 4.099216e-006
3.779795e+003, -6.492093e-004
3.781723e+003, -9.268239e-004
3.783652e+003, -6.857398e-004
3.785580e+003, -9.431842e-004
3.787509e+003, -2.356147e-003
3.789437e+003, -3.576832e-003
3.791365e+003, -1.637598e-003
3.793294e+003, -1.760712e-004
3.795222e+003, -1.447533e-003
3.797151e+003, -1.525799e-003
3.799079e+003, -1.218189e-003
3.801008e+003, -1.485370e-003
3.802936e+003, -8.955750e-004
3.804865e+003, -1.298820e-003
3.806793e+003, -1.434400e-003
3.808722e+003, -5.236762e-004
3.810650e+003, -2.936531e-003
3.812579e+003, -5.318626e-003
3.814507e+003, -3.669031e-003
3.816436e+003, -2.308341e-003
3.818364e+003, -7.157715e-005
3.820292e+003, -1.750797e-003
3.822221e+003, -1.950908e-003
3.824149e+003, -7.518271e-004
3.826078e+003, -1.411555e-003
3.828006e+003, -3.091727e-003
3.829935e+003, -2.335188e-003
3.831863e+003, -6.460403e-004
3.833792e+003, -9.399483e-004
3.835720e+003, -3.397681e-003
3.837649e+003, -3.869033e-003
3.839577e+003, -2.615594e-003
3.841506e+003, -1.986217e-003
3.843434e+003, -1.864329e-003
3.845363e+003, -1.428443e-003
3.847291e+003, -1.787554e-003
3.849219e+003, -2.108311e-003
3.851148e+003, -3.809892e-003
3.853076e+003, -4.788592e-003
3.855005e+003, -3.605541e-003
3.856933e+003, -3.287595e-003
3.858862e+003, -2.254670e-003
3.860790e+003, -3.184396e-003
3.862719e+003, -4.611921e-003
3.864647e+003, -2.814986e-003
3.866576e+003, -2.828165e-003
3.868504e+003, -2.559437e-003
3.870433e+003, -1.990467e-003
3.872361e+003, -2.476850e-003
3.874290e+003, -3.171780e-003
3.876218e+003, -3.777623e-003
3.878146e+003, -5.610903e-003
3.880075e+003, -6.717402e-003
3.882003e+003, -3.693075e-003
3.883932e+003, -2.060367e-003
3.885860e+003, -2.627190e-003
3.887789e+003, -8.535637e-004
3.889717e+003, 4.877724e-004
3.891646e+003, 3.605921e-004
3.893574e+003, -2.849202e-003
3.895503e+003, -4.410520e-003
3.897431e+003, -3.742030e-003
3.899360e+003, -3.229907e-003
3.901288e+003, -1.586271e-003
3.903217e+003, -2.490976e-003
3.905145e+003, -3.525927e-003
3.907073e+003, -2.369651e-003
3.909002e+003, -2.944972e-003
3.910930e+003, -2.155071e-003
3.912859e+003, -1.090447e-003
3.914787e+003, -1.272198e-003
3.916716e+003, 1.297613e-004
3.918644e+003, 7.229213e-004
3.920573e+003, -3.720430e-004
3.922501e+003, -1.950378e-003
3.924430e+003, -3.272363e-003
3.926358e+003, -3.769856e-003
3.928287e+003, -3.705258e-003
3.930215e+003, -1.278791e-003
3.932144e+003, -2.036182e-003
3.934072e+003, -3.686662e-003
3.936000e+003, -4.528502e-003
3.937929e+003, -4.560651e-003
3.939857e+003, -2.318904e-003
3.941786e+003, -8.926900e-004
3.943714e+003, -4.269949e-004
3.945643e+003, -1.827267e-004
3.947571e+003, -2.363706e-003
3.949500e+003, -1.406995e-003
3.951428e+003, -1.826776e-003
3.953357e+003, -1.899000e-003
3.955285e+003, -1.545694e-003
3.957214e+003, -2.045266e-003
3.959142e+003, -3.382641e-003
3.961071e+003, -1.237868e-003
3.962999e+003, 3.357556e-004
3.964927e+003, -7.737700e-004
3.966856e+003, 2.612411e-004
3.968784e+003, 1.754602e-003
3.970713e+003, 1.182846e-003
3.972641e+003, 1.006989e-003
3.974570e+003, -1.983302e-003
3.976498e+003, -5.571442e-003
3.978427e+003, -6.706418e-003
3.980355e+003, -3.770922e-003
3.982284e+003, -2.596307e-003
3.984212e+003, -2.823902e-003
3.986141e+003, -1.047052e-003
3.988069e+003, -4.004722e-005
3.989998e+003, -2.000541e-003
3.991926e+003, -3.515339e-003
3.993854e+003, -2.427199e-003
3.995783e+003, -1.441722e-003
3.997711e+003, -2.152992e-003
3.999640e+003, -2.155290e-003
##END=



