##NAMES=Orthoclase
##RRUFFID=R050185
##IDEAL CHEMISTRY=KAlSi_3_O_8_
##LOCALITY=Silica Bell Property, west of Hope, British Columbia, Canada
##OWNER=RRUFF
##SOURCE=Bob Downs
##DESCRIPTION=Cluster of white wedge-shaped crystals, variety adularia
##STATUS=The identification of this mineral is confirmed by single-crystal X-ray diffraction and chemical analysis.
##URL=rruff.info/R050185
##MEASURED CHEMISTRY=(K_0.96_Na_0.04_)Al_1.00_Si_3.00_O_8_
3.741225e+002, 1.424385e-001
3.760510e+002, 1.374272e-001
3.779795e+002, 1.444201e-001
3.799079e+002, 1.550127e-001
3.818364e+002, 1.498689e-001
3.837649e+002, 1.379072e-001
3.856933e+002, 1.297895e-001
3.876218e+002, 1.354198e-001
3.895503e+002, 1.418041e-001
3.914787e+002, 1.401328e-001
3.934072e+002, 1.454121e-001
3.953357e+002, 1.494690e-001
3.972641e+002, 1.483766e-001
3.991926e+002, 1.431412e-001
4.011211e+002, 1.430669e-001
4.030495e+002, 1.477046e-001
4.049780e+002, 1.505314e-001
4.069065e+002, 1.519917e-001
4.088349e+002, 1.486228e-001
4.107634e+002, 1.486436e-001
4.126919e+002, 1.518265e-001
4.146203e+002, 1.538951e-001
4.165488e+002, 1.522342e-001
4.184773e+002, 1.507836e-001
4.204057e+002, 1.521155e-001
4.223342e+002, 1.530087e-001
4.242627e+002, 1.500672e-001
4.261911e+002, 1.431104e-001
4.281196e+002, 1.383749e-001
4.300481e+002, 1.353022e-001
4.319765e+002, 1.314712e-001
4.339050e+002, 1.252928e-001
4.358335e+002, 1.173102e-001
4.377619e+002, 1.096842e-001
4.396904e+002, 1.025193e-001
4.416189e+002, 9.630276e-002
4.435473e+002, 8.990203e-002
4.454758e+002, 8.327382e-002
4.474043e+002, 7.654443e-002
4.493327e+002, 6.982041e-002
4.512612e+002, 6.423997e-002
4.531897e+002, 5.971310e-002
4.551181e+002, 5.566296e-002
4.570466e+002, 5.264328e-002
4.589751e+002, 5.053305e-002
4.609035e+002, 4.882047e-002
4.628320e+002, 4.670238e-002
4.647605e+002, 4.468248e-002
4.666889e+002, 4.267838e-002
4.686174e+002, 4.049861e-002
4.705459e+002, 3.775234e-002
4.724743e+002, 3.551383e-002
4.744028e+002, 3.341790e-002
4.763313e+002, 3.158692e-002
4.782597e+002, 3.092838e-002
4.801882e+002, 3.020477e-002
4.821167e+002, 2.828161e-002
4.840451e+002, 2.676282e-002
4.859736e+002, 2.607408e-002
4.879021e+002, 2.532212e-002
4.898305e+002, 2.484044e-002
4.917590e+002, 2.460092e-002
4.936875e+002, 2.427545e-002
4.956159e+002, 2.356234e-002
4.975444e+002, 2.341050e-002
4.994729e+002, 2.395539e-002
5.014013e+002, 2.509730e-002
5.033298e+002, 2.683694e-002
5.052583e+002, 2.814190e-002
5.071867e+002, 2.944029e-002
5.091152e+002, 3.076200e-002
5.110437e+002, 3.199391e-002
5.129721e+002, 3.294710e-002
5.149006e+002, 3.400176e-002
5.168290e+002, 3.540586e-002
5.187575e+002, 3.671456e-002
5.206860e+002, 3.861885e-002
5.226144e+002, 4.107707e-002
5.245429e+002, 4.420904e-002
5.264714e+002, 4.822167e-002
5.283998e+002, 5.336151e-002
5.303283e+002, 5.992762e-002
5.322568e+002, 6.690278e-002
5.341852e+002, 7.468455e-002
5.361137e+002, 8.331509e-002
5.380422e+002, 9.082068e-002
5.399706e+002, 9.549107e-002
5.418991e+002, 9.654212e-002
5.438276e+002, 9.390445e-002
5.457560e+002, 8.879429e-002
5.476845e+002, 8.377371e-002
5.496130e+002, 7.964166e-002
5.515414e+002, 7.755800e-002
5.534699e+002, 7.745645e-002
5.553984e+002, 7.828505e-002
5.573268e+002, 8.044361e-002
5.592553e+002, 8.312743e-002
5.611838e+002, 8.669917e-002
5.631122e+002, 9.048866e-002
5.650407e+002, 9.433588e-002
5.669692e+002, 9.825990e-002
5.688976e+002, 1.020428e-001
5.708261e+002, 1.050435e-001
5.727546e+002, 1.074994e-001
5.746830e+002, 1.093767e-001
5.766115e+002, 1.104722e-001
5.785400e+002, 1.106908e-001
5.804684e+002, 1.105743e-001
5.823969e+002, 1.100076e-001
5.843254e+002, 1.087304e-001
5.862538e+002, 1.070080e-001
5.881823e+002, 1.043397e-001
5.901108e+002, 1.010102e-001
5.920392e+002, 9.731479e-002
5.939677e+002, 9.329355e-002
5.958962e+002, 8.912890e-002
5.978246e+002, 8.528579e-002
5.997531e+002, 8.178921e-002
6.016816e+002, 7.837021e-002
6.036100e+002, 7.477780e-002
6.055385e+002, 7.125024e-002
6.074670e+002, 6.746791e-002
6.093954e+002, 6.321166e-002
6.113239e+002, 5.881226e-002
6.132524e+002, 5.408224e-002
6.151808e+002, 4.950620e-002
6.171093e+002, 4.567260e-002
6.190378e+002, 4.261645e-002
6.209662e+002, 4.032317e-002
6.228947e+002, 3.922797e-002
6.248232e+002, 3.868169e-002
6.267516e+002, 3.877551e-002
6.286801e+002, 3.979524e-002
6.306086e+002, 4.143061e-002
6.325370e+002, 4.353711e-002
6.344655e+002, 4.625437e-002
6.363940e+002, 4.899931e-002
6.383224e+002, 5.161570e-002
6.402509e+002, 5.374509e-002
6.421794e+002, 5.427922e-002
6.441078e+002, 5.252101e-002
6.460363e+002, 4.892625e-002
6.479648e+002, 4.416440e-002
6.498932e+002, 3.905374e-002
6.518217e+002, 3.454180e-002
6.537502e+002, 3.113897e-002
6.556786e+002, 2.879025e-002
6.576071e+002, 2.713994e-002
6.595356e+002, 2.578332e-002
6.614641e+002, 2.485424e-002
6.633925e+002, 2.445331e-002
6.653210e+002, 2.390037e-002
6.672495e+002, 2.354155e-002
6.691779e+002, 2.336327e-002
6.711064e+002, 2.311661e-002
6.730349e+002, 2.317915e-002
6.749633e+002, 2.320741e-002
6.768918e+002, 2.342098e-002
6.788203e+002, 2.404519e-002
6.807487e+002, 2.486291e-002
6.826772e+002, 2.551023e-002
6.846057e+002, 2.633636e-002
6.865341e+002, 2.720030e-002
6.884626e+002, 2.813307e-002
6.903911e+002, 2.965486e-002
6.923195e+002, 3.145166e-002
6.942480e+002, 3.338917e-002
6.961765e+002, 3.601589e-002
6.981049e+002, 3.889362e-002
7.000334e+002, 4.205097e-002
7.019619e+002, 4.514113e-002
7.038903e+002, 4.815189e-002
7.058188e+002, 5.076088e-002
7.077473e+002, 5.329467e-002
7.096757e+002, 5.587964e-002
7.116042e+002, 5.815439e-002
7.135327e+002, 6.015317e-002
7.154611e+002, 6.181473e-002
7.173896e+002, 6.332629e-002
7.193181e+002, 6.458726e-002
7.212465e+002, 6.529705e-002
7.231750e+002, 6.566852e-002
7.251035e+002, 6.571118e-002
7.270319e+002, 6.521557e-002
7.289604e+002, 6.420036e-002
7.308889e+002, 6.282499e-002
7.328173e+002, 6.113026e-002
7.347458e+002, 5.925843e-002
7.366743e+002, 5.744029e-002
7.386027e+002, 5.574383e-002
7.405312e+002, 5.428489e-002
7.424597e+002, 5.316686e-002
7.443881e+002, 5.240819e-002
7.463166e+002, 5.204638e-002
7.482451e+002, 5.174974e-002
7.501735e+002, 5.129364e-002
7.521020e+002, 5.103929e-002
7.540305e+002, 5.093117e-002
7.559589e+002, 5.060182e-002
7.578874e+002, 5.026436e-002
7.598159e+002, 5.010790e-002
7.617443e+002, 5.020160e-002
7.636728e+002, 5.076845e-002
7.656013e+002, 5.126631e-002
7.675297e+002, 5.168106e-002
7.694582e+002, 5.198390e-002
7.713867e+002, 5.194012e-002
7.733151e+002, 5.111871e-002
7.752436e+002, 4.998831e-002
7.771721e+002, 4.852957e-002
7.791005e+002, 4.686077e-002
7.810290e+002, 4.510335e-002
7.829575e+002, 4.348112e-002
7.848859e+002, 4.208472e-002
7.868144e+002, 4.075954e-002
7.887429e+002, 3.936683e-002
7.906713e+002, 3.798532e-002
7.925998e+002, 3.630541e-002
7.945283e+002, 3.433166e-002
7.964567e+002, 3.217493e-002
7.983852e+002, 3.001126e-002
8.003137e+002, 2.815092e-002
8.022421e+002, 2.618258e-002
8.041706e+002, 2.436331e-002
8.060991e+002, 2.307546e-002
8.080275e+002, 2.206765e-002
8.099560e+002, 2.107553e-002
8.118845e+002, 2.032334e-002
8.138129e+002, 1.969398e-002
8.157414e+002, 1.909241e-002
8.176699e+002, 1.857019e-002
8.195983e+002, 1.827802e-002
8.215268e+002, 1.834718e-002
8.234553e+002, 1.846070e-002
8.253837e+002, 1.863841e-002
8.273122e+002, 1.900852e-002
8.292407e+002, 1.935380e-002
8.311691e+002, 1.972562e-002
8.330976e+002, 2.006400e-002
8.350261e+002, 2.065782e-002
8.369545e+002, 2.108092e-002
8.388830e+002, 2.162657e-002
8.408115e+002, 2.242245e-002
8.427399e+002, 2.294263e-002
8.446684e+002, 2.361893e-002
8.465969e+002, 2.443593e-002
8.485253e+002, 2.510955e-002
8.504538e+002, 2.591399e-002
8.523823e+002, 2.698542e-002
8.543107e+002, 2.806450e-002
8.562392e+002, 2.913301e-002
8.581677e+002, 3.018603e-002
8.600961e+002, 3.102428e-002
8.620246e+002, 3.192186e-002
8.639531e+002, 3.302680e-002
8.658815e+002, 3.444666e-002
8.678100e+002, 3.573129e-002
8.697385e+002, 3.692443e-002
8.716669e+002, 3.822348e-002
8.735954e+002, 3.961052e-002
8.755239e+002, 4.105450e-002
8.774523e+002, 4.244727e-002
8.793808e+002, 4.388678e-002
8.813093e+002, 4.548341e-002
8.832377e+002, 4.701720e-002
8.851662e+002, 4.868766e-002
8.870947e+002, 5.052992e-002
8.890231e+002, 5.248116e-002
8.909516e+002, 5.440417e-002
8.928801e+002, 5.635548e-002
8.948085e+002, 5.860304e-002
8.967370e+002, 6.073614e-002
8.986655e+002, 6.262533e-002
9.005939e+002, 6.459947e-002
9.025224e+002, 6.672000e-002
9.044509e+002, 6.889057e-002
9.063793e+002, 7.134359e-002
9.083078e+002, 7.406595e-002
9.102363e+002, 7.699304e-002
9.121647e+002, 7.988286e-002
9.140932e+002, 8.298402e-002
9.160217e+002, 8.638062e-002
9.179501e+002, 8.979901e-002
9.198786e+002, 9.337161e-002
9.218071e+002, 9.724654e-002
9.237355e+002, 1.013128e-001
9.256640e+002, 1.055727e-001
9.275925e+002, 1.099148e-001
9.295209e+002, 1.142078e-001
9.314494e+002, 1.186422e-001
9.333779e+002, 1.235275e-001
9.353063e+002, 1.288762e-001
9.372348e+002, 1.341310e-001
9.391633e+002, 1.393689e-001
9.410917e+002, 1.448320e-001
9.430202e+002, 1.504980e-001
9.449487e+002, 1.562591e-001
9.468771e+002, 1.621311e-001
9.488056e+002, 1.680644e-001
9.507341e+002, 1.743409e-001
9.526625e+002, 1.806095e-001
9.545910e+002, 1.866939e-001
9.565195e+002, 1.929246e-001
9.584479e+002, 1.988299e-001
9.603764e+002, 2.043120e-001
9.623049e+002, 2.095942e-001
9.642333e+002, 2.146233e-001
9.661618e+002, 2.190279e-001
9.680903e+002, 2.232655e-001
9.700187e+002, 2.275069e-001
9.719472e+002, 2.310999e-001
9.738757e+002, 2.339133e-001
9.758041e+002, 2.365468e-001
9.777326e+002, 2.388225e-001
9.796611e+002, 2.408457e-001
9.815895e+002, 2.427863e-001
9.835180e+002, 2.443015e-001
9.854465e+002, 2.454053e-001
9.873749e+002, 2.460671e-001
9.893034e+002, 2.465498e-001
9.912319e+002, 2.469758e-001
9.931603e+002, 2.470730e-001
9.950888e+002, 2.467154e-001
9.970173e+002, 2.461914e-001
9.989457e+002, 2.455933e-001
1.000874e+003, 2.448630e-001
1.002803e+003, 2.438696e-001
1.004731e+003, 2.423755e-001
1.006660e+003, 2.406853e-001
1.008588e+003, 2.390127e-001
1.010517e+003, 2.369205e-001
1.012445e+003, 2.345037e-001
1.014373e+003, 2.321455e-001
1.016302e+003, 2.295332e-001
1.018230e+003, 2.266576e-001
1.020159e+003, 2.237373e-001
1.022087e+003, 2.211152e-001
1.024016e+003, 2.184590e-001
1.025944e+003, 2.160375e-001
1.027873e+003, 2.137096e-001
1.029801e+003, 2.115113e-001
1.031730e+003, 2.093329e-001
1.033658e+003, 2.069365e-001
1.035587e+003, 2.046025e-001
1.037515e+003, 2.019068e-001
1.039443e+003, 1.986801e-001
1.041372e+003, 1.950892e-001
1.043300e+003, 1.917176e-001
1.045229e+003, 1.883346e-001
1.047157e+003, 1.848543e-001
1.049086e+003, 1.811921e-001
1.051014e+003, 1.766557e-001
1.052943e+003, 1.713375e-001
1.054871e+003, 1.655795e-001
1.056800e+003, 1.590243e-001
1.058728e+003, 1.516525e-001
1.060657e+003, 1.444276e-001
1.062585e+003, 1.376506e-001
1.064514e+003, 1.312796e-001
1.066442e+003, 1.262127e-001
1.068370e+003, 1.224463e-001
1.070299e+003, 1.196490e-001
1.072227e+003, 1.176584e-001
1.074156e+003, 1.160377e-001
1.076084e+003, 1.148818e-001
1.078013e+003, 1.143052e-001
1.079941e+003, 1.138238e-001
1.081870e+003, 1.133215e-001
1.083798e+003, 1.130772e-001
1.085727e+003, 1.130991e-001
1.087655e+003, 1.132240e-001
1.089584e+003, 1.132877e-001
1.091512e+003, 1.131226e-001
1.093441e+003, 1.128874e-001
1.095369e+003, 1.129876e-001
1.097297e+003, 1.131925e-001
1.099226e+003, 1.131916e-001
1.101154e+003, 1.132232e-001
1.103083e+003, 1.133655e-001
1.105011e+003, 1.133820e-001
1.106940e+003, 1.133060e-001
1.108868e+003, 1.131778e-001
1.110797e+003, 1.131695e-001
1.112725e+003, 1.131700e-001
1.114654e+003, 1.130499e-001
1.116582e+003, 1.129040e-001
1.118511e+003, 1.129334e-001
1.120439e+003, 1.131673e-001
1.122368e+003, 1.135022e-001
1.124296e+003, 1.136063e-001
1.126224e+003, 1.133184e-001
1.128153e+003, 1.125935e-001
1.130081e+003, 1.115135e-001
1.132010e+003, 1.099487e-001
1.133938e+003, 1.078096e-001
1.135867e+003, 1.051403e-001
1.137795e+003, 1.019311e-001
1.139724e+003, 9.814563e-002
1.141652e+003, 9.442628e-002
1.143581e+003, 9.055236e-002
1.145509e+003, 8.640300e-002
1.147438e+003, 8.220844e-002
1.149366e+003, 7.811780e-002
1.151295e+003, 7.415347e-002
1.153223e+003, 7.033732e-002
1.155151e+003, 6.666831e-002
1.157080e+003, 6.310385e-002
1.159008e+003, 5.960749e-002
1.160937e+003, 5.636246e-002
1.162865e+003, 5.330064e-002
1.164794e+003, 5.015048e-002
1.166722e+003, 4.717736e-002
1.168651e+003, 4.455216e-002
1.170579e+003, 4.204839e-002
1.172508e+003, 3.960570e-002
1.174436e+003, 3.726869e-002
1.176365e+003, 3.501228e-002
1.178293e+003, 3.283456e-002
1.180222e+003, 3.069366e-002
1.182150e+003, 2.865883e-002
1.184078e+003, 2.676138e-002
1.186007e+003, 2.487730e-002
1.187935e+003, 2.314381e-002
1.189864e+003, 2.162961e-002
1.191792e+003, 2.002565e-002
1.193721e+003, 1.829650e-002
1.195649e+003, 1.685113e-002
1.197578e+003, 1.571591e-002
1.199506e+003, 1.471623e-002
1.201435e+003, 1.376828e-002
1.203363e+003, 1.277178e-002
1.205292e+003, 1.199235e-002
1.207220e+003, 1.135156e-002
1.209149e+003, 1.067322e-002
1.211077e+003, 9.983031e-003
1.213005e+003, 9.513868e-003
1.214934e+003, 9.245447e-003
1.216862e+003, 8.771971e-003
1.218791e+003, 8.295966e-003
1.220719e+003, 7.889224e-003
1.222648e+003, 7.462997e-003
1.224576e+003, 7.138258e-003
1.226505e+003, 6.787277e-003
1.228433e+003, 6.523568e-003
1.230362e+003, 6.272333e-003
1.232290e+003, 5.954062e-003
1.234219e+003, 5.710094e-003
1.236147e+003, 5.605364e-003
1.238076e+003, 5.419424e-003
1.240004e+003, 5.074409e-003
1.241932e+003, 4.826871e-003
1.243861e+003, 4.755710e-003
1.245789e+003, 4.528371e-003
1.247718e+003, 4.279452e-003
1.249646e+003, 4.103070e-003
1.251575e+003, 3.875985e-003
1.253503e+003, 3.735967e-003
1.255432e+003, 3.613794e-003
1.257360e+003, 3.511258e-003
1.259289e+003, 3.396275e-003
1.261217e+003, 3.262542e-003
1.263146e+003, 3.173538e-003
1.265074e+003, 3.063951e-003
1.267003e+003, 2.875629e-003
1.268931e+003, 2.683491e-003
1.270859e+003, 2.542005e-003
1.272788e+003, 2.626930e-003
1.274716e+003, 2.592652e-003
1.276645e+003, 2.464868e-003
1.278573e+003, 2.403591e-003
1.280502e+003, 2.439742e-003
1.282430e+003, 2.446935e-003
1.284359e+003, 2.418365e-003
1.286287e+003, 2.409089e-003
1.288216e+003, 2.363551e-003
1.290144e+003, 2.314698e-003
1.292073e+003, 2.298186e-003
1.294001e+003, 2.306889e-003
1.295930e+003, 2.224036e-003
1.297858e+003, 2.082286e-003
1.299786e+003, 2.173112e-003
1.301715e+003, 2.364205e-003
1.303643e+003, 2.470883e-003
1.305572e+003, 2.518352e-003
1.307500e+003, 2.581974e-003
1.309429e+003, 2.661203e-003
1.311357e+003, 2.716267e-003
1.313286e+003, 2.786876e-003
1.315214e+003, 2.808947e-003
1.317143e+003, 2.952525e-003
1.319071e+003, 3.121588e-003
1.321000e+003, 3.136871e-003
1.322928e+003, 3.211072e-003
1.324857e+003, 3.403983e-003
1.326785e+003, 3.596752e-003
1.328714e+003, 3.740951e-003
1.330642e+003, 3.689124e-003
1.332570e+003, 3.785059e-003
1.334499e+003, 3.904195e-003
1.336427e+003, 3.924443e-003
1.338356e+003, 3.995136e-003
1.340284e+003, 3.900907e-003
1.342213e+003, 3.772568e-003
1.344141e+003, 3.855566e-003
1.346070e+003, 3.970815e-003
1.347998e+003, 3.887327e-003
1.349927e+003, 3.710824e-003
1.351855e+003, 3.566883e-003
1.353784e+003, 3.518574e-003
1.355712e+003, 3.517468e-003
1.357641e+003, 3.383009e-003
1.359569e+003, 3.337289e-003
1.361497e+003, 3.398494e-003
1.363426e+003, 3.383805e-003
1.365354e+003, 3.346310e-003
1.367283e+003, 3.406107e-003
1.369211e+003, 3.329554e-003
1.371140e+003, 3.227244e-003
1.373068e+003, 3.192666e-003
1.374997e+003, 3.246607e-003
1.376925e+003, 3.401256e-003
1.378854e+003, 3.530808e-003
1.380782e+003, 3.439375e-003
1.382711e+003, 3.334517e-003
1.384639e+003, 3.283937e-003
1.386568e+003, 3.262497e-003
1.388496e+003, 3.178038e-003
1.390424e+003, 3.034352e-003
1.392353e+003, 3.004012e-003
1.394281e+003, 3.134644e-003
1.396210e+003, 3.182034e-003
1.398138e+003, 3.042306e-003
1.400067e+003, 3.016100e-003
1.401995e+003, 3.068613e-003
1.403924e+003, 3.100454e-003
1.405852e+003, 3.042162e-003
1.407781e+003, 3.098365e-003
1.409709e+003, 3.113871e-003
1.411638e+003, 3.212431e-003
1.413566e+003, 3.330197e-003
1.415495e+003, 3.478480e-003
1.417423e+003, 3.673387e-003
1.419351e+003, 3.671000e-003
1.421280e+003, 3.555102e-003
1.423208e+003, 3.473800e-003
1.425137e+003, 3.303115e-003
1.427065e+003, 3.313092e-003
1.428994e+003, 3.306951e-003
1.430922e+003, 3.224188e-003
1.432851e+003, 3.232111e-003
1.434779e+003, 3.231871e-003
1.436708e+003, 3.228749e-003
1.438636e+003, 3.088395e-003
1.440565e+003, 2.839992e-003
1.442493e+003, 2.689167e-003
1.444422e+003, 2.647771e-003
1.446350e+003, 2.625415e-003
1.448278e+003, 2.479314e-003
1.450207e+003, 2.194205e-003
1.452135e+003, 2.039938e-003
1.454064e+003, 2.083007e-003
1.455992e+003, 2.020046e-003
1.457921e+003, 1.841020e-003
1.459849e+003, 1.804407e-003
1.461778e+003, 1.901610e-003
1.463706e+003, 1.900322e-003
1.465635e+003, 1.903656e-003
1.467563e+003, 1.909089e-003
1.469492e+003, 1.925469e-003
1.471420e+003, 1.900513e-003
1.473349e+003, 1.863051e-003
1.475277e+003, 1.819172e-003
1.477205e+003, 1.773200e-003
1.479134e+003, 1.763134e-003
1.481062e+003, 1.718594e-003
1.482991e+003, 1.601275e-003
1.484919e+003, 1.401068e-003
1.486848e+003, 1.318819e-003
1.488776e+003, 1.359585e-003
1.490705e+003, 1.405201e-003
1.492633e+003, 1.395625e-003
1.494562e+003, 1.309850e-003
1.496490e+003, 1.187399e-003
1.498419e+003, 1.101696e-003
1.500347e+003, 1.043866e-003
1.502276e+003, 1.118456e-003
1.504204e+003, 1.205874e-003
1.506132e+003, 1.218426e-003
1.508061e+003, 1.188498e-003
1.509989e+003, 1.119508e-003
1.511918e+003, 1.111964e-003
1.513846e+003, 1.068072e-003
1.515775e+003, 1.037801e-003
1.517703e+003, 9.841328e-004
1.519632e+003, 1.025582e-003
1.521560e+003, 1.126766e-003
1.523489e+003, 1.216848e-003
1.525417e+003, 1.323576e-003
1.527346e+003, 1.261675e-003
1.529274e+003, 1.258557e-003
1.531203e+003, 1.276522e-003
1.533131e+003, 1.263279e-003
1.535059e+003, 1.232411e-003
1.536988e+003, 1.193615e-003
1.538916e+003, 1.265517e-003
1.540845e+003, 1.404824e-003
1.542773e+003, 1.356387e-003
1.544702e+003, 1.255696e-003
1.546630e+003, 1.407405e-003
1.548559e+003, 1.483464e-003
1.550487e+003, 1.543146e-003
1.552416e+003, 1.756691e-003
1.554344e+003, 1.747372e-003
1.556273e+003, 1.789001e-003
1.558201e+003, 2.029703e-003
1.560130e+003, 2.176165e-003
1.562058e+003, 2.091593e-003
1.563986e+003, 1.941646e-003
1.565915e+003, 1.951443e-003
1.567843e+003, 2.052228e-003
1.569772e+003, 2.218910e-003
1.571700e+003, 2.138169e-003
1.573629e+003, 2.068102e-003
1.575557e+003, 2.379603e-003
1.577486e+003, 2.556004e-003
1.579414e+003, 2.518386e-003
1.581343e+003, 2.426143e-003
1.583271e+003, 2.297677e-003
1.585200e+003, 2.280731e-003
1.587128e+003, 2.440612e-003
1.589057e+003, 2.409771e-003
1.590985e+003, 2.399013e-003
1.592913e+003, 2.495159e-003
1.594842e+003, 2.628991e-003
1.596770e+003, 2.707499e-003
1.598699e+003, 2.791197e-003
1.600627e+003, 2.731647e-003
1.602556e+003, 2.522393e-003
1.604484e+003, 2.327956e-003
1.606413e+003, 2.437483e-003
1.608341e+003, 2.644899e-003
1.610270e+003, 2.514909e-003
1.612198e+003, 2.463423e-003
1.614127e+003, 2.610187e-003
1.616055e+003, 2.666258e-003
1.617984e+003, 2.671453e-003
1.619912e+003, 2.533890e-003
1.621840e+003, 2.416403e-003
1.623769e+003, 2.436196e-003
1.625697e+003, 2.478192e-003
1.627626e+003, 2.449920e-003
1.629554e+003, 2.400780e-003
1.631483e+003, 2.339752e-003
1.633411e+003, 2.543532e-003
1.635340e+003, 2.606541e-003
1.637268e+003, 2.496505e-003
1.639197e+003, 2.377229e-003
1.641125e+003, 2.348453e-003
1.643054e+003, 2.508222e-003
1.644982e+003, 2.612221e-003
1.646911e+003, 2.564814e-003
1.648839e+003, 2.539552e-003
1.650767e+003, 2.500393e-003
1.652696e+003, 2.405149e-003
1.654624e+003, 2.399777e-003
1.656553e+003, 2.394999e-003
1.658481e+003, 2.404926e-003
1.660410e+003, 2.274621e-003
1.662338e+003, 2.069899e-003
1.664267e+003, 2.043350e-003
1.666195e+003, 1.912609e-003
1.668124e+003, 1.912568e-003
1.670052e+003, 1.904321e-003
1.671981e+003, 1.870890e-003
1.673909e+003, 2.008154e-003
1.675838e+003, 2.019460e-003
1.677766e+003, 1.894892e-003
1.679694e+003, 1.879634e-003
1.681623e+003, 1.856172e-003
1.683551e+003, 1.755884e-003
1.685480e+003, 1.760948e-003
1.687408e+003, 1.717205e-003
1.689337e+003, 1.604303e-003
1.691265e+003, 1.699958e-003
1.693194e+003, 1.819853e-003
1.695122e+003, 1.917841e-003
1.697051e+003, 2.011331e-003
1.698979e+003, 1.992480e-003
1.700908e+003, 1.884927e-003
1.702836e+003, 1.768770e-003
1.704765e+003, 1.653044e-003
1.706693e+003, 1.596176e-003
1.708621e+003, 1.524535e-003
1.710550e+003, 1.634373e-003
1.712478e+003, 1.624306e-003
1.714407e+003, 1.505033e-003
1.716335e+003, 1.588478e-003
1.718264e+003, 1.697393e-003
1.720192e+003, 1.711785e-003
1.722121e+003, 1.592551e-003
1.724049e+003, 1.291485e-003
1.725978e+003, 1.092773e-003
1.727906e+003, 1.366019e-003
1.729835e+003, 1.418052e-003
1.731763e+003, 1.081484e-003
1.733692e+003, 8.416119e-004
1.735620e+003, 7.906463e-004
1.737548e+003, 9.546664e-004
1.739477e+003, 9.248880e-004
1.741405e+003, 8.025050e-004
1.743334e+003, 8.336143e-004
1.745262e+003, 8.755020e-004
1.747191e+003, 8.617844e-004
1.749119e+003, 7.936060e-004
1.751048e+003, 8.431314e-004
1.752976e+003, 9.143415e-004
1.754905e+003, 6.948348e-004
1.756833e+003, 7.897367e-004
1.758762e+003, 1.069881e-003
1.760690e+003, 1.318248e-003
1.762619e+003, 1.259817e-003
1.764547e+003, 1.034514e-003
1.766475e+003, 1.043478e-003
1.768404e+003, 1.192233e-003
1.770332e+003, 1.150981e-003
1.772261e+003, 1.210850e-003
1.774189e+003, 1.284865e-003
1.776118e+003, 1.215854e-003
1.778046e+003, 1.291860e-003
1.779975e+003, 1.592460e-003
1.781903e+003, 1.532166e-003
1.783832e+003, 1.197971e-003
1.785760e+003, 1.232907e-003
1.787689e+003, 1.369133e-003
1.789617e+003, 1.390788e-003
1.791546e+003, 1.283809e-003
1.793474e+003, 9.240730e-004
1.795402e+003, 1.137584e-003
1.797331e+003, 1.366882e-003
1.799259e+003, 9.617388e-004
1.801188e+003, 6.709016e-004
1.803116e+003, 6.637693e-004
1.805045e+003, 6.324981e-004
1.806973e+003, 6.577242e-004
1.808902e+003, 8.194878e-004
1.810830e+003, 9.210153e-004
1.812759e+003, 9.255874e-004
1.814687e+003, 7.716723e-004
1.816616e+003, 4.458667e-004
1.818544e+003, 3.710260e-004
1.820473e+003, 7.515024e-004
1.822401e+003, 9.599226e-004
1.824329e+003, 7.614729e-004
1.826258e+003, 5.490274e-004
1.828186e+003, 4.031466e-004
1.830115e+003, 1.815374e-004
1.832043e+003, 1.098891e-004
1.833972e+003, 2.093540e-004
1.835900e+003, 2.802657e-004
1.837829e+003, 4.566108e-004
1.839757e+003, 3.402821e-004
1.841686e+003, 3.816409e-004
1.843614e+003, 4.471164e-004
1.845543e+003, 4.318456e-004
1.847471e+003, 4.613755e-004
1.849400e+003, 3.454797e-004
1.851328e+003, 1.372021e-004
1.853256e+003, 3.020657e-004
1.855185e+003, 2.784376e-004
1.857113e+003, -1.094174e-004
1.859042e+003, -4.020997e-004
1.860970e+003, 1.560340e-004
1.862899e+003, 7.062600e-004
1.864827e+003, 3.824304e-004
1.866756e+003, 3.724171e-004
1.868684e+003, 3.758159e-004
1.870613e+003, -1.145879e-004
1.872541e+003, -4.441235e-004
1.874470e+003, -4.754435e-004
1.876398e+003, -1.108191e-005
1.878327e+003, 9.286453e-005
1.880255e+003, -1.493478e-004
1.882183e+003, -2.333010e-004
1.884112e+003, -4.796312e-004
1.886040e+003, -6.168075e-004
1.887969e+003, -3.577194e-004
1.889897e+003, -6.880253e-004
1.891826e+003, -9.136332e-004
1.893754e+003, -9.747717e-004
1.895683e+003, -1.378814e-003
1.897611e+003, -8.285320e-004
1.899540e+003, -3.568495e-004
1.901468e+003, -9.449429e-004
1.903397e+003, -1.102015e-003
1.905325e+003, -8.981040e-004
1.907254e+003, -8.853010e-004
1.909182e+003, -7.495884e-004
1.911110e+003, -5.803485e-004
1.913039e+003, -1.090958e-003
1.914967e+003, -1.451469e-003
1.916896e+003, -9.904460e-004
1.918824e+003, -9.336842e-004
1.920753e+003, -1.657977e-003
1.922681e+003, -2.107040e-003
1.924610e+003, -1.746705e-003
1.926538e+003, -1.607274e-003
1.928467e+003, -1.783443e-003
1.930395e+003, -1.705985e-003
1.932324e+003, -1.194156e-003
1.934252e+003, -1.230783e-003
1.936181e+003, -1.329599e-003
1.938109e+003, -1.299543e-003
1.940037e+003, -1.677637e-003
1.941966e+003, -2.311466e-003
1.943894e+003, -2.273287e-003
1.945823e+003, -1.639294e-003
1.947751e+003, -1.604968e-003
1.949680e+003, -1.534377e-003
1.951608e+003, -2.223406e-003
1.953537e+003, -2.975817e-003
1.955465e+003, -3.069016e-003
1.957394e+003, -2.781424e-003
1.959322e+003, -3.218768e-003
1.961251e+003, -3.512696e-003
1.963179e+003, -3.254581e-003
1.965108e+003, -1.959824e-003
1.967036e+003, -2.225496e-003
1.968964e+003, -3.447252e-003
1.970893e+003, -2.940820e-003
1.972821e+003, -2.466784e-003
1.974750e+003, -2.519274e-003
1.976678e+003, -1.289748e-003
1.978607e+003, -7.952361e-004
1.980535e+003, -1.351484e-003
1.982464e+003, -1.282339e-003
1.984392e+003, -5.113960e-004
1.986321e+003, -5.211742e-004
1.988249e+003, -2.190149e-003
1.990178e+003, -2.696478e-003
1.992106e+003, -3.045926e-003
1.994035e+003, -3.138428e-003
1.995963e+003, -2.412858e-003
1.997891e+003, -2.179180e-003
1.999820e+003, -2.391119e-003
2.001748e+003, -2.999958e-003
2.003677e+003, -4.274566e-003
2.005605e+003, -4.403763e-003
2.007534e+003, -3.418689e-003
2.009462e+003, -2.511803e-003
2.011391e+003, -2.452310e-003
2.013319e+003, -2.511662e-003
2.015248e+003, -1.928334e-003
2.017176e+003, -2.227906e-003
2.019105e+003, -2.752126e-003
2.021033e+003, -2.809384e-003
2.022962e+003, -2.445832e-003
2.024890e+003, -2.702643e-003
2.026818e+003, -3.015547e-003
2.028747e+003, -2.814971e-003
2.030675e+003, -3.010589e-003
2.032604e+003, -2.017688e-003
2.034532e+003, -1.213379e-003
2.036461e+003, -2.769620e-003
2.038389e+003, -2.761542e-003
2.040318e+003, -1.620524e-003
2.042246e+003, -1.612066e-003
2.044175e+003, -2.000533e-003
2.046103e+003, -2.089013e-003
2.048031e+003, -2.154964e-003
2.049960e+003, -1.354608e-003
2.051888e+003, -1.776304e-003
2.053817e+003, -2.094340e-003
2.055745e+003, -1.596073e-003
2.057674e+003, -1.167055e-003
2.059602e+003, -1.424298e-003
2.061531e+003, -2.311897e-003
2.063459e+003, -2.950821e-003
2.065388e+003, -2.404760e-003
2.067316e+003, -2.100343e-003
2.069245e+003, -1.924243e-003
2.071173e+003, -1.919022e-003
2.073102e+003, -1.816425e-003
2.075030e+003, -1.469022e-003
2.076958e+003, -1.055986e-003
2.078887e+003, -6.701417e-004
2.080815e+003, -9.359564e-004
2.082744e+003, -1.341222e-003
2.084672e+003, -8.740637e-004
2.086601e+003, -1.420958e-003
2.088529e+003, -1.520368e-003
2.090458e+003, -9.939478e-004
2.092386e+003, -1.071369e-003
2.094315e+003, -1.662643e-003
2.096243e+003, -1.343187e-003
2.098172e+003, -1.270650e-003
2.100100e+003, -1.531843e-003
2.102029e+003, -9.505022e-004
2.103957e+003, 6.431178e-005
2.105885e+003, -7.033348e-006
2.107814e+003, -8.109920e-004
2.109742e+003, -9.806724e-004
2.111671e+003, -5.676140e-004
2.113599e+003, -1.839510e-004
2.115528e+003, 1.068213e-004
2.117456e+003, -4.041885e-004
2.119385e+003, -1.034863e-003
2.121313e+003, -1.492632e-003
2.123242e+003, -1.128322e-003
2.125170e+003, -8.159886e-004
2.127099e+003, -8.793102e-004
2.129027e+003, -8.669184e-004
2.130956e+003, -6.167095e-004
2.132884e+003, -5.281691e-004
2.134813e+003, -1.155778e-004
2.136741e+003, 1.077657e-005
2.138669e+003, -1.941863e-004
2.140598e+003, -3.047285e-004
2.142526e+003, -2.164533e-004
2.144455e+003, -9.188342e-004
2.146383e+003, -1.225651e-003
2.148312e+003, -6.687695e-004
2.150240e+003, 1.750125e-004
2.152169e+003, 8.829474e-004
2.154097e+003, 1.589635e-003
2.156026e+003, 1.159574e-003
2.157954e+003, 1.711807e-003
2.159883e+003, 2.915188e-003
2.161811e+003, 2.740169e-003
2.163740e+003, 3.515114e-003
2.165668e+003, 3.892969e-003
2.167596e+003, 3.330979e-003
2.169525e+003, 2.552116e-003
2.171453e+003, 9.590993e-004
2.173382e+003, 1.623523e-003
2.175310e+003, 2.197158e-003
2.177239e+003, 1.726197e-003
2.179167e+003, 1.320532e-003
2.181096e+003, 1.354223e-003
2.183024e+003, 2.086210e-003
2.184953e+003, 1.923356e-003
2.186881e+003, 4.044047e-004
2.188810e+003, -2.210210e-004
2.190738e+003, 9.738444e-005
2.192667e+003, -1.796782e-004
2.194595e+003, 4.277241e-004
2.196523e+003, 2.157366e-003
2.198452e+003, 1.199578e-003
2.200380e+003, 1.830385e-003
2.202309e+003, 2.451993e-003
2.204237e+003, 1.366660e-003
2.206166e+003, 4.274162e-004
2.208094e+003, 7.780840e-004
2.210023e+003, 1.352850e-003
2.211951e+003, 6.312435e-004
2.213880e+003, 1.316583e-004
2.215808e+003, 1.531322e-004
2.217737e+003, 3.407754e-004
2.219665e+003, 2.543489e-005
2.221594e+003, -5.492645e-004
2.223522e+003, -9.035927e-004
2.225450e+003, -4.624308e-005
2.227379e+003, 8.448637e-004
2.229307e+003, 7.441408e-004
2.231236e+003, 5.645413e-004
2.233164e+003, 4.246928e-004
2.235093e+003, 2.280836e-004
2.237021e+003, 2.674550e-004
2.238950e+003, 6.103505e-004
2.240878e+003, 2.212522e-004
2.242807e+003, -2.504223e-004
2.244735e+003, 2.001494e-005
2.246664e+003, 6.809661e-004
2.248592e+003, 6.635900e-004
2.250521e+003, -4.993967e-004
2.252449e+003, -7.526411e-004
2.254377e+003, 3.387139e-005
2.256306e+003, 1.200526e-004
2.258234e+003, 9.347760e-005
2.260163e+003, 7.935209e-004
2.262091e+003, 9.779256e-004
2.264020e+003, 2.611852e-004
2.265948e+003, -7.340958e-005
2.267877e+003, 4.693148e-004
2.269805e+003, 8.986614e-004
2.271734e+003, 4.260039e-004
2.273662e+003, 3.555312e-005
2.275591e+003, 8.811053e-004
2.277519e+003, 1.791525e-003
2.279448e+003, 1.209571e-003
2.281376e+003, 1.315487e-003
2.283304e+003, 1.701418e-003
2.285233e+003, 1.347244e-003
2.287161e+003, 1.114694e-003
2.289090e+003, 1.003897e-003
2.291018e+003, 8.222851e-004
2.292947e+003, 1.103242e-003
2.294875e+003, 1.229334e-003
2.296804e+003, 6.042528e-004
2.298732e+003, 5.297456e-005
2.300661e+003, 5.083578e-004
2.302589e+003, 1.139307e-003
2.304518e+003, 1.155180e-003
2.306446e+003, 9.526975e-004
2.308375e+003, 5.810233e-004
2.310303e+003, 3.338302e-004
2.312231e+003, 5.296110e-004
2.314160e+003, 9.313145e-004
2.316088e+003, 8.406992e-004
2.318017e+003, 1.262704e-003
2.319945e+003, 1.660265e-003
2.321874e+003, 1.722893e-003
2.323802e+003, 1.546275e-003
2.325731e+003, 8.699798e-004
2.327659e+003, 4.730065e-004
2.329588e+003, 3.301364e-004
2.331516e+003, 5.033085e-004
2.333445e+003, 3.500147e-004
2.335373e+003, 1.148778e-004
2.337302e+003, -8.830975e-007
2.339230e+003, -2.045996e-005
2.341158e+003, 1.834021e-004
2.343087e+003, 6.781950e-004
2.345015e+003, 9.462613e-004
2.346944e+003, 7.313809e-004
2.348872e+003, 5.554149e-004
2.350801e+003, 4.581251e-004
2.352729e+003, 4.541397e-004
2.354658e+003, 5.526086e-004
2.356586e+003, 6.342081e-004
2.358515e+003, 1.919057e-004
2.360443e+003, 8.885740e-005
2.362372e+003, 1.936355e-004
2.364300e+003, -5.494349e-005
2.366229e+003, -7.993498e-006
2.368157e+003, 3.319453e-004
2.370085e+003, 4.530569e-004
2.372014e+003, 6.492815e-004
2.373942e+003, 9.131122e-004
2.375871e+003, 5.033941e-004
2.377799e+003, 1.999688e-004
2.379728e+003, 1.504589e-004
2.381656e+003, 2.166278e-004
2.383585e+003, 4.042034e-004
2.385513e+003, 1.724343e-004
2.387442e+003, 4.309468e-004
2.389370e+003, 6.718746e-004
2.391299e+003, 5.821167e-004
2.393227e+003, 1.032139e-003
2.395156e+003, 1.136944e-003
2.397084e+003, 7.758491e-004
2.399012e+003, 7.442755e-004
2.400941e+003, 7.905493e-004
2.402869e+003, 6.456733e-004
2.404798e+003, 6.042006e-004
2.406726e+003, 8.413424e-004
2.408655e+003, 1.399920e-003
2.410583e+003, 1.927064e-003
2.412512e+003, 1.412149e-003
2.414440e+003, 6.472199e-004
2.416369e+003, 6.021184e-004
2.418297e+003, 1.017236e-003
2.420226e+003, 1.526758e-003
2.422154e+003, 1.745999e-003
2.424083e+003, 1.143457e-003
2.426011e+003, 8.645853e-004
2.427939e+003, 8.686082e-004
2.429868e+003, 8.978893e-004
2.431796e+003, 9.449283e-004
2.433725e+003, 9.233649e-004
2.435653e+003, 1.201608e-003
2.437582e+003, 1.216269e-003
2.439510e+003, 9.217034e-004
2.441439e+003, 8.604440e-004
2.443367e+003, 1.116085e-003
2.445296e+003, 1.351981e-003
2.447224e+003, 1.697616e-003
2.449153e+003, 1.844324e-003
2.451081e+003, 1.664159e-003
2.453010e+003, 1.430034e-003
2.454938e+003, 1.292977e-003
2.456866e+003, 1.203158e-003
2.458795e+003, 1.613718e-003
2.460723e+003, 1.769113e-003
2.462652e+003, 1.208308e-003
2.464580e+003, 9.681443e-004
2.466509e+003, 1.146125e-003
2.468437e+003, 1.060431e-003
2.470366e+003, 1.165847e-003
2.472294e+003, 1.302756e-003
2.474223e+003, 1.151320e-003
2.476151e+003, 1.659776e-003
2.478080e+003, 2.071436e-003
2.480008e+003, 1.634119e-003
2.481937e+003, 1.100549e-003
2.483865e+003, 1.035621e-003
2.485793e+003, 1.266160e-003
2.487722e+003, 9.405236e-004
2.489650e+003, 1.399282e-003
2.491579e+003, 1.909042e-003
2.493507e+003, 1.423772e-003
2.495436e+003, 1.040743e-003
2.497364e+003, 1.084325e-003
2.499293e+003, 7.549185e-004
2.501221e+003, 5.629094e-004
2.503150e+003, 1.050251e-003
2.505078e+003, 1.003404e-003
2.507007e+003, 6.163474e-004
2.508935e+003, 6.610195e-004
2.510864e+003, 1.057209e-003
2.512792e+003, 1.016052e-003
2.514720e+003, 8.048196e-004
2.516649e+003, 6.093050e-004
2.518577e+003, 6.918903e-004
2.520506e+003, 1.148819e-003
2.522434e+003, 9.713733e-004
2.524363e+003, 1.242251e-003
2.526291e+003, 1.529944e-003
2.528220e+003, 1.485352e-003
2.530148e+003, 1.693965e-003
2.532077e+003, 1.814871e-003
2.534005e+003, 1.143884e-003
2.535934e+003, 8.120118e-004
2.537862e+003, 5.714414e-004
2.539791e+003, 3.780336e-004
2.541719e+003, 6.179769e-004
2.543647e+003, 1.163865e-003
2.545576e+003, 1.598767e-003
2.547504e+003, 1.087726e-003
2.549433e+003, 1.169503e-003
2.551361e+003, 1.984385e-003
2.553290e+003, 2.384399e-003
2.555218e+003, 2.126988e-003
2.557147e+003, 1.506567e-003
2.559075e+003, 9.353783e-004
2.561004e+003, 1.108197e-003
2.562932e+003, 1.560775e-003
2.564861e+003, 1.563523e-003
2.566789e+003, 1.472256e-003
2.568718e+003, 1.728503e-003
2.570646e+003, 1.675412e-003
2.572574e+003, 1.587764e-003
2.574503e+003, 1.824609e-003
2.576431e+003, 1.736499e-003
2.578360e+003, 1.579051e-003
2.580288e+003, 1.678127e-003
2.582217e+003, 1.762799e-003
2.584145e+003, 1.877782e-003
2.586074e+003, 1.908666e-003
2.588002e+003, 1.445799e-003
2.589931e+003, 9.503960e-004
2.591859e+003, 9.743539e-004
2.593788e+003, 8.259747e-004
2.595716e+003, 1.486961e-003
2.597645e+003, 1.679182e-003
2.599573e+003, 1.574723e-003
2.601501e+003, 1.316922e-003
2.603430e+003, 1.146444e-003
2.605358e+003, 1.402884e-003
2.607287e+003, 1.911969e-003
2.609215e+003, 1.418978e-003
2.611144e+003, 1.089564e-003
2.613072e+003, 1.674494e-003
2.615001e+003, 1.748830e-003
2.616929e+003, 1.681129e-003
2.618858e+003, 1.548596e-003
2.620786e+003, 1.691776e-003
2.622715e+003, 1.755641e-003
2.624643e+003, 1.705147e-003
2.626572e+003, 1.720827e-003
2.628500e+003, 1.812065e-003
2.630428e+003, 1.615469e-003
2.632357e+003, 1.524383e-003
2.634285e+003, 1.509718e-003
2.636214e+003, 1.484369e-003
2.638142e+003, 1.699428e-003
2.640071e+003, 1.691781e-003
2.641999e+003, 1.548159e-003
2.643928e+003, 1.253749e-003
2.645856e+003, 8.405430e-004
2.647785e+003, 7.377862e-004
2.649713e+003, 1.084813e-003
2.651642e+003, 1.334890e-003
2.653570e+003, 1.204409e-003
2.655499e+003, 1.250507e-003
2.657427e+003, 1.480219e-003
2.659355e+003, 1.093036e-003
2.661284e+003, 6.211544e-004
2.663212e+003, 5.246362e-004
2.665141e+003, 4.279684e-004
2.667069e+003, 4.509565e-004
2.668998e+003, 3.697581e-004
2.670926e+003, 1.454200e-004
2.672855e+003, 5.515651e-004
2.674783e+003, 6.144249e-004
2.676712e+003, 2.537329e-004
2.678640e+003, 3.241752e-004
2.680569e+003, 4.335578e-004
2.682497e+003, 2.899688e-004
2.684426e+003, 4.755556e-004
2.686354e+003, 8.500780e-004
2.688282e+003, 1.215271e-003
2.690211e+003, 9.667371e-004
2.692139e+003, 3.142649e-004
2.694068e+003, 4.526738e-004
2.695996e+003, 8.385172e-004
2.697925e+003, 5.747676e-004
2.699853e+003, 6.735906e-004
2.701782e+003, 9.027171e-004
2.703710e+003, 8.354571e-004
2.705639e+003, 6.925663e-004
2.707567e+003, 6.033499e-004
2.709496e+003, 8.753783e-004
2.711424e+003, 1.229340e-003
2.713353e+003, 1.273643e-003
2.715281e+003, 1.024340e-003
2.717209e+003, 1.082968e-003
2.719138e+003, 1.277402e-003
2.721066e+003, 1.080717e-003
2.722995e+003, 8.247277e-004
2.724923e+003, 1.199825e-003
2.726852e+003, 1.192033e-003
2.728780e+003, 5.364108e-004
2.730709e+003, 6.766086e-004
2.732637e+003, 8.931208e-004
2.734566e+003, 8.559013e-004
2.736494e+003, 9.559051e-004
2.738423e+003, 9.276632e-004
2.740351e+003, 7.410140e-004
2.742280e+003, 6.532187e-004
2.744208e+003, 1.057541e-003
2.746136e+003, 1.084828e-003
2.748065e+003, 8.843417e-004
2.749993e+003, 7.589963e-004
2.751922e+003, 7.669706e-004
2.753850e+003, 9.485261e-004
2.755779e+003, 1.127081e-003
2.757707e+003, 1.220847e-003
2.759636e+003, 1.167468e-003
2.761564e+003, 1.107065e-003
2.763493e+003, 1.104583e-003
2.765421e+003, 5.838726e-004
2.767350e+003, 3.492281e-004
2.769278e+003, 6.871442e-004
2.771207e+003, 9.119543e-004
2.773135e+003, 1.025004e-003
2.775063e+003, 1.336394e-003
2.776992e+003, 1.103792e-003
2.778920e+003, 9.130285e-004
2.780849e+003, 6.945480e-004
2.782777e+003, 6.456350e-004
2.784706e+003, 6.376427e-004
2.786634e+003, 6.874602e-004
2.788563e+003, 8.552367e-004
2.790491e+003, 8.593977e-004
2.792420e+003, 7.895883e-004
2.794348e+003, 9.506521e-004
2.796277e+003, 8.212798e-004
2.798205e+003, 7.802357e-004
2.800134e+003, 7.791565e-004
2.802062e+003, 9.513470e-004
2.803990e+003, 1.534507e-003
2.805919e+003, 1.928411e-003
2.807847e+003, 1.880584e-003
2.809776e+003, 1.370799e-003
2.811704e+003, 1.186109e-003
2.813633e+003, 1.652149e-003
2.815561e+003, 1.632318e-003
2.817490e+003, 1.295617e-003
2.819418e+003, 1.236617e-003
2.821347e+003, 1.070490e-003
2.823275e+003, 1.384870e-003
2.825204e+003, 1.705290e-003
2.827132e+003, 1.385645e-003
2.829061e+003, 1.041544e-003
2.830989e+003, 9.754612e-004
2.832917e+003, 7.993084e-004
2.834846e+003, 1.015810e-003
2.836774e+003, 1.370213e-003
2.838703e+003, 1.364516e-003
2.840631e+003, 1.198820e-003
2.842560e+003, 1.329993e-003
2.844488e+003, 1.380005e-003
2.846417e+003, 1.173959e-003
2.848345e+003, 1.632662e-003
2.850274e+003, 1.854177e-003
2.852202e+003, 1.493810e-003
2.854131e+003, 1.232914e-003
2.856059e+003, 1.064543e-003
2.857988e+003, 1.369008e-003
2.859916e+003, 1.627758e-003
2.861844e+003, 1.298534e-003
2.863773e+003, 1.011789e-003
2.865701e+003, 1.407610e-003
2.867630e+003, 1.389314e-003
2.869558e+003, 1.266382e-003
2.871487e+003, 1.210712e-003
2.873415e+003, 1.109141e-003
2.875344e+003, 1.262034e-003
2.877272e+003, 1.267900e-003
2.879201e+003, 1.028655e-003
2.881129e+003, 1.282990e-003
2.883058e+003, 1.896331e-003
2.884986e+003, 1.665898e-003
2.886915e+003, 1.103914e-003
2.888843e+003, 1.227524e-003
2.890771e+003, 1.481152e-003
2.892700e+003, 1.646193e-003
2.894628e+003, 1.453287e-003
2.896557e+003, 1.173782e-003
2.898485e+003, 1.330635e-003
2.900414e+003, 1.464634e-003
2.902342e+003, 1.448810e-003
2.904271e+003, 1.678656e-003
2.906199e+003, 1.781838e-003
2.908128e+003, 1.671733e-003
2.910056e+003, 1.756224e-003
2.911985e+003, 2.259177e-003
2.913913e+003, 2.208022e-003
2.915842e+003, 2.061276e-003
2.917770e+003, 2.096793e-003
2.919698e+003, 1.592613e-003
2.921627e+003, 1.203857e-003
2.923555e+003, 1.406014e-003
2.925484e+003, 1.014146e-003
2.927412e+003, 5.783185e-004
2.929341e+003, 9.832485e-004
2.931269e+003, 1.095252e-003
2.933198e+003, 7.893688e-004
2.935126e+003, 1.117051e-003
2.937055e+003, 1.609117e-003
2.938983e+003, 1.482621e-003
2.940912e+003, 1.387469e-003
2.942840e+003, 1.176630e-003
2.944769e+003, 9.177139e-004
2.946697e+003, 5.742030e-004
2.948625e+003, 7.557676e-004
2.950554e+003, 1.009789e-003
2.952482e+003, 8.287182e-004
2.954411e+003, 5.003402e-004
2.956339e+003, 4.545664e-004
2.958268e+003, 8.917216e-004
2.960196e+003, 1.368762e-003
2.962125e+003, 1.412062e-003
2.964053e+003, 1.141512e-003
2.965982e+003, 1.001088e-003
2.967910e+003, 1.020992e-003
2.969839e+003, 8.874894e-004
2.971767e+003, 8.134425e-004
2.973696e+003, 1.186158e-003
2.975624e+003, 1.158865e-003
2.977552e+003, 8.618906e-004
2.979481e+003, 1.095667e-003
2.981409e+003, 7.936427e-004
2.983338e+003, 6.103524e-004
2.985266e+003, 3.389996e-004
2.987195e+003, 1.564299e-004
2.989123e+003, 5.181820e-004
2.991052e+003, 8.967657e-004
2.992980e+003, 9.492091e-004
2.994909e+003, 6.111039e-004
2.996837e+003, 4.851954e-004
2.998766e+003, 1.059511e-003
3.000694e+003, 1.064824e-003
3.002623e+003, 7.919878e-004
3.004551e+003, 1.117333e-003
3.006479e+003, 1.401384e-003
3.008408e+003, 1.800443e-003
3.010336e+003, 1.701885e-003
3.012265e+003, 1.327532e-003
3.014193e+003, 1.171792e-003
3.016122e+003, 1.110701e-003
3.018050e+003, 1.227068e-003
3.019979e+003, 1.119953e-003
3.021907e+003, 5.905125e-004
3.023836e+003, 3.651443e-004
3.025764e+003, 5.314181e-004
3.027693e+003, 7.629579e-004
3.029621e+003, 8.392424e-004
3.031550e+003, 9.450704e-004
3.033478e+003, 1.145003e-003
3.035406e+003, 1.687965e-003
3.037335e+003, 1.289517e-003
3.039263e+003, 9.325107e-004
3.041192e+003, 1.516422e-003
3.043120e+003, 1.266938e-003
3.045049e+003, 1.350409e-003
3.046977e+003, 1.644537e-003
3.048906e+003, 1.413736e-003
3.050834e+003, 1.671234e-003
3.052763e+003, 2.141347e-003
3.054691e+003, 1.880727e-003
3.056620e+003, 1.538922e-003
3.058548e+003, 1.513673e-003
3.060477e+003, 1.770547e-003
3.062405e+003, 1.985418e-003
3.064333e+003, 2.073769e-003
3.066262e+003, 1.518155e-003
3.068190e+003, 1.588284e-003
3.070119e+003, 2.280136e-003
3.072047e+003, 2.476183e-003
3.073976e+003, 2.460355e-003
3.075904e+003, 2.225823e-003
3.077833e+003, 2.110321e-003
3.079761e+003, 2.088715e-003
3.081690e+003, 1.697539e-003
3.083618e+003, 1.570799e-003
3.085547e+003, 1.963199e-003
3.087475e+003, 2.074015e-003
3.089404e+003, 2.090440e-003
3.091332e+003, 2.433578e-003
3.093260e+003, 2.120397e-003
3.095189e+003, 2.238366e-003
3.097117e+003, 2.032416e-003
3.099046e+003, 1.545148e-003
3.100974e+003, 1.617464e-003
3.102903e+003, 2.114553e-003
3.104831e+003, 2.484233e-003
3.106760e+003, 2.117318e-003
3.108688e+003, 1.921872e-003
3.110617e+003, 2.615036e-003
3.112545e+003, 2.874445e-003
3.114474e+003, 2.730904e-003
3.116402e+003, 2.812223e-003
3.118331e+003, 2.850900e-003
3.120259e+003, 2.852939e-003
3.122188e+003, 2.558724e-003
3.124116e+003, 2.783986e-003
3.126044e+003, 3.035505e-003
3.127973e+003, 2.300362e-003
3.129901e+003, 2.073220e-003
3.131830e+003, 2.308630e-003
3.133758e+003, 2.530325e-003
3.135687e+003, 2.756898e-003
3.137615e+003, 3.687451e-003
3.139544e+003, 4.104561e-003
3.141472e+003, 3.297134e-003
3.143401e+003, 2.727425e-003
3.145329e+003, 2.778771e-003
3.147258e+003, 2.920667e-003
3.149186e+003, 2.586805e-003
3.151115e+003, 2.815157e-003
3.153043e+003, 3.293137e-003
3.154971e+003, 2.732738e-003
3.156900e+003, 2.153855e-003
3.158828e+003, 2.306306e-003
3.160757e+003, 2.761346e-003
3.162685e+003, 3.644977e-003
3.164614e+003, 3.600908e-003
3.166542e+003, 3.029769e-003
3.168471e+003, 3.250241e-003
3.170399e+003, 3.303561e-003
3.172328e+003, 2.707524e-003
3.174256e+003, 1.990302e-003
3.176185e+003, 2.280486e-003
3.178113e+003, 3.273456e-003
3.180042e+003, 3.994196e-003
3.181970e+003, 3.739567e-003
3.183898e+003, 2.942860e-003
3.185827e+003, 3.206444e-003
3.187755e+003, 3.456621e-003
3.189684e+003, 3.054647e-003
3.191612e+003, 3.342960e-003
3.193541e+003, 3.300284e-003
3.195469e+003, 3.233270e-003
3.197398e+003, 4.133712e-003
3.199326e+003, 3.967026e-003
3.201255e+003, 3.209025e-003
3.203183e+003, 3.473489e-003
3.205112e+003, 3.922120e-003
3.207040e+003, 3.773130e-003
3.208969e+003, 3.530072e-003
3.210897e+003, 3.894728e-003
3.212825e+003, 4.364141e-003
3.214754e+003, 4.458621e-003
3.216682e+003, 3.856642e-003
3.218611e+003, 3.256667e-003
3.220539e+003, 2.998598e-003
3.222468e+003, 3.285332e-003
3.224396e+003, 4.142815e-003
3.226325e+003, 4.517134e-003
3.228253e+003, 4.771131e-003
3.230182e+003, 4.476934e-003
3.232110e+003, 4.117356e-003
3.234039e+003, 4.333006e-003
3.235967e+003, 4.794762e-003
3.237896e+003, 4.600055e-003
3.239824e+003, 3.945634e-003
3.241752e+003, 4.133864e-003
3.243681e+003, 3.786670e-003
3.245609e+003, 3.657129e-003
3.247538e+003, 4.041968e-003
3.249466e+003, 4.160197e-003
3.251395e+003, 4.550786e-003
3.253323e+003, 4.708211e-003
3.255252e+003, 4.305311e-003
3.257180e+003, 4.755408e-003
3.259109e+003, 4.361364e-003
3.261037e+003, 4.325969e-003
3.262966e+003, 4.824712e-003
3.264894e+003, 5.332895e-003
3.266823e+003, 5.495626e-003
3.268751e+003, 4.578668e-003
3.270679e+003, 3.879837e-003
3.272608e+003, 4.637627e-003
3.274536e+003, 5.197101e-003
3.276465e+003, 4.328188e-003
3.278393e+003, 3.566142e-003
3.280322e+003, 3.737433e-003
3.282250e+003, 4.058451e-003
3.284179e+003, 4.029812e-003
3.286107e+003, 4.307427e-003
3.288036e+003, 4.264574e-003
3.289964e+003, 3.847263e-003
3.291893e+003, 3.666410e-003
3.293821e+003, 4.077480e-003
3.295750e+003, 4.519800e-003
3.297678e+003, 4.732000e-003
3.299606e+003, 4.387492e-003
3.301535e+003, 4.719022e-003
3.303463e+003, 4.483795e-003
3.305392e+003, 3.446796e-003
3.307320e+003, 3.533139e-003
3.309249e+003, 4.021513e-003
3.311177e+003, 4.335429e-003
3.313106e+003, 4.429084e-003
3.315034e+003, 4.598337e-003
3.316963e+003, 4.534608e-003
3.318891e+003, 4.511611e-003
3.320820e+003, 4.584520e-003
3.322748e+003, 4.538657e-003
3.324677e+003, 4.277950e-003
3.326605e+003, 4.340530e-003
3.328533e+003, 4.515367e-003
3.330462e+003, 4.852621e-003
3.332390e+003, 4.823705e-003
3.334319e+003, 4.817487e-003
3.336247e+003, 4.784520e-003
3.338176e+003, 5.025527e-003
3.340104e+003, 5.156330e-003
3.342033e+003, 4.779047e-003
3.343961e+003, 4.090061e-003
3.345890e+003, 4.309416e-003
3.347818e+003, 4.981884e-003
3.349747e+003, 4.767224e-003
3.351675e+003, 4.359200e-003
3.353604e+003, 4.318537e-003
3.355532e+003, 4.646859e-003
3.357460e+003, 5.370833e-003
3.359389e+003, 4.961134e-003
3.361317e+003, 4.076355e-003
3.363246e+003, 4.011829e-003
3.365174e+003, 4.428176e-003
3.367103e+003, 5.139411e-003
3.369031e+003, 5.188476e-003
3.370960e+003, 4.651929e-003
3.372888e+003, 3.829196e-003
3.374817e+003, 3.643578e-003
3.376745e+003, 3.772704e-003
3.378674e+003, 3.621185e-003
3.380602e+003, 3.811418e-003
3.382531e+003, 3.891658e-003
3.384459e+003, 3.878769e-003
3.386387e+003, 4.216684e-003
3.388316e+003, 4.232002e-003
3.390244e+003, 3.920662e-003
3.392173e+003, 4.117722e-003
3.394101e+003, 4.081568e-003
3.396030e+003, 4.333918e-003
3.397958e+003, 4.690951e-003
3.399887e+003, 4.671997e-003
3.401815e+003, 4.477545e-003
3.403744e+003, 3.896685e-003
3.405672e+003, 3.837541e-003
3.407601e+003, 3.498984e-003
3.409529e+003, 3.406157e-003
3.411458e+003, 3.725535e-003
3.413386e+003, 3.955630e-003
3.415314e+003, 4.391101e-003
3.417243e+003, 4.951911e-003
3.419171e+003, 5.138487e-003
3.421100e+003, 4.602409e-003
3.423028e+003, 4.546156e-003
3.424957e+003, 4.178097e-003
3.426885e+003, 4.614760e-003
3.428814e+003, 4.903738e-003
3.430742e+003, 4.138659e-003
3.432671e+003, 4.239614e-003
3.434599e+003, 5.001647e-003
3.436528e+003, 4.892923e-003
3.438456e+003, 4.807163e-003
3.440385e+003, 4.470447e-003
3.442313e+003, 4.677821e-003
3.444241e+003, 5.315200e-003
3.446170e+003, 5.172174e-003
3.448098e+003, 4.448368e-003
3.450027e+003, 4.526152e-003
3.451955e+003, 5.419719e-003
3.453884e+003, 5.635211e-003
3.455812e+003, 5.644533e-003
3.457741e+003, 5.416973e-003
3.459669e+003, 5.240389e-003
3.461598e+003, 4.940140e-003
3.463526e+003, 4.723427e-003
3.465455e+003, 4.731085e-003
3.467383e+003, 4.978379e-003
3.469312e+003, 4.431434e-003
3.471240e+003, 3.739486e-003
3.473168e+003, 3.957279e-003
3.475097e+003, 3.919146e-003
3.477025e+003, 2.601292e-003
3.478954e+003, 3.303753e-003
3.480882e+003, 3.931468e-003
3.482811e+003, 3.438962e-003
3.484739e+003, 3.558995e-003
3.486668e+003, 3.395816e-003
3.488596e+003, 3.641768e-003
3.490525e+003, 4.034607e-003
3.492453e+003, 3.648973e-003
3.494382e+003, 3.964584e-003
3.496310e+003, 3.810298e-003
3.498239e+003, 3.707212e-003
3.500167e+003, 3.446974e-003
3.502095e+003, 3.393941e-003
3.504024e+003, 3.883755e-003
3.505952e+003, 4.364585e-003
3.507881e+003, 3.914412e-003
3.509809e+003, 3.427627e-003
3.511738e+003, 3.505275e-003
3.513666e+003, 4.141969e-003
3.515595e+003, 4.514506e-003
3.517523e+003, 4.229422e-003
3.519452e+003, 3.510499e-003
3.521380e+003, 2.949302e-003
3.523309e+003, 3.183540e-003
3.525237e+003, 3.781487e-003
3.527166e+003, 3.444630e-003
3.529094e+003, 2.936763e-003
3.531022e+003, 3.386886e-003
3.532951e+003, 4.014950e-003
3.534879e+003, 5.148496e-003
3.536808e+003, 5.482879e-003
3.538736e+003, 4.454806e-003
3.540665e+003, 4.621224e-003
3.542593e+003, 3.387543e-003
3.544522e+003, 2.025684e-003
3.546450e+003, 2.654480e-003
3.548379e+003, 3.615581e-003
3.550307e+003, 2.718348e-003
3.552236e+003, 1.177768e-003
3.554164e+003, 1.625690e-003
3.556093e+003, 2.066196e-003
3.558021e+003, 2.104237e-003
3.559949e+003, 1.784927e-003
3.561878e+003, 1.091511e-003
3.563806e+003, 8.096750e-004
3.565735e+003, 1.154932e-003
3.567663e+003, 1.282111e-003
3.569592e+003, 7.727880e-004
3.571520e+003, 9.442676e-004
3.573449e+003, 1.266080e-003
3.575377e+003, 1.632183e-003
3.577306e+003, 2.480799e-003
3.579234e+003, 2.452174e-003
3.581163e+003, 5.146652e-004
3.583091e+003, 4.776139e-004
3.585020e+003, 1.678157e-003
3.586948e+003, 1.364955e-003
3.588876e+003, 1.536458e-003
3.590805e+003, 1.968304e-003
3.592733e+003, 1.762907e-003
3.594662e+003, 1.799111e-003
3.596590e+003, 1.420821e-003
3.598519e+003, 1.164166e-003
3.600447e+003, 5.820253e-004
3.602376e+003, 1.956059e-004
3.604304e+003, 1.304692e-003
3.606233e+003, 2.051402e-003
3.608161e+003, 9.782115e-004
3.610090e+003, -4.430916e-005
3.612018e+003, 2.319932e-004
3.613947e+003, 2.512409e-004
3.615875e+003, 1.070450e-003
3.617803e+003, 1.445399e-003
3.619732e+003, 1.538578e-003
3.621660e+003, 1.904675e-003
3.623589e+003, 1.337909e-003
3.625517e+003, 3.479800e-004
3.627446e+003, -3.013905e-004
3.629374e+003, -3.564043e-004
3.631303e+003, -7.501740e-004
3.633231e+003, -1.180483e-004
3.635160e+003, 1.852606e-004
3.637088e+003, -2.997043e-004
3.639017e+003, 1.381183e-005
3.640945e+003, -1.589636e-004
3.642874e+003, -5.717804e-004
3.644802e+003, -1.652365e-004
3.646730e+003, 6.558087e-004
3.648659e+003, 2.920083e-004
3.650587e+003, 6.496678e-004
3.652516e+003, 4.935666e-004
3.654444e+003, -4.627899e-004
3.656373e+003, -1.045391e-003
3.658301e+003, -4.640720e-004
3.660230e+003, -3.836853e-005
3.662158e+003, -4.194511e-005
3.664087e+003, -5.852947e-004
3.666015e+003, -1.218476e-004
3.667944e+003, 6.252267e-004
3.669872e+003, -4.615977e-004
3.671801e+003, -9.721333e-004
3.673729e+003, -1.650711e-004
3.675657e+003, -8.983566e-004
3.677586e+003, -9.079904e-004
3.679514e+003, 8.815197e-005
3.681443e+003, 9.625525e-004
3.683371e+003, 1.376691e-003
3.685300e+003, 6.434132e-004
3.687228e+003, -8.356843e-005
3.689157e+003, -3.825928e-004
3.691085e+003, -1.474743e-005
3.693014e+003, 2.745053e-004
3.694942e+003, -4.299203e-004
3.696871e+003, -9.655920e-004
3.698799e+003, -1.281814e-005
3.700728e+003, 3.766576e-005
3.702656e+003, -9.313954e-004
3.704584e+003, -6.834728e-004
3.706513e+003, -1.235323e-003
3.708441e+003, -1.378412e-003
3.710370e+003, -1.367366e-003
3.712298e+003, -1.400312e-003
3.714227e+003, -1.269572e-004
3.716155e+003, 1.019590e-004
3.718084e+003, -3.898843e-004
3.720012e+003, -2.279392e-004
3.721941e+003, 5.437256e-004
3.723869e+003, 1.328678e-003
3.725798e+003, 3.923439e-005
3.727726e+003, -7.176262e-004
3.729655e+003, -4.537991e-004
3.731583e+003, -2.925008e-004
3.733511e+003, -1.795156e-004
3.735440e+003, 3.236288e-004
3.737368e+003, -2.777249e-004
3.739297e+003, -3.368980e-004
3.741225e+003, 3.477542e-004
3.743154e+003, -1.249450e-004
3.745082e+003, -2.631598e-004
3.747011e+003, 5.987167e-004
3.748939e+003, 5.298808e-004
3.750868e+003, -3.277360e-004
3.752796e+003, -2.304911e-004
3.754725e+003, -6.164776e-004
3.756653e+003, -1.240480e-003
3.758582e+003, -1.761874e-003
3.760510e+003, -6.132498e-004
3.762438e+003, 1.294879e-003
3.764367e+003, 1.546783e-003
3.766295e+003, 1.006995e-003
3.768224e+003, 2.298149e-004
3.770152e+003, -7.828026e-004
3.772081e+003, -1.022841e-003
3.774009e+003, -5.063473e-004
3.775938e+003, 1.992766e-004
3.777866e+003, 8.289031e-004
3.779795e+003, 1.149492e-004
3.781723e+003, 7.673711e-005
3.783652e+003, -1.489383e-004
3.785580e+003, -2.295734e-004
3.787509e+003, 4.852480e-004
3.789437e+003, 4.158667e-004
3.791365e+003, 6.888305e-005
3.793294e+003, 1.241651e-004
3.795222e+003, 7.010322e-005
3.797151e+003, -2.012883e-005
3.799079e+003, 8.381351e-004
3.801008e+003, 7.709659e-004
3.802936e+003, 1.247650e-003
3.804865e+003, 1.661982e-003
3.806793e+003, 3.901728e-004
3.808722e+003, 1.227429e-004
3.810650e+003, -4.063705e-005
3.812579e+003, -1.170272e-003
3.814507e+003, -1.189864e-003
3.816436e+003, -5.791841e-004
3.818364e+003, -2.877152e-004
3.820292e+003, -1.192029e-004
3.822221e+003, 2.073177e-004
3.824149e+003, -6.138582e-004
3.826078e+003, -1.560460e-003
3.828006e+003, -1.635555e-003
3.829935e+003, -1.507994e-003
3.831863e+003, -9.012040e-004
3.833792e+003, -1.453658e-004
3.835720e+003, 1.531857e-004
3.837649e+003, 7.812853e-004
3.839577e+003, 2.121547e-004
3.841506e+003, -5.568890e-004
3.843434e+003, -3.622946e-004
3.845363e+003, -5.244463e-005
3.847291e+003, -5.908675e-004
3.849219e+003, -6.091819e-004
3.851148e+003, -4.325969e-004
3.853076e+003, -1.688850e-004
3.855005e+003, -1.111612e-004
3.856933e+003, -4.852483e-004
3.858862e+003, 1.274813e-004
3.860790e+003, 1.153517e-004
3.862719e+003, 3.127846e-005
3.864647e+003, -2.532649e-004
3.866576e+003, -1.326531e-003
3.868504e+003, -1.794915e-003
3.870433e+003, -7.817110e-004
3.872361e+003, 6.307053e-004
3.874290e+003, -4.834627e-005
3.876218e+003, -4.724340e-004
3.878146e+003, -8.887542e-004
3.880075e+003, -1.336593e-003
3.882003e+003, -1.471477e-003
3.883932e+003, -1.020103e-003
3.885860e+003, 3.755575e-004
3.887789e+003, 1.432841e-004
3.889717e+003, -1.001766e-003
3.891646e+003, -1.070735e-003
3.893574e+003, -3.117377e-005
3.895503e+003, -7.343855e-005
3.897431e+003, -2.839820e-004
3.899360e+003, -7.650350e-004
3.901288e+003, -1.158451e-003
3.903217e+003, -9.898718e-004
3.905145e+003, -1.165620e-003
3.907073e+003, -1.135051e-003
3.909002e+003, 1.953295e-004
3.910930e+003, 7.248929e-004
3.912859e+003, -6.528621e-004
3.914787e+003, -1.469770e-003
3.916716e+003, -8.932888e-004
3.918644e+003, -4.668836e-004
3.920573e+003, -1.551468e-003
3.922501e+003, -1.654460e-003
3.924430e+003, -9.279325e-004
3.926358e+003, -1.192490e-003
3.928287e+003, -3.530393e-004
3.930215e+003, -5.405865e-004
3.932144e+003, -1.079638e-003
3.934072e+003, -1.311280e-003
3.936000e+003, -1.063169e-003
3.937929e+003, -8.143777e-004
3.939857e+003, -1.146467e-003
3.941786e+003, -1.271177e-003
3.943714e+003, -1.324448e-003
3.945643e+003, -1.898262e-003
3.947571e+003, -1.624559e-003
3.949500e+003, -1.224755e-003
3.951428e+003, -1.944678e-003
3.953357e+003, -2.884860e-003
3.955285e+003, -2.451211e-003
3.957214e+003, -1.415667e-003
3.959142e+003, -4.410370e-004
3.961071e+003, 2.290925e-004
3.962999e+003, -6.800107e-005
3.964927e+003, -9.409226e-004
3.966856e+003, -1.091560e-003
3.968784e+003, 4.528898e-004
3.970713e+003, 1.097782e-003
3.972641e+003, 1.662665e-004
3.974570e+003, 3.197696e-004
3.976498e+003, 1.038128e-003
3.978427e+003, 1.517963e-004
3.980355e+003, -4.496442e-004
3.982284e+003, 2.114053e-004
3.984212e+003, 5.102962e-004
3.986141e+003, -1.513916e-004
3.988069e+003, -1.006425e-003
3.989998e+003, -1.820139e-003
3.991926e+003, -1.197401e-003
3.993854e+003, 8.561507e-005
3.995783e+003, 5.795744e-004
3.997711e+003, -4.875803e-004
3.999640e+003, -9.161184e-004
##END=



