##NAMES=Parahopeite
##RRUFFID=R050463
##IDEAL CHEMISTRY=Zn^2+^_3_(P^5+^O_4_)_2_&#183;4H_2_O
##LOCALITY=Broken Hill mine, Kabwe, Zambia
##OWNER=RRUFF
##SOURCE=University of Arizona Mineral Museum
##DESCRIPTION=Colorless elongated subparallel aggregate of crystals
##STATUS=The identification of this mineral has been confirmed by X-ray diffraction and chemical analysis
##URL=rruff.info/R050463
##MEASURED CHEMISTRY=Zn_3.00_(P_1.00_O_4_)_2_Â·4H_2_O
3.721941e+002, 0.000000e+000
3.741225e+002, 3.724307e-002
3.760510e+002, 3.069301e-002
3.779795e+002, 3.415862e-002
3.799079e+002, 3.526653e-002
3.818364e+002, 3.263067e-002
3.837649e+002, 2.942039e-002
3.856933e+002, 2.949045e-002
3.876218e+002, 3.015126e-002
3.895503e+002, 3.239780e-002
3.914787e+002, 3.418590e-002
3.934072e+002, 3.628502e-002
3.953357e+002, 3.593285e-002
3.972641e+002, 3.418382e-002
3.991926e+002, 3.642810e-002
4.011211e+002, 4.176660e-002
4.030495e+002, 4.345664e-002
4.049780e+002, 4.371767e-002
4.069065e+002, 4.555958e-002
4.088349e+002, 4.622921e-002
4.107634e+002, 4.846239e-002
4.126919e+002, 5.531427e-002
4.146203e+002, 6.198183e-002
4.165488e+002, 6.899016e-002
4.184773e+002, 7.697530e-002
4.204057e+002, 8.851709e-002
4.223342e+002, 9.714226e-002
4.242627e+002, 1.007277e-001
4.261911e+002, 9.911717e-002
4.281196e+002, 9.161595e-002
4.300481e+002, 8.336581e-002
4.319765e+002, 7.649934e-002
4.339050e+002, 7.073137e-002
4.358335e+002, 6.685339e-002
4.377619e+002, 6.445698e-002
4.396904e+002, 6.318025e-002
4.416189e+002, 6.105134e-002
4.435473e+002, 6.055021e-002
4.454758e+002, 6.146313e-002
4.474043e+002, 6.289666e-002
4.493327e+002, 6.480142e-002
4.512612e+002, 6.722973e-002
4.531897e+002, 6.953278e-002
4.551181e+002, 7.215069e-002
4.570466e+002, 7.482282e-002
4.589751e+002, 7.783387e-002
4.609035e+002, 8.036296e-002
4.628320e+002, 8.413243e-002
4.647605e+002, 8.825976e-002
4.666889e+002, 9.234355e-002
4.686174e+002, 9.655247e-002
4.705459e+002, 1.008463e-001
4.724743e+002, 1.056814e-001
4.744028e+002, 1.107445e-001
4.763313e+002, 1.171457e-001
4.782597e+002, 1.230125e-001
4.801882e+002, 1.291452e-001
4.821167e+002, 1.356741e-001
4.840451e+002, 1.414366e-001
4.859736e+002, 1.475573e-001
4.879021e+002, 1.541447e-001
4.898305e+002, 1.603491e-001
4.917590e+002, 1.658354e-001
4.936875e+002, 1.714787e-001
4.956159e+002, 1.759571e-001
4.975444e+002, 1.809531e-001
4.994729e+002, 1.854995e-001
5.014013e+002, 1.889849e-001
5.033298e+002, 1.926088e-001
5.052583e+002, 1.965567e-001
5.071867e+002, 2.002030e-001
5.091152e+002, 2.013371e-001
5.110437e+002, 2.013636e-001
5.129721e+002, 2.005568e-001
5.149006e+002, 1.983116e-001
5.168290e+002, 1.952784e-001
5.187575e+002, 1.927863e-001
5.206860e+002, 1.934470e-001
5.226144e+002, 1.960164e-001
5.245429e+002, 2.012511e-001
5.264714e+002, 2.096912e-001
5.283998e+002, 2.197371e-001
5.303283e+002, 2.328114e-001
5.322568e+002, 2.489058e-001
5.341852e+002, 2.692016e-001
5.361137e+002, 2.920000e-001
5.380422e+002, 3.123983e-001
5.399706e+002, 3.245186e-001
5.418991e+002, 3.270566e-001
5.438276e+002, 3.188129e-001
5.457560e+002, 3.000055e-001
5.476845e+002, 2.754861e-001
5.496130e+002, 2.504340e-001
5.515414e+002, 2.298484e-001
5.534699e+002, 2.170384e-001
5.553984e+002, 2.118096e-001
5.573268e+002, 2.131004e-001
5.592553e+002, 2.189330e-001
5.611838e+002, 2.291454e-001
5.631122e+002, 2.427595e-001
5.650407e+002, 2.564315e-001
5.669692e+002, 2.648903e-001
5.688976e+002, 2.648565e-001
5.708261e+002, 2.569956e-001
5.727546e+002, 2.427502e-001
5.746830e+002, 2.255100e-001
5.766115e+002, 2.066305e-001
5.785400e+002, 1.881744e-001
5.804684e+002, 1.710312e-001
5.823969e+002, 1.564634e-001
5.843254e+002, 1.456729e-001
5.862538e+002, 1.397910e-001
5.881823e+002, 1.371798e-001
5.901108e+002, 1.377713e-001
5.920392e+002, 1.410691e-001
5.939677e+002, 1.453537e-001
5.958962e+002, 1.512544e-001
5.978246e+002, 1.570136e-001
5.997531e+002, 1.620879e-001
6.016816e+002, 1.674058e-001
6.036100e+002, 1.726622e-001
6.055385e+002, 1.774582e-001
6.074670e+002, 1.810864e-001
6.093954e+002, 1.832739e-001
6.113239e+002, 1.850776e-001
6.132524e+002, 1.866376e-001
6.151808e+002, 1.878534e-001
6.171093e+002, 1.882627e-001
6.190378e+002, 1.886465e-001
6.209662e+002, 1.890267e-001
6.228947e+002, 1.894866e-001
6.248232e+002, 1.901153e-001
6.267516e+002, 1.913481e-001
6.286801e+002, 1.931596e-001
6.306086e+002, 1.954253e-001
6.325370e+002, 1.976643e-001
6.344655e+002, 2.002400e-001
6.363940e+002, 2.035159e-001
6.383224e+002, 2.070117e-001
6.402509e+002, 2.097758e-001
6.421794e+002, 2.116210e-001
6.441078e+002, 2.126878e-001
6.460363e+002, 2.117367e-001
6.479648e+002, 2.080833e-001
6.498932e+002, 2.019153e-001
6.518217e+002, 1.935214e-001
6.537502e+002, 1.838642e-001
6.556786e+002, 1.741068e-001
6.576071e+002, 1.647702e-001
6.595356e+002, 1.569326e-001
6.614641e+002, 1.512271e-001
6.633925e+002, 1.474224e-001
6.653210e+002, 1.452671e-001
6.672495e+002, 1.446969e-001
6.691779e+002, 1.449829e-001
6.711064e+002, 1.456539e-001
6.730349e+002, 1.470839e-001
6.749633e+002, 1.487207e-001
6.768918e+002, 1.503881e-001
6.788203e+002, 1.518130e-001
6.807487e+002, 1.529779e-001
6.826772e+002, 1.536240e-001
6.846057e+002, 1.543126e-001
6.865341e+002, 1.547257e-001
6.884626e+002, 1.544202e-001
6.903911e+002, 1.541965e-001
6.923195e+002, 1.539818e-001
6.942480e+002, 1.531875e-001
6.961765e+002, 1.523705e-001
6.981049e+002, 1.511460e-001
7.000334e+002, 1.498723e-001
7.019619e+002, 1.482546e-001
7.038903e+002, 1.470810e-001
7.058188e+002, 1.457426e-001
7.077473e+002, 1.439433e-001
7.096757e+002, 1.419150e-001
7.116042e+002, 1.402165e-001
7.135327e+002, 1.383708e-001
7.154611e+002, 1.360322e-001
7.173896e+002, 1.335200e-001
7.193181e+002, 1.309736e-001
7.212465e+002, 1.283136e-001
7.231750e+002, 1.258509e-001
7.251035e+002, 1.234827e-001
7.270319e+002, 1.207446e-001
7.289604e+002, 1.182546e-001
7.308889e+002, 1.157696e-001
7.328173e+002, 1.135294e-001
7.347458e+002, 1.115160e-001
7.366743e+002, 1.096924e-001
7.386027e+002, 1.080157e-001
7.405312e+002, 1.064896e-001
7.424597e+002, 1.048009e-001
7.443881e+002, 1.032265e-001
7.463166e+002, 1.019744e-001
7.482451e+002, 1.008176e-001
7.501735e+002, 1.000080e-001
7.521020e+002, 9.910484e-002
7.540305e+002, 9.806435e-002
7.559589e+002, 9.729497e-002
7.578874e+002, 9.646778e-002
7.598159e+002, 9.594686e-002
7.617443e+002, 9.546591e-002
7.636728e+002, 9.487151e-002
7.656013e+002, 9.451098e-002
7.675297e+002, 9.458602e-002
7.694582e+002, 9.488959e-002
7.713867e+002, 9.523880e-002
7.733151e+002, 9.579841e-002
7.752436e+002, 9.727116e-002
7.771721e+002, 9.913962e-002
7.791005e+002, 1.012411e-001
7.810290e+002, 1.038552e-001
7.829575e+002, 1.070439e-001
7.848859e+002, 1.103325e-001
7.868144e+002, 1.140406e-001
7.887429e+002, 1.181686e-001
7.906713e+002, 1.225340e-001
7.925998e+002, 1.265815e-001
7.945283e+002, 1.304444e-001
7.964567e+002, 1.343632e-001
7.983852e+002, 1.375837e-001
8.003137e+002, 1.397107e-001
8.022421e+002, 1.408182e-001
8.041706e+002, 1.411927e-001
8.060991e+002, 1.402880e-001
8.080275e+002, 1.382158e-001
8.099560e+002, 1.353072e-001
8.118845e+002, 1.312574e-001
8.138129e+002, 1.261862e-001
8.157414e+002, 1.207596e-001
8.176699e+002, 1.153383e-001
8.195983e+002, 1.099869e-001
8.215268e+002, 1.047619e-001
8.234553e+002, 9.948833e-002
8.253837e+002, 9.449266e-002
8.273122e+002, 9.011313e-002
8.292407e+002, 8.589870e-002
8.311691e+002, 8.204132e-002
8.330976e+002, 7.845161e-002
8.350261e+002, 7.552462e-002
8.369545e+002, 7.278058e-002
8.388830e+002, 7.041299e-002
8.408115e+002, 6.848899e-002
8.427399e+002, 6.698205e-002
8.446684e+002, 6.573808e-002
8.465969e+002, 6.460971e-002
8.485253e+002, 6.345691e-002
8.504538e+002, 6.251675e-002
8.523823e+002, 6.183390e-002
8.543107e+002, 6.147561e-002
8.562392e+002, 6.142021e-002
8.581677e+002, 6.198939e-002
8.600961e+002, 6.189902e-002
8.620246e+002, 6.156935e-002
8.639531e+002, 6.154052e-002
8.658815e+002, 6.188961e-002
8.678100e+002, 6.236313e-002
8.697385e+002, 6.296743e-002
8.716669e+002, 6.382706e-002
8.735954e+002, 6.487575e-002
8.755239e+002, 6.596382e-002
8.774523e+002, 6.732026e-002
8.793808e+002, 6.897811e-002
8.813093e+002, 7.053996e-002
8.832377e+002, 7.195713e-002
8.851662e+002, 7.358319e-002
8.870947e+002, 7.545299e-002
8.890231e+002, 7.718268e-002
8.909516e+002, 7.894672e-002
8.928801e+002, 8.058380e-002
8.948085e+002, 8.195290e-002
8.967370e+002, 8.311892e-002
8.986655e+002, 8.421536e-002
9.005939e+002, 8.492699e-002
9.025224e+002, 8.561820e-002
9.044509e+002, 8.631159e-002
9.063793e+002, 8.683223e-002
9.083078e+002, 8.748933e-002
9.102363e+002, 8.821002e-002
9.121647e+002, 8.906434e-002
9.140932e+002, 8.980497e-002
9.160217e+002, 9.064218e-002
9.179501e+002, 9.180164e-002
9.198786e+002, 9.293819e-002
9.218071e+002, 9.410054e-002
9.237355e+002, 9.591348e-002
9.256640e+002, 9.871672e-002
9.275925e+002, 1.020591e-001
9.295209e+002, 1.061126e-001
9.314494e+002, 1.111766e-001
9.333779e+002, 1.178248e-001
9.353063e+002, 1.263324e-001
9.372348e+002, 1.369762e-001
9.391633e+002, 1.502174e-001
9.410917e+002, 1.669948e-001
9.430202e+002, 1.874312e-001
9.449487e+002, 2.101935e-001
9.468771e+002, 2.320867e-001
9.488056e+002, 2.488231e-001
9.507341e+002, 2.586189e-001
9.526625e+002, 2.599837e-001
9.545910e+002, 2.500455e-001
9.565195e+002, 2.277029e-001
9.584479e+002, 1.964621e-001
9.603764e+002, 1.629148e-001
9.623049e+002, 1.344664e-001
9.642333e+002, 1.148171e-001
9.661618e+002, 1.036502e-001
9.680903e+002, 9.881544e-002
9.700187e+002, 9.853096e-002
9.719472e+002, 1.014372e-001
9.738757e+002, 1.068761e-001
9.758041e+002, 1.145080e-001
9.777326e+002, 1.244124e-001
9.796611e+002, 1.363019e-001
9.815895e+002, 1.501365e-001
9.835180e+002, 1.661431e-001
9.854465e+002, 1.849293e-001
9.873749e+002, 2.065506e-001
9.893034e+002, 2.306997e-001
9.912319e+002, 2.570161e-001
9.931603e+002, 2.857152e-001
9.950888e+002, 3.161258e-001
9.970173e+002, 3.478193e-001
9.989457e+002, 3.797090e-001
1.000874e+003, 4.097361e-001
1.002803e+003, 4.360200e-001
1.004731e+003, 4.570801e-001
1.006660e+003, 4.716697e-001
1.008588e+003, 4.780942e-001
1.010517e+003, 4.767945e-001
1.012445e+003, 4.705202e-001
1.014373e+003, 4.614918e-001
1.016302e+003, 4.506276e-001
1.018230e+003, 4.382020e-001
1.020159e+003, 4.247425e-001
1.022087e+003, 4.106682e-001
1.024016e+003, 3.961352e-001
1.025944e+003, 3.818163e-001
1.027873e+003, 3.689323e-001
1.029801e+003, 3.577386e-001
1.031730e+003, 3.484586e-001
1.033658e+003, 3.413995e-001
1.035587e+003, 3.382150e-001
1.037515e+003, 3.401821e-001
1.039443e+003, 3.476492e-001
1.041372e+003, 3.590996e-001
1.043300e+003, 3.701784e-001
1.045229e+003, 3.756901e-001
1.047157e+003, 3.741275e-001
1.049086e+003, 3.678398e-001
1.051014e+003, 3.596393e-001
1.052943e+003, 3.510205e-001
1.054871e+003, 3.423619e-001
1.056800e+003, 3.336618e-001
1.058728e+003, 3.259523e-001
1.060657e+003, 3.191887e-001
1.062585e+003, 3.118944e-001
1.064514e+003, 3.031128e-001
1.066442e+003, 2.931479e-001
1.068370e+003, 2.823861e-001
1.070299e+003, 2.713122e-001
1.072227e+003, 2.600784e-001
1.074156e+003, 2.492287e-001
1.076084e+003, 2.387296e-001
1.078013e+003, 2.283678e-001
1.079941e+003, 2.183690e-001
1.081870e+003, 2.087324e-001
1.083798e+003, 1.998664e-001
1.085727e+003, 1.915495e-001
1.087655e+003, 1.835718e-001
1.089584e+003, 1.763080e-001
1.091512e+003, 1.699343e-001
1.093441e+003, 1.642964e-001
1.095369e+003, 1.592859e-001
1.097297e+003, 1.549700e-001
1.099226e+003, 1.510325e-001
1.101154e+003, 1.473673e-001
1.103083e+003, 1.437504e-001
1.105011e+003, 1.403859e-001
1.106940e+003, 1.368876e-001
1.108868e+003, 1.329865e-001
1.110797e+003, 1.288503e-001
1.112725e+003, 1.242832e-001
1.114654e+003, 1.191863e-001
1.116582e+003, 1.137695e-001
1.118511e+003, 1.077549e-001
1.120439e+003, 1.014518e-001
1.122368e+003, 9.488979e-002
1.124296e+003, 8.808123e-002
1.126224e+003, 8.131467e-002
1.128153e+003, 7.460617e-002
1.130081e+003, 6.811314e-002
1.132010e+003, 6.179170e-002
1.133938e+003, 5.567500e-002
1.135867e+003, 5.002144e-002
1.137795e+003, 4.476240e-002
1.139724e+003, 3.980859e-002
1.141652e+003, 3.537752e-002
1.143581e+003, 3.156926e-002
1.145509e+003, 2.853860e-002
1.147438e+003, 2.602895e-002
1.149366e+003, 2.391309e-002
1.151295e+003, 2.221290e-002
1.153223e+003, 2.082772e-002
1.155151e+003, 1.962814e-002
1.157080e+003, 1.858888e-002
1.159008e+003, 1.766600e-002
1.160937e+003, 1.680705e-002
1.162865e+003, 1.593309e-002
1.164794e+003, 1.508476e-002
1.166722e+003, 1.443150e-002
1.168651e+003, 1.390461e-002
1.170579e+003, 1.337876e-002
1.172508e+003, 1.283589e-002
1.174436e+003, 1.244725e-002
1.176365e+003, 1.199243e-002
1.178293e+003, 1.145387e-002
1.180222e+003, 1.113497e-002
1.182150e+003, 1.091587e-002
1.184078e+003, 1.062364e-002
1.186007e+003, 1.038988e-002
1.187935e+003, 1.016038e-002
1.189864e+003, 9.987004e-003
1.191792e+003, 9.880472e-003
1.193721e+003, 9.899614e-003
1.195649e+003, 9.853865e-003
1.197578e+003, 9.675282e-003
1.199506e+003, 9.406493e-003
1.201435e+003, 9.238133e-003
1.203363e+003, 9.151341e-003
1.205292e+003, 9.060807e-003
1.207220e+003, 9.010152e-003
1.209149e+003, 8.977215e-003
1.211077e+003, 8.727984e-003
1.213005e+003, 8.512229e-003
1.214934e+003, 8.472667e-003
1.216862e+003, 8.495808e-003
1.218791e+003, 8.623675e-003
1.220719e+003, 8.681674e-003
1.222648e+003, 8.567960e-003
1.224576e+003, 8.394828e-003
1.226505e+003, 8.256828e-003
1.228433e+003, 8.178562e-003
1.230362e+003, 8.024701e-003
1.232290e+003, 7.995554e-003
1.234219e+003, 8.046119e-003
1.236147e+003, 7.915204e-003
1.238076e+003, 7.880625e-003
1.240004e+003, 7.936974e-003
1.241932e+003, 7.951820e-003
1.243861e+003, 7.903924e-003
1.245789e+003, 7.769410e-003
1.247718e+003, 7.695454e-003
1.249646e+003, 7.837665e-003
1.251575e+003, 7.823318e-003
1.253503e+003, 7.795581e-003
1.255432e+003, 7.839828e-003
1.257360e+003, 7.944318e-003
1.259289e+003, 8.066705e-003
1.261217e+003, 8.065726e-003
1.263146e+003, 8.075733e-003
1.265074e+003, 8.152868e-003
1.267003e+003, 8.115438e-003
1.268931e+003, 8.110625e-003
1.270859e+003, 8.274109e-003
1.272788e+003, 8.353258e-003
1.274716e+003, 8.481631e-003
1.276645e+003, 8.541953e-003
1.278573e+003, 8.471819e-003
1.280502e+003, 8.453433e-003
1.282430e+003, 8.594156e-003
1.284359e+003, 8.701283e-003
1.286287e+003, 8.770311e-003
1.288216e+003, 8.958223e-003
1.290144e+003, 8.991306e-003
1.292073e+003, 8.918959e-003
1.294001e+003, 8.979878e-003
1.295930e+003, 9.065625e-003
1.297858e+003, 9.076233e-003
1.299786e+003, 9.080838e-003
1.301715e+003, 9.144014e-003
1.303643e+003, 9.195972e-003
1.305572e+003, 9.325066e-003
1.307500e+003, 9.537785e-003
1.309429e+003, 9.625744e-003
1.311357e+003, 9.778737e-003
1.313286e+003, 9.996015e-003
1.315214e+003, 9.982148e-003
1.317143e+003, 1.003357e-002
1.319071e+003, 1.007098e-002
1.321000e+003, 1.016042e-002
1.322928e+003, 1.034026e-002
1.324857e+003, 1.043145e-002
1.326785e+003, 1.050639e-002
1.328714e+003, 1.051026e-002
1.330642e+003, 1.057331e-002
1.332570e+003, 1.077351e-002
1.334499e+003, 1.095038e-002
1.336427e+003, 1.106830e-002
1.338356e+003, 1.123750e-002
1.340284e+003, 1.135224e-002
1.342213e+003, 1.141820e-002
1.344141e+003, 1.156224e-002
1.346070e+003, 1.169855e-002
1.347998e+003, 1.189351e-002
1.349927e+003, 1.207863e-002
1.351855e+003, 1.216307e-002
1.353784e+003, 1.226952e-002
1.355712e+003, 1.249476e-002
1.357641e+003, 1.268207e-002
1.359569e+003, 1.280571e-002
1.361497e+003, 1.287752e-002
1.363426e+003, 1.292705e-002
1.365354e+003, 1.303922e-002
1.367283e+003, 1.321037e-002
1.369211e+003, 1.328952e-002
1.371140e+003, 1.333364e-002
1.373068e+003, 1.331666e-002
1.374997e+003, 1.345052e-002
1.376925e+003, 1.355939e-002
1.378854e+003, 1.368104e-002
1.380782e+003, 1.367082e-002
1.382711e+003, 1.365828e-002
1.384639e+003, 1.372082e-002
1.386568e+003, 1.379732e-002
1.388496e+003, 1.379195e-002
1.390424e+003, 1.384597e-002
1.392353e+003, 1.404164e-002
1.394281e+003, 1.416232e-002
1.396210e+003, 1.416577e-002
1.398138e+003, 1.418984e-002
1.400067e+003, 1.425790e-002
1.401995e+003, 1.431455e-002
1.403924e+003, 1.460286e-002
1.405852e+003, 1.488355e-002
1.407781e+003, 1.487063e-002
1.409709e+003, 1.492619e-002
1.411638e+003, 1.498427e-002
1.413566e+003, 1.509422e-002
1.415495e+003, 1.525630e-002
1.417423e+003, 1.544647e-002
1.419351e+003, 1.566812e-002
1.421280e+003, 1.597162e-002
1.423208e+003, 1.609798e-002
1.425137e+003, 1.637718e-002
1.427065e+003, 1.659955e-002
1.428994e+003, 1.664695e-002
1.430922e+003, 1.688319e-002
1.432851e+003, 1.720188e-002
1.434779e+003, 1.740101e-002
1.436708e+003, 1.765295e-002
1.438636e+003, 1.782735e-002
1.440565e+003, 1.811033e-002
1.442493e+003, 1.839519e-002
1.444422e+003, 1.852694e-002
1.446350e+003, 1.881681e-002
1.448278e+003, 1.911530e-002
1.450207e+003, 1.947434e-002
1.452135e+003, 1.969899e-002
1.454064e+003, 1.975163e-002
1.455992e+003, 1.987019e-002
1.457921e+003, 2.027781e-002
1.459849e+003, 2.073180e-002
1.461778e+003, 2.086102e-002
1.463706e+003, 2.094119e-002
1.465635e+003, 2.107336e-002
1.467563e+003, 2.121850e-002
1.469492e+003, 2.147806e-002
1.471420e+003, 2.194123e-002
1.473349e+003, 2.240305e-002
1.475277e+003, 2.269454e-002
1.477205e+003, 2.295159e-002
1.479134e+003, 2.323728e-002
1.481062e+003, 2.356787e-002
1.482991e+003, 2.394155e-002
1.484919e+003, 2.417081e-002
1.486848e+003, 2.426793e-002
1.488776e+003, 2.435539e-002
1.490705e+003, 2.460666e-002
1.492633e+003, 2.504166e-002
1.494562e+003, 2.536297e-002
1.496490e+003, 2.558742e-002
1.498419e+003, 2.585404e-002
1.500347e+003, 2.614087e-002
1.502276e+003, 2.631018e-002
1.504204e+003, 2.649191e-002
1.506132e+003, 2.686177e-002
1.508061e+003, 2.725003e-002
1.509989e+003, 2.749119e-002
1.511918e+003, 2.778979e-002
1.513846e+003, 2.803678e-002
1.515775e+003, 2.822378e-002
1.517703e+003, 2.841178e-002
1.519632e+003, 2.850167e-002
1.521560e+003, 2.871719e-002
1.523489e+003, 2.901308e-002
1.525417e+003, 2.925849e-002
1.527346e+003, 2.940662e-002
1.529274e+003, 2.957302e-002
1.531203e+003, 2.979621e-002
1.533131e+003, 2.985852e-002
1.535059e+003, 2.989113e-002
1.536988e+003, 3.007870e-002
1.538916e+003, 3.011583e-002
1.540845e+003, 3.005155e-002
1.542773e+003, 3.007216e-002
1.544702e+003, 3.018572e-002
1.546630e+003, 3.027588e-002
1.548559e+003, 3.028068e-002
1.550487e+003, 3.032680e-002
1.552416e+003, 3.007677e-002
1.554344e+003, 2.990247e-002
1.556273e+003, 2.988862e-002
1.558201e+003, 2.971313e-002
1.560130e+003, 2.952840e-002
1.562058e+003, 2.961110e-002
1.563986e+003, 2.957219e-002
1.565915e+003, 2.920146e-002
1.567843e+003, 2.890076e-002
1.569772e+003, 2.880705e-002
1.571700e+003, 2.868416e-002
1.573629e+003, 2.845961e-002
1.575557e+003, 2.828015e-002
1.577486e+003, 2.822831e-002
1.579414e+003, 2.807934e-002
1.581343e+003, 2.781741e-002
1.583271e+003, 2.766971e-002
1.585200e+003, 2.758307e-002
1.587128e+003, 2.752401e-002
1.589057e+003, 2.735822e-002
1.590985e+003, 2.719280e-002
1.592913e+003, 2.717404e-002
1.594842e+003, 2.730839e-002
1.596770e+003, 2.732022e-002
1.598699e+003, 2.726214e-002
1.600627e+003, 2.719244e-002
1.602556e+003, 2.715036e-002
1.604484e+003, 2.710360e-002
1.606413e+003, 2.712228e-002
1.608341e+003, 2.714083e-002
1.610270e+003, 2.717492e-002
1.612198e+003, 2.713084e-002
1.614127e+003, 2.711637e-002
1.616055e+003, 2.713817e-002
1.617984e+003, 2.725854e-002
1.619912e+003, 2.729181e-002
1.621840e+003, 2.737463e-002
1.623769e+003, 2.747374e-002
1.625697e+003, 2.757778e-002
1.627626e+003, 2.760840e-002
1.629554e+003, 2.767328e-002
1.631483e+003, 2.784916e-002
1.633411e+003, 2.806938e-002
1.635340e+003, 2.822300e-002
1.637268e+003, 2.834118e-002
1.639197e+003, 2.831998e-002
1.641125e+003, 2.839288e-002
1.643054e+003, 2.869894e-002
1.644982e+003, 2.902677e-002
1.646911e+003, 2.909798e-002
1.648839e+003, 2.919972e-002
1.650767e+003, 2.918210e-002
1.652696e+003, 2.917103e-002
1.654624e+003, 2.950241e-002
1.656553e+003, 2.975123e-002
1.658481e+003, 2.994293e-002
1.660410e+003, 3.031878e-002
1.662338e+003, 3.045908e-002
1.664267e+003, 3.059779e-002
1.666195e+003, 3.084253e-002
1.668124e+003, 3.109494e-002
1.670052e+003, 3.130490e-002
1.671981e+003, 3.134020e-002
1.673909e+003, 3.137833e-002
1.675838e+003, 3.158132e-002
1.677766e+003, 3.181793e-002
1.679694e+003, 3.189709e-002
1.681623e+003, 3.207498e-002
1.683551e+003, 3.216104e-002
1.685480e+003, 3.215123e-002
1.687408e+003, 3.207080e-002
1.689337e+003, 3.197323e-002
1.691265e+003, 3.171669e-002
1.693194e+003, 3.122034e-002
1.695122e+003, 3.077179e-002
1.697051e+003, 3.034492e-002
1.698979e+003, 2.963791e-002
1.700908e+003, 2.903258e-002
1.702836e+003, 2.853976e-002
1.704765e+003, 2.784828e-002
1.706693e+003, 2.718548e-002
1.708621e+003, 2.640300e-002
1.710550e+003, 2.548651e-002
1.712478e+003, 2.446501e-002
1.714407e+003, 2.345892e-002
1.716335e+003, 2.250843e-002
1.718264e+003, 2.174510e-002
1.720192e+003, 2.106858e-002
1.722121e+003, 2.018078e-002
1.724049e+003, 1.939998e-002
1.725978e+003, 1.871692e-002
1.727906e+003, 1.794475e-002
1.729835e+003, 1.735821e-002
1.731763e+003, 1.676757e-002
1.733692e+003, 1.599715e-002
1.735620e+003, 1.542373e-002
1.737548e+003, 1.485550e-002
1.739477e+003, 1.420429e-002
1.741405e+003, 1.368754e-002
1.743334e+003, 1.308277e-002
1.745262e+003, 1.237380e-002
1.747191e+003, 1.185723e-002
1.749119e+003, 1.170559e-002
1.751048e+003, 1.159027e-002
1.752976e+003, 1.161676e-002
1.754905e+003, 1.165544e-002
1.756833e+003, 1.147450e-002
1.758762e+003, 1.124387e-002
1.760690e+003, 1.125364e-002
1.762619e+003, 1.145885e-002
1.764547e+003, 1.164444e-002
1.766475e+003, 1.130895e-002
1.768404e+003, 1.086831e-002
1.770332e+003, 1.089823e-002
1.772261e+003, 1.095005e-002
1.774189e+003, 1.070643e-002
1.776118e+003, 1.039044e-002
1.778046e+003, 1.025125e-002
1.779975e+003, 1.020684e-002
1.781903e+003, 1.029710e-002
1.783832e+003, 1.022294e-002
1.785760e+003, 1.007524e-002
1.787689e+003, 9.938902e-003
1.789617e+003, 9.826202e-003
1.791546e+003, 9.703638e-003
1.793474e+003, 9.461826e-003
1.795402e+003, 9.573700e-003
1.797331e+003, 9.856698e-003
1.799259e+003, 9.865273e-003
1.801188e+003, 9.688298e-003
1.803116e+003, 9.487410e-003
1.805045e+003, 9.330308e-003
1.806973e+003, 9.254240e-003
1.808902e+003, 9.150773e-003
1.810830e+003, 8.987604e-003
1.812759e+003, 9.023417e-003
1.814687e+003, 8.863498e-003
1.816616e+003, 8.555657e-003
1.818544e+003, 8.632046e-003
1.820473e+003, 8.838799e-003
1.822401e+003, 9.049381e-003
1.824329e+003, 8.842851e-003
1.826258e+003, 8.778162e-003
1.828186e+003, 8.798551e-003
1.830115e+003, 8.619254e-003
1.832043e+003, 8.638279e-003
1.833972e+003, 8.693480e-003
1.835900e+003, 8.490117e-003
1.837829e+003, 8.593330e-003
1.839757e+003, 8.583372e-003
1.841686e+003, 8.648289e-003
1.843614e+003, 8.710393e-003
1.845543e+003, 8.645207e-003
1.847471e+003, 8.507797e-003
1.849400e+003, 8.288935e-003
1.851328e+003, 8.339048e-003
1.853256e+003, 8.672672e-003
1.855185e+003, 8.855110e-003
1.857113e+003, 9.028704e-003
1.859042e+003, 8.813003e-003
1.860970e+003, 8.560942e-003
1.862899e+003, 8.524409e-003
1.864827e+003, 8.243187e-003
1.866756e+003, 8.146442e-003
1.868684e+003, 8.353056e-003
1.870613e+003, 8.162891e-003
1.872541e+003, 8.276485e-003
1.874470e+003, 8.318211e-003
1.876398e+003, 8.310026e-003
1.878327e+003, 8.259970e-003
1.880255e+003, 8.196156e-003
1.882183e+003, 7.772496e-003
1.884112e+003, 7.597560e-003
1.886040e+003, 8.280968e-003
1.887969e+003, 8.922119e-003
1.889897e+003, 8.780773e-003
1.891826e+003, 8.856235e-003
1.893754e+003, 9.391184e-003
1.895683e+003, 9.106131e-003
1.897611e+003, 8.714087e-003
1.899540e+003, 8.932180e-003
1.901468e+003, 8.845236e-003
1.903397e+003, 9.049214e-003
1.905325e+003, 9.803506e-003
1.907254e+003, 1.045548e-002
1.909182e+003, 9.821211e-003
1.911110e+003, 9.191232e-003
1.913039e+003, 9.365450e-003
1.914967e+003, 9.304363e-003
1.916896e+003, 9.137038e-003
1.918824e+003, 9.197518e-003
1.920753e+003, 9.545747e-003
1.922681e+003, 1.022547e-002
1.924610e+003, 9.824296e-003
1.926538e+003, 9.603054e-003
1.928467e+003, 1.014941e-002
1.930395e+003, 1.058504e-002
1.932324e+003, 1.110665e-002
1.934252e+003, 1.069500e-002
1.936181e+003, 1.041225e-002
1.938109e+003, 1.121345e-002
1.940037e+003, 1.176852e-002
1.941966e+003, 1.233136e-002
1.943894e+003, 1.198256e-002
1.945823e+003, 1.198849e-002
1.947751e+003, 1.336921e-002
1.949680e+003, 1.399022e-002
1.951608e+003, 1.289784e-002
1.953537e+003, 1.252996e-002
1.955465e+003, 1.324278e-002
1.957394e+003, 1.426993e-002
1.959322e+003, 1.446073e-002
1.961251e+003, 1.483288e-002
1.963179e+003, 1.481900e-002
1.965108e+003, 1.462951e-002
1.967036e+003, 1.442695e-002
1.968964e+003, 1.392832e-002
1.970893e+003, 1.449846e-002
1.972821e+003, 1.562649e-002
1.974750e+003, 1.496276e-002
1.976678e+003, 1.501817e-002
1.978607e+003, 1.562715e-002
1.980535e+003, 1.407329e-002
1.982464e+003, 1.384269e-002
1.984392e+003, 1.474949e-002
1.986321e+003, 1.413720e-002
1.988249e+003, 1.247472e-002
1.990178e+003, 1.252699e-002
1.992106e+003, 1.385710e-002
1.994035e+003, 1.309324e-002
1.995963e+003, 1.228666e-002
1.997891e+003, 1.272373e-002
1.999820e+003, 1.354722e-002
2.001748e+003, 1.250109e-002
2.003677e+003, 1.050969e-002
2.005605e+003, 1.165066e-002
2.007534e+003, 1.349187e-002
2.009462e+003, 1.310725e-002
2.011391e+003, 1.345717e-002
2.013319e+003, 1.390124e-002
2.015248e+003, 1.253233e-002
2.017176e+003, 1.189492e-002
2.019105e+003, 1.144868e-002
2.021033e+003, 1.078904e-002
2.022962e+003, 1.019041e-002
2.024890e+003, 1.121155e-002
2.026818e+003, 1.306616e-002
2.028747e+003, 1.468884e-002
2.030675e+003, 1.549448e-002
2.032604e+003, 1.612087e-002
2.034532e+003, 1.552768e-002
2.036461e+003, 1.370026e-002
2.038389e+003, 1.380793e-002
2.040318e+003, 1.463360e-002
2.042246e+003, 1.503659e-002
2.044175e+003, 1.477369e-002
2.046103e+003, 1.439311e-002
2.048031e+003, 1.388106e-002
2.049960e+003, 1.470003e-002
2.051888e+003, 1.415571e-002
2.053817e+003, 1.284400e-002
2.055745e+003, 1.260025e-002
2.057674e+003, 1.369841e-002
2.059602e+003, 1.330932e-002
2.061531e+003, 1.343670e-002
2.063459e+003, 1.293937e-002
2.065388e+003, 1.225980e-002
2.067316e+003, 1.254610e-002
2.069245e+003, 1.348356e-002
2.071173e+003, 1.403476e-002
2.073102e+003, 1.347111e-002
2.075030e+003, 1.369176e-002
2.076958e+003, 1.358060e-002
2.078887e+003, 1.279593e-002
2.080815e+003, 1.309780e-002
2.082744e+003, 1.319100e-002
2.084672e+003, 1.351066e-002
2.086601e+003, 1.264277e-002
2.088529e+003, 1.201421e-002
2.090458e+003, 1.238480e-002
2.092386e+003, 1.248672e-002
2.094315e+003, 1.211995e-002
2.096243e+003, 1.211740e-002
2.098172e+003, 1.257138e-002
2.100100e+003, 1.286899e-002
2.102029e+003, 1.244972e-002
2.103957e+003, 1.316434e-002
2.105885e+003, 1.357877e-002
2.107814e+003, 1.258139e-002
2.109742e+003, 1.214405e-002
2.111671e+003, 1.238714e-002
2.113599e+003, 1.268834e-002
2.115528e+003, 1.288906e-002
2.117456e+003, 1.245649e-002
2.119385e+003, 1.200010e-002
2.121313e+003, 1.162827e-002
2.123242e+003, 1.238822e-002
2.125170e+003, 1.296720e-002
2.127099e+003, 1.240797e-002
2.129027e+003, 1.232608e-002
2.130956e+003, 1.299126e-002
2.132884e+003, 1.349207e-002
2.134813e+003, 1.413816e-002
2.136741e+003, 1.388351e-002
2.138669e+003, 1.342451e-002
2.140598e+003, 1.454235e-002
2.142526e+003, 1.517552e-002
2.144455e+003, 1.437206e-002
2.146383e+003, 1.394861e-002
2.148312e+003, 1.432499e-002
2.150240e+003, 1.556851e-002
2.152169e+003, 1.682650e-002
2.154097e+003, 1.874952e-002
2.156026e+003, 1.854558e-002
2.157954e+003, 1.981386e-002
2.159883e+003, 2.171022e-002
2.161811e+003, 2.072185e-002
2.163740e+003, 1.974792e-002
2.165668e+003, 2.035538e-002
2.167596e+003, 1.949810e-002
2.169525e+003, 1.927014e-002
2.171453e+003, 1.883367e-002
2.173382e+003, 1.860180e-002
2.175310e+003, 1.716118e-002
2.177239e+003, 1.689889e-002
2.179167e+003, 1.765071e-002
2.181096e+003, 1.836050e-002
2.183024e+003, 1.925576e-002
2.184953e+003, 2.020549e-002
2.186881e+003, 1.953496e-002
2.188810e+003, 1.925443e-002
2.190738e+003, 1.844141e-002
2.192667e+003, 1.753368e-002
2.194595e+003, 1.899990e-002
2.196523e+003, 2.040603e-002
2.198452e+003, 1.937493e-002
2.200380e+003, 1.850780e-002
2.202309e+003, 1.847488e-002
2.204237e+003, 1.778487e-002
2.206166e+003, 1.740513e-002
2.208094e+003, 1.829410e-002
2.210023e+003, 1.840529e-002
2.211951e+003, 1.827028e-002
2.213880e+003, 1.782316e-002
2.215808e+003, 1.741732e-002
2.217737e+003, 1.795847e-002
2.219665e+003, 1.850717e-002
2.221594e+003, 1.846854e-002
2.223522e+003, 1.846365e-002
2.225450e+003, 1.796803e-002
2.227379e+003, 1.737397e-002
2.229307e+003, 1.796346e-002
2.231236e+003, 1.840402e-002
2.233164e+003, 1.824047e-002
2.235093e+003, 1.865503e-002
2.237021e+003, 1.867479e-002
2.238950e+003, 1.850111e-002
2.240878e+003, 1.811176e-002
2.242807e+003, 1.792878e-002
2.244735e+003, 1.789407e-002
2.246664e+003, 1.840530e-002
2.248592e+003, 1.884480e-002
2.250521e+003, 1.879562e-002
2.252449e+003, 1.807507e-002
2.254377e+003, 1.854715e-002
2.256306e+003, 1.902956e-002
2.258234e+003, 1.833591e-002
2.260163e+003, 1.800692e-002
2.262091e+003, 1.791014e-002
2.264020e+003, 1.792610e-002
2.265948e+003, 1.806789e-002
2.267877e+003, 1.790357e-002
2.269805e+003, 1.869796e-002
2.271734e+003, 1.939924e-002
2.273662e+003, 1.994659e-002
2.275591e+003, 1.996328e-002
2.277519e+003, 1.938615e-002
2.279448e+003, 1.898517e-002
2.281376e+003, 1.861543e-002
2.283304e+003, 1.829662e-002
2.285233e+003, 1.905155e-002
2.287161e+003, 1.889481e-002
2.289090e+003, 1.815229e-002
2.291018e+003, 1.821314e-002
2.292947e+003, 1.810860e-002
2.294875e+003, 1.755071e-002
2.296804e+003, 1.735333e-002
2.298732e+003, 1.765192e-002
2.300661e+003, 1.781142e-002
2.302589e+003, 1.743340e-002
2.304518e+003, 1.721420e-002
2.306446e+003, 1.684121e-002
2.308375e+003, 1.646513e-002
2.310303e+003, 1.603669e-002
2.312231e+003, 1.620535e-002
2.314160e+003, 1.657338e-002
2.316088e+003, 1.660552e-002
2.318017e+003, 1.649532e-002
2.319945e+003, 1.661335e-002
2.321874e+003, 1.677896e-002
2.323802e+003, 1.663775e-002
2.325731e+003, 1.616070e-002
2.327659e+003, 1.569278e-002
2.329588e+003, 1.510584e-002
2.331516e+003, 1.478246e-002
2.333445e+003, 1.514304e-002
2.335373e+003, 1.584313e-002
2.337302e+003, 1.577275e-002
2.339230e+003, 1.535521e-002
2.341158e+003, 1.541817e-002
2.343087e+003, 1.571901e-002
2.345015e+003, 1.561531e-002
2.346944e+003, 1.567673e-002
2.348872e+003, 1.564375e-002
2.350801e+003, 1.573119e-002
2.352729e+003, 1.538354e-002
2.354658e+003, 1.537103e-002
2.356586e+003, 1.559001e-002
2.358515e+003, 1.508756e-002
2.360443e+003, 1.510540e-002
2.362372e+003, 1.546952e-002
2.364300e+003, 1.574729e-002
2.366229e+003, 1.571774e-002
2.368157e+003, 1.565808e-002
2.370085e+003, 1.573295e-002
2.372014e+003, 1.569256e-002
2.373942e+003, 1.590307e-002
2.375871e+003, 1.612419e-002
2.377799e+003, 1.639034e-002
2.379728e+003, 1.653038e-002
2.381656e+003, 1.645442e-002
2.383585e+003, 1.630648e-002
2.385513e+003, 1.665237e-002
2.387442e+003, 1.692678e-002
2.389370e+003, 1.701700e-002
2.391299e+003, 1.680798e-002
2.393227e+003, 1.660349e-002
2.395156e+003, 1.659545e-002
2.397084e+003, 1.632974e-002
2.399012e+003, 1.662210e-002
2.400941e+003, 1.699182e-002
2.402869e+003, 1.648131e-002
2.404798e+003, 1.667212e-002
2.406726e+003, 1.742839e-002
2.408655e+003, 1.767379e-002
2.410583e+003, 1.767066e-002
2.412512e+003, 1.752452e-002
2.414440e+003, 1.781285e-002
2.416369e+003, 1.820307e-002
2.418297e+003, 1.806906e-002
2.420226e+003, 1.747556e-002
2.422154e+003, 1.689168e-002
2.424083e+003, 1.745681e-002
2.426011e+003, 1.807097e-002
2.427939e+003, 1.800271e-002
2.429868e+003, 1.831643e-002
2.431796e+003, 1.886488e-002
2.433725e+003, 1.805373e-002
2.435653e+003, 1.802962e-002
2.437582e+003, 1.863326e-002
2.439510e+003, 1.899397e-002
2.441439e+003, 1.898962e-002
2.443367e+003, 1.897662e-002
2.445296e+003, 1.915994e-002
2.447224e+003, 1.878656e-002
2.449153e+003, 1.826841e-002
2.451081e+003, 1.856932e-002
2.453010e+003, 1.884085e-002
2.454938e+003, 1.881352e-002
2.456866e+003, 1.889493e-002
2.458795e+003, 1.908961e-002
2.460723e+003, 1.915931e-002
2.462652e+003, 1.880546e-002
2.464580e+003, 1.868939e-002
2.466509e+003, 1.903887e-002
2.468437e+003, 1.883592e-002
2.470366e+003, 1.839963e-002
2.472294e+003, 1.851431e-002
2.474223e+003, 1.901869e-002
2.476151e+003, 1.955237e-002
2.478080e+003, 1.948792e-002
2.480008e+003, 1.899647e-002
2.481937e+003, 1.902061e-002
2.483865e+003, 1.897478e-002
2.485793e+003, 1.898548e-002
2.487722e+003, 1.942628e-002
2.489650e+003, 1.993883e-002
2.491579e+003, 1.949771e-002
2.493507e+003, 1.892478e-002
2.495436e+003, 1.901110e-002
2.497364e+003, 1.915146e-002
2.499293e+003, 1.924446e-002
2.501221e+003, 1.892655e-002
2.503150e+003, 1.884033e-002
2.505078e+003, 1.923069e-002
2.507007e+003, 1.932508e-002
2.508935e+003, 1.906017e-002
2.510864e+003, 1.880094e-002
2.512792e+003, 1.861153e-002
2.514720e+003, 1.879682e-002
2.516649e+003, 1.901671e-002
2.518577e+003, 1.869055e-002
2.520506e+003, 1.867346e-002
2.522434e+003, 1.887503e-002
2.524363e+003, 1.872776e-002
2.526291e+003, 1.868622e-002
2.528220e+003, 1.919632e-002
2.530148e+003, 1.919885e-002
2.532077e+003, 1.909904e-002
2.534005e+003, 1.949485e-002
2.535934e+003, 1.973976e-002
2.537862e+003, 1.979264e-002
2.539791e+003, 1.997864e-002
2.541719e+003, 1.944090e-002
2.543647e+003, 1.939459e-002
2.545576e+003, 1.981092e-002
2.547504e+003, 1.986282e-002
2.549433e+003, 1.945683e-002
2.551361e+003, 1.958497e-002
2.553290e+003, 2.008808e-002
2.555218e+003, 2.031192e-002
2.557147e+003, 2.027160e-002
2.559075e+003, 2.059324e-002
2.561004e+003, 2.053757e-002
2.562932e+003, 2.044856e-002
2.564861e+003, 2.071544e-002
2.566789e+003, 2.114395e-002
2.568718e+003, 2.100637e-002
2.570646e+003, 2.114270e-002
2.572574e+003, 2.132730e-002
2.574503e+003, 2.094840e-002
2.576431e+003, 2.062237e-002
2.578360e+003, 2.074887e-002
2.580288e+003, 2.127493e-002
2.582217e+003, 2.158631e-002
2.584145e+003, 2.137013e-002
2.586074e+003, 2.119655e-002
2.588002e+003, 2.137842e-002
2.589931e+003, 2.185126e-002
2.591859e+003, 2.212151e-002
2.593788e+003, 2.226234e-002
2.595716e+003, 2.219631e-002
2.597645e+003, 2.194847e-002
2.599573e+003, 2.191343e-002
2.601501e+003, 2.189420e-002
2.603430e+003, 2.184293e-002
2.605358e+003, 2.221394e-002
2.607287e+003, 2.278086e-002
2.609215e+003, 2.318211e-002
2.611144e+003, 2.331576e-002
2.613072e+003, 2.328592e-002
2.615001e+003, 2.321124e-002
2.616929e+003, 2.340106e-002
2.618858e+003, 2.374451e-002
2.620786e+003, 2.377966e-002
2.622715e+003, 2.374662e-002
2.624643e+003, 2.374048e-002
2.626572e+003, 2.400154e-002
2.628500e+003, 2.434698e-002
2.630428e+003, 2.418593e-002
2.632357e+003, 2.423212e-002
2.634285e+003, 2.405620e-002
2.636214e+003, 2.390591e-002
2.638142e+003, 2.460497e-002
2.640071e+003, 2.500734e-002
2.641999e+003, 2.497126e-002
2.643928e+003, 2.523652e-002
2.645856e+003, 2.540514e-002
2.647785e+003, 2.530488e-002
2.649713e+003, 2.530182e-002
2.651642e+003, 2.539776e-002
2.653570e+003, 2.562508e-002
2.655499e+003, 2.575725e-002
2.657427e+003, 2.578312e-002
2.659355e+003, 2.596622e-002
2.661284e+003, 2.586091e-002
2.663212e+003, 2.558047e-002
2.665141e+003, 2.554376e-002
2.667069e+003, 2.573909e-002
2.668998e+003, 2.617343e-002
2.670926e+003, 2.655875e-002
2.672855e+003, 2.663606e-002
2.674783e+003, 2.659591e-002
2.676712e+003, 2.675986e-002
2.678640e+003, 2.712939e-002
2.680569e+003, 2.723107e-002
2.682497e+003, 2.709857e-002
2.684426e+003, 2.708470e-002
2.686354e+003, 2.760998e-002
2.688282e+003, 2.802125e-002
2.690211e+003, 2.809216e-002
2.692139e+003, 2.825450e-002
2.694068e+003, 2.827141e-002
2.695996e+003, 2.840944e-002
2.697925e+003, 2.883971e-002
2.699853e+003, 2.906200e-002
2.701782e+003, 2.894919e-002
2.703710e+003, 2.915952e-002
2.705639e+003, 2.972274e-002
2.707567e+003, 3.000456e-002
2.709496e+003, 3.008582e-002
2.711424e+003, 3.017945e-002
2.713353e+003, 3.050121e-002
2.715281e+003, 3.067731e-002
2.717209e+003, 3.065333e-002
2.719138e+003, 3.069934e-002
2.721066e+003, 3.119611e-002
2.722995e+003, 3.174255e-002
2.724923e+003, 3.197468e-002
2.726852e+003, 3.210576e-002
2.728780e+003, 3.232008e-002
2.730709e+003, 3.259962e-002
2.732637e+003, 3.281839e-002
2.734566e+003, 3.306488e-002
2.736494e+003, 3.333110e-002
2.738423e+003, 3.334718e-002
2.740351e+003, 3.359055e-002
2.742280e+003, 3.397074e-002
2.744208e+003, 3.445626e-002
2.746136e+003, 3.476739e-002
2.748065e+003, 3.493830e-002
2.749993e+003, 3.539824e-002
2.751922e+003, 3.599662e-002
2.753850e+003, 3.587032e-002
2.755779e+003, 3.602233e-002
2.757707e+003, 3.608376e-002
2.759636e+003, 3.616613e-002
2.761564e+003, 3.638941e-002
2.763493e+003, 3.683435e-002
2.765421e+003, 3.771489e-002
2.767350e+003, 3.836346e-002
2.769278e+003, 3.831277e-002
2.771207e+003, 3.844501e-002
2.773135e+003, 3.879674e-002
2.775063e+003, 3.933739e-002
2.776992e+003, 3.975342e-002
2.778920e+003, 4.007278e-002
2.780849e+003, 4.021578e-002
2.782777e+003, 4.045078e-002
2.784706e+003, 4.096600e-002
2.786634e+003, 4.122212e-002
2.788563e+003, 4.102065e-002
2.790491e+003, 4.146278e-002
2.792420e+003, 4.222650e-002
2.794348e+003, 4.287714e-002
2.796277e+003, 4.335835e-002
2.798205e+003, 4.351080e-002
2.800134e+003, 4.360345e-002
2.802062e+003, 4.423664e-002
2.803990e+003, 4.471210e-002
2.805919e+003, 4.484071e-002
2.807847e+003, 4.510313e-002
2.809776e+003, 4.578784e-002
2.811704e+003, 4.642976e-002
2.813633e+003, 4.678968e-002
2.815561e+003, 4.697691e-002
2.817490e+003, 4.752697e-002
2.819418e+003, 4.813635e-002
2.821347e+003, 4.843254e-002
2.823275e+003, 4.872292e-002
2.825204e+003, 4.919270e-002
2.827132e+003, 4.970610e-002
2.829061e+003, 5.018533e-002
2.830989e+003, 5.090028e-002
2.832917e+003, 5.120750e-002
2.834846e+003, 5.115566e-002
2.836774e+003, 5.157201e-002
2.838703e+003, 5.207531e-002
2.840631e+003, 5.234727e-002
2.842560e+003, 5.240471e-002
2.844488e+003, 5.257857e-002
2.846417e+003, 5.218443e-002
2.848345e+003, 5.194236e-002
2.850274e+003, 5.212927e-002
2.852202e+003, 5.223135e-002
2.854131e+003, 5.224166e-002
2.856059e+003, 5.304515e-002
2.857988e+003, 5.410063e-002
2.859916e+003, 5.546219e-002
2.861844e+003, 5.651046e-002
2.863773e+003, 5.731202e-002
2.865701e+003, 5.798385e-002
2.867630e+003, 5.841652e-002
2.869558e+003, 5.891320e-002
2.871487e+003, 5.974495e-002
2.873415e+003, 6.034416e-002
2.875344e+003, 6.099747e-002
2.877272e+003, 6.171612e-002
2.879201e+003, 6.203658e-002
2.881129e+003, 6.241791e-002
2.883058e+003, 6.265779e-002
2.884986e+003, 6.336024e-002
2.886915e+003, 6.426760e-002
2.888843e+003, 6.502568e-002
2.890771e+003, 6.519274e-002
2.892700e+003, 6.501190e-002
2.894628e+003, 6.511201e-002
2.896557e+003, 6.562108e-002
2.898485e+003, 6.619488e-002
2.900414e+003, 6.698538e-002
2.902342e+003, 6.730381e-002
2.904271e+003, 6.779976e-002
2.906199e+003, 6.862336e-002
2.908128e+003, 6.916931e-002
2.910056e+003, 6.959194e-002
2.911985e+003, 6.979551e-002
2.913913e+003, 6.999476e-002
2.915842e+003, 6.989902e-002
2.917770e+003, 6.993106e-002
2.919698e+003, 7.040296e-002
2.921627e+003, 7.042888e-002
2.923555e+003, 7.085691e-002
2.925484e+003, 7.188809e-002
2.927412e+003, 7.291128e-002
2.929341e+003, 7.372584e-002
2.931269e+003, 7.491080e-002
2.933198e+003, 7.641748e-002
2.935126e+003, 7.776095e-002
2.937055e+003, 7.895178e-002
2.938983e+003, 7.997217e-002
2.940912e+003, 8.140633e-002
2.942840e+003, 8.311698e-002
2.944769e+003, 8.456428e-002
2.946697e+003, 8.538605e-002
2.948625e+003, 8.612970e-002
2.950554e+003, 8.672865e-002
2.952482e+003, 8.750932e-002
2.954411e+003, 8.875617e-002
2.956339e+003, 8.969877e-002
2.958268e+003, 9.051099e-002
2.960196e+003, 9.211436e-002
2.962125e+003, 9.335107e-002
2.964053e+003, 9.408092e-002
2.965982e+003, 9.463711e-002
2.967910e+003, 9.543955e-002
2.969839e+003, 9.636228e-002
2.971767e+003, 9.701902e-002
2.973696e+003, 9.778474e-002
2.975624e+003, 9.891497e-002
2.977552e+003, 9.943185e-002
2.979481e+003, 9.983752e-002
2.981409e+003, 1.006518e-001
2.983338e+003, 1.015884e-001
2.985266e+003, 1.019557e-001
2.987195e+003, 1.021449e-001
2.989123e+003, 1.027464e-001
2.991052e+003, 1.034532e-001
2.992980e+003, 1.039517e-001
2.994909e+003, 1.045856e-001
2.996837e+003, 1.049255e-001
2.998766e+003, 1.050278e-001
3.000694e+003, 1.056279e-001
3.002623e+003, 1.065297e-001
3.004551e+003, 1.068373e-001
3.006479e+003, 1.067077e-001
3.008408e+003, 1.065914e-001
3.010336e+003, 1.071864e-001
3.012265e+003, 1.073880e-001
3.014193e+003, 1.072242e-001
3.016122e+003, 1.068804e-001
3.018050e+003, 1.076382e-001
3.019979e+003, 1.088967e-001
3.021907e+003, 1.088447e-001
3.023836e+003, 1.085059e-001
3.025764e+003, 1.087944e-001
3.027693e+003, 1.090788e-001
3.029621e+003, 1.095938e-001
3.031550e+003, 1.095744e-001
3.033478e+003, 1.095519e-001
3.035406e+003, 1.097363e-001
3.037335e+003, 1.102568e-001
3.039263e+003, 1.107677e-001
3.041192e+003, 1.113520e-001
3.043120e+003, 1.113875e-001
3.045049e+003, 1.108669e-001
3.046977e+003, 1.110788e-001
3.048906e+003, 1.114517e-001
3.050834e+003, 1.117092e-001
3.052763e+003, 1.120778e-001
3.054691e+003, 1.124601e-001
3.056620e+003, 1.127809e-001
3.058548e+003, 1.136071e-001
3.060477e+003, 1.142215e-001
3.062405e+003, 1.146345e-001
3.064333e+003, 1.151158e-001
3.066262e+003, 1.153848e-001
3.068190e+003, 1.163159e-001
3.070119e+003, 1.178391e-001
3.072047e+003, 1.186944e-001
3.073976e+003, 1.191100e-001
3.075904e+003, 1.193655e-001
3.077833e+003, 1.205538e-001
3.079761e+003, 1.220302e-001
3.081690e+003, 1.227591e-001
3.083618e+003, 1.241429e-001
3.085547e+003, 1.253728e-001
3.087475e+003, 1.269777e-001
3.089404e+003, 1.282776e-001
3.091332e+003, 1.290558e-001
3.093260e+003, 1.309521e-001
3.095189e+003, 1.333459e-001
3.097117e+003, 1.349524e-001
3.099046e+003, 1.365295e-001
3.100974e+003, 1.386758e-001
3.102903e+003, 1.406921e-001
3.104831e+003, 1.422360e-001
3.106760e+003, 1.443073e-001
3.108688e+003, 1.464477e-001
3.110617e+003, 1.478719e-001
3.112545e+003, 1.493245e-001
3.114474e+003, 1.516155e-001
3.116402e+003, 1.535699e-001
3.118331e+003, 1.550714e-001
3.120259e+003, 1.566352e-001
3.122188e+003, 1.584463e-001
3.124116e+003, 1.596013e-001
3.126044e+003, 1.602287e-001
3.127973e+003, 1.610942e-001
3.129901e+003, 1.617578e-001
3.131830e+003, 1.615748e-001
3.133758e+003, 1.609432e-001
3.135687e+003, 1.601539e-001
3.137615e+003, 1.592303e-001
3.139544e+003, 1.587300e-001
3.141472e+003, 1.579870e-001
3.143401e+003, 1.562430e-001
3.145329e+003, 1.544797e-001
3.147258e+003, 1.526795e-001
3.149186e+003, 1.511082e-001
3.151115e+003, 1.495965e-001
3.153043e+003, 1.483612e-001
3.154971e+003, 1.469847e-001
3.156900e+003, 1.453386e-001
3.158828e+003, 1.436798e-001
3.160757e+003, 1.423047e-001
3.162685e+003, 1.414043e-001
3.164614e+003, 1.403460e-001
3.166542e+003, 1.388315e-001
3.168471e+003, 1.380900e-001
3.170399e+003, 1.375039e-001
3.172328e+003, 1.369164e-001
3.174256e+003, 1.369666e-001
3.176185e+003, 1.364543e-001
3.178113e+003, 1.356674e-001
3.180042e+003, 1.352339e-001
3.181970e+003, 1.353539e-001
3.183898e+003, 1.350523e-001
3.185827e+003, 1.343420e-001
3.187755e+003, 1.348566e-001
3.189684e+003, 1.350592e-001
3.191612e+003, 1.347093e-001
3.193541e+003, 1.346182e-001
3.195469e+003, 1.351413e-001
3.197398e+003, 1.356882e-001
3.199326e+003, 1.355320e-001
3.201255e+003, 1.353687e-001
3.203183e+003, 1.355097e-001
3.205112e+003, 1.353047e-001
3.207040e+003, 1.345015e-001
3.208969e+003, 1.346126e-001
3.210897e+003, 1.355660e-001
3.212825e+003, 1.360448e-001
3.214754e+003, 1.360150e-001
3.216682e+003, 1.357193e-001
3.218611e+003, 1.357361e-001
3.220539e+003, 1.362943e-001
3.222468e+003, 1.366547e-001
3.224396e+003, 1.366535e-001
3.226325e+003, 1.362487e-001
3.228253e+003, 1.364458e-001
3.230182e+003, 1.368789e-001
3.232110e+003, 1.371424e-001
3.234039e+003, 1.372309e-001
3.235967e+003, 1.369058e-001
3.237896e+003, 1.365228e-001
3.239824e+003, 1.370254e-001
3.241752e+003, 1.381313e-001
3.243681e+003, 1.381333e-001
3.245609e+003, 1.381391e-001
3.247538e+003, 1.388603e-001
3.249466e+003, 1.389856e-001
3.251395e+003, 1.396233e-001
3.253323e+003, 1.405922e-001
3.255252e+003, 1.411267e-001
3.257180e+003, 1.415715e-001
3.259109e+003, 1.425460e-001
3.261037e+003, 1.434394e-001
3.262966e+003, 1.446085e-001
3.264894e+003, 1.454478e-001
3.266823e+003, 1.463833e-001
3.268751e+003, 1.471061e-001
3.270679e+003, 1.478195e-001
3.272608e+003, 1.493622e-001
3.274536e+003, 1.510168e-001
3.276465e+003, 1.521602e-001
3.278393e+003, 1.531100e-001
3.280322e+003, 1.538982e-001
3.282250e+003, 1.548356e-001
3.284179e+003, 1.564621e-001
3.286107e+003, 1.576373e-001
3.288036e+003, 1.584695e-001
3.289964e+003, 1.587338e-001
3.291893e+003, 1.591517e-001
3.293821e+003, 1.599909e-001
3.295750e+003, 1.605040e-001
3.297678e+003, 1.606678e-001
3.299606e+003, 1.607303e-001
3.301535e+003, 1.601131e-001
3.303463e+003, 1.593469e-001
3.305392e+003, 1.591348e-001
3.307320e+003, 1.585269e-001
3.309249e+003, 1.578093e-001
3.311177e+003, 1.571852e-001
3.313106e+003, 1.554743e-001
3.315034e+003, 1.539491e-001
3.316963e+003, 1.520714e-001
3.318891e+003, 1.496586e-001
3.320820e+003, 1.478359e-001
3.322748e+003, 1.463202e-001
3.324677e+003, 1.449700e-001
3.326605e+003, 1.432989e-001
3.328533e+003, 1.406672e-001
3.330462e+003, 1.384564e-001
3.332390e+003, 1.365277e-001
3.334319e+003, 1.339490e-001
3.336247e+003, 1.318321e-001
3.338176e+003, 1.300706e-001
3.340104e+003, 1.276913e-001
3.342033e+003, 1.257785e-001
3.343961e+003, 1.238466e-001
3.345890e+003, 1.215356e-001
3.347818e+003, 1.198680e-001
3.349747e+003, 1.185385e-001
3.351675e+003, 1.166438e-001
3.353604e+003, 1.152304e-001
3.355532e+003, 1.137615e-001
3.357460e+003, 1.119179e-001
3.359389e+003, 1.107996e-001
3.361317e+003, 1.087840e-001
3.363246e+003, 1.065442e-001
3.365174e+003, 1.050751e-001
3.367103e+003, 1.039543e-001
3.369031e+003, 1.031207e-001
3.370960e+003, 1.019100e-001
3.372888e+003, 9.984732e-002
3.374817e+003, 9.866243e-002
3.376745e+003, 9.853883e-002
3.378674e+003, 9.773408e-002
3.380602e+003, 9.602036e-002
3.382531e+003, 9.475954e-002
3.384459e+003, 9.393745e-002
3.386387e+003, 9.294639e-002
3.388316e+003, 9.197042e-002
3.390244e+003, 9.147008e-002
3.392173e+003, 9.074976e-002
3.394101e+003, 9.012409e-002
3.396030e+003, 8.969635e-002
3.397958e+003, 8.954823e-002
3.399887e+003, 8.916046e-002
3.401815e+003, 8.894517e-002
3.403744e+003, 8.959670e-002
3.405672e+003, 8.991762e-002
3.407601e+003, 9.023995e-002
3.409529e+003, 9.097894e-002
3.411458e+003, 9.131687e-002
3.413386e+003, 9.230939e-002
3.415314e+003, 9.340447e-002
3.417243e+003, 9.422828e-002
3.419171e+003, 9.529313e-002
3.421100e+003, 9.679831e-002
3.423028e+003, 9.837754e-002
3.424957e+003, 9.998126e-002
3.426885e+003, 1.011393e-001
3.428814e+003, 1.027467e-001
3.430742e+003, 1.054648e-001
3.432671e+003, 1.074326e-001
3.434599e+003, 1.092873e-001
3.436528e+003, 1.108685e-001
3.438456e+003, 1.114962e-001
3.440385e+003, 1.122256e-001
3.442313e+003, 1.135591e-001
3.444241e+003, 1.150001e-001
3.446170e+003, 1.149401e-001
3.448098e+003, 1.148695e-001
3.450027e+003, 1.140242e-001
3.451955e+003, 1.126062e-001
3.453884e+003, 1.101437e-001
3.455812e+003, 1.066305e-001
3.457741e+003, 1.033226e-001
3.459669e+003, 9.922741e-002
3.461598e+003, 9.415759e-002
3.463526e+003, 8.980199e-002
3.465455e+003, 8.513850e-002
3.467383e+003, 7.921948e-002
3.469312e+003, 7.357166e-002
3.471240e+003, 6.868111e-002
3.473168e+003, 6.387618e-002
3.475097e+003, 5.960650e-002
3.477025e+003, 5.584523e-002
3.478954e+003, 5.251332e-002
3.480882e+003, 4.858219e-002
3.482811e+003, 4.536375e-002
3.484739e+003, 4.324793e-002
3.486668e+003, 4.099735e-002
3.488596e+003, 3.838494e-002
3.490525e+003, 3.658509e-002
3.492453e+003, 3.516264e-002
3.494382e+003, 3.370199e-002
3.496310e+003, 3.223867e-002
3.498239e+003, 3.103079e-002
3.500167e+003, 2.981402e-002
3.502095e+003, 2.802920e-002
3.504024e+003, 2.716237e-002
3.505952e+003, 2.667636e-002
3.507881e+003, 2.633815e-002
3.509809e+003, 2.507525e-002
3.511738e+003, 2.444381e-002
3.513666e+003, 2.343882e-002
3.515595e+003, 2.267345e-002
3.517523e+003, 2.216944e-002
3.519452e+003, 2.096381e-002
3.521380e+003, 1.984155e-002
3.523309e+003, 1.973084e-002
3.525237e+003, 1.938285e-002
3.527166e+003, 1.913040e-002
3.529094e+003, 1.856425e-002
3.531022e+003, 1.845861e-002
3.532951e+003, 1.854072e-002
3.534879e+003, 1.776050e-002
3.536808e+003, 1.708466e-002
3.538736e+003, 1.737987e-002
3.540665e+003, 1.743350e-002
3.542593e+003, 1.685429e-002
3.544522e+003, 1.614259e-002
3.546450e+003, 1.538805e-002
3.548379e+003, 1.449983e-002
3.550307e+003, 1.486291e-002
3.552236e+003, 1.510679e-002
3.554164e+003, 1.410871e-002
3.556093e+003, 1.323256e-002
3.558021e+003, 1.305132e-002
3.559949e+003, 1.323361e-002
3.561878e+003, 1.391881e-002
3.563806e+003, 1.411318e-002
3.565735e+003, 1.296194e-002
3.567663e+003, 1.233615e-002
3.569592e+003, 1.218725e-002
3.571520e+003, 1.166082e-002
3.573449e+003, 1.161943e-002
3.575377e+003, 1.149862e-002
3.577306e+003, 1.106869e-002
3.579234e+003, 1.099143e-002
3.581163e+003, 1.143897e-002
3.583091e+003, 1.130772e-002
3.585020e+003, 1.000114e-002
3.586948e+003, 1.010747e-002
3.588876e+003, 1.068919e-002
3.590805e+003, 1.031165e-002
3.592733e+003, 1.017151e-002
3.594662e+003, 9.876217e-003
3.596590e+003, 8.998097e-003
3.598519e+003, 8.605621e-003
3.600447e+003, 9.255936e-003
3.602376e+003, 9.508751e-003
3.604304e+003, 9.365343e-003
3.606233e+003, 8.947210e-003
3.608161e+003, 8.277875e-003
3.610090e+003, 7.696963e-003
3.612018e+003, 7.688592e-003
3.613947e+003, 7.588855e-003
3.615875e+003, 7.625194e-003
3.617803e+003, 7.835604e-003
3.619732e+003, 7.383424e-003
3.621660e+003, 7.094785e-003
3.623589e+003, 7.438509e-003
3.625517e+003, 7.849035e-003
3.627446e+003, 8.132614e-003
3.629374e+003, 7.746473e-003
3.631303e+003, 7.612397e-003
3.633231e+003, 7.958218e-003
3.635160e+003, 7.804961e-003
3.637088e+003, 6.682787e-003
3.639017e+003, 6.671586e-003
3.640945e+003, 6.883744e-003
3.642874e+003, 6.555056e-003
3.644802e+003, 6.881603e-003
3.646730e+003, 7.291610e-003
3.648659e+003, 6.878377e-003
3.650587e+003, 6.621853e-003
3.652516e+003, 6.275186e-003
3.654444e+003, 6.378062e-003
3.656373e+003, 6.882783e-003
3.658301e+003, 6.611316e-003
3.660230e+003, 6.003862e-003
3.662158e+003, 5.602228e-003
3.664087e+003, 5.651868e-003
3.666015e+003, 6.160944e-003
3.667944e+003, 6.674958e-003
3.669872e+003, 7.098464e-003
3.671801e+003, 6.391522e-003
3.673729e+003, 5.871112e-003
3.675657e+003, 6.022104e-003
3.677586e+003, 6.499309e-003
3.679514e+003, 6.303599e-003
3.681443e+003, 6.702615e-003
3.683371e+003, 6.613631e-003
3.685300e+003, 6.742530e-003
3.687228e+003, 6.231393e-003
3.689157e+003, 5.756656e-003
3.691085e+003, 5.642119e-003
3.693014e+003, 5.533238e-003
3.694942e+003, 5.610823e-003
3.696871e+003, 5.997817e-003
3.698799e+003, 6.873966e-003
3.700728e+003, 7.197532e-003
3.702656e+003, 6.880059e-003
3.704584e+003, 6.523769e-003
3.706513e+003, 6.793777e-003
3.708441e+003, 7.014154e-003
3.710370e+003, 7.001535e-003
3.712298e+003, 6.898695e-003
3.714227e+003, 7.045310e-003
3.716155e+003, 7.342826e-003
3.718084e+003, 7.305832e-003
3.720012e+003, 7.285014e-003
3.721941e+003, 7.692430e-003
3.723869e+003, 7.979030e-003
3.725798e+003, 8.300656e-003
3.727726e+003, 7.745811e-003
3.729655e+003, 7.514918e-003
3.731583e+003, 7.439467e-003
3.733511e+003, 6.865066e-003
3.735440e+003, 6.677995e-003
3.737368e+003, 7.161226e-003
3.739297e+003, 7.857440e-003
3.741225e+003, 8.126462e-003
3.743154e+003, 7.059062e-003
3.745082e+003, 7.121038e-003
3.747011e+003, 7.732563e-003
3.748939e+003, 7.732814e-003
3.750868e+003, 7.528543e-003
3.752796e+003, 7.270252e-003
3.754725e+003, 7.242768e-003
3.756653e+003, 7.705003e-003
3.758582e+003, 7.632532e-003
3.760510e+003, 7.671494e-003
3.762438e+003, 8.635129e-003
3.764367e+003, 8.631431e-003
3.766295e+003, 7.533775e-003
3.768224e+003, 7.129313e-003
3.770152e+003, 6.864746e-003
3.772081e+003, 6.605121e-003
3.774009e+003, 7.156490e-003
3.775938e+003, 7.297650e-003
3.777866e+003, 7.492153e-003
3.779795e+003, 7.754792e-003
3.781723e+003, 7.494553e-003
3.783652e+003, 7.535283e-003
3.785580e+003, 7.273715e-003
3.787509e+003, 7.137018e-003
3.789437e+003, 7.255446e-003
3.791365e+003, 7.678132e-003
3.793294e+003, 8.611416e-003
3.795222e+003, 8.308570e-003
3.797151e+003, 7.837809e-003
3.799079e+003, 8.666914e-003
3.801008e+003, 9.046119e-003
3.802936e+003, 9.202036e-003
3.804865e+003, 8.289553e-003
3.806793e+003, 7.401452e-003
3.808722e+003, 8.095614e-003
3.810650e+003, 8.414299e-003
3.812579e+003, 7.726777e-003
3.814507e+003, 7.450616e-003
3.816436e+003, 7.475520e-003
3.818364e+003, 7.023832e-003
3.820292e+003, 7.257503e-003
3.822221e+003, 7.605584e-003
3.824149e+003, 8.069155e-003
3.826078e+003, 8.044747e-003
3.828006e+003, 7.856902e-003
3.829935e+003, 7.506886e-003
3.831863e+003, 7.462773e-003
3.833792e+003, 8.174628e-003
3.835720e+003, 8.545390e-003
3.837649e+003, 8.902386e-003
3.839577e+003, 8.635028e-003
3.841506e+003, 8.023083e-003
3.843434e+003, 7.838188e-003
3.845363e+003, 7.381256e-003
3.847291e+003, 7.022583e-003
3.849219e+003, 6.651590e-003
3.851148e+003, 7.312848e-003
3.853076e+003, 8.305500e-003
3.855005e+003, 8.431398e-003
3.856933e+003, 8.767484e-003
3.858862e+003, 9.107154e-003
3.860790e+003, 8.388576e-003
3.862719e+003, 8.449055e-003
3.864647e+003, 9.018658e-003
3.866576e+003, 9.278419e-003
3.868504e+003, 8.763885e-003
3.870433e+003, 8.451494e-003
3.872361e+003, 8.591294e-003
3.874290e+003, 9.686816e-003
3.876218e+003, 9.407944e-003
3.878146e+003, 8.727314e-003
3.880075e+003, 9.113918e-003
3.882003e+003, 8.714158e-003
3.883932e+003, 8.319682e-003
3.885860e+003, 8.711603e-003
3.887789e+003, 8.611136e-003
3.889717e+003, 8.114374e-003
3.891646e+003, 8.197110e-003
3.893574e+003, 8.157706e-003
3.895503e+003, 8.479344e-003
3.897431e+003, 9.521604e-003
3.899360e+003, 9.633711e-003
3.901288e+003, 9.043648e-003
3.903217e+003, 9.134944e-003
3.905145e+003, 9.389195e-003
3.907073e+003, 9.223669e-003
3.909002e+003, 9.024108e-003
3.910930e+003, 1.012464e-002
3.912859e+003, 1.088596e-002
3.914787e+003, 1.017383e-002
3.916716e+003, 9.236581e-003
3.918644e+003, 9.105076e-003
3.920573e+003, 8.948375e-003
3.922501e+003, 8.135805e-003
3.924430e+003, 8.177935e-003
3.926358e+003, 9.481663e-003
3.928287e+003, 9.738932e-003
3.930215e+003, 9.160446e-003
3.932144e+003, 8.142159e-003
3.934072e+003, 8.861941e-003
3.936000e+003, 9.521193e-003
3.937929e+003, 9.425600e-003
3.939857e+003, 9.771239e-003
3.941786e+003, 9.533932e-003
3.943714e+003, 9.713490e-003
3.945643e+003, 1.063540e-002
3.947571e+003, 1.109696e-002
3.949500e+003, 1.056661e-002
3.951428e+003, 9.812611e-003
3.953357e+003, 9.067240e-003
3.955285e+003, 8.772473e-003
3.957214e+003, 8.563750e-003
3.959142e+003, 8.767801e-003
3.961071e+003, 1.030514e-002
3.962999e+003, 9.584373e-003
3.964927e+003, 8.157675e-003
3.966856e+003, 9.093853e-003
3.968784e+003, 1.004814e-002
3.970713e+003, 1.003552e-002
3.972641e+003, 1.036905e-002
3.974570e+003, 1.053401e-002
3.976498e+003, 9.338315e-003
3.978427e+003, 9.215878e-003
3.980355e+003, 9.673590e-003
3.982284e+003, 9.011757e-003
3.984212e+003, 8.874135e-003
3.986141e+003, 9.014389e-003
3.988069e+003, 9.195969e-003
3.989998e+003, 9.628695e-003
3.991926e+003, 9.687494e-003
3.993854e+003, 8.964235e-003
3.995783e+003, 8.776541e-003
3.997711e+003, 9.335496e-003
3.999640e+003, 9.592128e-003
##END=



