##NAMES=Paragonite
##RRUFFID=R050447
##IDEAL CHEMISTRY=NaAl_2_(Si_3_Al)O_10_(OH)_2_
##LOCALITY=Switzerland
##OWNER=RRUFF
##SOURCE=Marcus Origlieri
##DESCRIPTION=White massive
##STATUS=The identification of this mineral has been confirmed by X-ray diffraction and chemical analysis
##URL=rruff.info/R050447
##MEASURED CHEMISTRY=(Na_0.81_K_0.17_Ca_0.02_)Al_2.00_(Si_2.98_Al_0.02_)O_10_(OH)_2_
399.1926, 0.1883162
401.1211, 0.1898179
403.0496, 0.1907305
404.9780, 0.1922468
406.9065, 0.1960502
408.8350, 0.1961218
410.7634, 0.1956841
412.6919, 0.1978671
414.6204, 0.1993710
416.5488, 0.1961959
418.4773, 0.1916142
420.4058, 0.1922148
422.3342, 0.1961598
424.2627, 0.1960822
426.1912, 0.1959327
428.1196, 0.2003682
430.0481, 0.2070567
431.9766, 0.2093605
433.9050, 0.2068904
435.8335, 0.2068742
437.7620, 0.2134193
439.6904, 0.2175999
441.6189, 0.2179956
443.5474, 0.2194648
445.4758, 0.2215552
447.4043, 0.2224251
449.3328, 0.2260633
451.2612, 0.2310156
453.1897, 0.2332573
455.1182, 0.2357466
457.0466, 0.2414088
458.9751, 0.2464355
460.9036, 0.2480331
462.8320, 0.2489462
464.7605, 0.2511776
466.6890, 0.2567928
468.6174, 0.2590106
470.5459, 0.2578860
472.4744, 0.2599564
474.4028, 0.2612749
476.3313, 0.2597938
478.2598, 0.2603407
480.1882, 0.2597189
482.1167, 0.2559452
484.0452, 0.2518991
485.9736, 0.2462910
487.9021, 0.2391980
489.8306, 0.2323302
491.7590, 0.2271924
493.6875, 0.2206285
495.6160, 0.2135488
497.5444, 0.2079495
499.4729, 0.2019462
501.4014, 0.1964748
503.3298, 0.1929525
505.2583, 0.1924235
507.1868, 0.1933376
509.1152, 0.1954423
511.0437, 0.1989718
512.9722, 0.2032792
514.9006, 0.2071195
516.8291, 0.2104435
518.7576, 0.2133207
520.6860, 0.2160728
522.6145, 0.2188243
524.5430, 0.2217373
526.4714, 0.2247457
528.3999, 0.2280725
530.3284, 0.2327668
532.2568, 0.2366797
534.1853, 0.2380010
536.1138, 0.2381028
538.0422, 0.2379504
539.9707, 0.2336250
541.8992, 0.2260721
543.8276, 0.2182665
545.7561, 0.2099169
547.6846, 0.2010974
549.6130, 0.1913809
551.5415, 0.1810141
553.4700, 0.1712231
555.3984, 0.1625829
557.3269, 0.1535423
559.2554, 0.1454738
561.1838, 0.1373075
563.1123, 0.1292218
565.0408, 0.1214500
566.9692, 0.1146110
568.8977, 0.1087172
570.8262, 0.1029110
572.7546, 9.7785763E-02
574.6831, 9.4324537E-02
576.6116, 9.1585606E-02
578.5400, 8.9431912E-02
580.4685, 8.7684229E-02
582.3970, 8.6272523E-02
584.3254, 8.5289590E-02
586.2539, 8.4284373E-02
588.1824, 8.2315437E-02
590.1108, 8.0869444E-02
592.0393, 7.9321869E-02
593.9678, 7.7119567E-02
595.8962, 7.4517287E-02
597.8247, 7.1382523E-02
599.7532, 6.8293400E-02
601.6816, 6.5031737E-02
603.6101, 6.1455488E-02
605.5386, 5.8565821E-02
607.4670, 5.5387840E-02
609.3955, 5.2829780E-02
611.3240, 5.0934799E-02
613.2524, 4.8964281E-02
615.1809, 4.7323439E-02
617.1094, 4.5448631E-02
619.0378, 4.3900501E-02
620.9663, 4.2974051E-02
622.8948, 4.2697839E-02
624.8232, 4.2593401E-02
626.7517, 4.2669520E-02
628.6802, 4.3082319E-02
630.6086, 4.3582130E-02
632.5371, 4.3615852E-02
634.4656, 4.4013482E-02
636.3940, 4.4518009E-02
638.3225, 4.4304840E-02
640.2510, 4.4022191E-02
642.1794, 4.3757372E-02
644.1079, 4.3355599E-02
646.0364, 4.3107521E-02
647.9648, 4.2876210E-02
649.8933, 4.2471390E-02
651.8218, 4.2440049E-02
653.7502, 4.2587649E-02
655.6787, 4.2645510E-02
657.6072, 4.3170780E-02
659.5356, 4.3922219E-02
661.4641, 4.4796590E-02
663.3926, 4.6223741E-02
665.3210, 4.8239861E-02
667.2495, 5.0148129E-02
669.1780, 5.2334271E-02
671.1064, 5.4992501E-02
673.0349, 5.7951409E-02
674.9634, 6.1075520E-02
676.8918, 6.4173348E-02
678.8203, 6.6992201E-02
680.7488, 6.9898739E-02
682.6772, 7.3044837E-02
684.6057, 7.5984932E-02
686.5342, 7.8486092E-02
688.4626, 8.0656253E-02
690.3911, 8.2851224E-02
692.3196, 8.5347243E-02
694.2480, 8.7497517E-02
696.1765, 8.8733651E-02
698.1050, 8.9660160E-02
700.0334, 9.1020927E-02
701.9619, 9.2521250E-02
703.8904, 9.3892731E-02
705.8188, 9.5278963E-02
707.7473, 9.7552642E-02
709.6758, 0.1004719
711.6042, 0.1038532
713.5327, 0.1074136
715.4612, 0.1112027
717.3896, 0.1155434
719.3181, 0.1198579
721.2466, 0.1236335
723.1750, 0.1258433
725.1035, 0.1261006
727.0320, 0.1251055
728.9604, 0.1235799
730.8889, 0.1226727
732.8174, 0.1226069
734.7458, 0.1231148
736.6743, 0.1242939
738.6028, 0.1262551
740.5313, 0.1287096
742.4597, 0.1307447
744.3882, 0.1319094
746.3167, 0.1324075
748.2451, 0.1323832
750.1736, 0.1316621
752.1021, 0.1298128
754.0305, 0.1271775
755.9590, 0.1242371
757.8875, 0.1205160
759.8159, 0.1166027
761.7444, 0.1123172
763.6729, 0.1076029
765.6013, 0.1030418
767.5298, 9.8811351E-02
769.4583, 9.5080808E-02
771.3867, 9.1699861E-02
773.3152, 8.8841163E-02
775.2437, 8.6749397E-02
777.1721, 8.5331433E-02
779.1006, 8.4810384E-02
781.0291, 8.4885128E-02
782.9575, 8.6056463E-02
784.8860, 8.7890267E-02
786.8145, 8.9949377E-02
788.7429, 9.2718720E-02
790.6714, 9.5994681E-02
792.5999, 0.1000534
794.5283, 0.1048605
796.4568, 0.1100039
798.3853, 0.1153780
800.3137, 0.1204301
802.2422, 0.1244173
804.1707, 0.1276257
806.0991, 0.1292683
808.0276, 0.1301382
809.9561, 0.1308205
811.8845, 0.1309398
813.8130, 0.1307284
815.7415, 0.1303210
817.6699, 0.1298181
819.5984, 0.1292360
821.5269, 0.1280759
823.4553, 0.1268992
825.3838, 0.1253477
827.3123, 0.1235524
829.2407, 0.1213960
831.1692, 0.1184675
833.0977, 0.1151872
835.0261, 0.1111491
836.9546, 0.1063500
838.8831, 0.1020438
840.8115, 9.8808818E-02
842.7400, 9.6458003E-02
844.6685, 9.6030511E-02
846.5969, 9.8025747E-02
848.5254, 0.1021617
850.4539, 0.1082778
852.3823, 0.1159474
854.3108, 0.1249121
856.2393, 0.1340161
858.1677, 0.1437812
860.0962, 0.1546074
862.0247, 0.1649974
863.9531, 0.1746484
865.8816, 0.1839116
867.8101, 0.1925612
869.7385, 0.2002395
871.6670, 0.2067762
873.5955, 0.2121025
875.5239, 0.2172166
877.4524, 0.2214833
879.3809, 0.2252439
881.3093, 0.2291335
883.2378, 0.2332263
885.1663, 0.2372202
887.0947, 0.2414427
889.0232, 0.2466017
890.9517, 0.2521163
892.8801, 0.2574070
894.8085, 0.2634451
896.7370, 0.2699374
898.6655, 0.2762208
900.5939, 0.2823401
902.5224, 0.2876651
904.4509, 0.2924615
906.3793, 0.2962051
908.3078, 0.2990132
910.2363, 0.3008556
912.1647, 0.3019049
914.0932, 0.3021442
916.0217, 0.3023617
917.9501, 0.3027360
919.8786, 0.3027499
921.8071, 0.3033294
923.7355, 0.3039919
925.6640, 0.3040030
927.5925, 0.3038427
929.5209, 0.3036367
931.4494, 0.3032235
933.3779, 0.3031124
935.3063, 0.3023738
937.2348, 0.3013578
939.1633, 0.3007197
941.0917, 0.3007647
943.0202, 0.3007345
944.9487, 0.3008000
946.8771, 0.3011569
948.8056, 0.3025586
950.7341, 0.3041781
952.6625, 0.3049876
954.5910, 0.3056636
956.5195, 0.3059910
958.4479, 0.3060606
960.3764, 0.3053963
962.3049, 0.3043251
964.2333, 0.3032506
966.1618, 0.3021783
968.0903, 0.3006126
970.0187, 0.2983864
971.9472, 0.2960944
973.8757, 0.2935605
975.8041, 0.2909116
977.7326, 0.2879740
979.6611, 0.2851110
981.5895, 0.2827318
983.5180, 0.2800616
985.4465, 0.2766100
987.3749, 0.2734137
989.3034, 0.2702301
991.2319, 0.2669576
993.1603, 0.2635086
995.0888, 0.2596219
997.0173, 0.2551872
998.9457, 0.2506180
1000.874, 0.2460231
1002.803, 0.2411275
1004.731, 0.2364626
1006.660, 0.2322252
1008.588, 0.2283259
1010.517, 0.2239801
1012.445, 0.2196841
1014.373, 0.2150183
1016.302, 0.2104569
1018.230, 0.2063389
1020.159, 0.2020168
1022.087, 0.1970786
1024.016, 0.1920942
1025.944, 0.1872992
1027.873, 0.1819116
1029.801, 0.1763746
1031.730, 0.1710504
1033.658, 0.1653035
1035.587, 0.1593414
1037.515, 0.1534026
1039.444, 0.1479012
1041.372, 0.1425827
1043.301, 0.1375381
1045.229, 0.1325998
1047.157, 0.1278880
1049.086, 0.1241470
1051.014, 0.1206942
1052.943, 0.1170902
1054.871, 0.1137610
1056.800, 0.1104931
1058.728, 0.1071736
1060.657, 0.1040699
1062.585, 0.1009650
1064.514, 9.8102428E-02
1066.442, 9.5248230E-02
1068.371, 9.2072397E-02
1070.299, 8.9066178E-02
1072.228, 8.6336017E-02
1074.156, 8.3512247E-02
1076.084, 8.0763482E-02
1078.013, 7.8180358E-02
1079.941, 7.5674541E-02
1081.870, 7.3388189E-02
1083.798, 7.0822932E-02
1085.727, 6.8065010E-02
1087.655, 6.5754078E-02
1089.584, 6.3202970E-02
1091.512, 6.0667180E-02
1093.441, 5.8216501E-02
1095.369, 5.5529490E-02
1097.298, 5.3274989E-02
1099.226, 5.1055480E-02
1101.155, 4.8635408E-02
1103.083, 4.6333160E-02
1105.011, 4.4309169E-02
1106.940, 4.2050000E-02
1108.868, 3.9632179E-02
1110.797, 3.7271161E-02
1112.725, 3.5299931E-02
1114.654, 3.3485800E-02
1116.582, 3.1405389E-02
1118.511, 2.9126940E-02
1120.439, 2.7369849E-02
1122.368, 2.5665609E-02
1124.296, 2.3868021E-02
1126.225, 2.2284230E-02
1128.153, 2.0938700E-02
1130.082, 2.0031950E-02
1132.010, 1.8768789E-02
1133.938, 1.7440740E-02
1135.867, 1.6418330E-02
1137.795, 1.5705921E-02
1139.724, 1.5061850E-02
1141.652, 1.4257920E-02
1143.581, 1.3508980E-02
1145.509, 1.2973030E-02
1147.438, 1.2358720E-02
1149.366, 1.1883350E-02
1151.295, 1.1487520E-02
1153.223, 1.1262810E-02
1155.152, 1.0782120E-02
1157.080, 9.9745169E-03
1159.009, 9.5704859E-03
1160.937, 9.5385024E-03
1162.865, 9.3534216E-03
1164.794, 8.9084432E-03
1166.722, 8.3073443E-03
1168.651, 7.8754136E-03
1170.579, 7.8039980E-03
1172.508, 7.6205460E-03
1174.436, 7.0758732E-03
1176.365, 6.8637282E-03
1178.293, 6.9716568E-03
1180.222, 6.8695061E-03
1182.150, 6.7944741E-03
1184.079, 6.5719648E-03
1186.007, 6.6008992E-03
1187.936, 6.3615958E-03
1189.864, 6.2685562E-03
1191.792, 6.1763600E-03
1193.721, 5.8187111E-03
1195.649, 5.5748099E-03
1197.578, 5.4502948E-03
1199.506, 5.5507328E-03
1201.435, 5.8516022E-03
1203.363, 5.5375099E-03
1205.292, 5.0786822E-03
1207.220, 4.8156590E-03
1209.149, 4.6426039E-03
1211.077, 4.6062870E-03
1213.006, 4.3510748E-03
1214.934, 4.2217909E-03
1216.863, 4.2351591E-03
1218.791, 4.3521612E-03
1220.719, 4.4530970E-03
1222.648, 4.3156552E-03
1224.576, 4.1641369E-03
1226.505, 4.1471040E-03
1228.433, 4.2377650E-03
1230.362, 4.3310048E-03
1232.290, 4.4178199E-03
1234.219, 4.3260711E-03
1236.147, 4.1189892E-03
1238.076, 3.9412430E-03
1240.004, 4.0419619E-03
1241.933, 4.1291849E-03
1243.861, 4.0799072E-03
1245.790, 4.0345788E-03
1247.718, 3.9783930E-03
1249.646, 3.9175581E-03
1251.575, 3.8380651E-03
1253.503, 3.7096860E-03
1255.432, 3.7706799E-03
1257.360, 3.8030280E-03
1259.289, 3.6835379E-03
1261.217, 3.5871649E-03
1263.146, 3.7595441E-03
1265.074, 4.0672608E-03
1267.003, 4.0849238E-03
1268.931, 4.0648370E-03
1270.860, 4.0340251E-03
1272.788, 3.9218469E-03
1274.717, 3.6689681E-03
1276.645, 3.5898311E-03
1278.573, 3.6164881E-03
1280.502, 3.5749259E-03
1282.430, 3.4914061E-03
1284.359, 3.5658211E-03
1286.287, 3.5812550E-03
1288.216, 3.7582689E-03
1290.144, 3.9385618E-03
1292.073, 3.8045191E-03
1294.001, 3.5688591E-03
1295.930, 3.4418751E-03
1297.858, 3.4390800E-03
1299.787, 3.5047689E-03
1301.715, 3.8098099E-03
1303.644, 3.9398838E-03
1305.572, 3.9716749E-03
1307.500, 4.0049409E-03
1309.429, 3.7990159E-03
1311.357, 3.5433581E-03
1313.286, 3.8484060E-03
1315.214, 4.2792172E-03
1317.143, 4.1919299E-03
1319.071, 3.8584520E-03
1321.000, 3.6879880E-03
1322.928, 3.7910549E-03
1324.857, 4.0318440E-03
1326.785, 4.0604239E-03
1328.714, 4.1495091E-03
1330.642, 4.2765550E-03
1332.571, 4.3472992E-03
1334.499, 4.3178168E-03
1336.427, 4.1827862E-03
1338.356, 4.0167058E-03
1340.284, 4.0923450E-03
1342.213, 4.3194769E-03
1344.141, 4.3581692E-03
1346.070, 4.2046988E-03
1347.998, 4.2188209E-03
1349.927, 4.3069930E-03
1351.855, 4.5320760E-03
1353.784, 5.0192550E-03
1355.712, 5.2646692E-03
1357.641, 4.7032200E-03
1359.569, 4.5930301E-03
1361.498, 4.9864808E-03
1363.426, 5.2014180E-03
1365.354, 5.1849061E-03
1367.283, 5.0801788E-03
1369.211, 5.0515188E-03
1371.140, 5.2072890E-03
1373.068, 5.1097521E-03
1374.997, 5.0814091E-03
1376.925, 5.0379690E-03
1378.854, 4.9029058E-03
1380.782, 5.1301061E-03
1382.711, 5.0552101E-03
1384.639, 5.0541181E-03
1386.568, 5.5063711E-03
1388.496, 5.4579461E-03
1390.424, 5.4577151E-03
1392.353, 5.7090400E-03
1394.281, 5.6160809E-03
1396.210, 5.6313202E-03
1398.138, 5.8377590E-03
1400.067, 5.7714828E-03
1401.995, 5.4016560E-03
1403.924, 5.2934098E-03
1405.852, 5.4780389E-03
1407.781, 5.5171349E-03
1409.709, 5.1062959E-03
1411.638, 4.8728818E-03
1413.566, 5.1040668E-03
1415.495, 5.0810962E-03
1417.423, 4.9989498E-03
1419.351, 5.1613781E-03
1421.280, 5.3031780E-03
1423.208, 5.2032229E-03
1425.137, 5.0799521E-03
1427.065, 5.1623941E-03
1428.994, 5.3487718E-03
1430.922, 5.4283501E-03
1432.851, 5.4220641E-03
1434.779, 5.5156411E-03
1436.708, 5.6832940E-03
1438.636, 5.6871232E-03
1440.565, 5.7778410E-03
1442.493, 5.7681608E-03
1444.422, 5.5844332E-03
1446.350, 5.4072598E-03
1448.278, 5.5136532E-03
1450.207, 5.7479432E-03
1452.135, 5.6048860E-03
1454.064, 5.4114121E-03
1455.992, 5.5763102E-03
1457.921, 5.2565751E-03
1459.849, 4.8868610E-03
1461.778, 5.0097872E-03
1463.706, 5.3969151E-03
1465.635, 5.3845341E-03
1467.563, 5.1017138E-03
1469.492, 5.2405102E-03
1471.420, 5.5582281E-03
1473.349, 5.5601448E-03
1475.277, 5.1114331E-03
1477.205, 4.6705301E-03
1479.134, 4.6480931E-03
1481.062, 5.0557982E-03
1482.991, 5.1955679E-03
1484.919, 4.9511502E-03
1486.848, 4.7211139E-03
1488.776, 4.6335268E-03
1490.705, 4.7143050E-03
1492.633, 4.8013632E-03
1494.562, 4.7214641E-03
1496.490, 4.8163179E-03
1498.419, 5.0730631E-03
1500.347, 5.3876890E-03
1502.276, 5.3844261E-03
1504.204, 5.2744579E-03
1506.132, 5.4253722E-03
1508.061, 5.4349890E-03
1509.989, 5.2346261E-03
1511.918, 5.2274750E-03
1513.846, 5.0447700E-03
1515.775, 4.8408918E-03
1517.703, 4.8268391E-03
1519.632, 5.0491318E-03
1521.560, 5.2723498E-03
1523.489, 5.5227592E-03
1525.417, 5.5631851E-03
1527.346, 5.3558089E-03
1529.274, 5.2352361E-03
1531.203, 5.2259858E-03
1533.131, 5.4339152E-03
1535.059, 5.5926060E-03
1536.988, 5.7871072E-03
1538.916, 5.9194681E-03
1540.845, 5.8515840E-03
1542.773, 5.7112868E-03
1544.702, 5.7492950E-03
1546.630, 5.7170382E-03
1548.559, 5.8809309E-03
1550.487, 6.0007758E-03
1552.416, 6.0224598E-03
1554.344, 6.0516619E-03
1556.273, 6.3850610E-03
1558.201, 6.7841401E-03
1560.130, 6.5475912E-03
1562.058, 6.4172088E-03
1563.986, 6.3974578E-03
1565.915, 6.6017872E-03
1567.843, 6.6800532E-03
1569.772, 6.4903279E-03
1571.700, 6.7024282E-03
1573.629, 6.8039638E-03
1575.557, 6.7196139E-03
1577.486, 6.5173148E-03
1579.414, 6.4725569E-03
1581.343, 6.6937581E-03
1583.271, 6.8884152E-03
1585.200, 7.0430869E-03
1587.128, 7.0035760E-03
1589.057, 6.8072830E-03
1590.985, 6.6138008E-03
1592.913, 6.7268009E-03
1594.842, 6.9238651E-03
1596.770, 6.9234730E-03
1598.699, 6.8756589E-03
1600.627, 6.8858820E-03
1602.556, 7.0682750E-03
1604.484, 7.2426982E-03
1606.413, 7.2399480E-03
1608.341, 7.2887558E-03
1610.270, 7.3653222E-03
1612.198, 7.5446460E-03
1614.127, 7.7984510E-03
1616.055, 7.7229282E-03
1617.984, 7.5618038E-03
1619.912, 7.7470038E-03
1621.840, 8.0250641E-03
1623.769, 8.2368543E-03
1625.697, 8.3346032E-03
1627.626, 8.4607890E-03
1629.554, 8.6819893E-03
1631.483, 8.4099397E-03
1633.411, 8.4001645E-03
1635.340, 8.3805285E-03
1637.268, 8.3074737E-03
1639.197, 8.6281318E-03
1641.125, 9.0789050E-03
1643.054, 9.2869978E-03
1644.982, 9.1242548E-03
1646.911, 8.7645166E-03
1648.839, 8.7872241E-03
1650.767, 8.7207593E-03
1652.696, 8.3322898E-03
1654.624, 8.3730174E-03
1656.553, 8.7456554E-03
1658.481, 9.0211034E-03
1660.410, 9.3383379E-03
1662.338, 9.1591049E-03
1664.267, 8.6731333E-03
1666.195, 8.5039614E-03
1668.124, 8.5715782E-03
1670.052, 9.0631396E-03
1671.981, 9.0711946E-03
1673.909, 8.6834747E-03
1675.838, 8.4637916E-03
1677.766, 8.1862519E-03
1679.694, 8.1034172E-03
1681.623, 8.3439834E-03
1683.551, 8.5796202E-03
1685.480, 8.8400943E-03
1687.408, 8.8474350E-03
1689.337, 8.2650119E-03
1691.265, 8.0130026E-03
1693.194, 8.1541333E-03
1695.122, 8.0975993E-03
1697.051, 7.9949358E-03
1698.979, 7.8968722E-03
1700.908, 8.1130434E-03
1702.836, 8.1363898E-03
1704.765, 8.3746519E-03
1706.693, 8.0912989E-03
1708.621, 7.5411820E-03
1710.550, 7.5778640E-03
1712.478, 7.6944111E-03
1714.407, 8.1835203E-03
1716.335, 8.6834570E-03
1718.264, 8.7030064E-03
1720.192, 8.8930586E-03
1722.121, 9.3033016E-03
1724.049, 8.9296466E-03
1725.978, 8.6162426E-03
1727.906, 8.6437082E-03
1729.835, 7.9111662E-03
1731.763, 7.4926801E-03
1733.692, 7.5944411E-03
1735.620, 7.7290139E-03
1737.548, 7.5156172E-03
1739.477, 6.6212108E-03
1741.405, 5.6861732E-03
1743.334, 6.0172360E-03
1745.262, 6.1279451E-03
1747.191, 5.5477102E-03
1749.119, 5.4733902E-03
1751.048, 5.7512140E-03
1752.976, 5.9594819E-03
1754.905, 6.2672640E-03
1756.833, 6.5977862E-03
1758.762, 6.8221390E-03
1760.690, 6.6705900E-03
1762.619, 6.7408178E-03
1764.547, 7.2877891E-03
1766.475, 7.4561988E-03
1768.404, 7.6866611E-03
1770.332, 7.3897382E-03
1772.261, 6.9499291E-03
1774.189, 6.9950409E-03
1776.118, 6.9358968E-03
1778.046, 6.9214320E-03
1779.975, 7.1693328E-03
1781.903, 7.6791449E-03
1783.832, 7.9358267E-03
1785.760, 7.9794964E-03
1787.689, 7.6115951E-03
1789.617, 7.3055518E-03
1791.546, 7.2785509E-03
1793.474, 7.0813880E-03
1795.402, 6.6818511E-03
1797.331, 6.9621322E-03
1799.259, 7.4532451E-03
1801.188, 7.9099424E-03
1803.116, 8.0295876E-03
1805.045, 7.6067392E-03
1806.973, 7.2740270E-03
1808.902, 6.9874800E-03
1810.830, 6.8897260E-03
1812.759, 7.0715281E-03
1814.687, 6.6182720E-03
1816.616, 6.7240088E-03
1818.544, 6.9027231E-03
1820.473, 6.6468539E-03
1822.401, 7.0225070E-03
1824.329, 7.2212140E-03
1826.258, 7.0235110E-03
1828.186, 7.3465221E-03
1830.115, 7.2798519E-03
1832.043, 6.5730452E-03
1833.972, 6.3306908E-03
1835.900, 6.6961902E-03
1837.829, 7.0449109E-03
1839.757, 7.8698592E-03
1841.686, 8.3474088E-03
1843.614, 7.9766167E-03
1845.543, 7.6053962E-03
1847.471, 6.9680000E-03
1849.400, 7.1088620E-03
1851.328, 7.2148070E-03
1853.256, 7.4089030E-03
1855.185, 7.4462672E-03
1857.113, 6.7834281E-03
1859.042, 6.7215241E-03
1860.970, 7.2011799E-03
1862.899, 7.3604900E-03
1864.827, 7.6189348E-03
1866.756, 7.5095021E-03
1868.684, 6.5329638E-03
1870.613, 7.0797922E-03
1872.541, 7.7259890E-03
1874.470, 7.0124441E-03
1876.398, 6.1830911E-03
1878.327, 5.5240439E-03
1880.255, 6.0707000E-03
1882.183, 6.5871370E-03
1884.112, 5.7497560E-03
1886.040, 5.6827669E-03
1887.969, 6.1705420E-03
1889.897, 5.2602370E-03
1891.826, 5.9486791E-03
1893.754, 6.5096049E-03
1895.683, 6.4250082E-03
1897.611, 6.0414788E-03
1899.540, 5.2024522E-03
1901.468, 5.2391822E-03
1903.397, 5.4650148E-03
1905.325, 5.4838341E-03
1907.254, 4.7946158E-03
1909.182, 4.3042819E-03
1911.110, 3.9456370E-03
1913.039, 4.2411089E-03
1914.967, 4.3678419E-03
1916.896, 5.3298869E-03
1918.824, 5.9079989E-03
1920.753, 4.7041872E-03
1922.681, 3.3414420E-03
1924.610, 2.2378161E-03
1926.538, 2.2452429E-03
1928.467, 2.2259629E-03
1930.395, 2.4906581E-03
1932.324, 3.7606391E-03
1934.252, 3.6363550E-03
1936.181, 3.2811719E-03
1938.109, 4.2271740E-03
1940.037, 3.9957352E-03
1941.966, 3.8859930E-03
1943.894, 3.8633880E-03
1945.823, 2.6406150E-03
1947.751, 1.0311530E-03
1949.680, -9.4354968E-04
1951.608, -5.8120082E-04
1953.537, 3.7622111E-04
1955.465, 9.7842261E-05
1957.394, 1.2278200E-04
1959.322, 2.5413581E-04
1961.251, -1.0787300E-05
1963.179, 8.6323147E-05
1965.108, -2.5240169E-04
1967.036, -5.8423198E-04
1968.964, 1.3943310E-03
1970.893, 1.1075480E-03
1972.821, 5.0779479E-04
1974.750, 5.5346679E-04
1976.678, 1.4518830E-03
1978.607, 3.7269839E-03
1980.535, 3.7411619E-03
1982.464, 2.7069440E-03
1984.392, 3.4344301E-03
1986.321, 2.7784989E-03
1988.249, 1.0517350E-03
1990.178, -3.9234968E-05
1992.106, -9.5346669E-04
1994.035, 5.4657488E-04
1995.963, 2.2871620E-03
1997.891, 2.4880490E-03
1999.820, 3.7408550E-03
2001.748, 2.5685520E-03
2003.677, 6.6116272E-04
2005.605, -6.7577237E-04
2007.534, -1.3201750E-03
2009.462, 5.2667641E-05
2011.391, -1.4088160E-03
2013.319, -3.3359029E-03
2015.248, -1.9703300E-03
2017.176, -1.6943540E-03
2019.105, -1.4331210E-03
2021.033, -8.1117381E-04
2022.962, 3.6015300E-04
2024.890, -4.6201379E-04
2026.818, 2.6392971E-05
2028.747, 2.7315030E-03
2030.675, 2.6035770E-03
2032.604, 1.2994329E-03
2034.532, -1.8954300E-04
2036.461, -4.3437240E-04
2038.389, 2.0149500E-04
2040.318, 1.3221030E-03
2042.246, 5.6561298E-04
2044.175, 2.9346251E-04
2046.103, 2.8536899E-03
2048.032, 4.6323291E-03
2049.960, 4.1883518E-03
2051.889, 3.1228219E-03
2053.817, 2.8136570E-03
2055.746, 4.7142091E-03
2057.674, 4.7795661E-03
2059.603, 3.5920050E-03
2061.531, 2.1313180E-03
2063.459, 2.8805030E-03
2065.388, 5.5641229E-03
2067.316, 6.2762140E-03
2069.245, 4.5630140E-03
2071.173, 3.0026040E-03
2073.102, 4.8955120E-03
2075.030, 7.0998068E-03
2076.959, 6.5895258E-03
2078.887, 5.7705939E-03
2080.816, 6.0900520E-03
2082.744, 6.0668630E-03
2084.673, 5.8894749E-03
2086.601, 5.0177639E-03
2088.530, 4.5911418E-03
2090.458, 5.6287348E-03
2092.386, 5.6033731E-03
2094.315, 5.4645748E-03
2096.243, 5.1295161E-03
2098.172, 4.8539238E-03
2100.100, 5.6448961E-03
2102.029, 5.8182189E-03
2103.957, 5.5803498E-03
2105.886, 7.0738760E-03
2107.814, 7.5972499E-03
2109.743, 6.8338918E-03
2111.671, 6.0924520E-03
2113.600, 6.4022690E-03
2115.528, 6.7003150E-03
2117.457, 6.3779200E-03
2119.385, 5.2740001E-03
2121.313, 5.7154228E-03
2123.242, 6.4675370E-03
2125.170, 6.4407219E-03
2127.099, 6.1936532E-03
2129.027, 3.5645000E-03
2130.956, 2.9415761E-03
2132.884, 3.5474049E-03
2134.813, 2.5900390E-03
2136.741, 3.3078061E-03
2138.670, 4.0692668E-03
2140.598, 3.9655161E-03
2142.527, 4.8519839E-03
2144.455, 2.9589271E-03
2146.384, -8.7768497E-04
2148.312, -9.1962953E-05
2150.240, 1.0183780E-03
2152.169, -1.3879460E-03
2154.097, -2.5282151E-03
2156.026, -2.3368851E-03
2157.954, -9.1999018E-04
2159.883, 5.0912309E-03
2161.811, 7.1048890E-03
2163.740, 5.7229698E-03
2165.668, 7.0732450E-03
2167.597, 8.4769037E-03
2169.525, 7.9131853E-03
2171.454, 8.5936328E-03
2173.382, 1.0068560E-02
2175.311, 8.7372130E-03
2177.239, 7.2011701E-03
2179.167, 6.1021480E-03
2181.096, 5.4884041E-03
2183.024, 5.5139912E-03
2184.953, 6.6061560E-03
2186.881, 8.6719450E-03
2188.810, 9.8968521E-03
2190.738, 9.5366323E-03
2192.667, 8.6342543E-03
2194.595, 9.6063782E-03
2196.524, 9.1820499E-03
2198.452, 6.9881938E-03
2200.381, 6.2468192E-03
2202.309, 6.9982489E-03
2204.238, 6.8151699E-03
2206.166, 5.2794139E-03
2208.094, 5.1023359E-03
2210.023, 6.8346802E-03
2211.951, 8.5832896E-03
2213.880, 8.4930062E-03
2215.808, 7.9219434E-03
2217.737, 8.5767508E-03
2219.665, 9.7274836E-03
2221.594, 1.0033110E-02
2223.522, 9.8221600E-03
2225.451, 8.8164071E-03
2227.379, 8.4700417E-03
2229.308, 9.2883687E-03
2231.236, 9.6318303E-03
2233.165, 8.2923127E-03
2235.093, 7.4032671E-03
2237.021, 8.5037928E-03
2238.950, 1.0665310E-02
2240.878, 1.1268620E-02
2242.807, 9.9171074E-03
2244.735, 1.0009870E-02
2246.664, 1.0186200E-02
2248.592, 8.4227193E-03
2250.521, 8.1619136E-03
2252.449, 9.4461264E-03
2254.378, 9.5853806E-03
2256.306, 1.0637720E-02
2258.235, 1.1761640E-02
2260.163, 1.1071620E-02
2262.092, 1.0918780E-02
2264.020, 1.1201580E-02
2265.948, 1.1233300E-02
2267.877, 1.1431530E-02
2269.805, 1.1455930E-02
2271.734, 1.1878650E-02
2273.662, 1.1882780E-02
2275.591, 1.1958030E-02
2277.519, 1.2512920E-02
2279.448, 1.2596180E-02
2281.376, 1.2449140E-02
2283.305, 1.2174100E-02
2285.233, 1.1902330E-02
2287.162, 1.2254430E-02
2289.090, 1.2413050E-02
2291.019, 1.2751700E-02
2292.947, 1.2610690E-02
2294.875, 1.2721180E-02
2296.804, 1.3397060E-02
2298.732, 1.3540630E-02
2300.661, 1.3364080E-02
2302.589, 1.2534380E-02
2304.518, 1.1875580E-02
2306.446, 1.2119640E-02
2308.375, 1.2574710E-02
2310.303, 1.2387410E-02
2312.232, 1.2553120E-02
2314.160, 1.1942810E-02
2316.089, 1.1261210E-02
2318.017, 1.1989450E-02
2319.946, 1.3577930E-02
2321.874, 1.4100330E-02
2323.802, 1.3892500E-02
2325.731, 1.2431200E-02
2327.659, 1.1442730E-02
2329.588, 1.0942250E-02
2331.516, 1.1324430E-02
2333.445, 1.2034500E-02
2335.373, 1.1305370E-02
2337.302, 1.0911160E-02
2339.230, 1.1248720E-02
2341.159, 1.1214620E-02
2343.087, 1.0890690E-02
2345.016, 1.0918660E-02
2346.944, 1.1297450E-02
2348.873, 1.1674940E-02
2350.801, 1.1624410E-02
2352.729, 1.1877380E-02
2354.658, 1.1567890E-02
2356.586, 1.0803570E-02
2358.515, 1.0832320E-02
2360.443, 1.0992550E-02
2362.372, 1.0674350E-02
2364.300, 1.0492860E-02
2366.229, 1.1001420E-02
2368.157, 1.0705250E-02
2370.086, 1.0735550E-02
2372.014, 1.0850150E-02
2373.942, 1.1099620E-02
2375.871, 1.1184000E-02
2377.799, 1.1341300E-02
2379.728, 1.1633790E-02
2381.656, 1.1428320E-02
2383.585, 1.1722140E-02
2385.513, 1.1799330E-02
2387.442, 1.1661900E-02
2389.370, 1.2750520E-02
2391.299, 1.2835970E-02
2393.227, 1.2309770E-02
2395.156, 1.2215850E-02
2397.084, 1.2473080E-02
2399.012, 1.1340500E-02
2400.941, 1.0110710E-02
2402.869, 1.1348760E-02
2404.798, 1.2146280E-02
2406.726, 1.1681420E-02
2408.655, 1.2388230E-02
2410.583, 1.3645600E-02
2412.512, 1.2884770E-02
2414.440, 1.2173460E-02
2416.369, 1.2909260E-02
2418.297, 1.3629190E-02
2420.226, 1.3231920E-02
2422.154, 1.2647060E-02
2424.083, 1.3086360E-02
2426.011, 1.4083740E-02
2427.939, 1.3712960E-02
2429.868, 1.2443480E-02
2431.796, 1.2331400E-02
2433.725, 1.2610280E-02
2435.653, 1.2812300E-02
2437.582, 1.4191430E-02
2439.510, 1.4522530E-02
2441.439, 1.3923120E-02
2443.367, 1.4300030E-02
2445.296, 1.4113670E-02
2447.224, 1.2638210E-02
2449.153, 1.2829100E-02
2451.081, 1.3376100E-02
2453.010, 1.3086990E-02
2454.938, 1.2307040E-02
2456.866, 1.2778800E-02
2458.795, 1.3004620E-02
2460.723, 1.3090100E-02
2462.652, 1.2863970E-02
2464.580, 1.2889170E-02
2466.509, 1.3773250E-02
2468.437, 1.3093870E-02
2470.366, 1.1701050E-02
2472.294, 1.2080190E-02
2474.223, 1.2884340E-02
2476.151, 1.3911950E-02
2478.080, 1.4267450E-02
2480.008, 1.4019030E-02
2481.937, 1.4157410E-02
2483.865, 1.3893850E-02
2485.793, 1.2914000E-02
2487.722, 1.1961690E-02
2489.650, 1.1948610E-02
2491.579, 1.2070310E-02
2493.507, 1.2310600E-02
2495.436, 1.2527290E-02
2497.364, 1.2042030E-02
2499.293, 1.1807600E-02
2501.221, 1.2144180E-02
2503.150, 1.2697840E-02
2505.078, 1.3163800E-02
2507.007, 1.4046350E-02
2508.935, 1.3177090E-02
2510.864, 1.1445940E-02
2512.792, 1.1076260E-02
2514.720, 1.1652230E-02
2516.649, 1.3693730E-02
2518.577, 1.4282630E-02
2520.506, 1.3025280E-02
2522.434, 1.2506510E-02
2524.363, 1.2770500E-02
2526.291, 1.1980510E-02
2528.220, 1.1298800E-02
2530.148, 1.1735840E-02
2532.077, 1.1796420E-02
2534.005, 1.2643620E-02
2535.934, 1.4455460E-02
2537.862, 1.4157730E-02
2539.791, 1.3080060E-02
2541.719, 1.2887950E-02
2543.647, 1.3086620E-02
2545.576, 1.3412720E-02
2547.504, 1.3088190E-02
2549.433, 1.3575590E-02
2551.361, 1.4098090E-02
2553.290, 1.4728590E-02
2555.218, 1.4381910E-02
2557.147, 1.3632450E-02
2559.075, 1.3835890E-02
2561.004, 1.4432520E-02
2562.932, 1.3567870E-02
2564.861, 1.3534470E-02
2566.789, 1.3148970E-02
2568.718, 1.2665910E-02
2570.646, 1.4239160E-02
2572.574, 1.4704570E-02
2574.503, 1.4628640E-02
2576.431, 1.4285640E-02
2578.360, 1.3941710E-02
2580.288, 1.3356630E-02
2582.217, 1.2812350E-02
2584.145, 1.3414200E-02
2586.074, 1.5000890E-02
2588.002, 1.4965930E-02
2589.931, 1.3727570E-02
2591.859, 1.2928640E-02
2593.788, 1.3495220E-02
2595.716, 1.4361130E-02
2597.645, 1.4242780E-02
2599.573, 1.4025280E-02
2601.501, 1.3532740E-02
2603.430, 1.3182270E-02
2605.358, 1.3098500E-02
2607.287, 1.4291720E-02
2609.215, 1.5194440E-02
2611.144, 1.4854810E-02
2613.072, 1.5010180E-02
2615.001, 1.5200290E-02
2616.929, 1.5957739E-02
2618.858, 1.6894760E-02
2620.786, 1.6159959E-02
2622.715, 1.5281070E-02
2624.643, 1.5471240E-02
2626.572, 1.4647490E-02
2628.500, 1.3996800E-02
2630.428, 1.4304360E-02
2632.357, 1.4723930E-02
2634.285, 1.4121010E-02
2636.214, 1.3869260E-02
2638.142, 1.4778330E-02
2640.071, 1.4683160E-02
2641.999, 1.4897220E-02
2643.928, 1.5191770E-02
2645.856, 1.5498540E-02
2647.785, 1.4865230E-02
2649.713, 1.4042300E-02
2651.642, 1.4075200E-02
2653.570, 1.4372160E-02
2655.499, 1.3961540E-02
2657.427, 1.3788280E-02
2659.355, 1.4036580E-02
2661.284, 1.4062650E-02
2663.212, 1.4942370E-02
2665.141, 1.4702920E-02
2667.069, 1.4402410E-02
2668.998, 1.4392860E-02
2670.926, 1.4499320E-02
2672.855, 1.4479920E-02
2674.783, 1.4066880E-02
2676.712, 1.4590800E-02
2678.640, 1.5022370E-02
2680.569, 1.4788930E-02
2682.497, 1.4693710E-02
2684.426, 1.4212400E-02
2686.354, 1.3580000E-02
2688.282, 1.3581730E-02
2690.211, 1.4038760E-02
2692.139, 1.4376490E-02
2694.068, 1.4237690E-02
2695.996, 1.4570110E-02
2697.925, 1.4593650E-02
2699.853, 1.4176720E-02
2701.782, 1.4403330E-02
2703.710, 1.4832590E-02
2705.639, 1.4207370E-02
2707.567, 1.3712920E-02
2709.496, 1.4063980E-02
2711.424, 1.4475750E-02
2713.353, 1.4928830E-02
2715.281, 1.5039490E-02
2717.209, 1.4538170E-02
2719.138, 1.3988760E-02
2721.066, 1.4156710E-02
2722.995, 1.4510670E-02
2724.923, 1.4689140E-02
2726.852, 1.4715640E-02
2728.780, 1.4840660E-02
2730.709, 1.5162520E-02
2732.637, 1.5093620E-02
2734.566, 1.5242210E-02
2736.494, 1.5178750E-02
2738.423, 1.4912580E-02
2740.351, 1.4706020E-02
2742.280, 1.4088500E-02
2744.208, 1.4146440E-02
2746.136, 1.5043780E-02
2748.065, 1.5119360E-02
2749.993, 1.4512040E-02
2751.922, 1.4352670E-02
2753.850, 1.4121450E-02
2755.779, 1.4041260E-02
2757.707, 1.4169890E-02
2759.636, 1.3625510E-02
2761.564, 1.3945760E-02
2763.493, 1.5005530E-02
2765.421, 1.5749950E-02
2767.350, 1.6159929E-02
2769.278, 1.5755741E-02
2771.207, 1.5110450E-02
2773.135, 1.5121060E-02
2775.063, 1.5106900E-02
2776.992, 1.5257080E-02
2778.920, 1.5308700E-02
2780.849, 1.5397150E-02
2782.777, 1.5504680E-02
2784.706, 1.5193310E-02
2786.634, 1.5303040E-02
2788.563, 1.4761680E-02
2790.491, 1.4799220E-02
2792.420, 1.4575690E-02
2794.348, 1.4841790E-02
2796.277, 1.5602980E-02
2798.205, 1.5381600E-02
2800.134, 1.5021490E-02
2802.062, 1.5339810E-02
2803.990, 1.5866540E-02
2805.919, 1.5434740E-02
2807.847, 1.4992420E-02
2809.776, 1.5107620E-02
2811.704, 1.5589980E-02
2813.633, 1.5723251E-02
2815.561, 1.5568750E-02
2817.490, 1.5691280E-02
2819.418, 1.6247081E-02
2821.347, 1.5561550E-02
2823.275, 1.5217050E-02
2825.204, 1.6046129E-02
2827.132, 1.6043900E-02
2829.061, 1.5519600E-02
2830.989, 1.5818911E-02
2832.917, 1.5953479E-02
2834.846, 1.6360249E-02
2836.774, 1.6581619E-02
2838.703, 1.6368311E-02
2840.631, 1.6140910E-02
2842.560, 1.5225630E-02
2844.488, 1.4503070E-02
2846.417, 1.5005600E-02
2848.345, 1.5553620E-02
2850.274, 1.4905010E-02
2852.202, 1.3593820E-02
2854.131, 1.3034250E-02
2856.059, 1.4007320E-02
2857.988, 1.5011000E-02
2859.916, 1.5793961E-02
2861.844, 1.5399300E-02
2863.773, 1.5184120E-02
2865.701, 1.4705100E-02
2867.630, 1.5377710E-02
2869.558, 1.7010439E-02
2871.487, 1.7164821E-02
2873.415, 1.6528530E-02
2875.344, 1.5993500E-02
2877.272, 1.6258320E-02
2879.201, 1.5629269E-02
2881.129, 1.5431160E-02
2883.058, 1.6253460E-02
2884.986, 1.5817979E-02
2886.915, 1.5745530E-02
2888.843, 1.6615041E-02
2890.771, 1.5533320E-02
2892.700, 1.4855380E-02
2894.628, 1.5602990E-02
2896.557, 1.5952660E-02
2898.485, 1.5360390E-02
2900.414, 1.3962360E-02
2902.342, 1.3967850E-02
2904.271, 1.5451840E-02
2906.199, 1.6094031E-02
2908.128, 1.6034929E-02
2910.056, 1.6524941E-02
2911.985, 1.6806800E-02
2913.913, 1.6407849E-02
2915.842, 1.5445430E-02
2917.770, 1.5223330E-02
2919.698, 1.5630869E-02
2921.627, 1.4913810E-02
2923.555, 1.4193660E-02
2925.484, 1.4892600E-02
2927.412, 1.5420610E-02
2929.341, 1.5558590E-02
2931.269, 1.5250910E-02
2933.198, 1.5994620E-02
2935.126, 1.4820960E-02
2937.055, 1.4114840E-02
2938.983, 1.4314050E-02
2940.912, 1.4393610E-02
2942.840, 1.6348490E-02
2944.769, 1.8269399E-02
2946.697, 1.8987030E-02
2948.625, 1.8148940E-02
2950.554, 1.6262230E-02
2952.482, 1.6144659E-02
2954.411, 1.6591560E-02
2956.339, 1.6302750E-02
2958.268, 1.6356660E-02
2960.196, 1.6676310E-02
2962.125, 1.7440170E-02
2964.053, 1.6991880E-02
2965.982, 1.6556989E-02
2967.910, 1.7026540E-02
2969.839, 1.7704749E-02
2971.767, 1.7457809E-02
2973.696, 1.6642170E-02
2975.624, 1.7206671E-02
2977.552, 1.7616710E-02
2979.481, 1.6301589E-02
2981.409, 1.5697550E-02
2983.338, 1.5994990E-02
2985.266, 1.7317969E-02
2987.195, 1.7660109E-02
2989.123, 1.7131681E-02
2991.052, 1.6137499E-02
2992.980, 1.5533540E-02
2994.909, 1.6238989E-02
2996.837, 1.6883330E-02
2998.766, 1.6973721E-02
3000.694, 1.6261199E-02
3002.623, 1.7074570E-02
3004.551, 1.7674830E-02
3006.479, 1.7733930E-02
3008.408, 1.7967019E-02
3010.336, 1.7918970E-02
3012.265, 1.7866511E-02
3014.193, 1.7733470E-02
3016.122, 1.7635319E-02
3018.050, 1.8599080E-02
3019.979, 1.9423870E-02
3021.907, 1.9494001E-02
3023.836, 1.9577630E-02
3025.764, 1.8239310E-02
3027.693, 1.8156130E-02
3029.621, 1.8965689E-02
3031.550, 1.8578861E-02
3033.478, 1.7705729E-02
3035.406, 1.7806999E-02
3037.335, 1.9715689E-02
3039.263, 2.0270800E-02
3041.192, 1.8928230E-02
3043.120, 1.8324509E-02
3045.049, 1.8158531E-02
3046.977, 1.7889820E-02
3048.906, 1.7726870E-02
3050.834, 1.8470081E-02
3052.763, 1.7821571E-02
3054.691, 1.8610850E-02
3056.620, 1.9645460E-02
3058.548, 1.9607561E-02
3060.477, 2.0293869E-02
3062.405, 2.1377889E-02
3064.333, 2.0095440E-02
3066.262, 1.8428519E-02
3068.190, 1.7414991E-02
3070.119, 1.7286900E-02
3072.047, 1.8657440E-02
3073.976, 1.8069910E-02
3075.904, 1.7775290E-02
3077.833, 1.9303091E-02
3079.761, 1.8399879E-02
3081.690, 1.7389810E-02
3083.618, 1.8938581E-02
3085.547, 1.9127751E-02
3087.475, 1.9388881E-02
3089.404, 1.9812530E-02
3091.332, 1.9623870E-02
3093.260, 2.1376560E-02
3095.189, 2.2204051E-02
3097.117, 2.0043749E-02
3099.046, 1.8342810E-02
3100.974, 1.7681120E-02
3102.903, 1.9213550E-02
3104.831, 1.9789740E-02
3106.760, 1.9425189E-02
3108.688, 2.0007500E-02
3110.617, 1.9562760E-02
3112.545, 2.0635361E-02
3114.474, 2.2316789E-02
3116.402, 2.0811509E-02
3118.331, 1.9242110E-02
3120.259, 1.9144639E-02
3122.188, 2.0660739E-02
3124.116, 2.2315489E-02
3126.044, 2.1617850E-02
3127.973, 2.0391570E-02
3129.901, 2.0643029E-02
3131.830, 2.2186620E-02
3133.758, 2.3390150E-02
3135.687, 2.3214091E-02
3137.615, 2.1591291E-02
3139.544, 1.9974360E-02
3141.472, 1.9365270E-02
3143.401, 2.0088850E-02
3145.329, 2.1481430E-02
3147.258, 2.2312980E-02
3149.186, 2.1816690E-02
3151.115, 2.0766931E-02
3153.043, 2.0643240E-02
3154.971, 2.0880660E-02
3156.900, 2.1106379E-02
3158.828, 2.1628279E-02
3160.757, 2.1462539E-02
3162.685, 2.1393890E-02
3164.614, 2.4071651E-02
3166.542, 2.4539011E-02
3168.471, 2.4034111E-02
3170.399, 2.3809951E-02
3172.328, 2.3829781E-02
3174.256, 2.3361299E-02
3176.185, 2.3890121E-02
3178.113, 2.1695390E-02
3180.042, 2.0802571E-02
3181.970, 2.0728599E-02
3183.898, 2.0201320E-02
3185.827, 2.0594610E-02
3187.755, 2.3210039E-02
3189.684, 2.4017360E-02
3191.612, 2.3117149E-02
3193.541, 2.1867670E-02
3195.469, 2.1637600E-02
3197.398, 2.2074580E-02
3199.326, 2.1640239E-02
3201.255, 2.0503139E-02
3203.183, 2.1808960E-02
3205.112, 2.2334270E-02
3207.040, 2.2355590E-02
3208.969, 2.2192931E-02
3210.897, 2.2468541E-02
3212.825, 2.3595029E-02
3214.754, 2.3267111E-02
3216.682, 2.2321209E-02
3218.611, 2.3420820E-02
3220.539, 2.3793420E-02
3222.468, 2.2735929E-02
3224.396, 2.1815350E-02
3226.325, 2.1391319E-02
3228.253, 2.2666730E-02
3230.182, 2.2735201E-02
3232.110, 2.2700129E-02
3234.039, 2.1204310E-02
3235.967, 2.1218039E-02
3237.896, 2.2477459E-02
3239.824, 2.4084840E-02
3241.752, 2.5566310E-02
3243.681, 2.5499210E-02
3245.609, 2.4437480E-02
3247.538, 2.3518611E-02
3249.466, 2.3714541E-02
3251.395, 2.3994651E-02
3253.323, 2.3113269E-02
3255.252, 2.2018081E-02
3257.180, 2.3756791E-02
3259.109, 2.5154781E-02
3261.037, 2.3202229E-02
3262.966, 2.2139329E-02
3264.894, 2.1689121E-02
3266.823, 2.2344399E-02
3268.751, 2.2961870E-02
3270.679, 2.3846870E-02
3272.608, 2.4887370E-02
3274.536, 2.5865300E-02
3276.465, 2.5360679E-02
3278.393, 2.5152359E-02
3280.322, 2.3881370E-02
3282.250, 2.4059091E-02
3284.179, 2.5593979E-02
3286.107, 2.5211111E-02
3288.036, 2.4348490E-02
3289.964, 2.3206050E-02
3291.893, 2.2772079E-02
3293.821, 2.3145080E-02
3295.750, 2.2544799E-02
3297.678, 2.2919349E-02
3299.606, 2.5151551E-02
3301.535, 2.6053719E-02
3303.463, 2.4437910E-02
3305.392, 2.4718450E-02
3307.320, 2.5559129E-02
3309.249, 2.5026649E-02
3311.177, 2.4050441E-02
3313.106, 2.4265951E-02
3315.034, 2.5225330E-02
3316.963, 2.6226381E-02
3318.891, 2.5137620E-02
3320.820, 2.3501310E-02
3322.748, 2.4781941E-02
3324.677, 2.6496951E-02
3326.605, 2.7180109E-02
3328.533, 2.6019819E-02
3330.462, 2.5818180E-02
3332.390, 2.5709489E-02
3334.319, 2.6269110E-02
3336.247, 2.5981311E-02
3338.176, 2.4698300E-02
3340.104, 2.3711130E-02
3342.033, 2.4609029E-02
3343.961, 2.3626899E-02
3345.890, 2.3854749E-02
3347.818, 2.4630871E-02
3349.747, 2.4161531E-02
3351.675, 2.5271799E-02
3353.604, 2.5842611E-02
3355.532, 2.5717370E-02
3357.460, 2.6165079E-02
3359.389, 2.6292421E-02
3361.317, 2.4098910E-02
3363.246, 2.4268189E-02
3365.174, 2.6886150E-02
3367.103, 2.8412910E-02
3369.031, 2.7724581E-02
3370.960, 2.7913600E-02
3372.888, 2.8976539E-02
3374.817, 2.8228451E-02
3376.745, 2.7204139E-02
3378.674, 2.6442550E-02
3380.602, 2.5980080E-02
3382.531, 2.6968760E-02
3384.459, 2.6399801E-02
3386.387, 2.5892070E-02
3388.316, 2.5456110E-02
3390.244, 2.6255891E-02
3392.173, 2.7737491E-02
3394.101, 2.6688799E-02
3396.030, 2.6963620E-02
3397.958, 2.7778370E-02
3399.887, 2.7831670E-02
3401.815, 2.7600300E-02
3403.744, 2.5898170E-02
3405.672, 2.4123030E-02
3407.601, 2.4198661E-02
3409.529, 2.5802510E-02
3411.458, 2.8820161E-02
3413.386, 2.9735301E-02
3415.314, 2.8214101E-02
3417.243, 2.8183410E-02
3419.171, 2.7068101E-02
3421.100, 2.6923951E-02
3423.028, 2.8427759E-02
3424.957, 2.7806779E-02
3426.885, 2.6738949E-02
3428.814, 2.7656490E-02
3430.742, 2.7174050E-02
3432.671, 2.5933780E-02
3434.599, 2.7632900E-02
3436.528, 3.0415719E-02
3438.456, 3.2146741E-02
3440.385, 2.8751319E-02
3442.313, 2.3689210E-02
3444.241, 2.6014570E-02
3446.170, 2.8552450E-02
3448.098, 2.5785990E-02
3450.027, 2.5224149E-02
3451.955, 2.8968239E-02
3453.884, 2.8883500E-02
3455.812, 2.7718419E-02
3457.741, 2.7690239E-02
3459.669, 2.7058819E-02
3461.598, 2.8878670E-02
3463.526, 2.9723600E-02
3465.455, 2.7508870E-02
3467.383, 2.6163060E-02
3469.312, 2.6889641E-02
3471.240, 2.7505949E-02
3473.168, 2.7307009E-02
3475.097, 2.7884239E-02
3477.025, 2.7506741E-02
3478.954, 2.6109509E-02
3480.882, 2.7800960E-02
3482.811, 2.8677130E-02
3484.739, 2.8761851E-02
3486.668, 2.7772920E-02
3488.596, 2.9176621E-02
3490.525, 2.9686959E-02
3492.453, 2.8161431E-02
3494.382, 2.7475910E-02
3496.310, 2.6748210E-02
3498.239, 2.5995990E-02
3500.167, 2.6578130E-02
3502.095, 2.5763690E-02
3504.024, 2.7858080E-02
3505.952, 2.8491121E-02
3507.881, 2.7569391E-02
3509.809, 2.4198130E-02
3511.738, 2.3507711E-02
3513.666, 2.6011400E-02
3515.595, 2.5900429E-02
3517.523, 2.4073580E-02
3519.452, 2.5569510E-02
3521.380, 2.8927410E-02
3523.309, 2.8492659E-02
3525.237, 2.6395300E-02
3527.166, 2.6252920E-02
3529.094, 2.7216110E-02
3531.022, 2.7054731E-02
3532.951, 2.6192861E-02
3534.879, 2.8700430E-02
3536.808, 2.8706649E-02
3538.736, 2.6370410E-02
3540.665, 2.6011029E-02
3542.593, 2.5532590E-02
3544.522, 2.7280459E-02
3546.450, 2.8837711E-02
3548.379, 2.8230950E-02
3550.307, 2.8934279E-02
3552.236, 3.0036580E-02
3554.164, 2.7645141E-02
3556.093, 2.8164160E-02
3558.021, 2.8438071E-02
3559.949, 2.7426930E-02
3561.878, 2.7231211E-02
3563.806, 2.7167119E-02
3565.735, 2.6933789E-02
3567.663, 2.9961530E-02
3569.592, 3.0690670E-02
3571.520, 2.9141890E-02
3573.449, 2.8081341E-02
3575.377, 2.7979840E-02
3577.306, 2.7180759E-02
3579.234, 2.9359400E-02
3581.163, 3.3637710E-02
3583.091, 3.2816529E-02
3585.020, 3.2173760E-02
3586.948, 3.5691772E-02
3588.876, 3.5798691E-02
3590.805, 3.6057290E-02
3592.733, 3.8697500E-02
3594.662, 3.8822800E-02
3596.590, 3.8688231E-02
3598.519, 3.9548632E-02
3600.447, 4.2648859E-02
3602.376, 4.8234839E-02
3604.304, 5.1324300E-02
3606.233, 5.5205859E-02
3608.161, 6.0867429E-02
3610.090, 6.3042574E-02
3612.018, 6.5836363E-02
3613.947, 7.4959740E-02
3615.875, 8.3471417E-02
3617.803, 8.8479437E-02
3619.732, 9.1589771E-02
3621.660, 9.6150689E-02
3623.589, 9.9278040E-02
3625.517, 0.1011810
3627.446, 9.8461479E-02
3629.374, 9.5017336E-02
3631.303, 9.7124003E-02
3633.231, 9.8099977E-02
3635.160, 9.5799513E-02
3637.088, 9.1788813E-02
3639.017, 8.6381719E-02
3640.945, 8.0928087E-02
3642.874, 7.8001983E-02
3644.802, 7.5540453E-02
3646.730, 7.4053600E-02
3648.659, 7.1634509E-02
3650.587, 6.8912253E-02
3652.516, 6.8025447E-02
3654.444, 6.5259583E-02
3656.373, 6.3636027E-02
3658.301, 6.5922700E-02
3660.230, 6.6813007E-02
3662.158, 6.3847363E-02
3664.087, 5.7374291E-02
3666.015, 5.2074019E-02
3667.944, 5.0397389E-02
3669.872, 4.6662010E-02
3671.801, 4.0411290E-02
3673.729, 3.7313949E-02
3675.657, 3.7998799E-02
3677.586, 3.5488401E-02
3679.514, 3.1139040E-02
3681.443, 2.8815219E-02
3683.371, 2.5517380E-02
3685.300, 2.3412241E-02
3687.228, 2.3771530E-02
3689.157, 2.3164630E-02
3691.085, 1.9075129E-02
3693.014, 1.8920910E-02
3694.942, 2.1196321E-02
3696.871, 1.7455250E-02
3698.799, 1.4895570E-02
3700.728, 1.4545950E-02
3702.656, 1.1787020E-02
3704.584, 1.1185280E-02
3706.513, 1.3609890E-02
3708.441, 1.5110020E-02
3710.370, 1.5345740E-02
3712.298, 1.6311930E-02
3714.227, 1.9155500E-02
3716.155, 1.9721890E-02
3718.084, 1.6779199E-02
3720.012, 1.4829230E-02
3721.941, 1.4716190E-02
3723.869, 1.5072380E-02
3725.798, 1.5238560E-02
3727.726, 1.6305231E-02
3729.655, 1.6643880E-02
3731.583, 1.4746210E-02
3733.511, 1.3944340E-02
3735.440, 1.6572541E-02
3737.368, 1.7300731E-02
3739.297, 1.4568780E-02
3741.225, 1.8332381E-02
3743.154, 2.3634680E-02
3745.082, 2.3479410E-02
3747.011, 1.9926241E-02
3748.939, 1.7506590E-02
3750.868, 1.8960800E-02
3752.796, 2.0286961E-02
3754.725, 1.9632289E-02
3756.653, 1.7207470E-02
3758.582, 1.8162770E-02
3760.510, 1.7980210E-02
3762.438, 1.6254719E-02
3764.367, 1.4817240E-02
3766.295, 1.7769670E-02
3768.224, 2.0790130E-02
3770.152, 2.0535860E-02
3772.081, 2.0901160E-02
3774.009, 2.0692751E-02
3775.938, 1.7410360E-02
3777.866, 1.4094600E-02
3779.795, 1.4819450E-02
3781.723, 1.7560011E-02
3783.652, 1.7270070E-02
3785.580, 1.7062381E-02
3787.509, 1.8244440E-02
3789.437, 1.4884750E-02
3791.365, 1.4238600E-02
3793.294, 1.5931210E-02
3795.222, 1.7935270E-02
3797.151, 1.7470660E-02
3799.079, 2.1080080E-02
3801.008, 2.2776870E-02
3802.936, 1.7704740E-02
3804.865, 1.4375390E-02
3806.793, 1.2258050E-02
3808.722, 1.4607150E-02
3810.650, 1.4235630E-02
3812.579, 1.3781900E-02
3814.507, 1.4861430E-02
3816.436, 1.7492291E-02
3818.364, 2.0007931E-02
3820.292, 2.1153430E-02
3822.221, 2.1126140E-02
3824.149, 1.9452769E-02
3826.078, 1.9003071E-02
3828.006, 1.8785959E-02
3829.935, 1.8841369E-02
3831.863, 1.7118590E-02
3833.792, 1.8213850E-02
3835.720, 1.9906839E-02
3837.649, 1.7126070E-02
3839.577, 1.6231321E-02
3841.506, 1.7494520E-02
3843.434, 1.6160689E-02
3845.363, 2.0086469E-02
3847.291, 2.0977590E-02
3849.219, 1.8287150E-02
3851.148, 1.8426610E-02
3853.076, 1.7456129E-02
3855.005, 1.9198550E-02
3856.933, 2.0329559E-02
3858.862, 1.8841179E-02
3860.790, 1.6603781E-02
3862.719, 1.9292509E-02
3864.647, 1.7546469E-02
3866.576, 1.6024910E-02
3868.504, 1.5820431E-02
3870.433, 1.8040100E-02
3872.361, 2.2219431E-02
3874.290, 2.0700300E-02
3876.218, 1.8704349E-02
3878.146, 1.8321300E-02
3880.075, 1.6227400E-02
3882.003, 1.5217840E-02
3883.932, 1.7350290E-02
3885.860, 1.6971430E-02
3887.789, 1.6187349E-02
3889.717, 1.6339689E-02
3891.646, 1.7514519E-02
3893.574, 1.9061681E-02
3895.503, 1.8571110E-02
3897.431, 1.6741799E-02
3899.360, 1.6187130E-02
3901.288, 1.7219270E-02
3903.217, 1.7695440E-02
3905.145, 1.7868031E-02
3907.073, 1.8709380E-02
3909.002, 1.9447809E-02
3910.930, 1.7961150E-02
3912.859, 1.6564149E-02
3914.787, 1.8535180E-02
3916.716, 2.0170251E-02
3918.644, 1.9937919E-02
3920.573, 2.2192679E-02
3922.501, 2.2067320E-02
3924.430, 1.7831691E-02
3926.358, 1.9411780E-02
3928.287, 1.9990930E-02
3930.215, 2.0622490E-02
3932.144, 2.3257559E-02
3934.072, 2.1599671E-02
3936.000, 1.9374900E-02
3937.929, 1.8078551E-02
3939.857, 1.9440100E-02
3941.786, 2.0696560E-02
3943.714, 2.1092670E-02
3945.643, 1.8545279E-02
3947.571, 1.9887790E-02
3949.500, 2.1256629E-02
3951.428, 2.0047231E-02
3953.357, 1.9315541E-02
3955.285, 1.8952040E-02
3957.214, 1.9251769E-02
3959.142, 2.0990061E-02
3961.071, 1.9794080E-02
3962.999, 1.8661231E-02
3964.927, 1.8534189E-02
3966.856, 1.7380670E-02
3968.784, 2.1719011E-02
3970.713, 2.3238830E-02
3972.641, 1.9302471E-02
3974.570, 2.0596260E-02
3976.498, 1.8685371E-02
3978.427, 2.0443499E-02
3980.355, 2.1574389E-02
3982.284, 1.8453149E-02
3984.212, 1.6245641E-02
3986.141, 1.7132061E-02
3988.069, 2.1522950E-02
3989.998, 2.5530670E-02
3991.926, 2.3549881E-02
3993.854, 2.0057110E-02
3995.783, 1.9011561E-02
3997.711, 2.0324260E-02
3999.640, 2.0334059E-02
##END=



