##NAMES=Pectolite
##RRUFFID=R060101
##IDEAL CHEMISTRY=NaCa_2_Si_3_O_8_(OH)
##LOCALITY=West Patterson, New Jersey, USA
##OWNER=RRUFF
##SOURCE=University of Arizona Mineral Museum
##DESCRIPTION=Tufts of white acicular sprays
##STATUS=The identification of this mineral has been confirmed by X-ray diffraction and chemical analysis
##URL=rruff.info/R060101
##MEASURED CHEMISTRY=Na_1.02_Ca_2.00_Si_2.99_O_8_(OH)
3.991926e+002, 1.076165e-001
4.011211e+002, 1.162078e-001
4.030495e+002, 1.278742e-001
4.049780e+002, 1.381074e-001
4.069065e+002, 1.478484e-001
4.088349e+002, 1.538121e-001
4.107634e+002, 1.581795e-001
4.126919e+002, 1.628241e-001
4.146203e+002, 1.611316e-001
4.165488e+002, 1.554370e-001
4.184773e+002, 1.473737e-001
4.204057e+002, 1.401632e-001
4.223342e+002, 1.368796e-001
4.242627e+002, 1.369902e-001
4.261911e+002, 1.400969e-001
4.281196e+002, 1.444797e-001
4.300481e+002, 1.502991e-001
4.319765e+002, 1.558868e-001
4.339050e+002, 1.618864e-001
4.358335e+002, 1.693595e-001
4.377619e+002, 1.775550e-001
4.396904e+002, 1.879928e-001
4.416189e+002, 2.010357e-001
4.435473e+002, 2.136540e-001
4.454758e+002, 2.240402e-001
4.474043e+002, 2.309730e-001
4.493327e+002, 2.330319e-001
4.512612e+002, 2.346827e-001
4.531897e+002, 2.352813e-001
4.551181e+002, 2.327791e-001
4.570466e+002, 2.282928e-001
4.589751e+002, 2.256217e-001
4.609035e+002, 2.246110e-001
4.628320e+002, 2.207371e-001
4.647605e+002, 2.147363e-001
4.666889e+002, 2.082250e-001
4.686174e+002, 2.020608e-001
4.705459e+002, 1.968487e-001
4.724743e+002, 1.905384e-001
4.744028e+002, 1.833702e-001
4.763313e+002, 1.767828e-001
4.782597e+002, 1.697665e-001
4.801882e+002, 1.626491e-001
4.821167e+002, 1.553439e-001
4.840451e+002, 1.486780e-001
4.859736e+002, 1.419138e-001
4.879021e+002, 1.338673e-001
4.898305e+002, 1.255250e-001
4.917590e+002, 1.191508e-001
4.936875e+002, 1.154248e-001
4.956159e+002, 1.111600e-001
4.975444e+002, 1.060032e-001
4.994729e+002, 9.952642e-002
5.014013e+002, 9.145215e-002
5.033298e+002, 8.289170e-002
5.052583e+002, 7.590563e-002
5.071867e+002, 7.116684e-002
5.091152e+002, 6.763455e-002
5.110437e+002, 6.635975e-002
5.129721e+002, 6.878400e-002
5.149006e+002, 7.343011e-002
5.168290e+002, 7.733879e-002
5.187575e+002, 7.975181e-002
5.206860e+002, 8.233494e-002
5.226144e+002, 8.584299e-002
5.245429e+002, 8.941475e-002
5.264714e+002, 9.185025e-002
5.283998e+002, 9.237031e-002
5.303283e+002, 9.111411e-002
5.322568e+002, 8.811172e-002
5.341852e+002, 8.440359e-002
5.361137e+002, 8.047163e-002
5.380422e+002, 7.604030e-002
5.399706e+002, 7.157092e-002
5.418991e+002, 6.777236e-002
5.438276e+002, 6.405054e-002
5.457560e+002, 6.001624e-002
5.476845e+002, 5.665013e-002
5.496130e+002, 5.396736e-002
5.515414e+002, 5.204001e-002
5.534699e+002, 5.068465e-002
5.553984e+002, 4.948123e-002
5.573268e+002, 4.834769e-002
5.592553e+002, 4.707678e-002
5.611838e+002, 4.596901e-002
5.631122e+002, 4.528176e-002
5.650407e+002, 4.491646e-002
5.669692e+002, 4.475304e-002
5.688976e+002, 4.442242e-002
5.708261e+002, 4.428232e-002
5.727546e+002, 4.419437e-002
5.746830e+002, 4.449372e-002
5.766115e+002, 4.480863e-002
5.785400e+002, 4.513615e-002
5.804684e+002, 4.516493e-002
5.823969e+002, 4.534552e-002
5.843254e+002, 4.583722e-002
5.862538e+002, 4.641363e-002
5.881823e+002, 4.676684e-002
5.901108e+002, 4.725894e-002
5.920392e+002, 4.804708e-002
5.939677e+002, 4.887758e-002
5.958962e+002, 4.978384e-002
5.978246e+002, 5.075217e-002
5.997531e+002, 5.161263e-002
6.016816e+002, 5.266234e-002
6.036100e+002, 5.400947e-002
6.055385e+002, 5.538218e-002
6.074670e+002, 5.702259e-002
6.093954e+002, 5.866078e-002
6.113239e+002, 6.033646e-002
6.132524e+002, 6.215461e-002
6.151808e+002, 6.441328e-002
6.171093e+002, 6.676368e-002
6.190378e+002, 6.922305e-002
6.209662e+002, 7.220411e-002
6.228947e+002, 7.567074e-002
6.248232e+002, 7.956328e-002
6.267516e+002, 8.432288e-002
6.286801e+002, 8.977310e-002
6.306086e+002, 9.628285e-002
6.325370e+002, 1.038687e-001
6.344655e+002, 1.121956e-001
6.363940e+002, 1.209118e-001
6.383224e+002, 1.288085e-001
6.402509e+002, 1.336100e-001
6.421794e+002, 1.337638e-001
6.441078e+002, 1.289161e-001
6.460363e+002, 1.201394e-001
6.479648e+002, 1.099391e-001
6.498932e+002, 1.006492e-001
6.518217e+002, 9.373532e-002
6.537502e+002, 8.988430e-002
6.556786e+002, 8.857699e-002
6.576071e+002, 8.893619e-002
6.595356e+002, 9.091531e-002
6.614641e+002, 9.440409e-002
6.633925e+002, 9.888707e-002
6.653210e+002, 1.040606e-001
6.672495e+002, 1.098516e-001
6.691779e+002, 1.152907e-001
6.711064e+002, 1.187399e-001
6.730349e+002, 1.186656e-001
6.749633e+002, 1.141987e-001
6.768918e+002, 1.051152e-001
6.788203e+002, 9.314024e-002
6.807487e+002, 8.162203e-002
6.826772e+002, 7.305537e-002
6.846057e+002, 6.817716e-002
6.865341e+002, 6.624363e-002
6.884626e+002, 6.582101e-002
6.903911e+002, 6.512151e-002
6.923195e+002, 6.261406e-002
6.942480e+002, 5.813046e-002
6.961765e+002, 5.294342e-002
6.981049e+002, 4.837899e-002
7.000334e+002, 4.519318e-002
7.019619e+002, 4.357180e-002
7.038903e+002, 4.316501e-002
7.058188e+002, 4.323343e-002
7.077473e+002, 4.357373e-002
7.096757e+002, 4.435199e-002
7.116042e+002, 4.557207e-002
7.135327e+002, 4.671746e-002
7.154611e+002, 4.789663e-002
7.173896e+002, 4.918813e-002
7.193181e+002, 5.040879e-002
7.212465e+002, 5.160265e-002
7.231750e+002, 5.304344e-002
7.251035e+002, 5.446646e-002
7.270319e+002, 5.559473e-002
7.289604e+002, 5.683846e-002
7.308889e+002, 5.822150e-002
7.328173e+002, 5.951155e-002
7.347458e+002, 6.083739e-002
7.366743e+002, 6.224352e-002
7.386027e+002, 6.365901e-002
7.405312e+002, 6.515329e-002
7.424597e+002, 6.648596e-002
7.443881e+002, 6.764758e-002
7.463166e+002, 6.886735e-002
7.482451e+002, 7.015274e-002
7.501735e+002, 7.145759e-002
7.521020e+002, 7.272045e-002
7.540305e+002, 7.389396e-002
7.559589e+002, 7.521858e-002
7.578874e+002, 7.662517e-002
7.598159e+002, 7.812793e-002
7.617443e+002, 7.960903e-002
7.636728e+002, 8.096174e-002
7.656013e+002, 8.234095e-002
7.675297e+002, 8.380056e-002
7.694582e+002, 8.517364e-002
7.713867e+002, 8.664966e-002
7.733151e+002, 8.801597e-002
7.752436e+002, 8.932596e-002
7.771721e+002, 9.053081e-002
7.791005e+002, 9.171990e-002
7.810290e+002, 9.282189e-002
7.829575e+002, 9.387454e-002
7.848859e+002, 9.497639e-002
7.868144e+002, 9.614492e-002
7.887429e+002, 9.726827e-002
7.906713e+002, 9.833624e-002
7.925998e+002, 9.939513e-002
7.945283e+002, 1.004854e-001
7.964567e+002, 1.015829e-001
7.983852e+002, 1.025622e-001
8.003137e+002, 1.034827e-001
8.022421e+002, 1.045622e-001
8.041706e+002, 1.056800e-001
8.060991e+002, 1.067750e-001
8.080275e+002, 1.078263e-001
8.099560e+002, 1.088682e-001
8.118845e+002, 1.098303e-001
8.138129e+002, 1.107505e-001
8.157414e+002, 1.116740e-001
8.176699e+002, 1.125094e-001
8.195983e+002, 1.133767e-001
8.215268e+002, 1.143810e-001
8.234553e+002, 1.153685e-001
8.253837e+002, 1.163664e-001
8.273122e+002, 1.173367e-001
8.292407e+002, 1.183330e-001
8.311691e+002, 1.193780e-001
8.330976e+002, 1.205399e-001
8.350261e+002, 1.217797e-001
8.369545e+002, 1.231698e-001
8.388830e+002, 1.246994e-001
8.408115e+002, 1.261012e-001
8.427399e+002, 1.276241e-001
8.446684e+002, 1.293225e-001
8.465969e+002, 1.312894e-001
8.485253e+002, 1.334868e-001
8.504538e+002, 1.359927e-001
8.523823e+002, 1.387474e-001
8.543107e+002, 1.417533e-001
8.562392e+002, 1.450020e-001
8.581677e+002, 1.489855e-001
8.600961e+002, 1.534130e-001
8.620246e+002, 1.582097e-001
8.639531e+002, 1.635753e-001
8.658815e+002, 1.696388e-001
8.678100e+002, 1.765398e-001
8.697385e+002, 1.842073e-001
8.716669e+002, 1.925779e-001
8.735954e+002, 2.016449e-001
8.755239e+002, 2.117340e-001
8.774523e+002, 2.225408e-001
8.793808e+002, 2.340474e-001
8.813093e+002, 2.463164e-001
8.832377e+002, 2.588137e-001
8.851662e+002, 2.718912e-001
8.870947e+002, 2.855491e-001
8.890231e+002, 2.990724e-001
8.909516e+002, 3.118708e-001
8.928801e+002, 3.234254e-001
8.948085e+002, 3.329624e-001
8.967370e+002, 3.395393e-001
8.986655e+002, 3.426770e-001
9.005939e+002, 3.424774e-001
9.025224e+002, 3.393935e-001
9.044509e+002, 3.340782e-001
9.063793e+002, 3.274989e-001
9.083078e+002, 3.205477e-001
9.102363e+002, 3.135550e-001
9.121647e+002, 3.069921e-001
9.140932e+002, 3.010783e-001
9.160217e+002, 2.955908e-001
9.179501e+002, 2.898047e-001
9.198786e+002, 2.837085e-001
9.218071e+002, 2.772528e-001
9.237355e+002, 2.697725e-001
9.256640e+002, 2.607528e-001
9.275925e+002, 2.500791e-001
9.295209e+002, 2.377074e-001
9.314494e+002, 2.242076e-001
9.333779e+002, 2.105358e-001
9.353063e+002, 1.971487e-001
9.372348e+002, 1.846512e-001
9.391633e+002, 1.737231e-001
9.410917e+002, 1.643924e-001
9.430202e+002, 1.567304e-001
9.449487e+002, 1.510084e-001
9.468771e+002, 1.469888e-001
9.488056e+002, 1.441350e-001
9.507341e+002, 1.423798e-001
9.526625e+002, 1.418414e-001
9.545910e+002, 1.422864e-001
9.565195e+002, 1.437846e-001
9.584479e+002, 1.465535e-001
9.603764e+002, 1.504766e-001
9.623049e+002, 1.553359e-001
9.642333e+002, 1.605282e-001
9.661618e+002, 1.652345e-001
9.680903e+002, 1.691989e-001
9.700187e+002, 1.721283e-001
9.719472e+002, 1.742099e-001
9.738757e+002, 1.761658e-001
9.758041e+002, 1.785976e-001
9.777326e+002, 1.819223e-001
9.796611e+002, 1.864882e-001
9.815895e+002, 1.922502e-001
9.835180e+002, 1.988006e-001
9.854465e+002, 2.054732e-001
9.873749e+002, 2.115282e-001
9.893034e+002, 2.159785e-001
9.912319e+002, 2.178991e-001
9.931603e+002, 2.169999e-001
9.950888e+002, 2.128513e-001
9.970173e+002, 2.058269e-001
9.989457e+002, 1.968872e-001
1.000874e+003, 1.873746e-001
1.002803e+003, 1.788542e-001
1.004731e+003, 1.725128e-001
1.006660e+003, 1.691869e-001
1.008588e+003, 1.688114e-001
1.010517e+003, 1.707842e-001
1.012445e+003, 1.742376e-001
1.014373e+003, 1.788062e-001
1.016302e+003, 1.841154e-001
1.018230e+003, 1.896380e-001
1.020159e+003, 1.950911e-001
1.022087e+003, 2.001930e-001
1.024016e+003, 2.047661e-001
1.025944e+003, 2.086745e-001
1.027873e+003, 2.119233e-001
1.029801e+003, 2.142064e-001
1.031730e+003, 2.154359e-001
1.033658e+003, 2.157587e-001
1.035587e+003, 2.151638e-001
1.037515e+003, 2.134169e-001
1.039443e+003, 2.102759e-001
1.041372e+003, 2.059883e-001
1.043300e+003, 2.010193e-001
1.045229e+003, 1.952984e-001
1.047157e+003, 1.890655e-001
1.049086e+003, 1.822660e-001
1.051014e+003, 1.751055e-001
1.052943e+003, 1.678628e-001
1.054871e+003, 1.608015e-001
1.056800e+003, 1.537687e-001
1.058728e+003, 1.466829e-001
1.060657e+003, 1.396883e-001
1.062585e+003, 1.329768e-001
1.064514e+003, 1.264161e-001
1.066442e+003, 1.199659e-001
1.068370e+003, 1.136662e-001
1.070299e+003, 1.074652e-001
1.072227e+003, 1.011995e-001
1.074156e+003, 9.516585e-002
1.076084e+003, 8.924298e-002
1.078013e+003, 8.346584e-002
1.079941e+003, 7.786085e-002
1.081870e+003, 7.228158e-002
1.083798e+003, 6.699670e-002
1.085727e+003, 6.212448e-002
1.087655e+003, 5.746648e-002
1.089584e+003, 5.298491e-002
1.091512e+003, 4.884817e-002
1.093441e+003, 4.511277e-002
1.095369e+003, 4.154462e-002
1.097297e+003, 3.829031e-002
1.099226e+003, 3.549448e-002
1.101154e+003, 3.291928e-002
1.103083e+003, 3.057708e-002
1.105011e+003, 2.839410e-002
1.106940e+003, 2.646559e-002
1.108868e+003, 2.490087e-002
1.110797e+003, 2.349092e-002
1.112725e+003, 2.216864e-002
1.114654e+003, 2.105700e-002
1.116582e+003, 2.020498e-002
1.118511e+003, 1.944803e-002
1.120439e+003, 1.865561e-002
1.122368e+003, 1.807415e-002
1.124296e+003, 1.758684e-002
1.126224e+003, 1.699063e-002
1.128153e+003, 1.644042e-002
1.130081e+003, 1.610610e-002
1.132010e+003, 1.579589e-002
1.133938e+003, 1.562469e-002
1.135867e+003, 1.532011e-002
1.137795e+003, 1.492868e-002
1.139724e+003, 1.473536e-002
1.141652e+003, 1.445982e-002
1.143581e+003, 1.418522e-002
1.145509e+003, 1.410714e-002
1.147438e+003, 1.408461e-002
1.149366e+003, 1.408405e-002
1.151295e+003, 1.402477e-002
1.153223e+003, 1.392641e-002
1.155151e+003, 1.376709e-002
1.157080e+003, 1.358911e-002
1.159008e+003, 1.337773e-002
1.160937e+003, 1.324493e-002
1.162865e+003, 1.322487e-002
1.164794e+003, 1.328871e-002
1.166722e+003, 1.332197e-002
1.168651e+003, 1.330849e-002
1.170579e+003, 1.335444e-002
1.172508e+003, 1.336818e-002
1.174436e+003, 1.340922e-002
1.176365e+003, 1.345895e-002
1.178293e+003, 1.350494e-002
1.180222e+003, 1.359875e-002
1.182150e+003, 1.366335e-002
1.184078e+003, 1.369490e-002
1.186007e+003, 1.369064e-002
1.187935e+003, 1.377672e-002
1.189864e+003, 1.390760e-002
1.191792e+003, 1.402678e-002
1.193721e+003, 1.411981e-002
1.195649e+003, 1.422608e-002
1.197578e+003, 1.427226e-002
1.199506e+003, 1.427715e-002
1.201435e+003, 1.435297e-002
1.203363e+003, 1.453368e-002
1.205292e+003, 1.457869e-002
1.207220e+003, 1.458109e-002
1.209149e+003, 1.476183e-002
1.211077e+003, 1.487783e-002
1.213005e+003, 1.483269e-002
1.214934e+003, 1.481859e-002
1.216862e+003, 1.489921e-002
1.218791e+003, 1.497459e-002
1.220719e+003, 1.506381e-002
1.222648e+003, 1.519448e-002
1.224576e+003, 1.522225e-002
1.226505e+003, 1.517071e-002
1.228433e+003, 1.527774e-002
1.230362e+003, 1.541634e-002
1.232290e+003, 1.543576e-002
1.234219e+003, 1.552301e-002
1.236147e+003, 1.559044e-002
1.238076e+003, 1.564518e-002
1.240004e+003, 1.569760e-002
1.241932e+003, 1.583989e-002
1.243861e+003, 1.588788e-002
1.245789e+003, 1.595660e-002
1.247718e+003, 1.593745e-002
1.249646e+003, 1.594682e-002
1.251575e+003, 1.596436e-002
1.253503e+003, 1.600770e-002
1.255432e+003, 1.615413e-002
1.257360e+003, 1.633324e-002
1.259289e+003, 1.647589e-002
1.261217e+003, 1.652021e-002
1.263146e+003, 1.660729e-002
1.265074e+003, 1.676742e-002
1.267003e+003, 1.692372e-002
1.268931e+003, 1.704909e-002
1.270859e+003, 1.722294e-002
1.272788e+003, 1.738816e-002
1.274716e+003, 1.760467e-002
1.276645e+003, 1.778093e-002
1.278573e+003, 1.795576e-002
1.280502e+003, 1.815623e-002
1.282430e+003, 1.827882e-002
1.284359e+003, 1.837801e-002
1.286287e+003, 1.847363e-002
1.288216e+003, 1.858763e-002
1.290144e+003, 1.866532e-002
1.292073e+003, 1.882949e-002
1.294001e+003, 1.908603e-002
1.295930e+003, 1.925079e-002
1.297858e+003, 1.924172e-002
1.299786e+003, 1.934083e-002
1.301715e+003, 1.964347e-002
1.303643e+003, 1.990868e-002
1.305572e+003, 1.998653e-002
1.307500e+003, 2.005588e-002
1.309429e+003, 2.023993e-002
1.311357e+003, 2.040584e-002
1.313286e+003, 2.047953e-002
1.315214e+003, 2.057408e-002
1.317143e+003, 2.065141e-002
1.319071e+003, 2.086648e-002
1.321000e+003, 2.116656e-002
1.322928e+003, 2.136278e-002
1.324857e+003, 2.160355e-002
1.326785e+003, 2.180647e-002
1.328714e+003, 2.182261e-002
1.330642e+003, 2.195289e-002
1.332570e+003, 2.221353e-002
1.334499e+003, 2.249854e-002
1.336427e+003, 2.276723e-002
1.338356e+003, 2.294262e-002
1.340284e+003, 2.325983e-002
1.342213e+003, 2.377756e-002
1.344141e+003, 2.413095e-002
1.346070e+003, 2.444065e-002
1.347998e+003, 2.484431e-002
1.349927e+003, 2.530292e-002
1.351855e+003, 2.582852e-002
1.353784e+003, 2.637370e-002
1.355712e+003, 2.689999e-002
1.357641e+003, 2.748322e-002
1.359569e+003, 2.807653e-002
1.361497e+003, 2.874926e-002
1.363426e+003, 2.951549e-002
1.365354e+003, 3.049236e-002
1.367283e+003, 3.149065e-002
1.369211e+003, 3.254990e-002
1.371140e+003, 3.370465e-002
1.373068e+003, 3.491601e-002
1.374997e+003, 3.615244e-002
1.376925e+003, 3.749039e-002
1.378854e+003, 3.886152e-002
1.380782e+003, 4.029676e-002
1.382711e+003, 4.168060e-002
1.384639e+003, 4.298255e-002
1.386568e+003, 4.383086e-002
1.388496e+003, 4.464177e-002
1.390424e+003, 4.541894e-002
1.392353e+003, 4.550889e-002
1.394281e+003, 4.507270e-002
1.396210e+003, 4.472139e-002
1.398138e+003, 4.388018e-002
1.400067e+003, 4.273488e-002
1.401995e+003, 4.155786e-002
1.403924e+003, 4.006020e-002
1.405852e+003, 3.842733e-002
1.407781e+003, 3.688600e-002
1.409709e+003, 3.545254e-002
1.411638e+003, 3.408728e-002
1.413566e+003, 3.292582e-002
1.415495e+003, 3.181919e-002
1.417423e+003, 3.035359e-002
1.419351e+003, 2.905748e-002
1.421280e+003, 2.874109e-002
1.423208e+003, 2.827802e-002
1.425137e+003, 2.774138e-002
1.427065e+003, 2.730995e-002
1.428994e+003, 2.668235e-002
1.430922e+003, 2.624641e-002
1.432851e+003, 2.597917e-002
1.434779e+003, 2.531447e-002
1.436708e+003, 2.456816e-002
1.438636e+003, 2.473441e-002
1.440565e+003, 2.487106e-002
1.442493e+003, 2.472738e-002
1.444422e+003, 2.439407e-002
1.446350e+003, 2.412872e-002
1.448278e+003, 2.397188e-002
1.450207e+003, 2.392199e-002
1.452135e+003, 2.382517e-002
1.454064e+003, 2.354873e-002
1.455992e+003, 2.237528e-002
1.457921e+003, 2.222572e-002
1.459849e+003, 2.299489e-002
1.461778e+003, 2.317675e-002
1.463706e+003, 2.292721e-002
1.465635e+003, 2.292751e-002
1.467563e+003, 2.301913e-002
1.469492e+003, 2.289044e-002
1.471420e+003, 2.229518e-002
1.473349e+003, 2.218010e-002
1.475277e+003, 2.269785e-002
1.477205e+003, 2.303007e-002
1.479134e+003, 2.328943e-002
1.481062e+003, 2.322638e-002
1.482991e+003, 2.314685e-002
1.484919e+003, 2.293510e-002
1.486848e+003, 2.260985e-002
1.488776e+003, 2.233146e-002
1.490705e+003, 2.234812e-002
1.492633e+003, 2.261758e-002
1.494562e+003, 2.219838e-002
1.496490e+003, 2.164745e-002
1.498419e+003, 2.184280e-002
1.500347e+003, 2.209376e-002
1.502276e+003, 2.218936e-002
1.504204e+003, 2.126792e-002
1.506132e+003, 1.999536e-002
1.508061e+003, 2.053644e-002
1.509989e+003, 2.151364e-002
1.511918e+003, 2.148103e-002
1.513846e+003, 2.136681e-002
1.515775e+003, 2.090145e-002
1.517703e+003, 2.072870e-002
1.519632e+003, 2.028000e-002
1.521560e+003, 1.972098e-002
1.523489e+003, 2.026480e-002
1.525417e+003, 2.039584e-002
1.527346e+003, 2.059126e-002
1.529274e+003, 2.081351e-002
1.531203e+003, 2.059989e-002
1.533131e+003, 2.017084e-002
1.535059e+003, 2.032095e-002
1.536988e+003, 1.992907e-002
1.538916e+003, 1.850335e-002
1.540845e+003, 1.829501e-002
1.542773e+003, 1.914399e-002
1.544702e+003, 1.974364e-002
1.546630e+003, 2.015921e-002
1.548559e+003, 2.030501e-002
1.550487e+003, 2.018805e-002
1.552416e+003, 1.982859e-002
1.554344e+003, 1.931634e-002
1.556273e+003, 1.875679e-002
1.558201e+003, 1.729604e-002
1.560130e+003, 1.750403e-002
1.562058e+003, 1.908100e-002
1.563986e+003, 1.954996e-002
1.565915e+003, 1.948673e-002
1.567843e+003, 1.918109e-002
1.569772e+003, 1.886860e-002
1.571700e+003, 1.914893e-002
1.573629e+003, 1.883511e-002
1.575557e+003, 1.765986e-002
1.577486e+003, 1.799274e-002
1.579414e+003, 1.887863e-002
1.581343e+003, 1.899305e-002
1.583271e+003, 1.891522e-002
1.585200e+003, 1.874411e-002
1.587128e+003, 1.858792e-002
1.589057e+003, 1.863415e-002
1.590985e+003, 1.885128e-002
1.592913e+003, 1.877365e-002
1.594842e+003, 1.859075e-002
1.596770e+003, 1.854999e-002
1.598699e+003, 1.864412e-002
1.600627e+003, 1.871353e-002
1.602556e+003, 1.866551e-002
1.604484e+003, 1.849602e-002
1.606413e+003, 1.835016e-002
1.608341e+003, 1.827193e-002
1.610270e+003, 1.827244e-002
1.612198e+003, 1.834709e-002
1.614127e+003, 1.803726e-002
1.616055e+003, 1.730307e-002
1.617984e+003, 1.762117e-002
1.619912e+003, 1.819387e-002
1.621840e+003, 1.781383e-002
1.623769e+003, 1.758296e-002
1.625697e+003, 1.785496e-002
1.627626e+003, 1.790109e-002
1.629554e+003, 1.814326e-002
1.631483e+003, 1.827340e-002
1.633411e+003, 1.755308e-002
1.635340e+003, 1.661993e-002
1.637268e+003, 1.713102e-002
1.639197e+003, 1.783281e-002
1.641125e+003, 1.784516e-002
1.643054e+003, 1.757727e-002
1.644982e+003, 1.681990e-002
1.646911e+003, 1.660565e-002
1.648839e+003, 1.717564e-002
1.650767e+003, 1.626855e-002
1.652696e+003, 1.431532e-002
1.654624e+003, 1.544485e-002
1.656553e+003, 1.717085e-002
1.658481e+003, 1.758143e-002
1.660410e+003, 1.737204e-002
1.662338e+003, 1.696784e-002
1.664267e+003, 1.712390e-002
1.666195e+003, 1.712511e-002
1.668124e+003, 1.645839e-002
1.670052e+003, 1.625676e-002
1.671981e+003, 1.671312e-002
1.673909e+003, 1.652008e-002
1.675838e+003, 1.633002e-002
1.677766e+003, 1.681864e-002
1.679694e+003, 1.681357e-002
1.681623e+003, 1.627063e-002
1.683551e+003, 1.472921e-002
1.685480e+003, 1.493440e-002
1.687408e+003, 1.626363e-002
1.689337e+003, 1.652276e-002
1.691265e+003, 1.660017e-002
1.693194e+003, 1.625363e-002
1.695122e+003, 1.487604e-002
1.697051e+003, 1.490343e-002
1.698979e+003, 1.473712e-002
1.700908e+003, 1.451870e-002
1.702836e+003, 1.570794e-002
1.704765e+003, 1.572322e-002
1.706693e+003, 1.589810e-002
1.708621e+003, 1.598446e-002
1.710550e+003, 1.593460e-002
1.712478e+003, 1.564223e-002
1.714407e+003, 1.512340e-002
1.716335e+003, 1.430393e-002
1.718264e+003, 1.431080e-002
1.720192e+003, 1.520134e-002
1.722121e+003, 1.554103e-002
1.724049e+003, 1.550568e-002
1.725978e+003, 1.558646e-002
1.727906e+003, 1.544306e-002
1.729835e+003, 1.507779e-002
1.731763e+003, 1.427828e-002
1.733692e+003, 1.310582e-002
1.735620e+003, 1.358168e-002
1.737548e+003, 1.414689e-002
1.739477e+003, 1.381833e-002
1.741405e+003, 1.380324e-002
1.743334e+003, 1.358676e-002
1.745262e+003, 1.365828e-002
1.747191e+003, 1.368502e-002
1.749119e+003, 1.328413e-002
1.751048e+003, 1.291578e-002
1.752976e+003, 1.358259e-002
1.754905e+003, 1.387139e-002
1.756833e+003, 1.369593e-002
1.758762e+003, 1.386913e-002
1.760690e+003, 1.363217e-002
1.762619e+003, 1.361764e-002
1.764547e+003, 1.405656e-002
1.766475e+003, 1.386417e-002
1.768404e+003, 1.344137e-002
1.770332e+003, 1.309005e-002
1.772261e+003, 1.258272e-002
1.774189e+003, 1.312839e-002
1.776118e+003, 1.376111e-002
1.778046e+003, 1.373165e-002
1.779975e+003, 1.340871e-002
1.781903e+003, 1.337763e-002
1.783832e+003, 1.337097e-002
1.785760e+003, 1.348624e-002
1.787689e+003, 1.379460e-002
1.789617e+003, 1.335882e-002
1.791546e+003, 1.245937e-002
1.793474e+003, 1.243828e-002
1.795402e+003, 1.281748e-002
1.797331e+003, 1.272057e-002
1.799259e+003, 1.281740e-002
1.801188e+003, 1.275831e-002
1.803116e+003, 1.264352e-002
1.805045e+003, 1.267434e-002
1.806973e+003, 1.283269e-002
1.808902e+003, 1.284162e-002
1.810830e+003, 1.283150e-002
1.812759e+003, 1.267324e-002
1.814687e+003, 1.247103e-002
1.816616e+003, 1.239597e-002
1.818544e+003, 1.265478e-002
1.820473e+003, 1.255596e-002
1.822401e+003, 1.247967e-002
1.824329e+003, 1.241690e-002
1.826258e+003, 1.230401e-002
1.828186e+003, 1.194074e-002
1.830115e+003, 1.178208e-002
1.832043e+003, 1.205401e-002
1.833972e+003, 1.191184e-002
1.835900e+003, 1.179475e-002
1.837829e+003, 1.197913e-002
1.839757e+003, 1.206650e-002
1.841686e+003, 1.194216e-002
1.843614e+003, 1.148615e-002
1.845543e+003, 1.145342e-002
1.847471e+003, 1.161994e-002
1.849400e+003, 1.185074e-002
1.851328e+003, 1.203286e-002
1.853256e+003, 1.190153e-002
1.855185e+003, 1.188469e-002
1.857113e+003, 1.184120e-002
1.859042e+003, 1.155237e-002
1.860970e+003, 1.162746e-002
1.862899e+003, 1.176467e-002
1.864827e+003, 1.158708e-002
1.866756e+003, 1.123334e-002
1.868684e+003, 1.113154e-002
1.870613e+003, 1.150195e-002
1.872541e+003, 1.169530e-002
1.874470e+003, 1.166543e-002
1.876398e+003, 1.190643e-002
1.878327e+003, 1.209650e-002
1.880255e+003, 1.182603e-002
1.882183e+003, 1.161680e-002
1.884112e+003, 1.147792e-002
1.886040e+003, 1.137792e-002
1.887969e+003, 1.131117e-002
1.889897e+003, 1.110879e-002
1.891826e+003, 1.145894e-002
1.893754e+003, 1.193741e-002
1.895683e+003, 1.188726e-002
1.897611e+003, 1.188165e-002
1.899540e+003, 1.201244e-002
1.901468e+003, 1.188812e-002
1.903397e+003, 1.187188e-002
1.905325e+003, 1.165308e-002
1.907254e+003, 1.125888e-002
1.909182e+003, 1.143926e-002
1.911110e+003, 1.182368e-002
1.913039e+003, 1.177781e-002
1.914967e+003, 1.125096e-002
1.916896e+003, 1.060556e-002
1.918824e+003, 1.115528e-002
1.920753e+003, 1.157483e-002
1.922681e+003, 1.101711e-002
1.924610e+003, 1.078046e-002
1.926538e+003, 1.097650e-002
1.928467e+003, 1.107432e-002
1.930395e+003, 1.089382e-002
1.932324e+003, 1.080894e-002
1.934252e+003, 1.089439e-002
1.936181e+003, 1.073093e-002
1.938109e+003, 1.093152e-002
1.940037e+003, 1.051367e-002
1.941966e+003, 1.012023e-002
1.943894e+003, 1.025581e-002
1.945823e+003, 1.018582e-002
1.947751e+003, 9.828219e-003
1.949680e+003, 1.039722e-002
1.951608e+003, 1.099981e-002
1.953537e+003, 1.066944e-002
1.955465e+003, 9.834598e-003
1.957394e+003, 1.002723e-002
1.959322e+003, 1.055789e-002
1.961251e+003, 1.087849e-002
1.963179e+003, 1.080053e-002
1.965108e+003, 1.039246e-002
1.967036e+003, 8.941641e-003
1.968964e+003, 8.833644e-003
1.970893e+003, 9.328031e-003
1.972821e+003, 9.388170e-003
1.974750e+003, 8.860257e-003
1.976678e+003, 9.069076e-003
1.978607e+003, 1.058635e-002
1.980535e+003, 1.108140e-002
1.982464e+003, 1.088370e-002
1.984392e+003, 1.094050e-002
1.986321e+003, 9.642290e-003
1.988249e+003, 8.943584e-003
1.990178e+003, 9.453409e-003
1.992106e+003, 9.544879e-003
1.994035e+003, 9.072730e-003
1.995963e+003, 8.644471e-003
1.997891e+003, 9.401245e-003
1.999820e+003, 9.495661e-003
2.001748e+003, 9.044891e-003
2.003677e+003, 8.529831e-003
2.005605e+003, 8.906745e-003
2.007534e+003, 9.851885e-003
2.009462e+003, 1.004963e-002
2.011391e+003, 1.000028e-002
2.013319e+003, 9.694486e-003
2.015248e+003, 9.063099e-003
2.017176e+003, 9.707451e-003
2.019105e+003, 9.659225e-003
2.021033e+003, 9.429089e-003
2.022962e+003, 9.137380e-003
2.024890e+003, 8.654743e-003
2.026818e+003, 8.435373e-003
2.028747e+003, 8.742023e-003
2.030675e+003, 8.779572e-003
2.032604e+003, 9.192777e-003
2.034532e+003, 9.377084e-003
2.036461e+003, 9.196604e-003
2.038389e+003, 9.379745e-003
2.040318e+003, 9.137831e-003
2.042246e+003, 9.073942e-003
2.044175e+003, 9.194657e-003
2.046103e+003, 8.484237e-003
2.048031e+003, 8.872179e-003
2.049960e+003, 9.520706e-003
2.051888e+003, 9.167392e-003
2.053817e+003, 8.590924e-003
2.055745e+003, 7.941610e-003
2.057674e+003, 7.935158e-003
2.059602e+003, 7.958527e-003
2.061531e+003, 8.253660e-003
2.063459e+003, 7.678994e-003
2.065388e+003, 7.108361e-003
2.067316e+003, 7.429953e-003
2.069245e+003, 7.897357e-003
2.071173e+003, 7.765835e-003
2.073102e+003, 7.647141e-003
2.075030e+003, 8.418111e-003
2.076958e+003, 8.638510e-003
2.078887e+003, 8.302812e-003
2.080815e+003, 8.410840e-003
2.082744e+003, 8.482763e-003
2.084672e+003, 8.750401e-003
2.086601e+003, 8.480563e-003
2.088529e+003, 8.465075e-003
2.090458e+003, 8.133290e-003
2.092386e+003, 7.990257e-003
2.094315e+003, 8.460703e-003
2.096243e+003, 8.794725e-003
2.098172e+003, 9.013332e-003
2.100100e+003, 8.774415e-003
2.102029e+003, 8.395053e-003
2.103957e+003, 8.994886e-003
2.105885e+003, 9.732039e-003
2.107814e+003, 9.393951e-003
2.109742e+003, 8.875770e-003
2.111671e+003, 9.065068e-003
2.113599e+003, 8.675232e-003
2.115528e+003, 8.330496e-003
2.117456e+003, 8.364654e-003
2.119385e+003, 8.713159e-003
2.121313e+003, 8.261969e-003
2.123242e+003, 8.289035e-003
2.125170e+003, 8.569153e-003
2.127099e+003, 8.452423e-003
2.129027e+003, 8.075645e-003
2.130956e+003, 7.772264e-003
2.132884e+003, 7.728731e-003
2.134813e+003, 7.944427e-003
2.136741e+003, 8.680987e-003
2.138669e+003, 9.167642e-003
2.140598e+003, 8.420139e-003
2.142526e+003, 7.322828e-003
2.144455e+003, 6.776803e-003
2.146383e+003, 7.685975e-003
2.148312e+003, 8.532588e-003
2.150240e+003, 8.712127e-003
2.152169e+003, 8.302950e-003
2.154097e+003, 8.859936e-003
2.156026e+003, 9.235704e-003
2.157954e+003, 9.465726e-003
2.159883e+003, 1.180553e-002
2.161811e+003, 1.293712e-002
2.163740e+003, 1.290849e-002
2.165668e+003, 1.251971e-002
2.167596e+003, 1.306023e-002
2.169525e+003, 1.308540e-002
2.171453e+003, 1.189837e-002
2.173382e+003, 1.193959e-002
2.175310e+003, 1.250056e-002
2.177239e+003, 1.215069e-002
2.179167e+003, 1.177890e-002
2.181096e+003, 1.183802e-002
2.183024e+003, 1.242735e-002
2.184953e+003, 1.301813e-002
2.186881e+003, 1.275541e-002
2.188810e+003, 1.243022e-002
2.190738e+003, 1.220059e-002
2.192667e+003, 1.272841e-002
2.194595e+003, 1.340669e-002
2.196523e+003, 1.345512e-002
2.198452e+003, 1.274469e-002
2.200380e+003, 1.237765e-002
2.202309e+003, 1.242829e-002
2.204237e+003, 1.291718e-002
2.206166e+003, 1.249781e-002
2.208094e+003, 1.207741e-002
2.210023e+003, 1.257217e-002
2.211951e+003, 1.284083e-002
2.213880e+003, 1.316720e-002
2.215808e+003, 1.346741e-002
2.217737e+003, 1.343956e-002
2.219665e+003, 1.303743e-002
2.221594e+003, 1.271525e-002
2.223522e+003, 1.254482e-002
2.225450e+003, 1.256359e-002
2.227379e+003, 1.265965e-002
2.229307e+003, 1.229466e-002
2.231236e+003, 1.217396e-002
2.233164e+003, 1.220299e-002
2.235093e+003, 1.302724e-002
2.237021e+003, 1.346200e-002
2.238950e+003, 1.341826e-002
2.240878e+003, 1.341109e-002
2.242807e+003, 1.298649e-002
2.244735e+003, 1.231974e-002
2.246664e+003, 1.212498e-002
2.248592e+003, 1.214170e-002
2.250521e+003, 1.243422e-002
2.252449e+003, 1.250149e-002
2.254377e+003, 1.205775e-002
2.256306e+003, 1.164342e-002
2.258234e+003, 1.175855e-002
2.260163e+003, 1.200642e-002
2.262091e+003, 1.161634e-002
2.264020e+003, 1.175641e-002
2.265948e+003, 1.251290e-002
2.267877e+003, 1.266677e-002
2.269805e+003, 1.244544e-002
2.271734e+003, 1.208913e-002
2.273662e+003, 1.228646e-002
2.275591e+003, 1.296431e-002
2.277519e+003, 1.304789e-002
2.279448e+003, 1.236254e-002
2.281376e+003, 1.181634e-002
2.283304e+003, 1.186928e-002
2.285233e+003, 1.215144e-002
2.287161e+003, 1.224961e-002
2.289090e+003, 1.208904e-002
2.291018e+003, 1.167769e-002
2.292947e+003, 1.127047e-002
2.294875e+003, 1.112496e-002
2.296804e+003, 1.124239e-002
2.298732e+003, 1.150657e-002
2.300661e+003, 1.162822e-002
2.302589e+003, 1.160156e-002
2.304518e+003, 1.148364e-002
2.306446e+003, 1.111249e-002
2.308375e+003, 1.114244e-002
2.310303e+003, 1.123611e-002
2.312231e+003, 1.134895e-002
2.314160e+003, 1.171372e-002
2.316088e+003, 1.189218e-002
2.318017e+003, 1.180022e-002
2.319945e+003, 1.212304e-002
2.321874e+003, 1.249999e-002
2.323802e+003, 1.262803e-002
2.325731e+003, 1.206537e-002
2.327659e+003, 1.139375e-002
2.329588e+003, 1.126792e-002
2.331516e+003, 1.121547e-002
2.333445e+003, 1.105899e-002
2.335373e+003, 1.108537e-002
2.337302e+003, 1.113353e-002
2.339230e+003, 1.104387e-002
2.341158e+003, 1.097934e-002
2.343087e+003, 1.107445e-002
2.345015e+003, 1.115386e-002
2.346944e+003, 1.104448e-002
2.348872e+003, 1.056099e-002
2.350801e+003, 1.029654e-002
2.352729e+003, 1.040241e-002
2.354658e+003, 1.081271e-002
2.356586e+003, 1.098632e-002
2.358515e+003, 1.085110e-002
2.360443e+003, 1.088075e-002
2.362372e+003, 1.091317e-002
2.364300e+003, 1.082415e-002
2.366229e+003, 1.067455e-002
2.368157e+003, 1.059663e-002
2.370085e+003, 1.044095e-002
2.372014e+003, 1.031619e-002
2.373942e+003, 1.013864e-002
2.375871e+003, 1.009329e-002
2.377799e+003, 1.020870e-002
2.379728e+003, 9.986900e-003
2.381656e+003, 9.943162e-003
2.383585e+003, 9.970016e-003
2.385513e+003, 9.766450e-003
2.387442e+003, 9.783911e-003
2.389370e+003, 1.006670e-002
2.391299e+003, 1.011428e-002
2.393227e+003, 1.011360e-002
2.395156e+003, 9.883837e-003
2.397084e+003, 9.634734e-003
2.399012e+003, 9.591729e-003
2.400941e+003, 9.753864e-003
2.402869e+003, 9.506644e-003
2.404798e+003, 9.225998e-003
2.406726e+003, 9.425998e-003
2.408655e+003, 9.887447e-003
2.410583e+003, 9.886667e-003
2.412512e+003, 9.903238e-003
2.414440e+003, 9.905002e-003
2.416369e+003, 9.765049e-003
2.418297e+003, 9.667881e-003
2.420226e+003, 9.653451e-003
2.422154e+003, 9.545889e-003
2.424083e+003, 9.708338e-003
2.426011e+003, 9.636573e-003
2.427939e+003, 9.497677e-003
2.429868e+003, 9.634127e-003
2.431796e+003, 9.617129e-003
2.433725e+003, 9.257963e-003
2.435653e+003, 9.289666e-003
2.437582e+003, 9.570452e-003
2.439510e+003, 9.985947e-003
2.441439e+003, 9.855791e-003
2.443367e+003, 9.497277e-003
2.445296e+003, 9.549678e-003
2.447224e+003, 9.891597e-003
2.449153e+003, 9.701395e-003
2.451081e+003, 9.398985e-003
2.453010e+003, 9.558938e-003
2.454938e+003, 9.583386e-003
2.456866e+003, 9.576410e-003
2.458795e+003, 9.694437e-003
2.460723e+003, 9.561971e-003
2.462652e+003, 9.446354e-003
2.464580e+003, 9.532784e-003
2.466509e+003, 9.318584e-003
2.468437e+003, 8.719766e-003
2.470366e+003, 8.556227e-003
2.472294e+003, 8.809598e-003
2.474223e+003, 8.923959e-003
2.476151e+003, 9.070934e-003
2.478080e+003, 8.987774e-003
2.480008e+003, 8.780470e-003
2.481937e+003, 8.855974e-003
2.483865e+003, 8.855091e-003
2.485793e+003, 8.733787e-003
2.487722e+003, 8.566528e-003
2.489650e+003, 8.757731e-003
2.491579e+003, 8.703707e-003
2.493507e+003, 8.755538e-003
2.495436e+003, 8.968652e-003
2.497364e+003, 8.866748e-003
2.499293e+003, 8.514347e-003
2.501221e+003, 8.466078e-003
2.503150e+003, 8.880450e-003
2.505078e+003, 8.755278e-003
2.507007e+003, 8.689124e-003
2.508935e+003, 8.499607e-003
2.510864e+003, 8.410852e-003
2.512792e+003, 8.373293e-003
2.514720e+003, 8.441731e-003
2.516649e+003, 8.340428e-003
2.518577e+003, 8.331217e-003
2.520506e+003, 8.005795e-003
2.522434e+003, 8.143798e-003
2.524363e+003, 8.749509e-003
2.526291e+003, 8.671767e-003
2.528220e+003, 8.479099e-003
2.530148e+003, 8.368512e-003
2.532077e+003, 8.096332e-003
2.534005e+003, 8.242101e-003
2.535934e+003, 8.599014e-003
2.537862e+003, 8.742042e-003
2.539791e+003, 8.359973e-003
2.541719e+003, 8.081198e-003
2.543647e+003, 8.340809e-003
2.545576e+003, 8.471336e-003
2.547504e+003, 8.183455e-003
2.549433e+003, 8.198361e-003
2.551361e+003, 8.211074e-003
2.553290e+003, 8.174784e-003
2.555218e+003, 8.236181e-003
2.557147e+003, 8.337947e-003
2.559075e+003, 8.275848e-003
2.561004e+003, 8.011674e-003
2.562932e+003, 8.025349e-003
2.564861e+003, 8.187653e-003
2.566789e+003, 8.239429e-003
2.568718e+003, 8.182127e-003
2.570646e+003, 8.360000e-003
2.572574e+003, 8.519445e-003
2.574503e+003, 8.149618e-003
2.576431e+003, 7.474937e-003
2.578360e+003, 7.482550e-003
2.580288e+003, 7.890953e-003
2.582217e+003, 7.812112e-003
2.584145e+003, 7.920584e-003
2.586074e+003, 8.160151e-003
2.588002e+003, 8.225963e-003
2.589931e+003, 8.187790e-003
2.591859e+003, 7.897867e-003
2.593788e+003, 7.866908e-003
2.595716e+003, 7.805940e-003
2.597645e+003, 7.799986e-003
2.599573e+003, 7.892638e-003
2.601501e+003, 7.986284e-003
2.603430e+003, 7.932915e-003
2.605358e+003, 7.865380e-003
2.607287e+003, 7.670741e-003
2.609215e+003, 7.797360e-003
2.611144e+003, 7.859791e-003
2.613072e+003, 8.154855e-003
2.615001e+003, 8.368099e-003
2.616929e+003, 8.023753e-003
2.618858e+003, 7.526480e-003
2.620786e+003, 7.506970e-003
2.622715e+003, 7.763613e-003
2.624643e+003, 8.091961e-003
2.626572e+003, 8.162373e-003
2.628500e+003, 8.092362e-003
2.630428e+003, 8.196207e-003
2.632357e+003, 8.273856e-003
2.634285e+003, 7.987143e-003
2.636214e+003, 7.644598e-003
2.638142e+003, 7.659298e-003
2.640071e+003, 7.783476e-003
2.641999e+003, 7.791497e-003
2.643928e+003, 8.024617e-003
2.645856e+003, 8.169467e-003
2.647785e+003, 8.065646e-003
2.649713e+003, 8.112589e-003
2.651642e+003, 8.249395e-003
2.653570e+003, 8.181236e-003
2.655499e+003, 7.794911e-003
2.657427e+003, 7.634064e-003
2.659355e+003, 7.788226e-003
2.661284e+003, 7.798615e-003
2.663212e+003, 7.500713e-003
2.665141e+003, 7.351987e-003
2.667069e+003, 7.479638e-003
2.668998e+003, 7.358793e-003
2.670926e+003, 7.192104e-003
2.672855e+003, 7.330126e-003
2.674783e+003, 7.335629e-003
2.676712e+003, 7.161854e-003
2.678640e+003, 7.366742e-003
2.680569e+003, 7.641693e-003
2.682497e+003, 7.537818e-003
2.684426e+003, 7.439891e-003
2.686354e+003, 7.545971e-003
2.688282e+003, 7.452019e-003
2.690211e+003, 7.306805e-003
2.692139e+003, 7.486494e-003
2.694068e+003, 7.569704e-003
2.695996e+003, 7.559607e-003
2.697925e+003, 7.638928e-003
2.699853e+003, 7.501732e-003
2.701782e+003, 7.495957e-003
2.703710e+003, 7.504872e-003
2.705639e+003, 7.642895e-003
2.707567e+003, 7.685321e-003
2.709496e+003, 7.560628e-003
2.711424e+003, 7.551500e-003
2.713353e+003, 7.816716e-003
2.715281e+003, 7.910443e-003
2.717209e+003, 7.599833e-003
2.719138e+003, 7.623128e-003
2.721066e+003, 7.882322e-003
2.722995e+003, 8.010751e-003
2.724923e+003, 7.844686e-003
2.726852e+003, 8.007539e-003
2.728780e+003, 8.185486e-003
2.730709e+003, 8.026524e-003
2.732637e+003, 7.909725e-003
2.734566e+003, 7.520571e-003
2.736494e+003, 7.678577e-003
2.738423e+003, 8.098705e-003
2.740351e+003, 7.841663e-003
2.742280e+003, 8.020471e-003
2.744208e+003, 8.351807e-003
2.746136e+003, 8.418834e-003
2.748065e+003, 8.229222e-003
2.749993e+003, 8.039635e-003
2.751922e+003, 7.877806e-003
2.753850e+003, 7.877949e-003
2.755779e+003, 7.981589e-003
2.757707e+003, 7.999551e-003
2.759636e+003, 7.997545e-003
2.761564e+003, 7.889063e-003
2.763493e+003, 7.936919e-003
2.765421e+003, 8.214549e-003
2.767350e+003, 8.302487e-003
2.769278e+003, 8.217968e-003
2.771207e+003, 8.143592e-003
2.773135e+003, 8.269287e-003
2.775063e+003, 8.272959e-003
2.776992e+003, 8.211307e-003
2.778920e+003, 8.075047e-003
2.780849e+003, 7.998792e-003
2.782777e+003, 8.230137e-003
2.784706e+003, 8.415568e-003
2.786634e+003, 8.343713e-003
2.788563e+003, 8.248323e-003
2.790491e+003, 8.211911e-003
2.792420e+003, 8.267195e-003
2.794348e+003, 8.188587e-003
2.796277e+003, 8.119204e-003
2.798205e+003, 8.307612e-003
2.800134e+003, 8.386721e-003
2.802062e+003, 8.459391e-003
2.803990e+003, 8.438407e-003
2.805919e+003, 8.380981e-003
2.807847e+003, 8.476341e-003
2.809776e+003, 8.372350e-003
2.811704e+003, 8.428794e-003
2.813633e+003, 8.542676e-003
2.815561e+003, 8.552531e-003
2.817490e+003, 8.599336e-003
2.819418e+003, 8.715065e-003
2.821347e+003, 8.755341e-003
2.823275e+003, 8.626658e-003
2.825204e+003, 8.463498e-003
2.827132e+003, 8.612318e-003
2.829061e+003, 8.727372e-003
2.830989e+003, 8.554173e-003
2.832917e+003, 8.694655e-003
2.834846e+003, 8.672525e-003
2.836774e+003, 8.707822e-003
2.838703e+003, 9.029926e-003
2.840631e+003, 8.682890e-003
2.842560e+003, 8.186538e-003
2.844488e+003, 8.053441e-003
2.846417e+003, 7.857344e-003
2.848345e+003, 7.630423e-003
2.850274e+003, 7.357637e-003
2.852202e+003, 7.223406e-003
2.854131e+003, 7.322888e-003
2.856059e+003, 7.642537e-003
2.857988e+003, 7.847276e-003
2.859916e+003, 8.049080e-003
2.861844e+003, 8.184261e-003
2.863773e+003, 8.242938e-003
2.865701e+003, 8.085676e-003
2.867630e+003, 8.028639e-003
2.869558e+003, 8.282057e-003
2.871487e+003, 8.280295e-003
2.873415e+003, 8.002930e-003
2.875344e+003, 7.798958e-003
2.877272e+003, 7.739110e-003
2.879201e+003, 8.017465e-003
2.881129e+003, 8.421665e-003
2.883058e+003, 8.420530e-003
2.884986e+003, 8.087417e-003
2.886915e+003, 7.903044e-003
2.888843e+003, 7.682613e-003
2.890771e+003, 7.923828e-003
2.892700e+003, 7.867531e-003
2.894628e+003, 7.619430e-003
2.896557e+003, 7.844825e-003
2.898485e+003, 8.031013e-003
2.900414e+003, 8.014459e-003
2.902342e+003, 7.948319e-003
2.904271e+003, 7.623392e-003
2.906199e+003, 7.272244e-003
2.908128e+003, 7.070624e-003
2.910056e+003, 7.104653e-003
2.911985e+003, 7.040618e-003
2.913913e+003, 6.688985e-003
2.915842e+003, 6.519331e-003
2.917770e+003, 6.542270e-003
2.919698e+003, 6.197892e-003
2.921627e+003, 6.205059e-003
2.923555e+003, 6.279397e-003
2.925484e+003, 5.918544e-003
2.927412e+003, 5.698492e-003
2.929341e+003, 5.938643e-003
2.931269e+003, 5.957736e-003
2.933198e+003, 5.973617e-003
2.935126e+003, 6.254047e-003
2.937055e+003, 6.356588e-003
2.938983e+003, 6.243692e-003
2.940912e+003, 6.507851e-003
2.942840e+003, 6.921400e-003
2.944769e+003, 7.027728e-003
2.946697e+003, 6.710713e-003
2.948625e+003, 6.411236e-003
2.950554e+003, 6.584680e-003
2.952482e+003, 6.883475e-003
2.954411e+003, 6.867659e-003
2.956339e+003, 6.795479e-003
2.958268e+003, 7.308722e-003
2.960196e+003, 7.488339e-003
2.962125e+003, 6.940180e-003
2.964053e+003, 6.816295e-003
2.965982e+003, 6.748385e-003
2.967910e+003, 6.909821e-003
2.969839e+003, 7.299848e-003
2.971767e+003, 7.091370e-003
2.973696e+003, 6.737139e-003
2.975624e+003, 6.631068e-003
2.977552e+003, 6.660307e-003
2.979481e+003, 6.797160e-003
2.981409e+003, 6.732308e-003
2.983338e+003, 6.714656e-003
2.985266e+003, 7.066297e-003
2.987195e+003, 7.454408e-003
2.989123e+003, 7.239062e-003
2.991052e+003, 7.160084e-003
2.992980e+003, 7.463643e-003
2.994909e+003, 7.561633e-003
2.996837e+003, 7.412757e-003
2.998766e+003, 7.181584e-003
3.000694e+003, 6.888071e-003
3.002623e+003, 6.822052e-003
3.004551e+003, 7.055882e-003
3.006479e+003, 7.334415e-003
3.008408e+003, 7.296772e-003
3.010336e+003, 7.268312e-003
3.012265e+003, 7.260787e-003
3.014193e+003, 7.304555e-003
3.016122e+003, 7.140282e-003
3.018050e+003, 6.889542e-003
3.019979e+003, 7.352270e-003
3.021907e+003, 7.636358e-003
3.023836e+003, 7.671225e-003
3.025764e+003, 7.541060e-003
3.027693e+003, 7.132721e-003
3.029621e+003, 6.937203e-003
3.031550e+003, 6.864933e-003
3.033478e+003, 6.873000e-003
3.035406e+003, 6.992995e-003
3.037335e+003, 7.097454e-003
3.039263e+003, 7.165303e-003
3.041192e+003, 6.914316e-003
3.043120e+003, 6.889582e-003
3.045049e+003, 7.069674e-003
3.046977e+003, 7.110246e-003
3.048906e+003, 6.955770e-003
3.050834e+003, 7.029935e-003
3.052763e+003, 6.974857e-003
3.054691e+003, 7.075878e-003
3.056620e+003, 7.491816e-003
3.058548e+003, 7.482432e-003
3.060477e+003, 7.112504e-003
3.062405e+003, 6.744861e-003
3.064333e+003, 6.702835e-003
3.066262e+003, 7.056170e-003
3.068190e+003, 7.245258e-003
3.070119e+003, 7.116001e-003
3.072047e+003, 7.480784e-003
3.073976e+003, 7.605385e-003
3.075904e+003, 7.410368e-003
3.077833e+003, 7.528901e-003
3.079761e+003, 7.346314e-003
3.081690e+003, 7.043205e-003
3.083618e+003, 7.199594e-003
3.085547e+003, 7.434515e-003
3.087475e+003, 7.318569e-003
3.089404e+003, 7.247346e-003
3.091332e+003, 7.102527e-003
3.093260e+003, 7.088994e-003
3.095189e+003, 7.624316e-003
3.097117e+003, 7.765985e-003
3.099046e+003, 7.417823e-003
3.100974e+003, 7.490797e-003
3.102903e+003, 7.613994e-003
3.104831e+003, 7.476859e-003
3.106760e+003, 7.023513e-003
3.108688e+003, 6.753996e-003
3.110617e+003, 6.970300e-003
3.112545e+003, 7.477329e-003
3.114474e+003, 7.584448e-003
3.116402e+003, 7.643303e-003
3.118331e+003, 7.445612e-003
3.120259e+003, 7.237921e-003
3.122188e+003, 7.085834e-003
3.124116e+003, 7.029408e-003
3.126044e+003, 7.254337e-003
3.127973e+003, 7.304415e-003
3.129901e+003, 6.954111e-003
3.131830e+003, 6.950015e-003
3.133758e+003, 7.176466e-003
3.135687e+003, 7.536101e-003
3.137615e+003, 8.028135e-003
3.139544e+003, 7.987717e-003
3.141472e+003, 7.940763e-003
3.143401e+003, 7.971895e-003
3.145329e+003, 7.519996e-003
3.147258e+003, 7.392870e-003
3.149186e+003, 7.375123e-003
3.151115e+003, 7.715658e-003
3.153043e+003, 8.169126e-003
3.154971e+003, 8.023504e-003
3.156900e+003, 7.771353e-003
3.158828e+003, 7.708807e-003
3.160757e+003, 7.652596e-003
3.162685e+003, 7.659863e-003
3.164614e+003, 7.887311e-003
3.166542e+003, 7.564993e-003
3.168471e+003, 7.489561e-003
3.170399e+003, 7.437358e-003
3.172328e+003, 7.592659e-003
3.174256e+003, 7.820918e-003
3.176185e+003, 7.634718e-003
3.178113e+003, 7.710158e-003
3.180042e+003, 7.569427e-003
3.181970e+003, 7.427804e-003
3.183898e+003, 7.481155e-003
3.185827e+003, 7.647721e-003
3.187755e+003, 7.809712e-003
3.189684e+003, 7.727145e-003
3.191612e+003, 7.680952e-003
3.193541e+003, 7.904538e-003
3.195469e+003, 7.697721e-003
3.197398e+003, 7.119620e-003
3.199326e+003, 7.475322e-003
3.201255e+003, 7.900437e-003
3.203183e+003, 7.665023e-003
3.205112e+003, 7.549050e-003
3.207040e+003, 7.549380e-003
3.208969e+003, 7.907881e-003
3.210897e+003, 7.798431e-003
3.212825e+003, 8.047815e-003
3.214754e+003, 8.218674e-003
3.216682e+003, 7.853739e-003
3.218611e+003, 7.070815e-003
3.220539e+003, 7.041232e-003
3.222468e+003, 7.375860e-003
3.224396e+003, 7.691185e-003
3.226325e+003, 7.434043e-003
3.228253e+003, 7.529094e-003
3.230182e+003, 8.040244e-003
3.232110e+003, 7.786968e-003
3.234039e+003, 7.393056e-003
3.235967e+003, 7.494763e-003
3.237896e+003, 7.998322e-003
3.239824e+003, 8.338951e-003
3.241752e+003, 8.199309e-003
3.243681e+003, 7.603458e-003
3.245609e+003, 7.441124e-003
3.247538e+003, 7.710438e-003
3.249466e+003, 7.829413e-003
3.251395e+003, 7.327017e-003
3.253323e+003, 7.098711e-003
3.255252e+003, 7.363277e-003
3.257180e+003, 7.732378e-003
3.259109e+003, 7.969405e-003
3.261037e+003, 7.804360e-003
3.262966e+003, 7.819377e-003
3.264894e+003, 7.793932e-003
3.266823e+003, 7.888403e-003
3.268751e+003, 7.350437e-003
3.270679e+003, 7.274350e-003
3.272608e+003, 8.099958e-003
3.274536e+003, 8.662065e-003
3.276465e+003, 8.109871e-003
3.278393e+003, 7.138174e-003
3.280322e+003, 6.621605e-003
3.282250e+003, 6.669922e-003
3.284179e+003, 6.975797e-003
3.286107e+003, 7.167945e-003
3.288036e+003, 7.340963e-003
3.289964e+003, 7.510585e-003
3.291893e+003, 7.785796e-003
3.293821e+003, 7.558708e-003
3.295750e+003, 7.219416e-003
3.297678e+003, 7.270387e-003
3.299606e+003, 7.493830e-003
3.301535e+003, 7.366884e-003
3.303463e+003, 7.306792e-003
3.305392e+003, 7.350093e-003
3.307320e+003, 7.390806e-003
3.309249e+003, 7.329497e-003
3.311177e+003, 7.425041e-003
3.313106e+003, 7.614269e-003
3.315034e+003, 7.665707e-003
3.316963e+003, 7.575667e-003
3.318891e+003, 7.619825e-003
3.320820e+003, 7.574563e-003
3.322748e+003, 7.560436e-003
3.324677e+003, 7.775094e-003
3.326605e+003, 7.732685e-003
3.328533e+003, 7.408640e-003
3.330462e+003, 7.350344e-003
3.332390e+003, 7.481296e-003
3.334319e+003, 7.696269e-003
3.336247e+003, 7.879720e-003
3.338176e+003, 7.618587e-003
3.340104e+003, 7.197913e-003
3.342033e+003, 6.969582e-003
3.343961e+003, 6.881168e-003
3.345890e+003, 6.785637e-003
3.347818e+003, 6.642193e-003
3.349747e+003, 6.633823e-003
3.351675e+003, 6.619982e-003
3.353604e+003, 6.908413e-003
3.355532e+003, 7.750411e-003
3.357460e+003, 7.960739e-003
3.359389e+003, 7.564882e-003
3.361317e+003, 7.327284e-003
3.363246e+003, 7.234011e-003
3.365174e+003, 7.097618e-003
3.367103e+003, 6.923179e-003
3.369031e+003, 7.066753e-003
3.370960e+003, 7.176500e-003
3.372888e+003, 7.158777e-003
3.374817e+003, 7.222953e-003
3.376745e+003, 7.583278e-003
3.378674e+003, 7.557643e-003
3.380602e+003, 7.571935e-003
3.382531e+003, 7.931351e-003
3.384459e+003, 7.896482e-003
3.386387e+003, 7.157286e-003
3.388316e+003, 7.042088e-003
3.390244e+003, 7.593007e-003
3.392173e+003, 7.170985e-003
3.394101e+003, 6.776384e-003
3.396030e+003, 6.893811e-003
3.397958e+003, 7.306541e-003
3.399887e+003, 7.729589e-003
3.401815e+003, 7.662445e-003
3.403744e+003, 7.172221e-003
3.405672e+003, 6.808231e-003
3.407601e+003, 6.556516e-003
3.409529e+003, 6.601384e-003
3.411458e+003, 6.567390e-003
3.413386e+003, 6.524940e-003
3.415314e+003, 6.654875e-003
3.417243e+003, 6.826472e-003
3.419171e+003, 6.618276e-003
3.421100e+003, 6.606491e-003
3.423028e+003, 6.471089e-003
3.424957e+003, 6.420555e-003
3.426885e+003, 6.448199e-003
3.428814e+003, 6.741185e-003
3.430742e+003, 7.131854e-003
3.432671e+003, 7.289889e-003
3.434599e+003, 7.385431e-003
3.436528e+003, 7.034743e-003
3.438456e+003, 6.941698e-003
3.440385e+003, 7.138314e-003
3.442313e+003, 6.798056e-003
3.444241e+003, 6.597435e-003
3.446170e+003, 6.605349e-003
3.448098e+003, 6.481174e-003
3.450027e+003, 6.467545e-003
3.451955e+003, 6.547738e-003
3.453884e+003, 6.203825e-003
3.455812e+003, 6.111138e-003
3.457741e+003, 6.235067e-003
3.459669e+003, 6.630966e-003
3.461598e+003, 6.724250e-003
3.463526e+003, 6.483949e-003
3.465455e+003, 7.181434e-003
3.467383e+003, 6.898337e-003
3.469312e+003, 6.220396e-003
3.471240e+003, 6.303050e-003
3.473168e+003, 6.506336e-003
3.475097e+003, 6.887980e-003
3.477025e+003, 7.241787e-003
3.478954e+003, 6.820748e-003
3.480882e+003, 6.437009e-003
3.482811e+003, 6.431958e-003
3.484739e+003, 6.675413e-003
3.486668e+003, 6.805908e-003
3.488596e+003, 6.445786e-003
3.490525e+003, 6.366274e-003
3.492453e+003, 6.943558e-003
3.494382e+003, 6.894904e-003
3.496310e+003, 6.719823e-003
3.498239e+003, 6.278360e-003
3.500167e+003, 5.996739e-003
3.502095e+003, 6.121395e-003
3.504024e+003, 6.327110e-003
3.505952e+003, 6.532833e-003
3.507881e+003, 6.562775e-003
3.509809e+003, 6.675323e-003
3.511738e+003, 6.513008e-003
3.513666e+003, 6.072444e-003
3.515595e+003, 5.749953e-003
3.517523e+003, 6.063942e-003
3.519452e+003, 6.430554e-003
3.521380e+003, 6.309862e-003
3.523309e+003, 5.992004e-003
3.525237e+003, 6.266267e-003
3.527166e+003, 6.397225e-003
3.529094e+003, 6.405730e-003
3.531022e+003, 6.323084e-003
3.532951e+003, 6.616619e-003
3.534879e+003, 6.805829e-003
3.536808e+003, 6.563512e-003
3.538736e+003, 6.092941e-003
3.540665e+003, 5.889421e-003
3.542593e+003, 6.059796e-003
3.544522e+003, 6.419651e-003
3.546450e+003, 6.436791e-003
3.548379e+003, 6.073609e-003
3.550307e+003, 5.460517e-003
3.552236e+003, 5.656110e-003
3.554164e+003, 6.464027e-003
3.556093e+003, 6.671965e-003
3.558021e+003, 6.622035e-003
3.559949e+003, 6.623096e-003
3.561878e+003, 6.399576e-003
3.563806e+003, 5.897378e-003
3.565735e+003, 4.669758e-003
3.567663e+003, 4.245355e-003
3.569592e+003, 5.253762e-003
3.571520e+003, 5.860473e-003
3.573449e+003, 5.610121e-003
3.575377e+003, 5.220817e-003
3.577306e+003, 5.435417e-003
3.579234e+003, 5.192940e-003
3.581163e+003, 5.138562e-003
3.583091e+003, 5.441006e-003
3.585020e+003, 5.184783e-003
3.586948e+003, 4.858928e-003
3.588876e+003, 4.873318e-003
3.590805e+003, 4.697719e-003
3.592733e+003, 4.721344e-003
3.594662e+003, 4.892651e-003
3.596590e+003, 4.477860e-003
3.598519e+003, 4.292280e-003
3.600447e+003, 4.907371e-003
3.602376e+003, 5.704490e-003
3.604304e+003, 6.102011e-003
3.606233e+003, 4.917671e-003
3.608161e+003, 3.839131e-003
3.610090e+003, 4.172854e-003
3.612018e+003, 4.514202e-003
3.613947e+003, 5.300942e-003
3.615875e+003, 5.573398e-003
3.617803e+003, 4.278623e-003
3.619732e+003, 4.483887e-003
3.621660e+003, 6.037838e-003
3.623589e+003, 6.603497e-003
3.625517e+003, 5.770865e-003
3.627446e+003, 3.917747e-003
3.629374e+003, 2.796641e-003
3.631303e+003, 4.008085e-003
3.633231e+003, 4.357802e-003
3.635160e+003, 4.812337e-003
3.637088e+003, 4.859946e-003
3.639017e+003, 4.661736e-003
3.640945e+003, 4.824854e-003
3.642874e+003, 4.779557e-003
3.644802e+003, 4.622526e-003
3.646730e+003, 3.579966e-003
3.648659e+003, 2.787538e-003
3.650587e+003, 3.490952e-003
3.652516e+003, 5.005093e-003
3.654444e+003, 4.260118e-003
3.656373e+003, 3.283191e-003
3.658301e+003, 4.046033e-003
3.660230e+003, 4.749596e-003
3.662158e+003, 5.118671e-003
3.664087e+003, 5.370427e-003
3.666015e+003, 5.590913e-003
3.667944e+003, 4.448660e-003
3.669872e+003, 2.441147e-003
3.671801e+003, 2.966537e-003
3.673729e+003, 2.646645e-003
3.675657e+003, 1.392237e-003
3.677586e+003, 3.404190e-003
3.679514e+003, 3.953140e-003
3.681443e+003, 3.965077e-003
3.683371e+003, 4.170720e-003
3.685300e+003, 4.001844e-003
3.687228e+003, 2.263478e-003
3.689157e+003, 2.480075e-003
3.691085e+003, 3.846318e-003
3.693014e+003, 4.724551e-003
3.694942e+003, 5.237120e-003
3.696871e+003, 5.096047e-003
3.698799e+003, 4.890052e-003
3.700728e+003, 4.924058e-003
3.702656e+003, 5.419755e-003
3.704584e+003, 5.711508e-003
3.706513e+003, 4.982400e-003
3.708441e+003, 4.232174e-003
3.710370e+003, 3.257425e-003
3.712298e+003, 2.314763e-003
3.714227e+003, 3.413166e-003
3.716155e+003, 4.199235e-003
3.718084e+003, 4.454114e-003
3.720012e+003, 4.533273e-003
3.721941e+003, 4.490322e-003
3.723869e+003, 4.237767e-003
3.725798e+003, 4.297602e-003
3.727726e+003, 5.007581e-003
3.729655e+003, 4.968233e-003
3.731583e+003, 3.858690e-003
3.733511e+003, 3.343526e-003
3.735440e+003, 3.104138e-003
3.737368e+003, 3.880540e-003
3.739297e+003, 4.807337e-003
3.741225e+003, 4.697850e-003
3.743154e+003, 1.884598e-003
3.745082e+003, 1.087995e-003
3.747011e+003, 3.116879e-003
3.748939e+003, 1.537614e-003
3.750868e+003, 1.692913e-004
3.752796e+003, 1.489014e-003
3.754725e+003, 4.134941e-003
3.756653e+003, 4.124754e-003
3.758582e+003, 3.875742e-003
3.760510e+003, 5.208830e-003
3.762438e+003, 6.328986e-003
3.764367e+003, 4.963045e-003
3.766295e+003, 4.882521e-003
3.768224e+003, 4.717402e-003
3.770152e+003, 4.273426e-003
3.772081e+003, 5.136895e-003
3.774009e+003, 5.233900e-003
3.775938e+003, 5.353234e-003
3.777866e+003, 5.526952e-003
3.779795e+003, 5.694446e-003
3.781723e+003, 5.404841e-003
3.783652e+003, 4.665711e-003
3.785580e+003, 4.645514e-003
3.787509e+003, 4.652712e-003
3.789437e+003, 4.501782e-003
3.791365e+003, 4.490653e-003
3.793294e+003, 4.802921e-003
3.795222e+003, 4.990825e-003
3.797151e+003, 5.335184e-003
3.799079e+003, 4.301346e-003
3.801008e+003, 2.689999e-003
3.802936e+003, 3.797784e-003
3.804865e+003, 3.678216e-003
3.806793e+003, 2.533569e-003
3.808722e+003, 4.407319e-003
3.810650e+003, 5.333776e-003
3.812579e+003, 4.827402e-003
3.814507e+003, 3.332923e-003
3.816436e+003, 2.751284e-003
3.818364e+003, 3.353923e-003
3.820292e+003, 2.383113e-003
3.822221e+003, 3.109735e-003
3.824149e+003, 4.758036e-003
3.826078e+003, 4.689305e-003
3.828006e+003, 4.809766e-003
3.829935e+003, 5.125745e-003
3.831863e+003, 4.438899e-003
3.833792e+003, 3.330531e-003
3.835720e+003, 2.438791e-003
3.837649e+003, 2.124040e-003
3.839577e+003, 3.267932e-003
3.841506e+003, 3.931153e-003
3.843434e+003, 4.380790e-003
3.845363e+003, 4.915325e-003
3.847291e+003, 5.080876e-003
3.849219e+003, 4.301650e-003
3.851148e+003, 1.466817e-003
3.853076e+003, -1.794099e-003
3.855005e+003, 6.679210e-004
3.856933e+003, 4.451867e-003
3.858862e+003, 4.779813e-003
3.860790e+003, 4.349097e-003
3.862719e+003, 3.745781e-003
3.864647e+003, 3.266388e-003
3.866576e+003, 3.285547e-003
3.868504e+003, 2.206600e-003
3.870433e+003, 1.968301e-003
3.872361e+003, 3.160309e-003
3.874290e+003, 3.755349e-003
3.876218e+003, 4.715126e-003
3.878146e+003, 4.370683e-003
3.880075e+003, 3.798278e-003
3.882003e+003, 3.970797e-003
3.883932e+003, 3.382671e-003
3.885860e+003, 2.840208e-003
3.887789e+003, 4.143129e-003
3.889717e+003, 4.319816e-003
3.891646e+003, 4.051472e-003
3.893574e+003, 4.417113e-003
3.895503e+003, 5.694035e-003
3.897431e+003, 5.914629e-003
3.899360e+003, 4.581030e-003
3.901288e+003, 3.866360e-003
3.903217e+003, 3.689087e-003
3.905145e+003, 4.086795e-003
3.907073e+003, 4.734750e-003
3.909002e+003, 5.379682e-003
3.910930e+003, 5.366426e-003
3.912859e+003, 4.967828e-003
3.914787e+003, 4.456047e-003
3.916716e+003, 4.452468e-003
3.918644e+003, 5.145103e-003
3.920573e+003, 4.447377e-003
3.922501e+003, 4.113995e-003
3.924430e+003, 4.386592e-003
3.926358e+003, 4.653487e-003
3.928287e+003, 4.642674e-003
3.930215e+003, 4.967990e-003
3.932144e+003, 4.507738e-003
3.934072e+003, 4.204751e-003
3.936000e+003, 4.538994e-003
3.937929e+003, 4.835952e-003
3.939857e+003, 5.644490e-003
3.941786e+003, 6.294012e-003
3.943714e+003, 5.640880e-003
3.945643e+003, 5.062219e-003
3.947571e+003, 5.003516e-003
3.949500e+003, 4.328678e-003
3.951428e+003, 3.541287e-003
3.953357e+003, 3.905547e-003
3.955285e+003, 5.153622e-003
3.957214e+003, 5.334949e-003
3.959142e+003, 4.854108e-003
3.961071e+003, 4.437671e-003
3.962999e+003, 4.136221e-003
3.964927e+003, 4.410550e-003
3.966856e+003, 4.999017e-003
3.968784e+003, 5.148464e-003
3.970713e+003, 5.156853e-003
3.972641e+003, 5.451777e-003
3.974570e+003, 5.397708e-003
3.976498e+003, 4.815650e-003
3.978427e+003, 4.167292e-003
3.980355e+003, 3.935408e-003
3.982284e+003, 4.444004e-003
3.984212e+003, 5.440911e-003
3.986141e+003, 5.650606e-003
3.988069e+003, 5.302413e-003
3.989998e+003, 5.229475e-003
3.991926e+003, 5.015593e-003
3.993854e+003, 4.563073e-003
3.995783e+003, 5.079177e-003
3.997711e+003, 4.795711e-003
3.999640e+003, 4.531560e-003
4.001568e+003, 0.000000e+000
##END=



