##NAMES=Pectolite
##RRUFFID=R050396
##IDEAL CHEMISTRY=NaCa_2_Si_3_O_8_(OH)
##LOCALITY=Jeffrey Quarry, Asbestos, Quebec, Canada
##OWNER=RRUFF
##SOURCE=Marcus Origlieri
##DESCRIPTION=Colorless to gray columnar blocky crystals
##STATUS=The identification of this mineral has been confirmed by X-ray diffraction and chemical analysis
##URL=rruff.info/R050396
##MEASURED CHEMISTRY=Na_1.00_Ca_2.00_Si_3.00_O_8_(OH)
3.741225e+002, 5.099915e-002
3.760510e+002, 5.406033e-002
3.779795e+002, 6.018981e-002
3.799079e+002, 6.269368e-002
3.818364e+002, 5.991234e-002
3.837649e+002, 6.524512e-002
3.856933e+002, 7.000918e-002
3.876218e+002, 7.661808e-002
3.895503e+002, 8.355634e-002
3.914787e+002, 8.885051e-002
3.934072e+002, 9.027551e-002
3.953357e+002, 9.051780e-002
3.972641e+002, 9.600421e-002
3.991926e+002, 1.074945e-001
4.011211e+002, 1.164320e-001
4.030495e+002, 1.278618e-001
4.049780e+002, 1.412284e-001
4.069065e+002, 1.517080e-001
4.088349e+002, 1.581341e-001
4.107634e+002, 1.629736e-001
4.126919e+002, 1.638834e-001
4.146203e+002, 1.588016e-001
4.165488e+002, 1.521102e-001
4.184773e+002, 1.475147e-001
4.204057e+002, 1.445259e-001
4.223342e+002, 1.415036e-001
4.242627e+002, 1.415747e-001
4.261911e+002, 1.446776e-001
4.281196e+002, 1.477027e-001
4.300481e+002, 1.518585e-001
4.319765e+002, 1.568327e-001
4.339050e+002, 1.639905e-001
4.358335e+002, 1.719178e-001
4.377619e+002, 1.785575e-001
4.396904e+002, 1.864469e-001
4.416189e+002, 1.972961e-001
4.435473e+002, 2.093724e-001
4.454758e+002, 2.182714e-001
4.474043e+002, 2.230431e-001
4.493327e+002, 2.245114e-001
4.512612e+002, 2.265960e-001
4.531897e+002, 2.249524e-001
4.551181e+002, 2.200357e-001
4.570466e+002, 2.164603e-001
4.589751e+002, 2.132817e-001
4.609035e+002, 2.092919e-001
4.628320e+002, 2.060758e-001
4.647605e+002, 2.012014e-001
4.666889e+002, 1.958140e-001
4.686174e+002, 1.905576e-001
4.705459e+002, 1.847370e-001
4.724743e+002, 1.783953e-001
4.744028e+002, 1.713012e-001
4.763313e+002, 1.649636e-001
4.782597e+002, 1.590330e-001
4.801882e+002, 1.521057e-001
4.821167e+002, 1.454583e-001
4.840451e+002, 1.389047e-001
4.859736e+002, 1.319304e-001
4.879021e+002, 1.252646e-001
4.898305e+002, 1.180250e-001
4.917590e+002, 1.123277e-001
4.936875e+002, 1.090568e-001
4.956159e+002, 1.056759e-001
4.975444e+002, 1.005474e-001
4.994729e+002, 9.433956e-002
5.014013e+002, 8.778406e-002
5.033298e+002, 8.089219e-002
5.052583e+002, 7.483490e-002
5.071867e+002, 7.034054e-002
5.091152e+002, 6.750698e-002
5.110437e+002, 6.725579e-002
5.129721e+002, 6.953862e-002
5.149006e+002, 7.315619e-002
5.168290e+002, 7.647341e-002
5.187575e+002, 7.932228e-002
5.206860e+002, 8.223314e-002
5.226144e+002, 8.609805e-002
5.245429e+002, 9.043079e-002
5.264714e+002, 9.324726e-002
5.283998e+002, 9.372818e-002
5.303283e+002, 9.219205e-002
5.322568e+002, 8.935177e-002
5.341852e+002, 8.597719e-002
5.361137e+002, 8.158889e-002
5.380422e+002, 7.731037e-002
5.399706e+002, 7.336001e-002
5.418991e+002, 6.890667e-002
5.438276e+002, 6.480654e-002
5.457560e+002, 6.186235e-002
5.476845e+002, 5.921905e-002
5.496130e+002, 5.679159e-002
5.515414e+002, 5.497391e-002
5.534699e+002, 5.331683e-002
5.553984e+002, 5.173247e-002
5.573268e+002, 5.094964e-002
5.592553e+002, 5.040839e-002
5.611838e+002, 4.956888e-002
5.631122e+002, 4.899335e-002
5.650407e+002, 4.878670e-002
5.669692e+002, 4.859100e-002
5.688976e+002, 4.836890e-002
5.708261e+002, 4.822706e-002
5.727546e+002, 4.840504e-002
5.746830e+002, 4.883317e-002
5.766115e+002, 4.926525e-002
5.785400e+002, 4.996141e-002
5.804684e+002, 5.050965e-002
5.823969e+002, 5.109036e-002
5.843254e+002, 5.159471e-002
5.862538e+002, 5.216371e-002
5.881823e+002, 5.222217e-002
5.901108e+002, 5.221874e-002
5.920392e+002, 5.261910e-002
5.939677e+002, 5.303864e-002
5.958962e+002, 5.341418e-002
5.978246e+002, 5.402083e-002
5.997531e+002, 5.468895e-002
6.016816e+002, 5.533599e-002
6.036100e+002, 5.628201e-002
6.055385e+002, 5.720321e-002
6.074670e+002, 5.811115e-002
6.093954e+002, 5.895768e-002
6.113239e+002, 6.012972e-002
6.132524e+002, 6.160231e-002
6.151808e+002, 6.336533e-002
6.171093e+002, 6.547994e-002
6.190378e+002, 6.784256e-002
6.209662e+002, 7.041921e-002
6.228947e+002, 7.332747e-002
6.248232e+002, 7.686344e-002
6.267516e+002, 8.157438e-002
6.286801e+002, 8.712987e-002
6.306086e+002, 9.360901e-002
6.325370e+002, 1.015971e-001
6.344655e+002, 1.108363e-001
6.363940e+002, 1.205060e-001
6.383224e+002, 1.293540e-001
6.402509e+002, 1.349531e-001
6.421794e+002, 1.351042e-001
6.441078e+002, 1.300976e-001
6.460363e+002, 1.211589e-001
6.479648e+002, 1.106697e-001
6.498932e+002, 1.013077e-001
6.518217e+002, 9.446729e-002
6.537502e+002, 9.047060e-002
6.556786e+002, 8.927957e-002
6.576071e+002, 8.999097e-002
6.595356e+002, 9.211004e-002
6.614641e+002, 9.575438e-002
6.633925e+002, 1.005611e-001
6.653210e+002, 1.061676e-001
6.672495e+002, 1.124676e-001
6.691779e+002, 1.183309e-001
6.711064e+002, 1.221291e-001
6.730349e+002, 1.225107e-001
6.749633e+002, 1.178386e-001
6.768918e+002, 1.080276e-001
6.788203e+002, 9.564096e-002
6.807487e+002, 8.382778e-002
6.826772e+002, 7.534771e-002
6.846057e+002, 7.063425e-002
6.865341e+002, 6.878936e-002
6.884626e+002, 6.807008e-002
6.903911e+002, 6.677145e-002
6.923195e+002, 6.377444e-002
6.942480e+002, 5.922374e-002
6.961765e+002, 5.410921e-002
6.981049e+002, 4.954856e-002
7.000334e+002, 4.642545e-002
7.019619e+002, 4.457727e-002
7.038903e+002, 4.389497e-002
7.058188e+002, 4.411577e-002
7.077473e+002, 4.481732e-002
7.096757e+002, 4.563191e-002
7.116042e+002, 4.673281e-002
7.135327e+002, 4.809861e-002
7.154611e+002, 4.940404e-002
7.173896e+002, 5.068730e-002
7.193181e+002, 5.210150e-002
7.212465e+002, 5.370616e-002
7.231750e+002, 5.528465e-002
7.251035e+002, 5.684684e-002
7.270319e+002, 5.806939e-002
7.289604e+002, 5.915172e-002
7.308889e+002, 6.021367e-002
7.328173e+002, 6.122971e-002
7.347458e+002, 6.231941e-002
7.366743e+002, 6.351893e-002
7.386027e+002, 6.457806e-002
7.405312e+002, 6.567350e-002
7.424597e+002, 6.679973e-002
7.443881e+002, 6.796473e-002
7.463166e+002, 6.922264e-002
7.482451e+002, 7.021200e-002
7.501735e+002, 7.122968e-002
7.521020e+002, 7.249465e-002
7.540305e+002, 7.392537e-002
7.559589e+002, 7.537846e-002
7.578874e+002, 7.667187e-002
7.598159e+002, 7.809874e-002
7.617443e+002, 7.972354e-002
7.636728e+002, 8.133043e-002
7.656013e+002, 8.281745e-002
7.675297e+002, 8.430929e-002
7.694582e+002, 8.572976e-002
7.713867e+002, 8.691584e-002
7.733151e+002, 8.803278e-002
7.752436e+002, 8.932240e-002
7.771721e+002, 9.053697e-002
7.791005e+002, 9.160766e-002
7.810290e+002, 9.257315e-002
7.829575e+002, 9.353182e-002
7.848859e+002, 9.460090e-002
7.868144e+002, 9.564088e-002
7.887429e+002, 9.680420e-002
7.906713e+002, 9.800263e-002
7.925998e+002, 9.893578e-002
7.945283e+002, 9.968299e-002
7.964567e+002, 1.006194e-001
7.983852e+002, 1.016617e-001
8.003137e+002, 1.026613e-001
8.022421e+002, 1.037070e-001
8.041706e+002, 1.047950e-001
8.060991e+002, 1.058235e-001
8.080275e+002, 1.067639e-001
8.099560e+002, 1.078712e-001
8.118845e+002, 1.089430e-001
8.138129e+002, 1.099286e-001
8.157414e+002, 1.107807e-001
8.176699e+002, 1.115582e-001
8.195983e+002, 1.126241e-001
8.215268e+002, 1.137238e-001
8.234553e+002, 1.146779e-001
8.253837e+002, 1.155404e-001
8.273122e+002, 1.167254e-001
8.292407e+002, 1.179789e-001
8.311691e+002, 1.191771e-001
8.330976e+002, 1.203377e-001
8.350261e+002, 1.217617e-001
8.369545e+002, 1.232712e-001
8.388830e+002, 1.249359e-001
8.408115e+002, 1.267376e-001
8.427399e+002, 1.285398e-001
8.446684e+002, 1.307614e-001
8.465969e+002, 1.330237e-001
8.485253e+002, 1.350784e-001
8.504538e+002, 1.371552e-001
8.523823e+002, 1.393886e-001
8.543107e+002, 1.421151e-001
8.562392e+002, 1.455015e-001
8.581677e+002, 1.495833e-001
8.600961e+002, 1.540722e-001
8.620246e+002, 1.591846e-001
8.639531e+002, 1.651295e-001
8.658815e+002, 1.722240e-001
8.678100e+002, 1.802618e-001
8.697385e+002, 1.895760e-001
8.716669e+002, 2.005569e-001
8.735954e+002, 2.115521e-001
8.755239e+002, 2.212119e-001
8.774523e+002, 2.306450e-001
8.793808e+002, 2.410044e-001
8.813093e+002, 2.521923e-001
8.832377e+002, 2.637084e-001
8.851662e+002, 2.768344e-001
8.870947e+002, 2.916428e-001
8.890231e+002, 3.062342e-001
8.909516e+002, 3.198700e-001
8.928801e+002, 3.317455e-001
8.948085e+002, 3.412617e-001
8.967370e+002, 3.483632e-001
8.986655e+002, 3.522590e-001
9.005939e+002, 3.521057e-001
9.025224e+002, 3.487508e-001
9.044509e+002, 3.433530e-001
9.063793e+002, 3.362349e-001
9.083078e+002, 3.283438e-001
9.102363e+002, 3.208561e-001
9.121647e+002, 3.138810e-001
9.140932e+002, 3.073490e-001
9.160217e+002, 3.013308e-001
9.179501e+002, 2.953625e-001
9.198786e+002, 2.888037e-001
9.218071e+002, 2.814110e-001
9.237355e+002, 2.729560e-001
9.256640e+002, 2.629539e-001
9.275925e+002, 2.512240e-001
9.295209e+002, 2.381583e-001
9.314494e+002, 2.243009e-001
9.333779e+002, 2.105023e-001
9.353063e+002, 1.972052e-001
9.372348e+002, 1.850356e-001
9.391633e+002, 1.746930e-001
9.410917e+002, 1.663190e-001
9.430202e+002, 1.595668e-001
9.449487e+002, 1.545955e-001
9.468771e+002, 1.509763e-001
9.488056e+002, 1.485196e-001
9.507341e+002, 1.471914e-001
9.526625e+002, 1.471589e-001
9.545910e+002, 1.482811e-001
9.565195e+002, 1.506693e-001
9.584479e+002, 1.543806e-001
9.603764e+002, 1.593050e-001
9.623049e+002, 1.652653e-001
9.642333e+002, 1.717394e-001
9.661618e+002, 1.778001e-001
9.680903e+002, 1.826386e-001
9.700187e+002, 1.861187e-001
9.719472e+002, 1.888089e-001
9.738757e+002, 1.913359e-001
9.758041e+002, 1.942211e-001
9.777326e+002, 1.980293e-001
9.796611e+002, 2.030336e-001
9.815895e+002, 2.092777e-001
9.835180e+002, 2.163821e-001
9.854465e+002, 2.235549e-001
9.873749e+002, 2.296763e-001
9.893034e+002, 2.339140e-001
9.912319e+002, 2.352498e-001
9.931603e+002, 2.334507e-001
9.950888e+002, 2.283126e-001
9.970173e+002, 2.204759e-001
9.989457e+002, 2.111737e-001
1.000874e+003, 2.016615e-001
1.002803e+003, 1.935655e-001
1.004731e+003, 1.879572e-001
1.006660e+003, 1.852982e-001
1.008588e+003, 1.853873e-001
1.010517e+003, 1.877176e-001
1.012445e+003, 1.913350e-001
1.014373e+003, 1.959587e-001
1.016302e+003, 2.008925e-001
1.018230e+003, 2.056033e-001
1.020159e+003, 2.100585e-001
1.022087e+003, 2.141995e-001
1.024016e+003, 2.179345e-001
1.025944e+003, 2.208804e-001
1.027873e+003, 2.230093e-001
1.029801e+003, 2.242856e-001
1.031730e+003, 2.245508e-001
1.033658e+003, 2.239624e-001
1.035587e+003, 2.222992e-001
1.037515e+003, 2.197649e-001
1.039443e+003, 2.162839e-001
1.041372e+003, 2.116842e-001
1.043300e+003, 2.064171e-001
1.045229e+003, 2.006576e-001
1.047157e+003, 1.942503e-001
1.049086e+003, 1.872700e-001
1.051014e+003, 1.799995e-001
1.052943e+003, 1.726497e-001
1.054871e+003, 1.653573e-001
1.056800e+003, 1.580083e-001
1.058728e+003, 1.508701e-001
1.060657e+003, 1.437973e-001
1.062585e+003, 1.368650e-001
1.064514e+003, 1.300477e-001
1.066442e+003, 1.235512e-001
1.068370e+003, 1.175776e-001
1.070299e+003, 1.114322e-001
1.072227e+003, 1.051413e-001
1.074156e+003, 9.913497e-002
1.076084e+003, 9.326669e-002
1.078013e+003, 8.774123e-002
1.079941e+003, 8.238488e-002
1.081870e+003, 7.699532e-002
1.083798e+003, 7.167785e-002
1.085727e+003, 6.678995e-002
1.087655e+003, 6.223024e-002
1.089584e+003, 5.788712e-002
1.091512e+003, 5.371784e-002
1.093441e+003, 5.011290e-002
1.095369e+003, 4.683872e-002
1.097297e+003, 4.354147e-002
1.099226e+003, 4.061695e-002
1.101154e+003, 3.806525e-002
1.103083e+003, 3.582660e-002
1.105011e+003, 3.386663e-002
1.106940e+003, 3.208920e-002
1.108868e+003, 3.052084e-002
1.110797e+003, 2.909675e-002
1.112725e+003, 2.793506e-002
1.114654e+003, 2.696049e-002
1.116582e+003, 2.601884e-002
1.118511e+003, 2.543150e-002
1.120439e+003, 2.487917e-002
1.122368e+003, 2.443651e-002
1.124296e+003, 2.398197e-002
1.126224e+003, 2.348643e-002
1.128153e+003, 2.319436e-002
1.130081e+003, 2.294991e-002
1.132010e+003, 2.271106e-002
1.133938e+003, 2.255239e-002
1.135867e+003, 2.236301e-002
1.137795e+003, 2.201945e-002
1.139724e+003, 2.177846e-002
1.141652e+003, 2.165182e-002
1.143581e+003, 2.146616e-002
1.145509e+003, 2.129591e-002
1.147438e+003, 2.104769e-002
1.149366e+003, 2.081568e-002
1.151295e+003, 2.055692e-002
1.153223e+003, 2.027245e-002
1.155151e+003, 1.998146e-002
1.157080e+003, 1.973185e-002
1.159008e+003, 1.950625e-002
1.160937e+003, 1.932217e-002
1.162865e+003, 1.900726e-002
1.164794e+003, 1.862485e-002
1.166722e+003, 1.827355e-002
1.168651e+003, 1.802053e-002
1.170579e+003, 1.782769e-002
1.172508e+003, 1.763032e-002
1.174436e+003, 1.746705e-002
1.176365e+003, 1.730516e-002
1.178293e+003, 1.709795e-002
1.180222e+003, 1.695831e-002
1.182150e+003, 1.690915e-002
1.184078e+003, 1.673438e-002
1.186007e+003, 1.660355e-002
1.187935e+003, 1.668813e-002
1.189864e+003, 1.672382e-002
1.191792e+003, 1.667541e-002
1.193721e+003, 1.657751e-002
1.195649e+003, 1.649434e-002
1.197578e+003, 1.649502e-002
1.199506e+003, 1.645445e-002
1.201435e+003, 1.642370e-002
1.203363e+003, 1.644061e-002
1.205292e+003, 1.634377e-002
1.207220e+003, 1.639668e-002
1.209149e+003, 1.652921e-002
1.211077e+003, 1.654188e-002
1.213005e+003, 1.642115e-002
1.214934e+003, 1.634546e-002
1.216862e+003, 1.644133e-002
1.218791e+003, 1.660835e-002
1.220719e+003, 1.664166e-002
1.222648e+003, 1.660113e-002
1.224576e+003, 1.650415e-002
1.226505e+003, 1.650136e-002
1.228433e+003, 1.658728e-002
1.230362e+003, 1.664063e-002
1.232290e+003, 1.665140e-002
1.234219e+003, 1.666364e-002
1.236147e+003, 1.668662e-002
1.238076e+003, 1.663888e-002
1.240004e+003, 1.663321e-002
1.241932e+003, 1.665473e-002
1.243861e+003, 1.673817e-002
1.245789e+003, 1.688077e-002
1.247718e+003, 1.694445e-002
1.249646e+003, 1.694191e-002
1.251575e+003, 1.699469e-002
1.253503e+003, 1.708741e-002
1.255432e+003, 1.720838e-002
1.257360e+003, 1.731400e-002
1.259289e+003, 1.740604e-002
1.261217e+003, 1.746301e-002
1.263146e+003, 1.750641e-002
1.265074e+003, 1.763210e-002
1.267003e+003, 1.777081e-002
1.268931e+003, 1.801183e-002
1.270859e+003, 1.830329e-002
1.272788e+003, 1.858203e-002
1.274716e+003, 1.869928e-002
1.276645e+003, 1.894933e-002
1.278573e+003, 1.920510e-002
1.280502e+003, 1.945918e-002
1.282430e+003, 1.959532e-002
1.284359e+003, 1.964572e-002
1.286287e+003, 1.976085e-002
1.288216e+003, 1.986551e-002
1.290144e+003, 1.997505e-002
1.292073e+003, 2.007894e-002
1.294001e+003, 2.021093e-002
1.295930e+003, 2.039938e-002
1.297858e+003, 2.055294e-002
1.299786e+003, 2.076082e-002
1.301715e+003, 2.098181e-002
1.303643e+003, 2.116109e-002
1.305572e+003, 2.125606e-002
1.307500e+003, 2.132307e-002
1.309429e+003, 2.140190e-002
1.311357e+003, 2.155407e-002
1.313286e+003, 2.175330e-002
1.315214e+003, 2.190870e-002
1.317143e+003, 2.192998e-002
1.319071e+003, 2.211677e-002
1.321000e+003, 2.236828e-002
1.322928e+003, 2.261941e-002
1.324857e+003, 2.286975e-002
1.326785e+003, 2.306740e-002
1.328714e+003, 2.316966e-002
1.330642e+003, 2.336977e-002
1.332570e+003, 2.359956e-002
1.334499e+003, 2.390725e-002
1.336427e+003, 2.427772e-002
1.338356e+003, 2.456757e-002
1.340284e+003, 2.478302e-002
1.342213e+003, 2.508751e-002
1.344141e+003, 2.547403e-002
1.346070e+003, 2.595319e-002
1.347998e+003, 2.650088e-002
1.349927e+003, 2.698457e-002
1.351855e+003, 2.735132e-002
1.353784e+003, 2.784419e-002
1.355712e+003, 2.854702e-002
1.357641e+003, 2.930033e-002
1.359569e+003, 3.007520e-002
1.361497e+003, 3.091120e-002
1.363426e+003, 3.172868e-002
1.365354e+003, 3.265451e-002
1.367283e+003, 3.364881e-002
1.369211e+003, 3.480972e-002
1.371140e+003, 3.611004e-002
1.373068e+003, 3.747348e-002
1.374997e+003, 3.887731e-002
1.376925e+003, 4.035549e-002
1.378854e+003, 4.190582e-002
1.380782e+003, 4.342635e-002
1.382711e+003, 4.493840e-002
1.384639e+003, 4.645044e-002
1.386568e+003, 4.779747e-002
1.388496e+003, 4.882207e-002
1.390424e+003, 4.955058e-002
1.392353e+003, 4.998719e-002
1.394281e+003, 5.001625e-002
1.396210e+003, 4.960936e-002
1.398138e+003, 4.896392e-002
1.400067e+003, 4.816624e-002
1.401995e+003, 4.711822e-002
1.403924e+003, 4.586973e-002
1.405852e+003, 4.463114e-002
1.407781e+003, 4.351475e-002
1.409709e+003, 4.248500e-002
1.411638e+003, 4.145636e-002
1.413566e+003, 4.045659e-002
1.415495e+003, 3.953618e-002
1.417423e+003, 3.886852e-002
1.419351e+003, 3.816508e-002
1.421280e+003, 3.728871e-002
1.423208e+003, 3.679011e-002
1.425137e+003, 3.634202e-002
1.427065e+003, 3.596229e-002
1.428994e+003, 3.582838e-002
1.430922e+003, 3.554748e-002
1.432851e+003, 3.529425e-002
1.434779e+003, 3.527526e-002
1.436708e+003, 3.525579e-002
1.438636e+003, 3.487390e-002
1.440565e+003, 3.460217e-002
1.442493e+003, 3.449294e-002
1.444422e+003, 3.444153e-002
1.446350e+003, 3.439245e-002
1.448278e+003, 3.425081e-002
1.450207e+003, 3.411283e-002
1.452135e+003, 3.398721e-002
1.454064e+003, 3.401578e-002
1.455992e+003, 3.432683e-002
1.457921e+003, 3.432263e-002
1.459849e+003, 3.391384e-002
1.461778e+003, 3.372137e-002
1.463706e+003, 3.379389e-002
1.465635e+003, 3.379659e-002
1.467563e+003, 3.344022e-002
1.469492e+003, 3.324044e-002
1.471420e+003, 3.335598e-002
1.473349e+003, 3.328235e-002
1.475277e+003, 3.296530e-002
1.477205e+003, 3.268431e-002
1.479134e+003, 3.237662e-002
1.481062e+003, 3.223438e-002
1.482991e+003, 3.206650e-002
1.484919e+003, 3.193495e-002
1.486848e+003, 3.181754e-002
1.488776e+003, 3.154260e-002
1.490705e+003, 3.117094e-002
1.492633e+003, 3.075565e-002
1.494562e+003, 3.061369e-002
1.496490e+003, 3.049246e-002
1.498419e+003, 3.023931e-002
1.500347e+003, 2.988072e-002
1.502276e+003, 2.947229e-002
1.504204e+003, 2.945774e-002
1.506132e+003, 2.958198e-002
1.508061e+003, 2.900651e-002
1.509989e+003, 2.830635e-002
1.511918e+003, 2.796222e-002
1.513846e+003, 2.767740e-002
1.515775e+003, 2.757299e-002
1.517703e+003, 2.737268e-002
1.519632e+003, 2.722812e-002
1.521560e+003, 2.711533e-002
1.523489e+003, 2.658879e-002
1.525417e+003, 2.623319e-002
1.527346e+003, 2.606338e-002
1.529274e+003, 2.581874e-002
1.531203e+003, 2.559340e-002
1.533131e+003, 2.534244e-002
1.535059e+003, 2.492988e-002
1.536988e+003, 2.482489e-002
1.538916e+003, 2.504920e-002
1.540845e+003, 2.484474e-002
1.542773e+003, 2.425661e-002
1.544702e+003, 2.382511e-002
1.546630e+003, 2.347129e-002
1.548559e+003, 2.315094e-002
1.550487e+003, 2.289150e-002
1.552416e+003, 2.270089e-002
1.554344e+003, 2.267053e-002
1.556273e+003, 2.255003e-002
1.558201e+003, 2.280517e-002
1.560130e+003, 2.248844e-002
1.562058e+003, 2.158996e-002
1.563986e+003, 2.101502e-002
1.565915e+003, 2.073872e-002
1.567843e+003, 2.048344e-002
1.569772e+003, 2.027758e-002
1.571700e+003, 1.997223e-002
1.573629e+003, 1.997141e-002
1.575557e+003, 2.025354e-002
1.577486e+003, 1.995067e-002
1.579414e+003, 1.942807e-002
1.581343e+003, 1.932667e-002
1.583271e+003, 1.916630e-002
1.585200e+003, 1.907465e-002
1.587128e+003, 1.895138e-002
1.589057e+003, 1.891268e-002
1.590985e+003, 1.900171e-002
1.592913e+003, 1.910403e-002
1.594842e+003, 1.904300e-002
1.596770e+003, 1.894637e-002
1.598699e+003, 1.888588e-002
1.600627e+003, 1.881317e-002
1.602556e+003, 1.879003e-002
1.604484e+003, 1.879607e-002
1.606413e+003, 1.862689e-002
1.608341e+003, 1.857885e-002
1.610270e+003, 1.859497e-002
1.612198e+003, 1.846796e-002
1.614127e+003, 1.855905e-002
1.616055e+003, 1.893152e-002
1.617984e+003, 1.876316e-002
1.619912e+003, 1.843097e-002
1.621840e+003, 1.846899e-002
1.623769e+003, 1.858372e-002
1.625697e+003, 1.839609e-002
1.627626e+003, 1.820431e-002
1.629554e+003, 1.802699e-002
1.631483e+003, 1.799562e-002
1.633411e+003, 1.827416e-002
1.635340e+003, 1.864479e-002
1.637268e+003, 1.839888e-002
1.639197e+003, 1.807449e-002
1.641125e+003, 1.797716e-002
1.643054e+003, 1.798574e-002
1.644982e+003, 1.823565e-002
1.646911e+003, 1.838840e-002
1.648839e+003, 1.808224e-002
1.650767e+003, 1.825152e-002
1.652696e+003, 1.891487e-002
1.654624e+003, 1.840885e-002
1.656553e+003, 1.767014e-002
1.658481e+003, 1.763268e-002
1.660410e+003, 1.756601e-002
1.662338e+003, 1.752510e-002
1.664267e+003, 1.741960e-002
1.666195e+003, 1.729641e-002
1.668124e+003, 1.741882e-002
1.670052e+003, 1.741252e-002
1.671981e+003, 1.708564e-002
1.673909e+003, 1.719414e-002
1.675838e+003, 1.736552e-002
1.677766e+003, 1.691833e-002
1.679694e+003, 1.679298e-002
1.681623e+003, 1.676382e-002
1.683551e+003, 1.720724e-002
1.685480e+003, 1.734175e-002
1.687408e+003, 1.688867e-002
1.689337e+003, 1.662734e-002
1.691265e+003, 1.641693e-002
1.693194e+003, 1.646300e-002
1.695122e+003, 1.706316e-002
1.697051e+003, 1.715898e-002
1.698979e+003, 1.716123e-002
1.700908e+003, 1.713656e-002
1.702836e+003, 1.657760e-002
1.704765e+003, 1.648580e-002
1.706693e+003, 1.642539e-002
1.708621e+003, 1.644080e-002
1.710550e+003, 1.639960e-002
1.712478e+003, 1.650474e-002
1.714407e+003, 1.667874e-002
1.716335e+003, 1.697861e-002
1.718264e+003, 1.692970e-002
1.720192e+003, 1.653671e-002
1.722121e+003, 1.644095e-002
1.724049e+003, 1.655430e-002
1.725978e+003, 1.652755e-002
1.727906e+003, 1.653225e-002
1.729835e+003, 1.663477e-002
1.731763e+003, 1.680144e-002
1.733692e+003, 1.687694e-002
1.735620e+003, 1.631568e-002
1.737548e+003, 1.570179e-002
1.739477e+003, 1.538426e-002
1.741405e+003, 1.498003e-002
1.743334e+003, 1.464824e-002
1.745262e+003, 1.436540e-002
1.747191e+003, 1.417486e-002
1.749119e+003, 1.396489e-002
1.751048e+003, 1.384224e-002
1.752976e+003, 1.353618e-002
1.754905e+003, 1.340351e-002
1.756833e+003, 1.344032e-002
1.758762e+003, 1.342731e-002
1.760690e+003, 1.339838e-002
1.762619e+003, 1.345262e-002
1.764547e+003, 1.350291e-002
1.766475e+003, 1.328590e-002
1.768404e+003, 1.314510e-002
1.770332e+003, 1.322512e-002
1.772261e+003, 1.341948e-002
1.774189e+003, 1.330014e-002
1.776118e+003, 1.288678e-002
1.778046e+003, 1.254530e-002
1.779975e+003, 1.252868e-002
1.781903e+003, 1.266508e-002
1.783832e+003, 1.270516e-002
1.785760e+003, 1.261718e-002
1.787689e+003, 1.239819e-002
1.789617e+003, 1.260076e-002
1.791546e+003, 1.282727e-002
1.793474e+003, 1.253942e-002
1.795402e+003, 1.213147e-002
1.797331e+003, 1.211696e-002
1.799259e+003, 1.227056e-002
1.801188e+003, 1.218385e-002
1.803116e+003, 1.187764e-002
1.805045e+003, 1.177418e-002
1.806973e+003, 1.166837e-002
1.808902e+003, 1.178515e-002
1.810830e+003, 1.165732e-002
1.812759e+003, 1.136328e-002
1.814687e+003, 1.135979e-002
1.816616e+003, 1.132349e-002
1.818544e+003, 1.106690e-002
1.820473e+003, 1.113870e-002
1.822401e+003, 1.113444e-002
1.824329e+003, 1.119385e-002
1.826258e+003, 1.109515e-002
1.828186e+003, 1.106189e-002
1.830115e+003, 1.114199e-002
1.832043e+003, 1.099577e-002
1.833972e+003, 1.084808e-002
1.835900e+003, 1.071366e-002
1.837829e+003, 1.058852e-002
1.839757e+003, 1.054600e-002
1.841686e+003, 1.045410e-002
1.843614e+003, 1.037462e-002
1.845543e+003, 1.048657e-002
1.847471e+003, 1.067194e-002
1.849400e+003, 1.052679e-002
1.851328e+003, 1.051731e-002
1.853256e+003, 1.039208e-002
1.855185e+003, 1.013399e-002
1.857113e+003, 1.002993e-002
1.859042e+003, 1.005020e-002
1.860970e+003, 9.898678e-003
1.862899e+003, 9.858944e-003
1.864827e+003, 9.826300e-003
1.866756e+003, 9.831385e-003
1.868684e+003, 1.007188e-002
1.870613e+003, 1.002108e-002
1.872541e+003, 9.789861e-003
1.874470e+003, 9.914164e-003
1.876398e+003, 9.936714e-003
1.878327e+003, 9.928206e-003
1.880255e+003, 9.997341e-003
1.882183e+003, 1.004446e-002
1.884112e+003, 1.008428e-002
1.886040e+003, 1.004831e-002
1.887969e+003, 9.959425e-003
1.889897e+003, 9.845738e-003
1.891826e+003, 9.608722e-003
1.893754e+003, 9.598263e-003
1.895683e+003, 9.636849e-003
1.897611e+003, 9.829904e-003
1.899540e+003, 9.934361e-003
1.901468e+003, 9.816613e-003
1.903397e+003, 9.559278e-003
1.905325e+003, 9.872956e-003
1.907254e+003, 1.009932e-002
1.909182e+003, 1.006395e-002
1.911110e+003, 9.844751e-003
1.913039e+003, 9.799863e-003
1.914967e+003, 9.839085e-003
1.916896e+003, 9.705665e-003
1.918824e+003, 9.516357e-003
1.920753e+003, 9.536753e-003
1.922681e+003, 9.320403e-003
1.924610e+003, 8.902556e-003
1.926538e+003, 9.164103e-003
1.928467e+003, 9.588743e-003
1.930395e+003, 9.190617e-003
1.932324e+003, 8.988276e-003
1.934252e+003, 8.980141e-003
1.936181e+003, 8.590273e-003
1.938109e+003, 8.094671e-003
1.940037e+003, 7.917519e-003
1.941966e+003, 8.423671e-003
1.943894e+003, 8.674753e-003
1.945823e+003, 8.471041e-003
1.947751e+003, 8.875558e-003
1.949680e+003, 9.040925e-003
1.951608e+003, 8.327631e-003
1.953537e+003, 7.860099e-003
1.955465e+003, 7.453512e-003
1.957394e+003, 7.055253e-003
1.959322e+003, 7.174456e-003
1.961251e+003, 7.321050e-003
1.963179e+003, 7.902773e-003
1.965108e+003, 8.282620e-003
1.967036e+003, 7.559121e-003
1.968964e+003, 6.791290e-003
1.970893e+003, 6.408780e-003
1.972821e+003, 6.318454e-003
1.974750e+003, 7.815209e-003
1.976678e+003, 8.445119e-003
1.978607e+003, 8.051027e-003
1.980535e+003, 6.963086e-003
1.982464e+003, 6.499552e-003
1.984392e+003, 7.473687e-003
1.986321e+003, 7.503893e-003
1.988249e+003, 7.200683e-003
1.990178e+003, 7.205700e-003
1.992106e+003, 7.096488e-003
1.994035e+003, 7.308282e-003
1.995963e+003, 7.264286e-003
1.997891e+003, 8.074218e-003
1.999820e+003, 8.840607e-003
2.001748e+003, 8.013153e-003
2.003677e+003, 7.021456e-003
2.005605e+003, 6.857640e-003
2.007534e+003, 7.650169e-003
2.009462e+003, 7.278111e-003
2.011391e+003, 6.568679e-003
2.013319e+003, 7.166790e-003
2.015248e+003, 7.732447e-003
2.017176e+003, 8.206139e-003
2.019105e+003, 7.739266e-003
2.021033e+003, 6.067153e-003
2.022962e+003, 5.582487e-003
2.024890e+003, 6.691145e-003
2.026818e+003, 7.215204e-003
2.028747e+003, 7.891653e-003
2.030675e+003, 7.493930e-003
2.032604e+003, 6.980314e-003
2.034532e+003, 6.623629e-003
2.036461e+003, 6.041778e-003
2.038389e+003, 6.170073e-003
2.040318e+003, 6.462909e-003
2.042246e+003, 6.442992e-003
2.044175e+003, 6.210812e-003
2.046103e+003, 5.455568e-003
2.048031e+003, 5.433457e-003
2.049960e+003, 6.044451e-003
2.051888e+003, 6.069168e-003
2.053817e+003, 5.920258e-003
2.055745e+003, 6.114673e-003
2.057674e+003, 6.141887e-003
2.059602e+003, 5.788768e-003
2.061531e+003, 5.600361e-003
2.063459e+003, 5.626346e-003
2.065388e+003, 5.226530e-003
2.067316e+003, 5.273299e-003
2.069245e+003, 5.736136e-003
2.071173e+003, 5.959105e-003
2.073102e+003, 5.455392e-003
2.075030e+003, 5.467543e-003
2.076958e+003, 5.560110e-003
2.078887e+003, 5.600803e-003
2.080815e+003, 5.517107e-003
2.082744e+003, 5.335835e-003
2.084672e+003, 5.605440e-003
2.086601e+003, 5.297728e-003
2.088529e+003, 4.810478e-003
2.090458e+003, 5.003679e-003
2.092386e+003, 4.569927e-003
2.094315e+003, 3.768117e-003
2.096243e+003, 4.256501e-003
2.098172e+003, 5.521092e-003
2.100100e+003, 5.362259e-003
2.102029e+003, 4.911407e-003
2.103957e+003, 5.021845e-003
2.105885e+003, 4.918632e-003
2.107814e+003, 4.277790e-003
2.109742e+003, 4.225395e-003
2.111671e+003, 5.034234e-003
2.113599e+003, 5.473187e-003
2.115528e+003, 5.210135e-003
2.117456e+003, 5.184503e-003
2.119385e+003, 5.150919e-003
2.121313e+003, 4.652534e-003
2.123242e+003, 4.551809e-003
2.125170e+003, 4.547562e-003
2.127099e+003, 4.384860e-003
2.129027e+003, 4.167026e-003
2.130956e+003, 4.171014e-003
2.132884e+003, 3.957302e-003
2.134813e+003, 4.642774e-003
2.136741e+003, 5.147957e-003
2.138669e+003, 4.224640e-003
2.140598e+003, 4.540826e-003
2.142526e+003, 5.132469e-003
2.144455e+003, 4.978710e-003
2.146383e+003, 4.975021e-003
2.148312e+003, 5.004566e-003
2.150240e+003, 4.541684e-003
2.152169e+003, 4.135459e-003
2.154097e+003, 4.496974e-003
2.156026e+003, 4.933665e-003
2.157954e+003, 4.985237e-003
2.159883e+003, 6.316454e-003
2.161811e+003, 6.719647e-003
2.163740e+003, 6.561170e-003
2.165668e+003, 7.372969e-003
2.167596e+003, 7.709572e-003
2.169525e+003, 7.187353e-003
2.171453e+003, 6.533823e-003
2.173382e+003, 6.808782e-003
2.175310e+003, 8.045610e-003
2.177239e+003, 8.493510e-003
2.179167e+003, 7.973274e-003
2.181096e+003, 7.334965e-003
2.183024e+003, 7.837242e-003
2.184953e+003, 8.764543e-003
2.186881e+003, 9.279082e-003
2.188810e+003, 9.616921e-003
2.190738e+003, 8.848089e-003
2.192667e+003, 7.529679e-003
2.194595e+003, 8.077558e-003
2.196523e+003, 8.695208e-003
2.198452e+003, 8.731279e-003
2.200380e+003, 9.439887e-003
2.202309e+003, 9.841762e-003
2.204237e+003, 9.572665e-003
2.206166e+003, 9.184337e-003
2.208094e+003, 8.255130e-003
2.210023e+003, 8.603615e-003
2.211951e+003, 9.200552e-003
2.213880e+003, 8.853331e-003
2.215808e+003, 9.047315e-003
2.217737e+003, 1.012171e-002
2.219665e+003, 9.982035e-003
2.221594e+003, 9.997753e-003
2.223522e+003, 9.378504e-003
2.225450e+003, 9.211784e-003
2.227379e+003, 9.661196e-003
2.229307e+003, 9.488397e-003
2.231236e+003, 9.469827e-003
2.233164e+003, 9.498061e-003
2.235093e+003, 9.226819e-003
2.237021e+003, 9.266563e-003
2.238950e+003, 9.482431e-003
2.240878e+003, 9.354627e-003
2.242807e+003, 9.268661e-003
2.244735e+003, 9.321365e-003
2.246664e+003, 9.513631e-003
2.248592e+003, 9.644155e-003
2.250521e+003, 9.887403e-003
2.252449e+003, 9.669585e-003
2.254377e+003, 9.262093e-003
2.256306e+003, 8.951287e-003
2.258234e+003, 8.889420e-003
2.260163e+003, 9.652384e-003
2.262091e+003, 9.903142e-003
2.264020e+003, 9.554604e-003
2.265948e+003, 8.959939e-003
2.267877e+003, 8.711990e-003
2.269805e+003, 9.125355e-003
2.271734e+003, 9.693979e-003
2.273662e+003, 9.748154e-003
2.275591e+003, 9.897108e-003
2.277519e+003, 9.907551e-003
2.279448e+003, 9.793188e-003
2.281376e+003, 9.258615e-003
2.283304e+003, 9.185968e-003
2.285233e+003, 9.416055e-003
2.287161e+003, 9.555398e-003
2.289090e+003, 9.439802e-003
2.291018e+003, 9.357680e-003
2.292947e+003, 9.304074e-003
2.294875e+003, 9.230224e-003
2.296804e+003, 8.933499e-003
2.298732e+003, 8.501251e-003
2.300661e+003, 8.599893e-003
2.302589e+003, 9.104253e-003
2.304518e+003, 8.789117e-003
2.306446e+003, 8.199374e-003
2.308375e+003, 8.223496e-003
2.310303e+003, 8.695773e-003
2.312231e+003, 8.988259e-003
2.314160e+003, 8.947076e-003
2.316088e+003, 8.920483e-003
2.318017e+003, 9.126481e-003
2.319945e+003, 9.417845e-003
2.321874e+003, 9.835054e-003
2.323802e+003, 9.846522e-003
2.325731e+003, 9.153433e-003
2.327659e+003, 8.880627e-003
2.329588e+003, 9.127804e-003
2.331516e+003, 9.232306e-003
2.333445e+003, 9.147727e-003
2.335373e+003, 9.085449e-003
2.337302e+003, 9.246418e-003
2.339230e+003, 9.039175e-003
2.341158e+003, 8.750099e-003
2.343087e+003, 8.660968e-003
2.345015e+003, 8.483844e-003
2.346944e+003, 8.137653e-003
2.348872e+003, 7.913020e-003
2.350801e+003, 7.922060e-003
2.352729e+003, 8.060876e-003
2.354658e+003, 8.370512e-003
2.356586e+003, 8.904799e-003
2.358515e+003, 9.160290e-003
2.360443e+003, 9.097640e-003
2.362372e+003, 9.081243e-003
2.364300e+003, 9.212493e-003
2.366229e+003, 8.842338e-003
2.368157e+003, 8.311357e-003
2.370085e+003, 8.036084e-003
2.372014e+003, 8.020879e-003
2.373942e+003, 7.797058e-003
2.375871e+003, 7.714684e-003
2.377799e+003, 7.660113e-003
2.379728e+003, 7.478543e-003
2.381656e+003, 7.270244e-003
2.383585e+003, 7.048519e-003
2.385513e+003, 6.937459e-003
2.387442e+003, 7.036658e-003
2.389370e+003, 7.220832e-003
2.391299e+003, 7.320644e-003
2.393227e+003, 7.200019e-003
2.395156e+003, 6.962877e-003
2.397084e+003, 6.781805e-003
2.399012e+003, 6.889849e-003
2.400941e+003, 6.888051e-003
2.402869e+003, 6.938083e-003
2.404798e+003, 6.859663e-003
2.406726e+003, 6.853467e-003
2.408655e+003, 6.799025e-003
2.410583e+003, 6.793692e-003
2.412512e+003, 6.926183e-003
2.414440e+003, 7.147233e-003
2.416369e+003, 7.030085e-003
2.418297e+003, 6.684779e-003
2.420226e+003, 6.670213e-003
2.422154e+003, 7.070418e-003
2.424083e+003, 7.202699e-003
2.426011e+003, 7.104002e-003
2.427939e+003, 6.865826e-003
2.429868e+003, 7.068824e-003
2.431796e+003, 7.285709e-003
2.433725e+003, 6.895652e-003
2.435653e+003, 6.877024e-003
2.437582e+003, 6.786191e-003
2.439510e+003, 6.493907e-003
2.441439e+003, 6.589582e-003
2.443367e+003, 6.700405e-003
2.445296e+003, 6.505418e-003
2.447224e+003, 6.617140e-003
2.449153e+003, 6.955108e-003
2.451081e+003, 6.978028e-003
2.453010e+003, 6.688184e-003
2.454938e+003, 6.408750e-003
2.456866e+003, 6.296969e-003
2.458795e+003, 6.382011e-003
2.460723e+003, 6.432171e-003
2.462652e+003, 6.276216e-003
2.464580e+003, 6.361417e-003
2.466509e+003, 6.476933e-003
2.468437e+003, 6.469441e-003
2.470366e+003, 6.609346e-003
2.472294e+003, 6.707596e-003
2.474223e+003, 6.495112e-003
2.476151e+003, 6.149397e-003
2.478080e+003, 6.033168e-003
2.480008e+003, 6.049722e-003
2.481937e+003, 6.098208e-003
2.483865e+003, 6.468375e-003
2.485793e+003, 6.429601e-003
2.487722e+003, 6.460004e-003
2.489650e+003, 6.380256e-003
2.491579e+003, 6.074948e-003
2.493507e+003, 5.894683e-003
2.495436e+003, 6.093492e-003
2.497364e+003, 6.313618e-003
2.499293e+003, 6.114981e-003
2.501221e+003, 5.783511e-003
2.503150e+003, 5.564912e-003
2.505078e+003, 5.437344e-003
2.507007e+003, 5.358764e-003
2.508935e+003, 5.654510e-003
2.510864e+003, 5.896925e-003
2.512792e+003, 5.814687e-003
2.514720e+003, 5.656038e-003
2.516649e+003, 5.748172e-003
2.518577e+003, 6.035613e-003
2.520506e+003, 6.008788e-003
2.522434e+003, 5.732021e-003
2.524363e+003, 5.565276e-003
2.526291e+003, 5.386092e-003
2.528220e+003, 5.274085e-003
2.530148e+003, 5.270227e-003
2.532077e+003, 5.099129e-003
2.534005e+003, 5.244099e-003
2.535934e+003, 5.284177e-003
2.537862e+003, 5.159735e-003
2.539791e+003, 4.942213e-003
2.541719e+003, 4.779036e-003
2.543647e+003, 4.901292e-003
2.545576e+003, 5.389237e-003
2.547504e+003, 4.987580e-003
2.549433e+003, 4.889406e-003
2.551361e+003, 5.206846e-003
2.553290e+003, 5.235809e-003
2.555218e+003, 5.129658e-003
2.557147e+003, 5.036365e-003
2.559075e+003, 4.815029e-003
2.561004e+003, 4.787597e-003
2.562932e+003, 4.484770e-003
2.564861e+003, 4.523090e-003
2.566789e+003, 4.799397e-003
2.568718e+003, 4.702959e-003
2.570646e+003, 4.634769e-003
2.572574e+003, 4.534388e-003
2.574503e+003, 4.630758e-003
2.576431e+003, 4.592786e-003
2.578360e+003, 4.628353e-003
2.580288e+003, 4.873968e-003
2.582217e+003, 4.893469e-003
2.584145e+003, 4.924166e-003
2.586074e+003, 4.934686e-003
2.588002e+003, 4.856769e-003
2.589931e+003, 4.670243e-003
2.591859e+003, 4.897222e-003
2.593788e+003, 4.890634e-003
2.595716e+003, 4.727188e-003
2.597645e+003, 4.723393e-003
2.599573e+003, 4.523446e-003
2.601501e+003, 4.401450e-003
2.603430e+003, 4.614343e-003
2.605358e+003, 4.728501e-003
2.607287e+003, 5.154156e-003
2.609215e+003, 5.295328e-003
2.611144e+003, 5.133632e-003
2.613072e+003, 5.009282e-003
2.615001e+003, 5.081076e-003
2.616929e+003, 5.013804e-003
2.618858e+003, 4.771013e-003
2.620786e+003, 4.820000e-003
2.622715e+003, 5.079754e-003
2.624643e+003, 5.090606e-003
2.626572e+003, 4.738230e-003
2.628500e+003, 4.557510e-003
2.630428e+003, 4.624862e-003
2.632357e+003, 4.694771e-003
2.634285e+003, 4.647246e-003
2.636214e+003, 4.710336e-003
2.638142e+003, 4.809943e-003
2.640071e+003, 4.750090e-003
2.641999e+003, 4.623083e-003
2.643928e+003, 4.418328e-003
2.645856e+003, 4.463219e-003
2.647785e+003, 4.504834e-003
2.649713e+003, 4.533814e-003
2.651642e+003, 4.462449e-003
2.653570e+003, 4.500080e-003
2.655499e+003, 4.685101e-003
2.657427e+003, 4.845930e-003
2.659355e+003, 4.642818e-003
2.661284e+003, 4.378537e-003
2.663212e+003, 4.230226e-003
2.665141e+003, 4.169965e-003
2.667069e+003, 4.186602e-003
2.668998e+003, 4.092848e-003
2.670926e+003, 4.147722e-003
2.672855e+003, 4.265070e-003
2.674783e+003, 4.350562e-003
2.676712e+003, 4.429955e-003
2.678640e+003, 4.309716e-003
2.680569e+003, 4.436968e-003
2.682497e+003, 4.401751e-003
2.684426e+003, 4.348007e-003
2.686354e+003, 4.462149e-003
2.688282e+003, 4.469339e-003
2.690211e+003, 4.438775e-003
2.692139e+003, 4.631928e-003
2.694068e+003, 4.634492e-003
2.695996e+003, 4.471058e-003
2.697925e+003, 4.317556e-003
2.699853e+003, 4.147422e-003
2.701782e+003, 4.258957e-003
2.703710e+003, 4.348005e-003
2.705639e+003, 4.364918e-003
2.707567e+003, 4.478482e-003
2.709496e+003, 4.545250e-003
2.711424e+003, 4.621411e-003
2.713353e+003, 4.713115e-003
2.715281e+003, 4.780832e-003
2.717209e+003, 4.661801e-003
2.719138e+003, 4.538351e-003
2.721066e+003, 4.689155e-003
2.722995e+003, 4.680024e-003
2.724923e+003, 4.504657e-003
2.726852e+003, 4.472884e-003
2.728780e+003, 4.440344e-003
2.730709e+003, 4.515102e-003
2.732637e+003, 4.689034e-003
2.734566e+003, 4.842679e-003
2.736494e+003, 4.919339e-003
2.738423e+003, 4.808159e-003
2.740351e+003, 4.655900e-003
2.742280e+003, 4.865855e-003
2.744208e+003, 5.039796e-003
2.746136e+003, 5.030043e-003
2.748065e+003, 4.780743e-003
2.749993e+003, 4.903077e-003
2.751922e+003, 5.022393e-003
2.753850e+003, 5.084604e-003
2.755779e+003, 5.088128e-003
2.757707e+003, 4.882547e-003
2.759636e+003, 4.868566e-003
2.761564e+003, 5.117806e-003
2.763493e+003, 5.026166e-003
2.765421e+003, 5.014923e-003
2.767350e+003, 5.212855e-003
2.769278e+003, 5.222994e-003
2.771207e+003, 5.256382e-003
2.773135e+003, 5.400554e-003
2.775063e+003, 5.401780e-003
2.776992e+003, 5.336820e-003
2.778920e+003, 5.141761e-003
2.780849e+003, 5.073576e-003
2.782777e+003, 5.134650e-003
2.784706e+003, 5.229909e-003
2.786634e+003, 5.323903e-003
2.788563e+003, 5.329963e-003
2.790491e+003, 5.256259e-003
2.792420e+003, 5.233837e-003
2.794348e+003, 5.124621e-003
2.796277e+003, 5.309287e-003
2.798205e+003, 5.446912e-003
2.800134e+003, 5.542990e-003
2.802062e+003, 5.523082e-003
2.803990e+003, 5.699228e-003
2.805919e+003, 5.882090e-003
2.807847e+003, 5.818877e-003
2.809776e+003, 5.744452e-003
2.811704e+003, 6.095190e-003
2.813633e+003, 6.401058e-003
2.815561e+003, 6.370056e-003
2.817490e+003, 6.260561e-003
2.819418e+003, 5.978180e-003
2.821347e+003, 5.616862e-003
2.823275e+003, 5.653275e-003
2.825204e+003, 5.858365e-003
2.827132e+003, 6.081547e-003
2.829061e+003, 6.090841e-003
2.830989e+003, 6.096081e-003
2.832917e+003, 6.291986e-003
2.834846e+003, 6.415660e-003
2.836774e+003, 6.559548e-003
2.838703e+003, 6.593002e-003
2.840631e+003, 6.362319e-003
2.842560e+003, 6.444528e-003
2.844488e+003, 6.715958e-003
2.846417e+003, 6.654480e-003
2.848345e+003, 6.436462e-003
2.850274e+003, 6.438600e-003
2.852202e+003, 6.467621e-003
2.854131e+003, 6.556179e-003
2.856059e+003, 6.528324e-003
2.857988e+003, 6.588189e-003
2.859916e+003, 6.604412e-003
2.861844e+003, 6.505206e-003
2.863773e+003, 6.329482e-003
2.865701e+003, 6.338092e-003
2.867630e+003, 6.274527e-003
2.869558e+003, 6.352390e-003
2.871487e+003, 6.326590e-003
2.873415e+003, 6.129392e-003
2.875344e+003, 5.998000e-003
2.877272e+003, 6.033313e-003
2.879201e+003, 5.870818e-003
2.881129e+003, 5.735845e-003
2.883058e+003, 5.643401e-003
2.884986e+003, 5.863967e-003
2.886915e+003, 6.005958e-003
2.888843e+003, 6.483783e-003
2.890771e+003, 6.564620e-003
2.892700e+003, 6.247391e-003
2.894628e+003, 6.323050e-003
2.896557e+003, 6.664195e-003
2.898485e+003, 6.833792e-003
2.900414e+003, 6.672509e-003
2.902342e+003, 6.489561e-003
2.904271e+003, 6.533980e-003
2.906199e+003, 6.440908e-003
2.908128e+003, 6.557013e-003
2.910056e+003, 6.633342e-003
2.911985e+003, 6.580859e-003
2.913913e+003, 6.702525e-003
2.915842e+003, 6.523851e-003
2.917770e+003, 6.663414e-003
2.919698e+003, 7.192447e-003
2.921627e+003, 7.144691e-003
2.923555e+003, 7.012709e-003
2.925484e+003, 6.909498e-003
2.927412e+003, 7.072798e-003
2.929341e+003, 7.256328e-003
2.931269e+003, 7.012309e-003
2.933198e+003, 6.739278e-003
2.935126e+003, 6.687265e-003
2.937055e+003, 6.575600e-003
2.938983e+003, 6.079424e-003
2.940912e+003, 5.574655e-003
2.942840e+003, 5.839874e-003
2.944769e+003, 6.177752e-003
2.946697e+003, 6.291542e-003
2.948625e+003, 6.158575e-003
2.950554e+003, 6.110400e-003
2.952482e+003, 6.356479e-003
2.954411e+003, 6.611383e-003
2.956339e+003, 6.511786e-003
2.958268e+003, 6.527625e-003
2.960196e+003, 6.539330e-003
2.962125e+003, 6.435052e-003
2.964053e+003, 6.318295e-003
2.965982e+003, 5.939756e-003
2.967910e+003, 5.722411e-003
2.969839e+003, 5.917353e-003
2.971767e+003, 5.492822e-003
2.973696e+003, 5.029194e-003
2.975624e+003, 4.957202e-003
2.977552e+003, 4.943141e-003
2.979481e+003, 4.973264e-003
2.981409e+003, 4.792612e-003
2.983338e+003, 4.657472e-003
2.985266e+003, 4.781463e-003
2.987195e+003, 4.699080e-003
2.989123e+003, 4.530230e-003
2.991052e+003, 4.454656e-003
2.992980e+003, 4.772377e-003
2.994909e+003, 4.648539e-003
2.996837e+003, 4.471135e-003
2.998766e+003, 4.422136e-003
3.000694e+003, 4.150724e-003
3.002623e+003, 4.122918e-003
3.004551e+003, 4.384512e-003
3.006479e+003, 4.750854e-003
3.008408e+003, 4.940952e-003
3.010336e+003, 4.858686e-003
3.012265e+003, 4.697284e-003
3.014193e+003, 4.728916e-003
3.016122e+003, 4.820682e-003
3.018050e+003, 4.412785e-003
3.019979e+003, 4.252131e-003
3.021907e+003, 4.477023e-003
3.023836e+003, 4.487890e-003
3.025764e+003, 4.362666e-003
3.027693e+003, 4.019311e-003
3.029621e+003, 3.769033e-003
3.031550e+003, 4.085515e-003
3.033478e+003, 4.517249e-003
3.035406e+003, 4.452071e-003
3.037335e+003, 4.421334e-003
3.039263e+003, 4.396828e-003
3.041192e+003, 4.429706e-003
3.043120e+003, 4.311803e-003
3.045049e+003, 4.023310e-003
3.046977e+003, 3.974181e-003
3.048906e+003, 4.252093e-003
3.050834e+003, 4.869223e-003
3.052763e+003, 4.858360e-003
3.054691e+003, 4.430439e-003
3.056620e+003, 4.141702e-003
3.058548e+003, 4.780900e-003
3.060477e+003, 5.237546e-003
3.062405e+003, 4.798575e-003
3.064333e+003, 4.357556e-003
3.066262e+003, 4.344773e-003
3.068190e+003, 4.404895e-003
3.070119e+003, 4.597273e-003
3.072047e+003, 4.762327e-003
3.073976e+003, 4.654078e-003
3.075904e+003, 4.513897e-003
3.077833e+003, 4.463990e-003
3.079761e+003, 4.696321e-003
3.081690e+003, 4.875884e-003
3.083618e+003, 4.812559e-003
3.085547e+003, 5.092482e-003
3.087475e+003, 5.107544e-003
3.089404e+003, 4.620549e-003
3.091332e+003, 4.351584e-003
3.093260e+003, 4.399818e-003
3.095189e+003, 4.848009e-003
3.097117e+003, 5.037832e-003
3.099046e+003, 4.681787e-003
3.100974e+003, 4.583631e-003
3.102903e+003, 4.772452e-003
3.104831e+003, 4.945947e-003
3.106760e+003, 4.872535e-003
3.108688e+003, 4.898573e-003
3.110617e+003, 5.229007e-003
3.112545e+003, 5.248877e-003
3.114474e+003, 4.929439e-003
3.116402e+003, 4.717013e-003
3.118331e+003, 4.818306e-003
3.120259e+003, 5.044134e-003
3.122188e+003, 5.324375e-003
3.124116e+003, 5.259566e-003
3.126044e+003, 5.145594e-003
3.127973e+003, 5.211679e-003
3.129901e+003, 4.933490e-003
3.131830e+003, 4.952225e-003
3.133758e+003, 5.442828e-003
3.135687e+003, 5.495687e-003
3.137615e+003, 5.390797e-003
3.139544e+003, 5.222076e-003
3.141472e+003, 4.814993e-003
3.143401e+003, 4.739947e-003
3.145329e+003, 4.792918e-003
3.147258e+003, 4.894188e-003
3.149186e+003, 5.014025e-003
3.151115e+003, 5.008785e-003
3.153043e+003, 4.872887e-003
3.154971e+003, 5.146209e-003
3.156900e+003, 5.303874e-003
3.158828e+003, 5.143816e-003
3.160757e+003, 4.956872e-003
3.162685e+003, 5.153707e-003
3.164614e+003, 5.295122e-003
3.166542e+003, 5.291463e-003
3.168471e+003, 5.347673e-003
3.170399e+003, 5.357111e-003
3.172328e+003, 4.972713e-003
3.174256e+003, 5.067848e-003
3.176185e+003, 5.312906e-003
3.178113e+003, 5.374558e-003
3.180042e+003, 5.462615e-003
3.181970e+003, 5.595567e-003
3.183898e+003, 5.462710e-003
3.185827e+003, 5.417770e-003
3.187755e+003, 5.009229e-003
3.189684e+003, 5.135061e-003
3.191612e+003, 5.161592e-003
3.193541e+003, 4.960556e-003
3.195469e+003, 5.162879e-003
3.197398e+003, 5.374070e-003
3.199326e+003, 5.125631e-003
3.201255e+003, 4.739835e-003
3.203183e+003, 4.845537e-003
3.205112e+003, 4.870057e-003
3.207040e+003, 5.136570e-003
3.208969e+003, 5.393851e-003
3.210897e+003, 4.696404e-003
3.212825e+003, 4.430589e-003
3.214754e+003, 4.779470e-003
3.216682e+003, 5.073327e-003
3.218611e+003, 5.169244e-003
3.220539e+003, 4.891087e-003
3.222468e+003, 4.764666e-003
3.224396e+003, 5.178757e-003
3.226325e+003, 5.521563e-003
3.228253e+003, 5.104151e-003
3.230182e+003, 4.705056e-003
3.232110e+003, 4.779936e-003
3.234039e+003, 4.405941e-003
3.235967e+003, 4.578916e-003
3.237896e+003, 4.584513e-003
3.239824e+003, 4.225504e-003
3.241752e+003, 4.330763e-003
3.243681e+003, 4.461072e-003
3.245609e+003, 4.506631e-003
3.247538e+003, 5.041548e-003
3.249466e+003, 4.911938e-003
3.251395e+003, 4.768663e-003
3.253323e+003, 5.098246e-003
3.255252e+003, 5.215436e-003
3.257180e+003, 4.869963e-003
3.259109e+003, 4.778764e-003
3.261037e+003, 5.003496e-003
3.262966e+003, 5.238192e-003
3.264894e+003, 5.292390e-003
3.266823e+003, 4.933415e-003
3.268751e+003, 4.845768e-003
3.270679e+003, 4.870561e-003
3.272608e+003, 4.723470e-003
3.274536e+003, 4.704887e-003
3.276465e+003, 4.938558e-003
3.278393e+003, 4.984483e-003
3.280322e+003, 4.599041e-003
3.282250e+003, 4.327227e-003
3.284179e+003, 4.179343e-003
3.286107e+003, 4.314334e-003
3.288036e+003, 4.752686e-003
3.289964e+003, 4.583851e-003
3.291893e+003, 4.340211e-003
3.293821e+003, 4.582048e-003
3.295750e+003, 4.234942e-003
3.297678e+003, 4.107425e-003
3.299606e+003, 4.526488e-003
3.301535e+003, 4.663538e-003
3.303463e+003, 4.759575e-003
3.305392e+003, 4.292643e-003
3.307320e+003, 4.141250e-003
3.309249e+003, 4.245127e-003
3.311177e+003, 4.149532e-003
3.313106e+003, 4.100830e-003
3.315034e+003, 4.144495e-003
3.316963e+003, 4.324010e-003
3.318891e+003, 4.377665e-003
3.320820e+003, 4.440116e-003
3.322748e+003, 4.276243e-003
3.324677e+003, 4.349518e-003
3.326605e+003, 4.615590e-003
3.328533e+003, 4.752668e-003
3.330462e+003, 4.920254e-003
3.332390e+003, 4.742044e-003
3.334319e+003, 4.049182e-003
3.336247e+003, 3.780703e-003
3.338176e+003, 3.848177e-003
3.340104e+003, 3.552346e-003
3.342033e+003, 3.582784e-003
3.343961e+003, 4.032841e-003
3.345890e+003, 3.867281e-003
3.347818e+003, 3.748589e-003
3.349747e+003, 3.754606e-003
3.351675e+003, 3.472181e-003
3.353604e+003, 3.626520e-003
3.355532e+003, 4.136243e-003
3.357460e+003, 4.182435e-003
3.359389e+003, 4.444694e-003
3.361317e+003, 4.267482e-003
3.363246e+003, 4.208313e-003
3.365174e+003, 4.160937e-003
3.367103e+003, 3.839534e-003
3.369031e+003, 3.645742e-003
3.370960e+003, 4.026093e-003
3.372888e+003, 4.777134e-003
3.374817e+003, 4.827740e-003
3.376745e+003, 4.210509e-003
3.378674e+003, 3.888575e-003
3.380602e+003, 4.136172e-003
3.382531e+003, 4.029262e-003
3.384459e+003, 3.570786e-003
3.386387e+003, 3.574704e-003
3.388316e+003, 4.001723e-003
3.390244e+003, 4.301693e-003
3.392173e+003, 4.584593e-003
3.394101e+003, 3.813383e-003
3.396030e+003, 3.122329e-003
3.397958e+003, 3.045888e-003
3.399887e+003, 2.879176e-003
3.401815e+003, 2.959723e-003
3.403744e+003, 3.723435e-003
3.405672e+003, 3.967739e-003
3.407601e+003, 3.600368e-003
3.409529e+003, 3.237886e-003
3.411458e+003, 3.428426e-003
3.413386e+003, 3.404822e-003
3.415314e+003, 2.993806e-003
3.417243e+003, 3.025071e-003
3.419171e+003, 3.061261e-003
3.421100e+003, 2.715536e-003
3.423028e+003, 2.991694e-003
3.424957e+003, 3.172446e-003
3.426885e+003, 3.016958e-003
3.428814e+003, 3.085908e-003
3.430742e+003, 3.255745e-003
3.432671e+003, 3.514264e-003
3.434599e+003, 3.711500e-003
3.436528e+003, 3.565741e-003
3.438456e+003, 3.112571e-003
3.440385e+003, 3.264280e-003
3.442313e+003, 2.961716e-003
3.444241e+003, 2.659209e-003
3.446170e+003, 2.223211e-003
3.448098e+003, 2.254969e-003
3.450027e+003, 2.746502e-003
3.451955e+003, 2.411386e-003
3.453884e+003, 1.913144e-003
3.455812e+003, 2.499010e-003
3.457741e+003, 2.745052e-003
3.459669e+003, 2.273600e-003
3.461598e+003, 2.663597e-003
3.463526e+003, 3.151882e-003
3.465455e+003, 3.090432e-003
3.467383e+003, 2.767167e-003
3.469312e+003, 2.485060e-003
3.471240e+003, 2.251299e-003
3.473168e+003, 2.257247e-003
3.475097e+003, 2.516445e-003
3.477025e+003, 2.818918e-003
3.478954e+003, 2.963769e-003
3.480882e+003, 2.709902e-003
3.482811e+003, 2.372914e-003
3.484739e+003, 2.146284e-003
3.486668e+003, 2.087633e-003
3.488596e+003, 2.220364e-003
3.490525e+003, 2.424962e-003
3.492453e+003, 2.579150e-003
3.494382e+003, 2.037168e-003
3.496310e+003, 1.358652e-003
3.498239e+003, 1.668927e-003
3.500167e+003, 1.962305e-003
3.502095e+003, 1.797676e-003
3.504024e+003, 1.958823e-003
3.505952e+003, 2.388776e-003
3.507881e+003, 2.754705e-003
3.509809e+003, 2.953327e-003
3.511738e+003, 2.031281e-003
3.513666e+003, 1.414994e-003
3.515595e+003, 1.743860e-003
3.517523e+003, 1.734288e-003
3.519452e+003, 1.855921e-003
3.521380e+003, 1.930048e-003
3.523309e+003, 1.885601e-003
3.525237e+003, 1.706399e-003
3.527166e+003, 1.323834e-003
3.529094e+003, 1.542218e-003
3.531022e+003, 2.041665e-003
3.532951e+003, 1.864235e-003
3.534879e+003, 1.646423e-003
3.536808e+003, 1.843093e-003
3.538736e+003, 2.152138e-003
3.540665e+003, 2.728922e-003
3.542593e+003, 2.258684e-003
3.544522e+003, 1.170449e-003
3.546450e+003, 6.865137e-004
3.548379e+003, 1.270034e-003
3.550307e+003, 1.526894e-003
3.552236e+003, 6.226715e-004
3.554164e+003, 6.075490e-004
3.556093e+003, 2.016354e-003
3.558021e+003, 2.449994e-003
3.559949e+003, 2.237466e-003
3.561878e+003, 1.559451e-003
3.563806e+003, 1.216688e-003
3.565735e+003, 1.492839e-003
3.567663e+003, 1.193107e-003
3.569592e+003, 1.553586e-003
3.571520e+003, 1.356234e-003
3.573449e+003, 3.085260e-004
3.575377e+003, 6.753122e-004
3.577306e+003, 1.224410e-003
3.579234e+003, 1.366761e-003
3.581163e+003, 6.263395e-004
3.583091e+003, 5.464749e-004
3.585020e+003, 1.152993e-003
3.586948e+003, 1.240999e-003
3.588876e+003, 7.429591e-004
3.590805e+003, 7.654635e-004
3.592733e+003, 1.219917e-003
3.594662e+003, 1.355593e-003
3.596590e+003, 8.330178e-004
3.598519e+003, 1.528934e-004
3.600447e+003, 4.274907e-004
3.602376e+003, 3.814884e-004
3.604304e+003, -6.300166e-005
3.606233e+003, -3.259409e-005
3.608161e+003, 3.808080e-004
3.610090e+003, 4.774207e-004
3.612018e+003, 9.052114e-004
3.613947e+003, 7.185243e-004
3.615875e+003, 3.235062e-004
3.617803e+003, 6.127386e-004
3.619732e+003, 7.121461e-004
3.621660e+003, 2.228704e-004
3.623589e+003, -5.281885e-004
3.625517e+003, -5.766503e-004
3.627446e+003, 1.660481e-004
3.629374e+003, 7.149830e-004
3.631303e+003, 7.988801e-005
3.633231e+003, -8.172147e-004
3.635160e+003, -1.086116e-003
3.637088e+003, -7.703256e-004
3.639017e+003, -4.301489e-004
3.640945e+003, -8.498196e-004
3.642874e+003, -9.542819e-004
3.644802e+003, -9.927190e-004
3.646730e+003, -1.796657e-004
3.648659e+003, 6.351502e-004
3.650587e+003, 2.337713e-004
3.652516e+003, -7.519295e-004
3.654444e+003, -1.135004e-003
3.656373e+003, -9.862320e-004
3.658301e+003, -1.461091e-003
3.660230e+003, -1.652469e-003
3.662158e+003, -1.074470e-003
3.664087e+003, -1.168841e-003
3.666015e+003, -8.474318e-004
3.667944e+003, -4.867481e-004
3.669872e+003, -5.747937e-004
3.671801e+003, -8.508104e-004
3.673729e+003, -7.668423e-004
3.675657e+003, -8.697720e-004
3.677586e+003, -1.736645e-003
3.679514e+003, -2.086939e-003
3.681443e+003, -2.422064e-003
3.683371e+003, -2.608574e-003
3.685300e+003, -2.171775e-003
3.687228e+003, -8.237205e-004
3.689157e+003, -3.348110e-004
3.691085e+003, -1.150980e-003
3.693014e+003, -1.987874e-003
3.694942e+003, -2.159144e-003
3.696871e+003, -1.831085e-003
3.698799e+003, -1.320902e-003
3.700728e+003, -1.127538e-003
3.702656e+003, -1.702911e-003
3.704584e+003, -2.377338e-003
3.706513e+003, -2.695451e-003
3.708441e+003, -2.208095e-003
3.710370e+003, -1.526034e-003
3.712298e+003, -1.439242e-003
3.714227e+003, -1.769628e-003
3.716155e+003, -1.588661e-003
3.718084e+003, -1.462742e-003
3.720012e+003, -1.568444e-003
3.721941e+003, -1.091814e-003
3.723869e+003, -9.906703e-004
3.725798e+003, -7.232276e-004
3.727726e+003, -1.091368e-003
3.729655e+003, -1.504506e-003
3.731583e+003, -1.643160e-003
3.733511e+003, -9.258872e-004
3.735440e+003, -5.293958e-004
3.737368e+003, -1.441300e-003
3.739297e+003, -2.041845e-003
3.741225e+003, -2.184805e-003
3.743154e+003, -2.485508e-004
3.745082e+003, 1.561772e-004
3.747011e+003, -9.467315e-004
3.748939e+003, -3.839126e-004
3.750868e+003, 1.546985e-004
3.752796e+003, -4.551045e-004
3.754725e+003, -1.483736e-003
3.756653e+003, -1.315898e-003
3.758582e+003, -1.613729e-003
3.760510e+003, -1.850462e-003
3.762438e+003, -1.655680e-003
3.764367e+003, -1.301656e-003
3.766295e+003, -1.198988e-003
3.768224e+003, -1.159457e-003
3.770152e+003, -1.385641e-003
3.772081e+003, -1.955721e-003
3.774009e+003, -2.289952e-003
3.775938e+003, -2.328381e-003
3.777866e+003, -1.622086e-003
3.779795e+003, -1.425631e-003
3.781723e+003, -1.851490e-003
3.783652e+003, -2.019763e-003
3.785580e+003, -2.338858e-003
3.787509e+003, -2.523662e-003
3.789437e+003, -2.963320e-003
3.791365e+003, -2.852496e-003
3.793294e+003, -2.445153e-003
3.795222e+003, -1.935801e-003
3.797151e+003, -1.564049e-003
3.799079e+003, -1.527392e-003
3.801008e+003, -1.636658e-003
3.802936e+003, -2.068096e-003
3.804865e+003, -2.138671e-003
3.806793e+003, -1.846124e-003
3.808722e+003, -2.466789e-003
3.810650e+003, -2.678094e-003
3.812579e+003, -2.370321e-003
3.814507e+003, -1.228843e-003
3.816436e+003, -1.014915e-003
3.818364e+003, -2.324589e-003
3.820292e+003, -2.198373e-003
3.822221e+003, -1.431610e-003
3.824149e+003, -1.993610e-003
3.826078e+003, -2.248998e-003
3.828006e+003, -2.393414e-003
3.829935e+003, -2.290602e-003
3.831863e+003, -1.885872e-003
3.833792e+003, -1.429494e-003
3.835720e+003, -1.484962e-003
3.837649e+003, -2.077017e-003
3.839577e+003, -2.180489e-003
3.841506e+003, -1.471635e-003
3.843434e+003, -1.792233e-003
3.845363e+003, -2.022875e-003
3.847291e+003, -2.211824e-003
3.849219e+003, -2.181490e-003
3.851148e+003, -1.480656e-003
3.853076e+003, -2.695888e-004
3.855005e+003, -1.156596e-003
3.856933e+003, -2.773569e-003
3.858862e+003, -2.912708e-003
3.860790e+003, -2.525668e-003
3.862719e+003, -2.799766e-003
3.864647e+003, -2.285411e-003
3.866576e+003, -2.380601e-003
3.868504e+003, -2.549609e-003
3.870433e+003, -2.640015e-003
3.872361e+003, -3.008592e-003
3.874290e+003, -2.286591e-003
3.876218e+003, -1.830305e-003
3.878146e+003, -2.404906e-003
3.880075e+003, -2.513694e-003
3.882003e+003, -2.515865e-003
3.883932e+003, -2.397491e-003
3.885860e+003, -2.116457e-003
3.887789e+003, -2.467560e-003
3.889717e+003, -2.139436e-003
3.891646e+003, -1.823424e-003
3.893574e+003, -2.115821e-003
3.895503e+003, -2.038508e-003
3.897431e+003, -1.477976e-003
3.899360e+003, -1.812389e-003
3.901288e+003, -2.217030e-003
3.903217e+003, -2.179130e-003
3.905145e+003, -2.427419e-003
3.907073e+003, -2.721921e-003
3.909002e+003, -2.883108e-003
3.910930e+003, -3.353942e-003
3.912859e+003, -3.068077e-003
3.914787e+003, -2.623873e-003
3.916716e+003, -2.505441e-003
3.918644e+003, -2.364452e-003
3.920573e+003, -2.724016e-003
3.922501e+003, -3.279881e-003
3.924430e+003, -3.099017e-003
3.926358e+003, -3.143539e-003
3.928287e+003, -2.829744e-003
3.930215e+003, -2.471108e-003
3.932144e+003, -2.284721e-003
3.934072e+003, -2.402484e-003
3.936000e+003, -3.218090e-003
3.937929e+003, -3.316305e-003
3.939857e+003, -3.318464e-003
3.941786e+003, -3.250093e-003
3.943714e+003, -2.943599e-003
3.945643e+003, -2.888539e-003
3.947571e+003, -3.092864e-003
3.949500e+003, -2.421131e-003
3.951428e+003, -1.972364e-003
3.953357e+003, -2.039543e-003
3.955285e+003, -2.748172e-003
3.957214e+003, -3.191156e-003
3.959142e+003, -2.687081e-003
3.961071e+003, -2.509905e-003
3.962999e+003, -2.455542e-003
3.964927e+003, -2.862193e-003
3.966856e+003, -2.491807e-003
3.968784e+003, -2.582574e-003
3.970713e+003, -3.240169e-003
3.972641e+003, -3.772190e-003
3.974570e+003, -3.566518e-003
3.976498e+003, -2.840458e-003
3.978427e+003, -3.139240e-003
3.980355e+003, -3.919813e-003
3.982284e+003, -3.954494e-003
3.984212e+003, -3.226698e-003
3.986141e+003, -2.601417e-003
3.988069e+003, -2.884748e-003
3.989998e+003, -2.958741e-003
3.991926e+003, -2.724191e-003
3.993854e+003, -2.682836e-003
3.995783e+003, -2.860996e-003
3.997711e+003, -2.752088e-003
3.999640e+003, -2.388581e-003
##END=



