##NAMES=Phenakite
##RRUFFID=R050137
##IDEAL CHEMISTRY=Be_2_SiO_4_
##LOCALITY=Mount Antero area, Chaffee County, Colorado, USA
##OWNER=RRUFF
##SOURCE=Dave Bunk Minerals
##DESCRIPTION=Colorless tabular hexagonal crystal
##STATUS=The identification of this mineral has been confirmed by X-ray diffraction and chemical analysis
##URL=rruff.info/R050137
##MEASURED CHEMISTRY=Be_2.00_Si_1.00_O_4_
3.741225e+002, 1.952751e-001
3.760510e+002, 2.292417e-001
3.779795e+002, 1.997094e-001
3.799079e+002, 1.962475e-001
3.818364e+002, 2.036526e-001
3.837649e+002, 2.024826e-001
3.856933e+002, 2.009820e-001
3.876218e+002, 2.097539e-001
3.895503e+002, 2.025140e-001
3.914787e+002, 1.977741e-001
3.934072e+002, 2.059539e-001
3.953357e+002, 2.186743e-001
3.972641e+002, 2.352772e-001
3.991926e+002, 2.482843e-001
4.011211e+002, 2.531545e-001
4.030495e+002, 2.562045e-001
4.049780e+002, 2.599486e-001
4.069065e+002, 2.587748e-001
4.088349e+002, 2.630925e-001
4.107634e+002, 2.766523e-001
4.126919e+002, 2.900467e-001
4.146203e+002, 2.995313e-001
4.165488e+002, 3.099331e-001
4.184773e+002, 3.230214e-001
4.204057e+002, 3.218305e-001
4.223342e+002, 3.121774e-001
4.242627e+002, 2.861637e-001
4.261911e+002, 2.398190e-001
4.281196e+002, 1.827952e-001
4.300481e+002, 1.358585e-001
4.319765e+002, 9.922621e-002
4.339050e+002, 7.259481e-002
4.358335e+002, 6.635579e-002
4.377619e+002, 7.973043e-002
4.396904e+002, 8.041334e-002
4.416189e+002, 7.144753e-002
4.435473e+002, 7.437108e-002
4.454758e+002, 8.150484e-002
4.474043e+002, 9.217342e-002
4.493327e+002, 1.051320e-001
4.512612e+002, 1.157205e-001
4.531897e+002, 1.239377e-001
4.551181e+002, 1.324391e-001
4.570466e+002, 1.416241e-001
4.589751e+002, 1.496938e-001
4.609035e+002, 1.537603e-001
4.628320e+002, 1.546655e-001
4.647605e+002, 1.565053e-001
4.666889e+002, 1.586939e-001
4.686174e+002, 1.604863e-001
4.705459e+002, 1.608686e-001
4.724743e+002, 1.628912e-001
4.744028e+002, 1.650468e-001
4.763313e+002, 1.614514e-001
4.782597e+002, 1.606845e-001
4.801882e+002, 1.644035e-001
4.821167e+002, 1.682725e-001
4.840451e+002, 1.716988e-001
4.859736e+002, 1.751028e-001
4.879021e+002, 1.775902e-001
4.898305e+002, 1.804136e-001
4.917590e+002, 1.837003e-001
4.936875e+002, 1.861337e-001
4.956159e+002, 1.878072e-001
4.975444e+002, 1.901054e-001
4.994729e+002, 1.929643e-001
5.014013e+002, 1.955544e-001
5.033298e+002, 1.989546e-001
5.052583e+002, 2.029007e-001
5.071867e+002, 2.065477e-001
5.091152e+002, 2.105044e-001
5.110437e+002, 2.146220e-001
5.129721e+002, 2.183332e-001
5.149006e+002, 2.219704e-001
5.168290e+002, 2.259174e-001
5.187575e+002, 2.263316e-001
5.206860e+002, 2.267580e-001
5.226144e+002, 2.307220e-001
5.245429e+002, 2.355623e-001
5.264714e+002, 2.400655e-001
5.283998e+002, 2.446838e-001
5.303283e+002, 2.483970e-001
5.322568e+002, 2.523753e-001
5.341852e+002, 2.566460e-001
5.361137e+002, 2.612184e-001
5.380422e+002, 2.668073e-001
5.399706e+002, 2.710061e-001
5.418991e+002, 2.732159e-001
5.438276e+002, 2.737384e-001
5.457560e+002, 2.755223e-001
5.476845e+002, 2.793504e-001
5.496130e+002, 2.846480e-001
5.515414e+002, 2.894185e-001
5.534699e+002, 2.933983e-001
5.553984e+002, 2.959788e-001
5.573268e+002, 2.977780e-001
5.592553e+002, 3.017592e-001
5.611838e+002, 3.067976e-001
5.631122e+002, 3.108299e-001
5.650407e+002, 3.152368e-001
5.669692e+002, 3.202374e-001
5.688976e+002, 3.258196e-001
5.708261e+002, 3.326668e-001
5.727546e+002, 3.391226e-001
5.746830e+002, 3.452034e-001
5.766115e+002, 3.393444e-001
5.785400e+002, 3.280308e-001
5.804684e+002, 3.333058e-001
5.823969e+002, 3.472824e-001
5.843254e+002, 3.572974e-001
5.862538e+002, 3.632753e-001
5.881823e+002, 3.655166e-001
5.901108e+002, 3.621599e-001
5.920392e+002, 3.475617e-001
5.939677e+002, 3.142360e-001
5.958962e+002, 2.644248e-001
5.978246e+002, 2.086255e-001
5.997531e+002, 1.652590e-001
6.016816e+002, 1.518601e-001
6.036100e+002, 1.660867e-001
6.055385e+002, 1.927755e-001
6.074670e+002, 2.197778e-001
6.093954e+002, 2.435427e-001
6.113239e+002, 2.628925e-001
6.132524e+002, 2.772045e-001
6.151808e+002, 2.886254e-001
6.171093e+002, 2.978583e-001
6.190378e+002, 3.054156e-001
6.209662e+002, 3.129464e-001
6.228947e+002, 3.196527e-001
6.248232e+002, 3.256390e-001
6.267516e+002, 3.320054e-001
6.286801e+002, 3.384189e-001
6.306086e+002, 3.440490e-001
6.325370e+002, 3.496461e-001
6.344655e+002, 3.554265e-001
6.363940e+002, 3.586549e-001
6.383224e+002, 3.554653e-001
6.402509e+002, 3.427152e-001
6.421794e+002, 3.232433e-001
6.441078e+002, 3.111714e-001
6.460363e+002, 3.161219e-001
6.479648e+002, 3.317105e-001
6.498932e+002, 3.466386e-001
6.518217e+002, 3.566433e-001
6.537502e+002, 3.640191e-001
6.556786e+002, 3.690624e-001
6.576071e+002, 3.728708e-001
6.595356e+002, 3.764424e-001
6.614641e+002, 3.793241e-001
6.633925e+002, 3.814608e-001
6.653210e+002, 3.826185e-001
6.672495e+002, 3.832899e-001
6.691779e+002, 3.830488e-001
6.711064e+002, 3.843504e-001
6.730349e+002, 3.854261e-001
6.749633e+002, 3.846692e-001
6.768918e+002, 3.838418e-001
6.788203e+002, 3.832346e-001
6.807487e+002, 3.811105e-001
6.826772e+002, 3.774557e-001
6.846057e+002, 3.738298e-001
6.865341e+002, 3.703144e-001
6.884626e+002, 3.653988e-001
6.903911e+002, 3.599031e-001
6.923195e+002, 3.540414e-001
6.942480e+002, 3.453972e-001
6.961765e+002, 3.327005e-001
6.981049e+002, 3.156196e-001
7.000334e+002, 2.996943e-001
7.019619e+002, 3.018793e-001
7.038903e+002, 3.273592e-001
7.058188e+002, 3.522865e-001
7.077473e+002, 3.596444e-001
7.096757e+002, 3.572069e-001
7.116042e+002, 3.515273e-001
7.135327e+002, 3.448195e-001
7.154611e+002, 3.373467e-001
7.173896e+002, 3.293677e-001
7.193181e+002, 3.199226e-001
7.212465e+002, 3.093836e-001
7.231750e+002, 2.980094e-001
7.251035e+002, 2.864624e-001
7.270319e+002, 2.765150e-001
7.289604e+002, 2.719916e-001
7.308889e+002, 2.751921e-001
7.328173e+002, 2.767885e-001
7.347458e+002, 2.702361e-001
7.366743e+002, 2.623517e-001
7.386027e+002, 2.571829e-001
7.405312e+002, 2.525634e-001
7.424597e+002, 2.458414e-001
7.443881e+002, 2.374613e-001
7.463166e+002, 2.277608e-001
7.482451e+002, 2.177752e-001
7.501735e+002, 2.078290e-001
7.521020e+002, 1.981265e-001
7.540305e+002, 1.887992e-001
7.559589e+002, 1.798663e-001
7.578874e+002, 1.734716e-001
7.598159e+002, 1.728126e-001
7.617443e+002, 1.799216e-001
7.636728e+002, 1.946074e-001
7.656013e+002, 2.149938e-001
7.675297e+002, 2.382896e-001
7.694582e+002, 2.598228e-001
7.713867e+002, 2.739158e-001
7.733151e+002, 2.771547e-001
7.752436e+002, 2.698057e-001
7.771721e+002, 2.542366e-001
7.791005e+002, 2.348139e-001
7.810290e+002, 2.152580e-001
7.829575e+002, 1.978391e-001
7.848859e+002, 1.839675e-001
7.868144e+002, 1.751214e-001
7.887429e+002, 1.692983e-001
7.906713e+002, 1.619631e-001
7.925998e+002, 1.524917e-001
7.945283e+002, 1.423964e-001
7.964567e+002, 1.324722e-001
7.983852e+002, 1.232359e-001
8.003137e+002, 1.153490e-001
8.022421e+002, 1.094580e-001
8.041706e+002, 1.055754e-001
8.060991e+002, 1.038485e-001
8.080275e+002, 1.035126e-001
8.099560e+002, 1.034186e-001
8.118845e+002, 1.031678e-001
8.138129e+002, 1.021956e-001
8.157414e+002, 9.988365e-002
8.176699e+002, 9.716256e-002
8.195983e+002, 9.417075e-002
8.215268e+002, 9.085635e-002
8.234553e+002, 8.701806e-002
8.253837e+002, 8.274081e-002
8.273122e+002, 7.799547e-002
8.292407e+002, 7.298144e-002
8.311691e+002, 6.779948e-002
8.330976e+002, 6.281518e-002
8.350261e+002, 5.827426e-002
8.369545e+002, 5.488293e-002
8.388830e+002, 5.275514e-002
8.408115e+002, 5.214290e-002
8.427399e+002, 5.322443e-002
8.446684e+002, 5.545227e-002
8.465969e+002, 5.850989e-002
8.485253e+002, 6.278984e-002
8.504538e+002, 6.805944e-002
8.523823e+002, 7.455999e-002
8.543107e+002, 8.227521e-002
8.562392e+002, 9.132157e-002
8.581677e+002, 1.013156e-001
8.600961e+002, 1.126374e-001
8.620246e+002, 1.251527e-001
8.639531e+002, 1.387391e-001
8.658815e+002, 1.531883e-001
8.678100e+002, 1.687949e-001
8.697385e+002, 1.854265e-001
8.716669e+002, 2.031510e-001
8.735954e+002, 2.217169e-001
8.755239e+002, 2.410775e-001
8.774523e+002, 2.608362e-001
8.793808e+002, 2.806486e-001
8.813093e+002, 2.998928e-001
8.832377e+002, 3.180971e-001
8.851662e+002, 3.343996e-001
8.870947e+002, 3.486980e-001
8.890231e+002, 3.605299e-001
8.909516e+002, 3.695407e-001
8.928801e+002, 3.746988e-001
8.948085e+002, 3.758190e-001
8.967370e+002, 3.740782e-001
8.986655e+002, 3.699235e-001
9.005939e+002, 3.613416e-001
9.025224e+002, 3.461913e-001
9.044509e+002, 3.258178e-001
9.063793e+002, 3.053514e-001
9.083078e+002, 2.899032e-001
9.102363e+002, 2.789899e-001
9.121647e+002, 2.686189e-001
9.140932e+002, 2.565570e-001
9.160217e+002, 2.446577e-001
9.179501e+002, 2.383147e-001
9.198786e+002, 2.432848e-001
9.218071e+002, 2.631887e-001
9.237355e+002, 2.923631e-001
9.256640e+002, 3.202686e-001
9.275925e+002, 3.403361e-001
9.295209e+002, 3.522168e-001
9.314494e+002, 3.571586e-001
9.333779e+002, 3.564579e-001
9.353063e+002, 3.507924e-001
9.372348e+002, 3.412372e-001
9.391633e+002, 3.290528e-001
9.410917e+002, 3.161616e-001
9.430202e+002, 3.033928e-001
9.449487e+002, 2.905756e-001
9.468771e+002, 2.778699e-001
9.488056e+002, 2.658793e-001
9.507341e+002, 2.543336e-001
9.526625e+002, 2.432782e-001
9.545910e+002, 2.323004e-001
9.565195e+002, 2.216294e-001
9.584479e+002, 2.117206e-001
9.603764e+002, 2.025882e-001
9.623049e+002, 1.955722e-001
9.642333e+002, 1.941077e-001
9.661618e+002, 2.014941e-001
9.680903e+002, 2.172360e-001
9.700187e+002, 2.343075e-001
9.719472e+002, 2.448508e-001
9.738757e+002, 2.468562e-001
9.758041e+002, 2.427492e-001
9.777326e+002, 2.353836e-001
9.796611e+002, 2.273605e-001
9.815895e+002, 2.195612e-001
9.835180e+002, 2.124615e-001
9.854465e+002, 2.061149e-001
9.873749e+002, 2.001541e-001
9.893034e+002, 1.941482e-001
9.912319e+002, 1.888176e-001
9.931603e+002, 1.840767e-001
9.950888e+002, 1.797020e-001
9.970173e+002, 1.758489e-001
9.989457e+002, 1.723689e-001
1.000874e+003, 1.687733e-001
1.002803e+003, 1.650151e-001
1.004731e+003, 1.609635e-001
1.006660e+003, 1.567116e-001
1.008588e+003, 1.525138e-001
1.010517e+003, 1.483857e-001
1.012445e+003, 1.444456e-001
1.014373e+003, 1.406082e-001
1.016302e+003, 1.370537e-001
1.018230e+003, 1.337837e-001
1.020159e+003, 1.306188e-001
1.022087e+003, 1.279758e-001
1.024016e+003, 1.262847e-001
1.025944e+003, 1.249244e-001
1.027873e+003, 1.226400e-001
1.029801e+003, 1.193917e-001
1.031730e+003, 1.157145e-001
1.033658e+003, 1.123030e-001
1.035587e+003, 1.092319e-001
1.037515e+003, 1.061646e-001
1.039443e+003, 1.030827e-001
1.041372e+003, 1.004067e-001
1.043300e+003, 9.791481e-002
1.045229e+003, 9.530807e-002
1.047157e+003, 9.275379e-002
1.049086e+003, 9.038966e-002
1.051014e+003, 8.787324e-002
1.052943e+003, 8.525298e-002
1.054871e+003, 8.272595e-002
1.056800e+003, 8.050661e-002
1.058728e+003, 7.794421e-002
1.060657e+003, 7.522118e-002
1.062585e+003, 7.260679e-002
1.064514e+003, 7.001369e-002
1.066442e+003, 6.747025e-002
1.068370e+003, 6.485255e-002
1.070299e+003, 6.195618e-002
1.072227e+003, 5.907553e-002
1.074156e+003, 5.644498e-002
1.076084e+003, 5.389601e-002
1.078013e+003, 5.109361e-002
1.079941e+003, 4.819754e-002
1.081870e+003, 4.533533e-002
1.083798e+003, 4.249796e-002
1.085727e+003, 3.980223e-002
1.087655e+003, 3.716161e-002
1.089584e+003, 3.437001e-002
1.091512e+003, 3.166508e-002
1.093441e+003, 2.931276e-002
1.095369e+003, 2.716045e-002
1.097297e+003, 2.514617e-002
1.099226e+003, 2.334934e-002
1.101154e+003, 2.142482e-002
1.103083e+003, 1.961665e-002
1.105011e+003, 1.836569e-002
1.106940e+003, 1.738053e-002
1.108868e+003, 1.639246e-002
1.110797e+003, 1.544494e-002
1.112725e+003, 1.472490e-002
1.114654e+003, 1.405311e-002
1.116582e+003, 1.334009e-002
1.118511e+003, 1.270903e-002
1.120439e+003, 1.213152e-002
1.122368e+003, 1.178339e-002
1.124296e+003, 1.144129e-002
1.126224e+003, 1.102894e-002
1.128153e+003, 1.046577e-002
1.130081e+003, 1.007319e-002
1.132010e+003, 9.785412e-003
1.133938e+003, 9.640521e-003
1.135867e+003, 9.392551e-003
1.137795e+003, 8.961015e-003
1.139724e+003, 8.733999e-003
1.141652e+003, 8.646798e-003
1.143581e+003, 8.409761e-003
1.145509e+003, 8.110272e-003
1.147438e+003, 7.832210e-003
1.149366e+003, 7.609132e-003
1.151295e+003, 7.365474e-003
1.153223e+003, 7.103029e-003
1.155151e+003, 6.827283e-003
1.157080e+003, 6.545498e-003
1.159008e+003, 6.346125e-003
1.160937e+003, 6.361437e-003
1.162865e+003, 6.214546e-003
1.164794e+003, 5.951460e-003
1.166722e+003, 5.971562e-003
1.168651e+003, 5.873578e-003
1.170579e+003, 5.603976e-003
1.172508e+003, 5.495262e-003
1.174436e+003, 5.406560e-003
1.176365e+003, 5.245445e-003
1.178293e+003, 5.012386e-003
1.180222e+003, 4.783899e-003
1.182150e+003, 4.688614e-003
1.184078e+003, 4.662293e-003
1.186007e+003, 4.413143e-003
1.187935e+003, 4.195111e-003
1.189864e+003, 4.153791e-003
1.191792e+003, 4.095003e-003
1.193721e+003, 3.930071e-003
1.195649e+003, 3.723779e-003
1.197578e+003, 3.524080e-003
1.199506e+003, 3.521233e-003
1.201435e+003, 3.336556e-003
1.203363e+003, 3.099675e-003
1.205292e+003, 3.007029e-003
1.207220e+003, 2.951378e-003
1.209149e+003, 2.885428e-003
1.211077e+003, 2.834674e-003
1.213005e+003, 2.854665e-003
1.214934e+003, 2.806386e-003
1.216862e+003, 2.643541e-003
1.218791e+003, 2.559301e-003
1.220719e+003, 2.384021e-003
1.222648e+003, 2.320403e-003
1.224576e+003, 2.290728e-003
1.226505e+003, 2.281560e-003
1.228433e+003, 2.156848e-003
1.230362e+003, 2.124911e-003
1.232290e+003, 2.095161e-003
1.234219e+003, 2.062066e-003
1.236147e+003, 1.992312e-003
1.238076e+003, 1.833915e-003
1.240004e+003, 1.859776e-003
1.241932e+003, 1.922381e-003
1.243861e+003, 1.801917e-003
1.245789e+003, 1.733314e-003
1.247718e+003, 1.820736e-003
1.249646e+003, 1.836970e-003
1.251575e+003, 1.807807e-003
1.253503e+003, 1.883899e-003
1.255432e+003, 2.028320e-003
1.257360e+003, 2.238467e-003
1.259289e+003, 2.264818e-003
1.261217e+003, 1.979534e-003
1.263146e+003, 1.772284e-003
1.265074e+003, 1.764897e-003
1.267003e+003, 1.899721e-003
1.268931e+003, 1.876455e-003
1.270859e+003, 1.942647e-003
1.272788e+003, 2.363380e-003
1.274716e+003, 2.866864e-003
1.276645e+003, 3.114682e-003
1.278573e+003, 3.217638e-003
1.280502e+003, 3.365128e-003
1.282430e+003, 3.308982e-003
1.284359e+003, 3.427286e-003
1.286287e+003, 3.587045e-003
1.288216e+003, 3.680453e-003
1.290144e+003, 3.615054e-003
1.292073e+003, 3.651697e-003
1.294001e+003, 3.856129e-003
1.295930e+003, 3.950472e-003
1.297858e+003, 3.876542e-003
1.299786e+003, 3.732845e-003
1.301715e+003, 3.513570e-003
1.303643e+003, 3.332953e-003
1.305572e+003, 3.180253e-003
1.307500e+003, 3.054005e-003
1.309429e+003, 2.973194e-003
1.311357e+003, 2.896555e-003
1.313286e+003, 2.800799e-003
1.315214e+003, 2.645834e-003
1.317143e+003, 2.530819e-003
1.319071e+003, 2.443000e-003
1.321000e+003, 2.436242e-003
1.322928e+003, 2.535023e-003
1.324857e+003, 2.645739e-003
1.326785e+003, 2.710231e-003
1.328714e+003, 2.636016e-003
1.330642e+003, 2.727014e-003
1.332570e+003, 2.794940e-003
1.334499e+003, 2.975004e-003
1.336427e+003, 3.185239e-003
1.338356e+003, 3.299178e-003
1.340284e+003, 3.513434e-003
1.342213e+003, 3.635949e-003
1.344141e+003, 3.628042e-003
1.346070e+003, 3.568984e-003
1.347998e+003, 3.555943e-003
1.349927e+003, 3.755872e-003
1.351855e+003, 3.947539e-003
1.353784e+003, 3.924450e-003
1.355712e+003, 3.791319e-003
1.357641e+003, 3.712054e-003
1.359569e+003, 3.634464e-003
1.361497e+003, 3.546032e-003
1.363426e+003, 3.498156e-003
1.365354e+003, 3.403815e-003
1.367283e+003, 3.359825e-003
1.369211e+003, 3.508710e-003
1.371140e+003, 3.522015e-003
1.373068e+003, 3.492234e-003
1.374997e+003, 3.515012e-003
1.376925e+003, 3.536417e-003
1.378854e+003, 3.437744e-003
1.380782e+003, 3.252359e-003
1.382711e+003, 3.179150e-003
1.384639e+003, 3.301208e-003
1.386568e+003, 3.272777e-003
1.388496e+003, 3.228390e-003
1.390424e+003, 3.367998e-003
1.392353e+003, 3.556596e-003
1.394281e+003, 3.716893e-003
1.396210e+003, 3.853544e-003
1.398138e+003, 3.919291e-003
1.400067e+003, 3.755655e-003
1.401995e+003, 3.555013e-003
1.403924e+003, 3.587322e-003
1.405852e+003, 3.644309e-003
1.407781e+003, 3.806949e-003
1.409709e+003, 3.895784e-003
1.411638e+003, 3.904080e-003
1.413566e+003, 3.893528e-003
1.415495e+003, 3.907430e-003
1.417423e+003, 3.984411e-003
1.419351e+003, 4.144918e-003
1.421280e+003, 3.890416e-003
1.423208e+003, 3.801789e-003
1.425137e+003, 3.802474e-003
1.427065e+003, 3.803291e-003
1.428994e+003, 3.881990e-003
1.430922e+003, 4.063303e-003
1.432851e+003, 4.047992e-003
1.434779e+003, 3.994348e-003
1.436708e+003, 4.157169e-003
1.438636e+003, 4.061985e-003
1.440565e+003, 3.836242e-003
1.442493e+003, 3.790741e-003
1.444422e+003, 4.038050e-003
1.446350e+003, 4.407802e-003
1.448278e+003, 4.360958e-003
1.450207e+003, 4.173930e-003
1.452135e+003, 4.004945e-003
1.454064e+003, 3.922122e-003
1.455992e+003, 4.397011e-003
1.457921e+003, 4.565764e-003
1.459849e+003, 4.126214e-003
1.461778e+003, 3.909741e-003
1.463706e+003, 3.982488e-003
1.465635e+003, 3.985633e-003
1.467563e+003, 3.723033e-003
1.469492e+003, 3.656964e-003
1.471420e+003, 3.953387e-003
1.473349e+003, 4.085804e-003
1.475277e+003, 3.916632e-003
1.477205e+003, 3.588542e-003
1.479134e+003, 3.198874e-003
1.481062e+003, 3.209998e-003
1.482991e+003, 3.144650e-003
1.484919e+003, 2.905975e-003
1.486848e+003, 2.792424e-003
1.488776e+003, 2.680670e-003
1.490705e+003, 2.330851e-003
1.492633e+003, 2.021388e-003
1.494562e+003, 1.842213e-003
1.496490e+003, 1.824004e-003
1.498419e+003, 1.484101e-003
1.500347e+003, 1.191107e-003
1.502276e+003, 1.055318e-003
1.504204e+003, 1.389081e-003
1.506132e+003, 1.824847e-003
1.508061e+003, 1.522749e-003
1.509989e+003, 9.269482e-004
1.511918e+003, 5.260177e-004
1.513846e+003, 3.914636e-004
1.515775e+003, 6.651978e-004
1.517703e+003, 5.993491e-004
1.519632e+003, 4.227358e-004
1.521560e+003, 5.536926e-004
1.523489e+003, 4.534092e-004
1.525417e+003, 2.573656e-004
1.527346e+003, 1.124586e-004
1.529274e+003, 5.148376e-005
1.531203e+003, 2.313553e-005
1.533131e+003, 1.021135e-004
1.535059e+003, 7.879102e-005
1.536988e+003, 1.934473e-004
1.538916e+003, 7.302771e-004
1.540845e+003, 6.116561e-004
1.542773e+003, 2.496061e-004
1.544702e+003, 7.523827e-006
1.546630e+003, -1.283592e-004
1.548559e+003, -5.171850e-005
1.550487e+003, -8.604579e-005
1.552416e+003, -9.474177e-005
1.554344e+003, -2.430836e-005
1.556273e+003, 1.781310e-004
1.558201e+003, 7.542624e-004
1.560130e+003, 7.910603e-004
1.562058e+003, 2.254922e-004
1.563986e+003, 1.028728e-004
1.565915e+003, 1.862411e-004
1.567843e+003, 2.329791e-004
1.569772e+003, 3.081419e-004
1.571700e+003, 1.896379e-004
1.573629e+003, 3.700905e-004
1.575557e+003, 8.410104e-004
1.577486e+003, 8.859483e-004
1.579414e+003, 8.093788e-004
1.581343e+003, 8.913672e-004
1.583271e+003, 8.459683e-004
1.585200e+003, 8.416873e-004
1.587128e+003, 8.525046e-004
1.589057e+003, 8.049370e-004
1.590985e+003, 7.938280e-004
1.592913e+003, 9.839844e-004
1.594842e+003, 9.753329e-004
1.596770e+003, 9.049373e-004
1.598699e+003, 9.473500e-004
1.600627e+003, 9.132301e-004
1.602556e+003, 1.089438e-003
1.604484e+003, 1.196877e-003
1.606413e+003, 1.186532e-003
1.608341e+003, 1.267446e-003
1.610270e+003, 1.318250e-003
1.612198e+003, 1.136923e-003
1.614127e+003, 1.083002e-003
1.616055e+003, 1.560792e-003
1.617984e+003, 1.375163e-003
1.619912e+003, 1.118386e-003
1.621840e+003, 1.197335e-003
1.623769e+003, 1.125090e-003
1.625697e+003, 1.001647e-003
1.627626e+003, 1.082499e-003
1.629554e+003, 1.009592e-003
1.631483e+003, 9.931395e-004
1.633411e+003, 1.002226e-003
1.635340e+003, 1.130557e-003
1.637268e+003, 1.043220e-003
1.639197e+003, 8.972218e-004
1.641125e+003, 7.838962e-004
1.643054e+003, 8.144665e-004
1.644982e+003, 1.119863e-003
1.646911e+003, 1.393461e-003
1.648839e+003, 1.175458e-003
1.650767e+003, 1.486608e-003
1.652696e+003, 2.100123e-003
1.654624e+003, 1.635462e-003
1.656553e+003, 1.084147e-003
1.658481e+003, 1.053984e-003
1.660410e+003, 9.382492e-004
1.662338e+003, 8.925719e-004
1.664267e+003, 7.585159e-004
1.666195e+003, 8.244456e-004
1.668124e+003, 1.128420e-003
1.670052e+003, 9.835371e-004
1.671981e+003, 7.566523e-004
1.673909e+003, 9.649263e-004
1.675838e+003, 9.483569e-004
1.677766e+003, 7.990050e-004
1.679694e+003, 8.135182e-004
1.681623e+003, 8.700681e-004
1.683551e+003, 1.396015e-003
1.685480e+003, 1.277268e-003
1.687408e+003, 7.809288e-004
1.689337e+003, 7.315602e-004
1.691265e+003, 8.233299e-004
1.693194e+003, 1.069977e-003
1.695122e+003, 1.539497e-003
1.697051e+003, 1.578438e-003
1.698979e+003, 1.681673e-003
1.700908e+003, 1.571351e-003
1.702836e+003, 9.994544e-004
1.704765e+003, 1.002283e-003
1.706693e+003, 9.910725e-004
1.708621e+003, 8.280951e-004
1.710550e+003, 4.939947e-004
1.712478e+003, 5.859715e-004
1.714407e+003, 8.013279e-004
1.716335e+003, 1.346682e-003
1.718264e+003, 1.393997e-003
1.720192e+003, 8.685677e-004
1.722121e+003, 7.437581e-004
1.724049e+003, 6.926719e-004
1.725978e+003, 6.726110e-004
1.727906e+003, 5.583624e-004
1.729835e+003, 4.240892e-004
1.731763e+003, 4.122183e-004
1.733692e+003, 8.136771e-004
1.735620e+003, 6.189838e-004
1.737548e+003, 2.797942e-004
1.739477e+003, 1.760982e-004
1.741405e+003, -1.680031e-004
1.743334e+003, -2.337913e-004
1.745262e+003, -5.303826e-004
1.747191e+003, -5.780000e-004
1.749119e+003, -5.021333e-004
1.751048e+003, -2.838934e-004
1.752976e+003, -3.584631e-004
1.754905e+003, -6.000160e-004
1.756833e+003, -5.934047e-004
1.758762e+003, -6.094286e-004
1.760690e+003, -6.071822e-004
1.762619e+003, -4.517866e-004
1.764547e+003, -4.719722e-004
1.766475e+003, -7.499939e-004
1.768404e+003, -8.686389e-004
1.770332e+003, -6.153136e-004
1.772261e+003, -3.756127e-004
1.774189e+003, -4.210283e-004
1.776118e+003, -5.838648e-004
1.778046e+003, -7.747997e-004
1.779975e+003, -9.751715e-004
1.781903e+003, -1.138548e-003
1.783832e+003, -9.066212e-004
1.785760e+003, -6.814509e-004
1.787689e+003, -8.511310e-004
1.789617e+003, -9.741766e-004
1.791546e+003, -8.113404e-004
1.793474e+003, -6.769729e-004
1.795402e+003, -7.414150e-004
1.797331e+003, -9.446508e-004
1.799259e+003, -9.549533e-004
1.801188e+003, -6.631287e-004
1.803116e+003, -7.499126e-004
1.805045e+003, -6.611425e-004
1.806973e+003, -5.703759e-004
1.808902e+003, -5.374440e-004
1.810830e+003, -5.163115e-004
1.812759e+003, -4.657188e-004
1.814687e+003, -5.449313e-004
1.816616e+003, -6.641778e-004
1.818544e+003, -5.151990e-004
1.820473e+003, -3.646686e-004
1.822401e+003, -2.230253e-004
1.824329e+003, -3.040446e-005
1.826258e+003, -1.803032e-004
1.828186e+003, -2.823514e-004
1.830115e+003, -3.478710e-004
1.832043e+003, -1.979278e-004
1.833972e+003, 1.203194e-005
1.835900e+003, 4.363370e-004
1.837829e+003, 3.430326e-004
1.839757e+003, 1.753971e-004
1.841686e+003, 1.427443e-004
1.843614e+003, 3.328678e-004
1.845543e+003, 1.955825e-004
1.847471e+003, -9.248930e-005
1.849400e+003, -3.257495e-004
1.851328e+003, -3.587705e-004
1.853256e+003, -3.316462e-004
1.855185e+003, -6.480610e-004
1.857113e+003, -8.879956e-004
1.859042e+003, -9.846523e-004
1.860970e+003, -1.037959e-003
1.862899e+003, -9.054363e-004
1.864827e+003, -3.923903e-004
1.866756e+003, -9.382581e-005
1.868684e+003, -4.948141e-004
1.870613e+003, -1.178642e-003
1.872541e+003, -1.306917e-003
1.874470e+003, -7.880891e-004
1.876398e+003, -4.015985e-004
1.878327e+003, -3.887613e-004
1.880255e+003, -6.311088e-004
1.882183e+003, -4.338783e-004
1.884112e+003, -1.026880e-004
1.886040e+003, -1.857056e-004
1.887969e+003, -5.943796e-004
1.889897e+003, -1.148397e-003
1.891826e+003, -1.453355e-003
1.893754e+003, -1.427025e-003
1.895683e+003, -1.124063e-003
1.897611e+003, -1.100969e-003
1.899540e+003, -1.521164e-003
1.901468e+003, -1.218781e-003
1.903397e+003, -9.974367e-004
1.905325e+003, -1.150585e-003
1.907254e+003, -9.654362e-004
1.909182e+003, -6.476448e-004
1.911110e+003, -4.370023e-004
1.913039e+003, -6.343855e-004
1.914967e+003, -1.015478e-003
1.916896e+003, -1.288157e-003
1.918824e+003, -9.704041e-004
1.920753e+003, -6.137314e-004
1.922681e+003, -1.098718e-003
1.924610e+003, -1.123702e-003
1.926538e+003, -1.033472e-003
1.928467e+003, -1.594841e-003
1.930395e+003, -1.934721e-003
1.932324e+003, -1.596114e-003
1.934252e+003, -1.663208e-003
1.936181e+003, -1.829590e-003
1.938109e+003, -1.702542e-003
1.940037e+003, -1.089570e-003
1.941966e+003, -7.202296e-004
1.943894e+003, -1.535082e-003
1.945823e+003, -2.578334e-003
1.947751e+003, -2.920795e-003
1.949680e+003, -3.277114e-003
1.951608e+003, -3.157636e-003
1.953537e+003, -2.544479e-003
1.955465e+003, -1.945884e-003
1.957394e+003, -2.080767e-003
1.959322e+003, -3.355660e-003
1.961251e+003, -3.912664e-003
1.963179e+003, -3.872545e-003
1.965108e+003, -4.420896e-003
1.967036e+003, -4.080220e-003
1.968964e+003, -3.185782e-003
1.970893e+003, -3.939310e-003
1.972821e+003, -5.098567e-003
1.974750e+003, -4.511780e-003
1.976678e+003, -3.277801e-003
1.978607e+003, -1.557455e-003
1.980535e+003, -1.805823e-003
1.982464e+003, -2.867582e-003
1.984392e+003, -2.675391e-003
1.986321e+003, -2.531797e-003
1.988249e+003, -1.906006e-003
1.990178e+003, -1.225532e-003
1.992106e+003, -2.636438e-003
1.994035e+003, -3.149262e-003
1.995963e+003, -3.357214e-003
1.997891e+003, -3.603290e-003
1.999820e+003, -3.562687e-003
2.001748e+003, -2.657464e-003
2.003677e+003, -3.197432e-003
2.005605e+003, -3.104102e-003
2.007534e+003, -2.832772e-003
2.009462e+003, -3.571576e-003
2.011391e+003, -3.726587e-003
2.013319e+003, -3.455049e-003
2.015248e+003, -3.384463e-003
2.017176e+003, -3.707157e-003
2.019105e+003, -4.562073e-003
2.021033e+003, -4.260536e-003
2.022962e+003, -3.279627e-003
2.024890e+003, -2.486697e-003
2.026818e+003, -2.890843e-003
2.028747e+003, -4.602316e-003
2.030675e+003, -5.495660e-003
2.032604e+003, -3.609018e-003
2.034532e+003, -1.747283e-003
2.036461e+003, -7.935686e-004
2.038389e+003, -1.038225e-003
2.040318e+003, -2.036054e-003
2.042246e+003, -2.683433e-003
2.044175e+003, -2.670233e-003
2.046103e+003, -1.841590e-003
2.048031e+003, -1.634252e-003
2.049960e+003, -1.893999e-003
2.051888e+003, -1.662642e-003
2.053817e+003, -1.476986e-003
2.055745e+003, -1.125506e-003
2.057674e+003, -9.981291e-004
2.059602e+003, -1.634426e-003
2.061531e+003, -1.753426e-003
2.063459e+003, -1.306296e-003
2.065388e+003, -1.730274e-003
2.067316e+003, -1.768396e-003
2.069245e+003, -1.878018e-003
2.071173e+003, -2.125452e-003
2.073102e+003, -2.136820e-003
2.075030e+003, -1.319731e-003
2.076958e+003, -6.413623e-004
2.078887e+003, -5.952191e-004
2.080815e+003, -8.533531e-004
2.082744e+003, -1.202661e-003
2.084672e+003, -1.450902e-003
2.086601e+003, -8.020551e-004
2.088529e+003, -3.067872e-004
2.090458e+003, -7.560623e-004
2.092386e+003, -1.345723e-003
2.094315e+003, -1.373293e-003
2.096243e+003, -8.176972e-004
2.098172e+003, -7.977507e-004
2.100100e+003, -8.425610e-004
2.102029e+003, -6.517488e-004
2.103957e+003, -1.079698e-003
2.105885e+003, -1.317478e-003
2.107814e+003, -1.061935e-003
2.109742e+003, -6.287131e-004
2.111671e+003, -7.103216e-004
2.113599e+003, -6.881574e-004
2.115528e+003, -9.008524e-004
2.117456e+003, -1.045559e-003
2.119385e+003, -7.390192e-004
2.121313e+003, -2.251039e-004
2.123242e+003, -8.251361e-004
2.125170e+003, -1.743881e-003
2.127099e+003, -1.905065e-003
2.129027e+003, -2.459251e-003
2.130956e+003, -2.850536e-003
2.132884e+003, -2.773006e-003
2.134813e+003, -2.368927e-003
2.136741e+003, -2.226359e-003
2.138669e+003, -2.010891e-003
2.140598e+003, -1.254413e-003
2.142526e+003, -3.771674e-004
2.144455e+003, -2.888626e-004
2.146383e+003, -1.364118e-003
2.148312e+003, -1.511753e-003
2.150240e+003, 4.374616e-005
2.152169e+003, 9.995166e-004
2.154097e+003, -1.367239e-003
2.156026e+003, -3.266719e-003
2.157954e+003, -1.275081e-003
2.159883e+003, 1.683445e-003
2.161811e+003, 1.834576e-003
2.163740e+003, 1.124826e-003
2.165668e+003, 1.652300e-003
2.167596e+003, 2.017392e-003
2.169525e+003, 9.217304e-004
2.171453e+003, 4.114943e-004
2.173382e+003, -6.237138e-004
2.175310e+003, 1.873999e-006
2.177239e+003, 1.039253e-003
2.179167e+003, 7.645224e-004
2.181096e+003, 3.460848e-004
2.183024e+003, 2.553678e-004
2.184953e+003, 2.525519e-004
2.186881e+003, 1.793416e-003
2.188810e+003, 2.066789e-003
2.190738e+003, 1.836069e-003
2.192667e+003, 1.424461e-003
2.194595e+003, 1.431612e-003
2.196523e+003, 1.329811e-003
2.198452e+003, 1.475348e-003
2.200380e+003, 8.056758e-004
2.202309e+003, 3.553637e-004
2.204237e+003, 8.882289e-004
2.206166e+003, 1.329646e-003
2.208094e+003, 6.639654e-004
2.210023e+003, 7.386318e-004
2.211951e+003, 1.299960e-003
2.213880e+003, 1.289561e-003
2.215808e+003, 7.717194e-004
2.217737e+003, 1.277901e-003
2.219665e+003, 1.083728e-003
2.221594e+003, 5.202711e-004
2.223522e+003, 6.576193e-004
2.225450e+003, 1.346512e-003
2.227379e+003, 1.340066e-003
2.229307e+003, 1.119125e-003
2.231236e+003, 1.518451e-003
2.233164e+003, 1.655543e-003
2.235093e+003, 1.296727e-003
2.237021e+003, 1.650160e-003
2.238950e+003, 1.517608e-003
2.240878e+003, 1.559594e-003
2.242807e+003, 1.797660e-003
2.244735e+003, 1.648102e-003
2.246664e+003, 1.515009e-003
2.248592e+003, 1.318659e-003
2.250521e+003, 1.010632e-003
2.252449e+003, 7.582638e-004
2.254377e+003, 1.539737e-003
2.256306e+003, 2.347974e-003
2.258234e+003, 2.471795e-003
2.260163e+003, 2.842529e-003
2.262091e+003, 2.609477e-003
2.264020e+003, 1.563153e-003
2.265948e+003, 1.923552e-003
2.267877e+003, 2.575692e-003
2.269805e+003, 1.735669e-003
2.271734e+003, 1.519626e-003
2.273662e+003, 1.738920e-003
2.275591e+003, 1.826204e-003
2.277519e+003, 1.387084e-003
2.279448e+003, 1.502093e-003
2.281376e+003, 1.473233e-003
2.283304e+003, 1.934040e-003
2.285233e+003, 2.678157e-003
2.287161e+003, 2.517285e-003
2.289090e+003, 2.348029e-003
2.291018e+003, 2.448549e-003
2.292947e+003, 2.395166e-003
2.294875e+003, 2.419361e-003
2.296804e+003, 2.466786e-003
2.298732e+003, 2.280355e-003
2.300661e+003, 1.826085e-003
2.302589e+003, 1.708004e-003
2.304518e+003, 2.097000e-003
2.306446e+003, 2.538356e-003
2.308375e+003, 2.588635e-003
2.310303e+003, 2.575525e-003
2.312231e+003, 2.744060e-003
2.314160e+003, 2.797480e-003
2.316088e+003, 2.682538e-003
2.318017e+003, 3.079296e-003
2.319945e+003, 3.561332e-003
2.321874e+003, 3.707827e-003
2.323802e+003, 3.782394e-003
2.325731e+003, 3.437749e-003
2.327659e+003, 3.099532e-003
2.329588e+003, 3.222349e-003
2.331516e+003, 3.572039e-003
2.333445e+003, 3.693092e-003
2.335373e+003, 3.860414e-003
2.337302e+003, 3.792162e-003
2.339230e+003, 3.472324e-003
2.341158e+003, 3.494412e-003
2.343087e+003, 3.352946e-003
2.345015e+003, 2.845454e-003
2.346944e+003, 2.597895e-003
2.348872e+003, 2.544008e-003
2.350801e+003, 2.620672e-003
2.352729e+003, 3.018914e-003
2.354658e+003, 3.383125e-003
2.356586e+003, 3.594620e-003
2.358515e+003, 3.966133e-003
2.360443e+003, 4.356446e-003
2.362372e+003, 4.447658e-003
2.364300e+003, 4.237146e-003
2.366229e+003, 3.622546e-003
2.368157e+003, 3.159048e-003
2.370085e+003, 3.020312e-003
2.372014e+003, 3.131082e-003
2.373942e+003, 3.126763e-003
2.375871e+003, 3.209136e-003
2.377799e+003, 3.079214e-003
2.379728e+003, 2.707151e-003
2.381656e+003, 2.910411e-003
2.383585e+003, 3.083299e-003
2.385513e+003, 2.528069e-003
2.387442e+003, 2.347979e-003
2.389370e+003, 2.191507e-003
2.391299e+003, 2.323343e-003
2.393227e+003, 2.292394e-003
2.395156e+003, 2.410927e-003
2.397084e+003, 2.603630e-003
2.399012e+003, 2.815883e-003
2.400941e+003, 2.586366e-003
2.402869e+003, 2.672571e-003
2.404798e+003, 2.560168e-003
2.406726e+003, 2.601952e-003
2.408655e+003, 2.981980e-003
2.410583e+003, 2.809683e-003
2.412512e+003, 2.733947e-003
2.414440e+003, 2.793884e-003
2.416369e+003, 2.847736e-003
2.418297e+003, 3.049445e-003
2.420226e+003, 2.811273e-003
2.422154e+003, 2.711159e-003
2.424083e+003, 2.535610e-003
2.426011e+003, 2.407503e-003
2.427939e+003, 2.538193e-003
2.429868e+003, 2.780819e-003
2.431796e+003, 2.963683e-003
2.433725e+003, 3.035095e-003
2.435653e+003, 2.253125e-003
2.437582e+003, 1.663409e-003
2.439510e+003, 1.644324e-003
2.441439e+003, 2.253856e-003
2.443367e+003, 2.733442e-003
2.445296e+003, 2.922205e-003
2.447224e+003, 3.040057e-003
2.449153e+003, 3.200510e-003
2.451081e+003, 2.645426e-003
2.453010e+003, 2.718154e-003
2.454938e+003, 3.343432e-003
2.456866e+003, 3.073996e-003
2.458795e+003, 2.016407e-003
2.460723e+003, 1.810194e-003
2.462652e+003, 2.585278e-003
2.464580e+003, 3.331251e-003
2.466509e+003, 3.248848e-003
2.468437e+003, 2.786007e-003
2.470366e+003, 2.955858e-003
2.472294e+003, 3.115974e-003
2.474223e+003, 2.608766e-003
2.476151e+003, 2.422394e-003
2.478080e+003, 3.217146e-003
2.480008e+003, 3.667936e-003
2.481937e+003, 3.880319e-003
2.483865e+003, 3.861694e-003
2.485793e+003, 3.311923e-003
2.487722e+003, 3.006051e-003
2.489650e+003, 3.206188e-003
2.491579e+003, 3.131669e-003
2.493507e+003, 3.355350e-003
2.495436e+003, 3.665864e-003
2.497364e+003, 3.303932e-003
2.499293e+003, 3.260716e-003
2.501221e+003, 3.055357e-003
2.503150e+003, 3.212009e-003
2.505078e+003, 2.867558e-003
2.507007e+003, 2.110956e-003
2.508935e+003, 2.232861e-003
2.510864e+003, 2.696855e-003
2.512792e+003, 2.879059e-003
2.514720e+003, 3.032241e-003
2.516649e+003, 3.201231e-003
2.518577e+003, 3.317265e-003
2.520506e+003, 2.594110e-003
2.522434e+003, 2.274272e-003
2.524363e+003, 2.233517e-003
2.526291e+003, 2.413979e-003
2.528220e+003, 2.732796e-003
2.530148e+003, 2.895163e-003
2.532077e+003, 2.780281e-003
2.534005e+003, 2.655387e-003
2.535934e+003, 2.316166e-003
2.537862e+003, 2.271835e-003
2.539791e+003, 2.292703e-003
2.541719e+003, 2.261278e-003
2.543647e+003, 2.223808e-003
2.545576e+003, 2.852267e-003
2.547504e+003, 2.878885e-003
2.549433e+003, 3.135258e-003
2.551361e+003, 3.605780e-003
2.553290e+003, 3.375714e-003
2.555218e+003, 2.922831e-003
2.557147e+003, 2.897003e-003
2.559075e+003, 2.818852e-003
2.561004e+003, 3.074775e-003
2.562932e+003, 2.917606e-003
2.564861e+003, 2.724438e-003
2.566789e+003, 2.855572e-003
2.568718e+003, 2.978125e-003
2.570646e+003, 3.032715e-003
2.572574e+003, 2.822357e-003
2.574503e+003, 2.962252e-003
2.576431e+003, 3.022591e-003
2.578360e+003, 2.788535e-003
2.580288e+003, 2.869219e-003
2.582217e+003, 2.412627e-003
2.584145e+003, 2.063617e-003
2.586074e+003, 2.425591e-003
2.588002e+003, 2.540240e-003
2.589931e+003, 2.515212e-003
2.591859e+003, 3.139550e-003
2.593788e+003, 3.167311e-003
2.595716e+003, 2.821274e-003
2.597645e+003, 3.089163e-003
2.599573e+003, 3.231904e-003
2.601501e+003, 3.251072e-003
2.603430e+003, 3.259711e-003
2.605358e+003, 3.201091e-003
2.607287e+003, 2.884083e-003
2.609215e+003, 2.658459e-003
2.611144e+003, 2.975178e-003
2.613072e+003, 3.259801e-003
2.615001e+003, 2.872290e-003
2.616929e+003, 2.593836e-003
2.618858e+003, 3.009894e-003
2.620786e+003, 3.262283e-003
2.622715e+003, 3.337282e-003
2.624643e+003, 3.171326e-003
2.626572e+003, 3.242690e-003
2.628500e+003, 3.476634e-003
2.630428e+003, 3.573606e-003
2.632357e+003, 3.642460e-003
2.634285e+003, 3.487789e-003
2.636214e+003, 3.449076e-003
2.638142e+003, 3.670372e-003
2.640071e+003, 3.630845e-003
2.641999e+003, 3.596175e-003
2.643928e+003, 3.448009e-003
2.645856e+003, 3.229485e-003
2.647785e+003, 3.317974e-003
2.649713e+003, 3.801945e-003
2.651642e+003, 4.011620e-003
2.653570e+003, 3.770959e-003
2.655499e+003, 3.547030e-003
2.657427e+003, 3.298355e-003
2.659355e+003, 3.452662e-003
2.661284e+003, 3.716988e-003
2.663212e+003, 3.560608e-003
2.665141e+003, 3.449545e-003
2.667069e+003, 3.402230e-003
2.668998e+003, 3.431919e-003
2.670926e+003, 3.297005e-003
2.672855e+003, 2.962383e-003
2.674783e+003, 2.831871e-003
2.676712e+003, 3.264657e-003
2.678640e+003, 3.406041e-003
2.680569e+003, 3.229014e-003
2.682497e+003, 3.380905e-003
2.684426e+003, 3.609847e-003
2.686354e+003, 3.553960e-003
2.688282e+003, 3.427861e-003
2.690211e+003, 3.187893e-003
2.692139e+003, 3.209409e-003
2.694068e+003, 3.316351e-003
2.695996e+003, 3.426139e-003
2.697925e+003, 3.539230e-003
2.699853e+003, 3.625478e-003
2.701782e+003, 3.652583e-003
2.703710e+003, 3.796555e-003
2.705639e+003, 3.551147e-003
2.707567e+003, 3.230410e-003
2.709496e+003, 3.370905e-003
2.711424e+003, 3.420517e-003
2.713353e+003, 3.404105e-003
2.715281e+003, 3.730399e-003
2.717209e+003, 3.721217e-003
2.719138e+003, 3.498470e-003
2.721066e+003, 3.581073e-003
2.722995e+003, 3.798019e-003
2.724923e+003, 3.808952e-003
2.726852e+003, 4.046164e-003
2.728780e+003, 3.986426e-003
2.730709e+003, 3.748690e-003
2.732637e+003, 3.779586e-003
2.734566e+003, 3.701813e-003
2.736494e+003, 3.421771e-003
2.738423e+003, 3.401434e-003
2.740351e+003, 3.949124e-003
2.742280e+003, 4.481871e-003
2.744208e+003, 4.373588e-003
2.746136e+003, 3.987314e-003
2.748065e+003, 3.720909e-003
2.749993e+003, 3.824159e-003
2.751922e+003, 4.204782e-003
2.753850e+003, 4.047679e-003
2.755779e+003, 4.012584e-003
2.757707e+003, 4.206470e-003
2.759636e+003, 3.987741e-003
2.761564e+003, 4.120900e-003
2.763493e+003, 4.448713e-003
2.765421e+003, 4.612775e-003
2.767350e+003, 4.548432e-003
2.769278e+003, 4.278080e-003
2.771207e+003, 4.359848e-003
2.773135e+003, 4.324889e-003
2.775063e+003, 4.158851e-003
2.776992e+003, 4.230622e-003
2.778920e+003, 4.344723e-003
2.780849e+003, 4.353749e-003
2.782777e+003, 4.193728e-003
2.784706e+003, 4.156081e-003
2.786634e+003, 4.570675e-003
2.788563e+003, 4.857766e-003
2.790491e+003, 4.829934e-003
2.792420e+003, 5.073147e-003
2.794348e+003, 5.027561e-003
2.796277e+003, 4.678380e-003
2.798205e+003, 4.448107e-003
2.800134e+003, 4.656240e-003
2.802062e+003, 4.758429e-003
2.803990e+003, 4.641389e-003
2.805919e+003, 4.899389e-003
2.807847e+003, 5.383353e-003
2.809776e+003, 5.107765e-003
2.811704e+003, 4.917535e-003
2.813633e+003, 4.984279e-003
2.815561e+003, 4.969336e-003
2.817490e+003, 5.142318e-003
2.819418e+003, 5.303264e-003
2.821347e+003, 5.316093e-003
2.823275e+003, 5.492801e-003
2.825204e+003, 5.241850e-003
2.827132e+003, 5.170170e-003
2.829061e+003, 5.532776e-003
2.830989e+003, 5.492073e-003
2.832917e+003, 5.161992e-003
2.834846e+003, 5.598628e-003
2.836774e+003, 6.191583e-003
2.838703e+003, 6.180478e-003
2.840631e+003, 5.972519e-003
2.842560e+003, 5.826101e-003
2.844488e+003, 6.267623e-003
2.846417e+003, 6.347235e-003
2.848345e+003, 5.860622e-003
2.850274e+003, 5.902641e-003
2.852202e+003, 5.856119e-003
2.854131e+003, 5.962892e-003
2.856059e+003, 6.119737e-003
2.857988e+003, 6.404639e-003
2.859916e+003, 6.551368e-003
2.861844e+003, 6.611077e-003
2.863773e+003, 5.970737e-003
2.865701e+003, 5.732728e-003
2.867630e+003, 5.975055e-003
2.869558e+003, 6.160224e-003
2.871487e+003, 6.157480e-003
2.873415e+003, 5.966254e-003
2.875344e+003, 5.788962e-003
2.877272e+003, 5.787290e-003
2.879201e+003, 6.058980e-003
2.881129e+003, 6.288776e-003
2.883058e+003, 6.232597e-003
2.884986e+003, 6.456878e-003
2.886915e+003, 6.024944e-003
2.888843e+003, 6.119766e-003
2.890771e+003, 6.388859e-003
2.892700e+003, 6.408824e-003
2.894628e+003, 5.984666e-003
2.896557e+003, 5.823764e-003
2.898485e+003, 6.423283e-003
2.900414e+003, 7.079252e-003
2.902342e+003, 7.297508e-003
2.904271e+003, 6.897361e-003
2.906199e+003, 6.240818e-003
2.908128e+003, 6.526299e-003
2.910056e+003, 7.167949e-003
2.911985e+003, 6.913546e-003
2.913913e+003, 6.462422e-003
2.915842e+003, 6.748441e-003
2.917770e+003, 6.993385e-003
2.919698e+003, 7.487112e-003
2.921627e+003, 7.953326e-003
2.923555e+003, 7.830982e-003
2.925484e+003, 7.569131e-003
2.927412e+003, 7.874302e-003
2.929341e+003, 7.564660e-003
2.931269e+003, 7.469204e-003
2.933198e+003, 7.249288e-003
2.935126e+003, 7.045937e-003
2.937055e+003, 6.868273e-003
2.938983e+003, 6.584384e-003
2.940912e+003, 6.704486e-003
2.942840e+003, 6.318424e-003
2.944769e+003, 6.119311e-003
2.946697e+003, 5.905840e-003
2.948625e+003, 5.781721e-003
2.950554e+003, 6.495829e-003
2.952482e+003, 7.009400e-003
2.954411e+003, 7.081502e-003
2.956339e+003, 7.206690e-003
2.958268e+003, 7.084044e-003
2.960196e+003, 6.332919e-003
2.962125e+003, 6.102520e-003
2.964053e+003, 5.915171e-003
2.965982e+003, 5.799762e-003
2.967910e+003, 6.118391e-003
2.969839e+003, 6.429101e-003
2.971767e+003, 6.459599e-003
2.973696e+003, 6.221401e-003
2.975624e+003, 6.065248e-003
2.977552e+003, 5.824270e-003
2.979481e+003, 5.256069e-003
2.981409e+003, 4.985939e-003
2.983338e+003, 4.870985e-003
2.985266e+003, 5.274122e-003
2.987195e+003, 5.302076e-003
2.989123e+003, 5.413801e-003
2.991052e+003, 5.468449e-003
2.992980e+003, 5.515694e-003
2.994909e+003, 5.469023e-003
2.996837e+003, 5.469054e-003
2.998766e+003, 5.722845e-003
3.000694e+003, 5.611188e-003
3.002623e+003, 5.446443e-003
3.004551e+003, 5.224529e-003
3.006479e+003, 5.174575e-003
3.008408e+003, 5.517899e-003
3.010336e+003, 6.071266e-003
3.012265e+003, 5.899889e-003
3.014193e+003, 5.376270e-003
3.016122e+003, 5.678680e-003
3.018050e+003, 5.853362e-003
3.019979e+003, 5.922738e-003
3.021907e+003, 5.796073e-003
3.023836e+003, 5.391558e-003
3.025764e+003, 5.676494e-003
3.027693e+003, 6.155757e-003
3.029621e+003, 6.408611e-003
3.031550e+003, 5.821025e-003
3.033478e+003, 5.834924e-003
3.035406e+003, 6.119907e-003
3.037335e+003, 6.166261e-003
3.039263e+003, 6.125357e-003
3.041192e+003, 6.140076e-003
3.043120e+003, 5.878689e-003
3.045049e+003, 5.950318e-003
3.046977e+003, 6.341239e-003
3.048906e+003, 6.262323e-003
3.050834e+003, 5.858866e-003
3.052763e+003, 6.246058e-003
3.054691e+003, 6.649409e-003
3.056620e+003, 5.847088e-003
3.058548e+003, 5.233568e-003
3.060477e+003, 5.521344e-003
3.062405e+003, 5.835937e-003
3.064333e+003, 5.877243e-003
3.066262e+003, 5.771960e-003
3.068190e+003, 5.788557e-003
3.070119e+003, 6.030882e-003
3.072047e+003, 6.079355e-003
3.073976e+003, 6.224070e-003
3.075904e+003, 6.526281e-003
3.077833e+003, 6.436094e-003
3.079761e+003, 6.739364e-003
3.081690e+003, 7.158663e-003
3.083618e+003, 6.831498e-003
3.085547e+003, 6.588554e-003
3.087475e+003, 7.383268e-003
3.089404e+003, 6.910474e-003
3.091332e+003, 6.516402e-003
3.093260e+003, 6.822676e-003
3.095189e+003, 6.617183e-003
3.097117e+003, 6.429194e-003
3.099046e+003, 6.237487e-003
3.100974e+003, 5.743193e-003
3.102903e+003, 5.500533e-003
3.104831e+003, 6.122323e-003
3.106760e+003, 6.785719e-003
3.108688e+003, 6.281731e-003
3.110617e+003, 5.984646e-003
3.112545e+003, 5.942571e-003
3.114474e+003, 6.259415e-003
3.116402e+003, 6.372843e-003
3.118331e+003, 6.775582e-003
3.120259e+003, 6.992690e-003
3.122188e+003, 6.951156e-003
3.124116e+003, 7.092173e-003
3.126044e+003, 7.518412e-003
3.127973e+003, 7.111556e-003
3.129901e+003, 6.443377e-003
3.131830e+003, 6.919429e-003
3.133758e+003, 7.599821e-003
3.135687e+003, 8.157100e-003
3.137615e+003, 7.808241e-003
3.139544e+003, 7.383314e-003
3.141472e+003, 7.182323e-003
3.143401e+003, 7.170922e-003
3.145329e+003, 7.472785e-003
3.147258e+003, 7.324604e-003
3.149186e+003, 7.818147e-003
3.151115e+003, 8.004189e-003
3.153043e+003, 7.175695e-003
3.154971e+003, 6.948388e-003
3.156900e+003, 7.012878e-003
3.158828e+003, 7.049353e-003
3.160757e+003, 7.525339e-003
3.162685e+003, 8.011340e-003
3.164614e+003, 8.194163e-003
3.166542e+003, 8.150184e-003
3.168471e+003, 7.779550e-003
3.170399e+003, 7.729033e-003
3.172328e+003, 7.738175e-003
3.174256e+003, 8.111954e-003
3.176185e+003, 7.943811e-003
3.178113e+003, 7.678585e-003
3.180042e+003, 7.567546e-003
3.181970e+003, 7.138195e-003
3.183898e+003, 7.296396e-003
3.185827e+003, 7.673870e-003
3.187755e+003, 7.523244e-003
3.189684e+003, 6.694306e-003
3.191612e+003, 6.632897e-003
3.193541e+003, 7.606798e-003
3.195469e+003, 7.719668e-003
3.197398e+003, 7.439910e-003
3.199326e+003, 7.843582e-003
3.201255e+003, 7.685646e-003
3.203183e+003, 7.390525e-003
3.205112e+003, 7.128944e-003
3.207040e+003, 6.982748e-003
3.208969e+003, 7.324134e-003
3.210897e+003, 7.596686e-003
3.212825e+003, 8.334848e-003
3.214754e+003, 8.452690e-003
3.216682e+003, 7.781739e-003
3.218611e+003, 8.140346e-003
3.220539e+003, 8.584390e-003
3.222468e+003, 8.301216e-003
3.224396e+003, 7.799755e-003
3.226325e+003, 8.265449e-003
3.228253e+003, 8.920969e-003
3.230182e+003, 8.005340e-003
3.232110e+003, 7.467387e-003
3.234039e+003, 7.446957e-003
3.235967e+003, 7.625598e-003
3.237896e+003, 8.196997e-003
3.239824e+003, 8.563321e-003
3.241752e+003, 8.362456e-003
3.243681e+003, 7.596230e-003
3.245609e+003, 7.539443e-003
3.247538e+003, 7.717996e-003
3.249466e+003, 7.547428e-003
3.251395e+003, 8.126822e-003
3.253323e+003, 8.263377e-003
3.255252e+003, 7.580059e-003
3.257180e+003, 7.617753e-003
3.259109e+003, 7.925533e-003
3.261037e+003, 7.221406e-003
3.262966e+003, 7.440312e-003
3.264894e+003, 7.789375e-003
3.266823e+003, 7.518966e-003
3.268751e+003, 6.914665e-003
3.270679e+003, 6.539387e-003
3.272608e+003, 6.952680e-003
3.274536e+003, 7.206588e-003
3.276465e+003, 7.586998e-003
3.278393e+003, 8.272423e-003
3.280322e+003, 8.635698e-003
3.282250e+003, 7.864355e-003
3.284179e+003, 6.901483e-003
3.286107e+003, 7.442184e-003
3.288036e+003, 8.009572e-003
3.289964e+003, 7.268918e-003
3.291893e+003, 7.562084e-003
3.293821e+003, 8.192583e-003
3.295750e+003, 7.665139e-003
3.297678e+003, 7.307488e-003
3.299606e+003, 7.046844e-003
3.301535e+003, 6.913333e-003
3.303463e+003, 6.860840e-003
3.305392e+003, 6.908754e-003
3.307320e+003, 7.149989e-003
3.309249e+003, 6.820083e-003
3.311177e+003, 6.516205e-003
3.313106e+003, 7.173970e-003
3.315034e+003, 7.506703e-003
3.316963e+003, 7.379053e-003
3.318891e+003, 7.499739e-003
3.320820e+003, 7.649220e-003
3.322748e+003, 7.712767e-003
3.324677e+003, 8.163192e-003
3.326605e+003, 8.326007e-003
3.328533e+003, 8.078945e-003
3.330462e+003, 7.769170e-003
3.332390e+003, 7.045181e-003
3.334319e+003, 7.644773e-003
3.336247e+003, 8.190158e-003
3.338176e+003, 7.843656e-003
3.340104e+003, 7.824154e-003
3.342033e+003, 7.419354e-003
3.343961e+003, 7.471969e-003
3.345890e+003, 7.701060e-003
3.347818e+003, 7.326726e-003
3.349747e+003, 7.319792e-003
3.351675e+003, 8.130535e-003
3.353604e+003, 8.571961e-003
3.355532e+003, 8.224642e-003
3.357460e+003, 8.302872e-003
3.359389e+003, 8.465606e-003
3.361317e+003, 8.196373e-003
3.363246e+003, 7.836011e-003
3.365174e+003, 8.264086e-003
3.367103e+003, 8.542387e-003
3.369031e+003, 8.459589e-003
3.370960e+003, 8.611718e-003
3.372888e+003, 8.603942e-003
3.374817e+003, 8.854763e-003
3.376745e+003, 8.167272e-003
3.378674e+003, 7.917991e-003
3.380602e+003, 8.392320e-003
3.382531e+003, 8.152978e-003
3.384459e+003, 7.977664e-003
3.386387e+003, 7.651697e-003
3.388316e+003, 8.196613e-003
3.390244e+003, 8.848568e-003
3.392173e+003, 8.166611e-003
3.394101e+003, 7.680885e-003
3.396030e+003, 7.514120e-003
3.397958e+003, 7.509560e-003
3.399887e+003, 8.150860e-003
3.401815e+003, 8.832844e-003
3.403744e+003, 9.247711e-003
3.405672e+003, 8.131144e-003
3.407601e+003, 7.798489e-003
3.409529e+003, 8.249066e-003
3.411458e+003, 7.962545e-003
3.413386e+003, 8.343243e-003
3.415314e+003, 8.583658e-003
3.417243e+003, 8.422585e-003
3.419171e+003, 8.244369e-003
3.421100e+003, 7.591694e-003
3.423028e+003, 7.588336e-003
3.424957e+003, 8.782083e-003
3.426885e+003, 9.192903e-003
3.428814e+003, 8.608674e-003
3.430742e+003, 8.386238e-003
3.432671e+003, 8.936760e-003
3.434599e+003, 8.586914e-003
3.436528e+003, 8.527719e-003
3.438456e+003, 8.763865e-003
3.440385e+003, 8.996063e-003
3.442313e+003, 9.249208e-003
3.444241e+003, 9.212478e-003
3.446170e+003, 8.950309e-003
3.448098e+003, 8.481976e-003
3.450027e+003, 8.572484e-003
3.451955e+003, 8.301565e-003
3.453884e+003, 8.188371e-003
3.455812e+003, 8.173025e-003
3.457741e+003, 8.485070e-003
3.459669e+003, 9.034380e-003
3.461598e+003, 8.528679e-003
3.463526e+003, 8.063309e-003
3.465455e+003, 7.315307e-003
3.467383e+003, 6.717205e-003
3.469312e+003, 6.412100e-003
3.471240e+003, 6.460943e-003
3.473168e+003, 7.326848e-003
3.475097e+003, 8.120691e-003
3.477025e+003, 7.734673e-003
3.478954e+003, 7.471340e-003
3.480882e+003, 7.639384e-003
3.482811e+003, 8.123867e-003
3.484739e+003, 8.351614e-003
3.486668e+003, 8.598114e-003
3.488596e+003, 9.174460e-003
3.490525e+003, 8.362805e-003
3.492453e+003, 7.615001e-003
3.494382e+003, 7.923067e-003
3.496310e+003, 7.821354e-003
3.498239e+003, 7.004033e-003
3.500167e+003, 7.008011e-003
3.502095e+003, 7.421804e-003
3.504024e+003, 7.213915e-003
3.505952e+003, 7.434297e-003
3.507881e+003, 8.105689e-003
3.509809e+003, 7.931276e-003
3.511738e+003, 7.484683e-003
3.513666e+003, 7.393680e-003
3.515595e+003, 6.846407e-003
3.517523e+003, 7.358816e-003
3.519452e+003, 8.291172e-003
3.521380e+003, 8.806812e-003
3.523309e+003, 9.026521e-003
3.525237e+003, 8.139688e-003
3.527166e+003, 8.084221e-003
3.529094e+003, 8.169636e-003
3.531022e+003, 7.725790e-003
3.532951e+003, 7.231010e-003
3.534879e+003, 7.359701e-003
3.536808e+003, 7.459215e-003
3.538736e+003, 7.432885e-003
3.540665e+003, 7.691943e-003
3.542593e+003, 8.091378e-003
3.544522e+003, 8.841064e-003
3.546450e+003, 8.429681e-003
3.548379e+003, 7.983451e-003
3.550307e+003, 8.947308e-003
3.552236e+003, 8.650552e-003
3.554164e+003, 8.377803e-003
3.556093e+003, 9.158514e-003
3.558021e+003, 8.114764e-003
3.559949e+003, 7.145719e-003
3.561878e+003, 6.988230e-003
3.563806e+003, 7.580114e-003
3.565735e+003, 8.268117e-003
3.567663e+003, 8.086134e-003
3.569592e+003, 6.711593e-003
3.571520e+003, 6.544081e-003
3.573449e+003, 6.616342e-003
3.575377e+003, 6.537229e-003
3.577306e+003, 6.903841e-003
3.579234e+003, 7.698619e-003
3.581163e+003, 8.307827e-003
3.583091e+003, 8.250236e-003
3.585020e+003, 8.171205e-003
3.586948e+003, 8.116104e-003
3.588876e+003, 7.556363e-003
3.590805e+003, 7.148607e-003
3.592733e+003, 7.464126e-003
3.594662e+003, 7.168251e-003
3.596590e+003, 6.427628e-003
3.598519e+003, 7.622913e-003
3.600447e+003, 8.531521e-003
3.602376e+003, 7.187950e-003
3.604304e+003, 6.211189e-003
3.606233e+003, 6.988232e-003
3.608161e+003, 7.224116e-003
3.610090e+003, 6.710012e-003
3.612018e+003, 6.580667e-003
3.613947e+003, 6.740751e-003
3.615875e+003, 7.501971e-003
3.617803e+003, 8.124708e-003
3.619732e+003, 7.387660e-003
3.621660e+003, 6.436404e-003
3.623589e+003, 7.084338e-003
3.625517e+003, 7.603212e-003
3.627446e+003, 7.450983e-003
3.629374e+003, 7.379792e-003
3.631303e+003, 7.521769e-003
3.633231e+003, 7.143942e-003
3.635160e+003, 6.733384e-003
3.637088e+003, 6.067821e-003
3.639017e+003, 5.475515e-003
3.640945e+003, 5.709897e-003
3.642874e+003, 6.254751e-003
3.644802e+003, 7.043442e-003
3.646730e+003, 7.439242e-003
3.648659e+003, 7.749538e-003
3.650587e+003, 7.657611e-003
3.652516e+003, 7.603893e-003
3.654444e+003, 7.090050e-003
3.656373e+003, 6.506975e-003
3.658301e+003, 6.712219e-003
3.660230e+003, 7.017342e-003
3.662158e+003, 6.293953e-003
3.664087e+003, 5.865723e-003
3.666015e+003, 5.753723e-003
3.667944e+003, 5.689422e-003
3.669872e+003, 6.103473e-003
3.671801e+003, 5.943647e-003
3.673729e+003, 5.404015e-003
3.675657e+003, 5.990598e-003
3.677586e+003, 6.372218e-003
3.679514e+003, 5.488494e-003
3.681443e+003, 3.942039e-003
3.683371e+003, 4.052751e-003
3.685300e+003, 3.646414e-003
3.687228e+003, 4.869261e-003
3.689157e+003, 6.339127e-003
3.691085e+003, 6.281418e-003
3.693014e+003, 6.000093e-003
3.694942e+003, 5.136000e-003
3.696871e+003, 4.414806e-003
3.698799e+003, 4.785586e-003
3.700728e+003, 4.892746e-003
3.702656e+003, 4.740987e-003
3.704584e+003, 4.959284e-003
3.706513e+003, 4.570412e-003
3.708441e+003, 4.289275e-003
3.710370e+003, 4.843961e-003
3.712298e+003, 5.494691e-003
3.714227e+003, 5.578926e-003
3.716155e+003, 5.061357e-003
3.718084e+003, 5.197953e-003
3.720012e+003, 5.320970e-003
3.721941e+003, 5.171920e-003
3.723869e+003, 5.154300e-003
3.725798e+003, 4.670703e-003
3.727726e+003, 4.674607e-003
3.729655e+003, 5.094743e-003
3.731583e+003, 4.401708e-003
3.733511e+003, 4.740049e-003
3.735440e+003, 5.932496e-003
3.737368e+003, 6.252524e-003
3.739297e+003, 6.496187e-003
3.741225e+003, 6.991348e-003
3.743154e+003, 7.918084e-003
3.745082e+003, 7.740242e-003
3.747011e+003, 6.944929e-003
3.748939e+003, 7.846442e-003
3.750868e+003, 7.821381e-003
3.752796e+003, 6.977630e-003
3.754725e+003, 5.914427e-003
3.756653e+003, 5.773931e-003
3.758582e+003, 4.772502e-003
3.760510e+003, 4.490679e-003
3.762438e+003, 6.185467e-003
3.764367e+003, 6.900063e-003
3.766295e+003, 6.984306e-003
3.768224e+003, 6.558601e-003
3.770152e+003, 6.304235e-003
3.772081e+003, 6.457149e-003
3.774009e+003, 6.308677e-003
3.775938e+003, 5.756740e-003
3.777866e+003, 5.855654e-003
3.779795e+003, 6.792014e-003
3.781723e+003, 6.134033e-003
3.783652e+003, 5.177055e-003
3.785580e+003, 4.279394e-003
3.787509e+003, 5.502254e-003
3.789437e+003, 5.771651e-003
3.791365e+003, 5.098138e-003
3.793294e+003, 4.778385e-003
3.795222e+003, 5.014272e-003
3.797151e+003, 6.316669e-003
3.799079e+003, 6.785587e-003
3.801008e+003, 6.685336e-003
3.802936e+003, 5.294709e-003
3.804865e+003, 5.010193e-003
3.806793e+003, 6.367150e-003
3.808722e+003, 6.110945e-003
3.810650e+003, 6.773798e-003
3.812579e+003, 7.168206e-003
3.814507e+003, 7.165485e-003
3.816436e+003, 6.939758e-003
3.818364e+003, 6.968293e-003
3.820292e+003, 8.256550e-003
3.822221e+003, 7.577760e-003
3.824149e+003, 5.291575e-003
3.826078e+003, 5.533227e-003
3.828006e+003, 5.701972e-003
3.829935e+003, 5.483547e-003
3.831863e+003, 6.187962e-003
3.833792e+003, 6.961495e-003
3.835720e+003, 7.304132e-003
3.837649e+003, 6.583305e-003
3.839577e+003, 6.206548e-003
3.841506e+003, 6.435176e-003
3.843434e+003, 6.057868e-003
3.845363e+003, 6.343281e-003
3.847291e+003, 7.304912e-003
3.849219e+003, 6.879497e-003
3.851148e+003, 6.763787e-003
3.853076e+003, 7.366034e-003
3.855005e+003, 7.233093e-003
3.856933e+003, 5.766604e-003
3.858862e+003, 4.892654e-003
3.860790e+003, 5.602167e-003
3.862719e+003, 6.866354e-003
3.864647e+003, 7.478575e-003
3.866576e+003, 8.011681e-003
3.868504e+003, 8.451051e-003
3.870433e+003, 8.046475e-003
3.872361e+003, 7.935748e-003
3.874290e+003, 7.710005e-003
3.876218e+003, 6.387734e-003
3.878146e+003, 6.402521e-003
3.880075e+003, 6.528567e-003
3.882003e+003, 6.608127e-003
3.883932e+003, 7.161873e-003
3.885860e+003, 7.257495e-003
3.887789e+003, 6.393871e-003
3.889717e+003, 5.910160e-003
3.891646e+003, 6.140070e-003
3.893574e+003, 6.356637e-003
3.895503e+003, 6.430138e-003
3.897431e+003, 6.905627e-003
3.899360e+003, 7.680722e-003
3.901288e+003, 7.589212e-003
3.903217e+003, 6.722011e-003
3.905145e+003, 6.719226e-003
3.907073e+003, 7.613210e-003
3.909002e+003, 7.067760e-003
3.910930e+003, 6.975086e-003
3.912859e+003, 7.088273e-003
3.914787e+003, 5.793231e-003
3.916716e+003, 6.168813e-003
3.918644e+003, 7.255872e-003
3.920573e+003, 7.076940e-003
3.922501e+003, 6.520366e-003
3.924430e+003, 6.942889e-003
3.926358e+003, 7.267673e-003
3.928287e+003, 7.683440e-003
3.930215e+003, 7.026348e-003
3.932144e+003, 6.391227e-003
3.934072e+003, 6.117656e-003
3.936000e+003, 5.930099e-003
3.937929e+003, 5.986033e-003
3.939857e+003, 6.485662e-003
3.941786e+003, 7.392245e-003
3.943714e+003, 7.638405e-003
3.945643e+003, 6.442301e-003
3.947571e+003, 5.964201e-003
3.949500e+003, 6.768873e-003
3.951428e+003, 7.494486e-003
3.953357e+003, 7.016030e-003
3.955285e+003, 6.790894e-003
3.957214e+003, 7.109111e-003
3.959142e+003, 6.495944e-003
3.961071e+003, 6.034249e-003
3.962999e+003, 6.126531e-003
3.964927e+003, 6.071898e-003
3.966856e+003, 6.738579e-003
3.968784e+003, 8.093582e-003
3.970713e+003, 8.515666e-003
3.972641e+003, 8.511336e-003
3.974570e+003, 8.153941e-003
3.976498e+003, 7.775356e-003
3.978427e+003, 7.182828e-003
3.980355e+003, 7.319014e-003
3.982284e+003, 7.461037e-003
3.984212e+003, 6.863354e-003
3.986141e+003, 6.254429e-003
3.988069e+003, 6.455998e-003
3.989998e+003, 7.242483e-003
3.991926e+003, 7.853090e-003
3.993854e+003, 7.632107e-003
3.995783e+003, 6.316863e-003
3.997711e+003, 6.438368e-003
3.999640e+003, 8.119491e-003
##END=



