##NAMES=Phosphophyllite
##RRUFFID=R050224
##IDEAL CHEMISTRY=Zn^2+^_2_Fe^2+^(P^5+^O_4_)_2_&#183;4H_2_O
##LOCALITY=Unificada mine, Cerro Rico, Potosi, Bolivia
##OWNER=RRUFF
##SOURCE=Marcus Origlieri
##DESCRIPTION=Pale blue single crystal fragments
##STATUS=The identification of this mineral has been confirmed by X-ray diffraction and chemical analysis
##URL=rruff.info/R050224
##MEASURED CHEMISTRY=Zn_2.00_Fe^2+^_1.00_(P_1.00_O_4_)_2_Â·4H_2_O
3.741225e+002, 1.080756e-001
3.760510e+002, 1.450219e-001
3.779795e+002, 1.113857e-001
3.799079e+002, 1.015069e-001
3.818364e+002, 1.287749e-001
3.837649e+002, 1.286871e-001
3.856933e+002, 1.167135e-001
3.876218e+002, 1.312137e-001
3.895503e+002, 1.388266e-001
3.914787e+002, 1.231067e-001
3.934072e+002, 1.139150e-001
3.953357e+002, 9.938776e-002
3.972641e+002, 9.198793e-002
3.991926e+002, 8.769085e-002
4.011211e+002, 8.668251e-002
4.030495e+002, 9.097873e-002
4.049780e+002, 8.946809e-002
4.069065e+002, 9.512904e-002
4.088349e+002, 1.143302e-001
4.107634e+002, 1.228585e-001
4.126919e+002, 1.151278e-001
4.146203e+002, 1.122347e-001
4.165488e+002, 1.101712e-001
4.184773e+002, 1.158165e-001
4.204057e+002, 1.228025e-001
4.223342e+002, 1.249092e-001
4.242627e+002, 1.249088e-001
4.261911e+002, 1.310835e-001
4.281196e+002, 1.406773e-001
4.300481e+002, 1.451208e-001
4.319765e+002, 1.389538e-001
4.339050e+002, 1.344673e-001
4.358335e+002, 1.396681e-001
4.377619e+002, 1.483591e-001
4.396904e+002, 1.438918e-001
4.416189e+002, 1.399813e-001
4.435473e+002, 1.396220e-001
4.454758e+002, 1.367930e-001
4.474043e+002, 1.378380e-001
4.493327e+002, 1.413433e-001
4.512612e+002, 1.401690e-001
4.531897e+002, 1.404714e-001
4.551181e+002, 1.424809e-001
4.570466e+002, 1.360152e-001
4.589751e+002, 1.340958e-001
4.609035e+002, 1.350090e-001
4.628320e+002, 1.356177e-001
4.647605e+002, 1.390417e-001
4.666889e+002, 1.404911e-001
4.686174e+002, 1.370525e-001
4.705459e+002, 1.361787e-001
4.724743e+002, 1.433198e-001
4.744028e+002, 1.416038e-001
4.763313e+002, 1.399018e-001
4.782597e+002, 1.408523e-001
4.801882e+002, 1.465740e-001
4.821167e+002, 1.583989e-001
4.840451e+002, 1.615161e-001
4.859736e+002, 1.607124e-001
4.879021e+002, 1.578433e-001
4.898305e+002, 1.598476e-001
4.917590e+002, 1.676784e-001
4.936875e+002, 1.754042e-001
4.956159e+002, 1.835446e-001
4.975444e+002, 1.849039e-001
4.994729e+002, 1.822710e-001
5.014013e+002, 1.804091e-001
5.033298e+002, 1.827872e-001
5.052583e+002, 1.888822e-001
5.071867e+002, 1.911358e-001
5.091152e+002, 1.945515e-001
5.110437e+002, 1.962756e-001
5.129721e+002, 1.944241e-001
5.149006e+002, 1.954713e-001
5.168290e+002, 2.018155e-001
5.187575e+002, 2.054336e-001
5.206860e+002, 2.033235e-001
5.226144e+002, 2.052946e-001
5.245429e+002, 2.087027e-001
5.264714e+002, 2.112884e-001
5.283998e+002, 2.143259e-001
5.303283e+002, 2.174928e-001
5.322568e+002, 2.162284e-001
5.341852e+002, 2.117877e-001
5.361137e+002, 2.127567e-001
5.380422e+002, 2.208219e-001
5.399706e+002, 2.261661e-001
5.418991e+002, 2.233968e-001
5.438276e+002, 2.241256e-001
5.457560e+002, 2.267969e-001
5.476845e+002, 2.277351e-001
5.496130e+002, 2.263270e-001
5.515414e+002, 2.238628e-001
5.534699e+002, 2.229841e-001
5.553984e+002, 2.229074e-001
5.573268e+002, 2.229740e-001
5.592553e+002, 2.257793e-001
5.611838e+002, 2.282534e-001
5.631122e+002, 2.295618e-001
5.650407e+002, 2.315758e-001
5.669692e+002, 2.306459e-001
5.688976e+002, 2.280179e-001
5.708261e+002, 2.285112e-001
5.727546e+002, 2.260579e-001
5.746830e+002, 2.190092e-001
5.766115e+002, 2.070413e-001
5.785400e+002, 1.959963e-001
5.804684e+002, 1.879665e-001
5.823969e+002, 1.773710e-001
5.843254e+002, 1.661583e-001
5.862538e+002, 1.576765e-001
5.881823e+002, 1.539980e-001
5.901108e+002, 1.473489e-001
5.920392e+002, 1.372767e-001
5.939677e+002, 1.321218e-001
5.958962e+002, 1.252675e-001
5.978246e+002, 1.190965e-001
5.997531e+002, 1.167453e-001
6.016816e+002, 1.148742e-001
6.036100e+002, 1.146904e-001
6.055385e+002, 1.146022e-001
6.074670e+002, 1.165109e-001
6.093954e+002, 1.206302e-001
6.113239e+002, 1.212988e-001
6.132524e+002, 1.245084e-001
6.151808e+002, 1.336510e-001
6.171093e+002, 1.396230e-001
6.190378e+002, 1.444236e-001
6.209662e+002, 1.545105e-001
6.228947e+002, 1.670835e-001
6.248232e+002, 1.762532e-001
6.267516e+002, 1.849265e-001
6.286801e+002, 1.937417e-001
6.306086e+002, 1.996420e-001
6.325370e+002, 2.022187e-001
6.344655e+002, 2.033576e-001
6.363940e+002, 1.973785e-001
6.383224e+002, 1.871591e-001
6.402509e+002, 1.755902e-001
6.421794e+002, 1.630294e-001
6.441078e+002, 1.515972e-001
6.460363e+002, 1.411093e-001
6.479648e+002, 1.326392e-001
6.498932e+002, 1.255147e-001
6.518217e+002, 1.176941e-001
6.537502e+002, 1.117809e-001
6.556786e+002, 1.069517e-001
6.576071e+002, 1.031567e-001
6.595356e+002, 9.770018e-002
6.614641e+002, 9.497913e-002
6.633925e+002, 9.506313e-002
6.653210e+002, 9.155136e-002
6.672495e+002, 8.928486e-002
6.691779e+002, 8.834695e-002
6.711064e+002, 8.772591e-002
6.730349e+002, 8.799778e-002
6.749633e+002, 8.677386e-002
6.768918e+002, 8.399481e-002
6.788203e+002, 8.146225e-002
6.807487e+002, 8.017546e-002
6.826772e+002, 7.894597e-002
6.846057e+002, 7.830241e-002
6.865341e+002, 7.906180e-002
6.884626e+002, 7.812656e-002
6.903911e+002, 7.724598e-002
6.923195e+002, 7.779180e-002
6.942480e+002, 7.645168e-002
6.961765e+002, 7.588382e-002
6.981049e+002, 7.620921e-002
7.000334e+002, 7.643577e-002
7.019619e+002, 7.605572e-002
7.038903e+002, 7.396684e-002
7.058188e+002, 7.267873e-002
7.077473e+002, 7.334314e-002
7.096757e+002, 7.359470e-002
7.116042e+002, 7.469471e-002
7.135327e+002, 7.399195e-002
7.154611e+002, 7.192418e-002
7.173896e+002, 7.122174e-002
7.193181e+002, 7.081310e-002
7.212465e+002, 7.048639e-002
7.231750e+002, 7.029878e-002
7.251035e+002, 7.011864e-002
7.270319e+002, 6.820175e-002
7.289604e+002, 6.715644e-002
7.308889e+002, 6.812577e-002
7.328173e+002, 6.734886e-002
7.347458e+002, 6.682336e-002
7.366743e+002, 6.726891e-002
7.386027e+002, 6.718513e-002
7.405312e+002, 6.612578e-002
7.424597e+002, 6.512726e-002
7.443881e+002, 6.489172e-002
7.463166e+002, 6.550304e-002
7.482451e+002, 6.508847e-002
7.501735e+002, 6.573511e-002
7.521020e+002, 6.633586e-002
7.540305e+002, 6.585220e-002
7.559589e+002, 6.600411e-002
7.578874e+002, 6.546025e-002
7.598159e+002, 6.565829e-002
7.617443e+002, 6.589061e-002
7.636728e+002, 6.469181e-002
7.656013e+002, 6.361575e-002
7.675297e+002, 6.257062e-002
7.694582e+002, 6.360375e-002
7.713867e+002, 6.433640e-002
7.733151e+002, 6.291637e-002
7.752436e+002, 6.148414e-002
7.771721e+002, 6.148815e-002
7.791005e+002, 6.209005e-002
7.810290e+002, 6.160899e-002
7.829575e+002, 6.066407e-002
7.848859e+002, 5.945194e-002
7.868144e+002, 5.961604e-002
7.887429e+002, 5.989757e-002
7.906713e+002, 5.926893e-002
7.925998e+002, 5.884522e-002
7.945283e+002, 5.823391e-002
7.964567e+002, 5.726166e-002
7.983852e+002, 5.690907e-002
8.003137e+002, 5.688255e-002
8.022421e+002, 5.673419e-002
8.041706e+002, 5.672292e-002
8.060991e+002, 5.719744e-002
8.080275e+002, 5.662541e-002
8.099560e+002, 5.722013e-002
8.118845e+002, 5.743690e-002
8.138129e+002, 5.801373e-002
8.157414e+002, 5.837843e-002
8.176699e+002, 5.760138e-002
8.195983e+002, 5.924715e-002
8.215268e+002, 6.130091e-002
8.234553e+002, 6.151873e-002
8.253837e+002, 6.153447e-002
8.273122e+002, 6.252938e-002
8.292407e+002, 6.434183e-002
8.311691e+002, 6.493164e-002
8.330976e+002, 6.490654e-002
8.350261e+002, 6.671911e-002
8.369545e+002, 6.873520e-002
8.388830e+002, 6.947682e-002
8.408115e+002, 6.961579e-002
8.427399e+002, 7.114172e-002
8.446684e+002, 7.473230e-002
8.465969e+002, 7.664546e-002
8.485253e+002, 7.703058e-002
8.504538e+002, 7.806744e-002
8.523823e+002, 7.973933e-002
8.543107e+002, 8.178850e-002
8.562392e+002, 8.329832e-002
8.581677e+002, 8.506565e-002
8.600961e+002, 8.610039e-002
8.620246e+002, 8.877816e-002
8.639531e+002, 9.068065e-002
8.658815e+002, 9.334528e-002
8.678100e+002, 9.673180e-002
8.697385e+002, 1.001469e-001
8.716669e+002, 1.035933e-001
8.735954e+002, 1.066696e-001
8.755239e+002, 1.109942e-001
8.774523e+002, 1.161315e-001
8.793808e+002, 1.214120e-001
8.813093e+002, 1.266340e-001
8.832377e+002, 1.340109e-001
8.851662e+002, 1.423548e-001
8.870947e+002, 1.484559e-001
8.890231e+002, 1.555961e-001
8.909516e+002, 1.645075e-001
8.928801e+002, 1.735196e-001
8.948085e+002, 1.835453e-001
8.967370e+002, 1.929104e-001
8.986655e+002, 2.015680e-001
9.005939e+002, 2.128464e-001
9.025224e+002, 2.276347e-001
9.044509e+002, 2.414960e-001
9.063793e+002, 2.539361e-001
9.083078e+002, 2.683911e-001
9.102363e+002, 2.843592e-001
9.121647e+002, 3.017331e-001
9.140932e+002, 3.199583e-001
9.160217e+002, 3.369555e-001
9.179501e+002, 3.547167e-001
9.198786e+002, 3.744051e-001
9.218071e+002, 3.931014e-001
9.237355e+002, 4.065448e-001
9.256640e+002, 4.154848e-001
9.275925e+002, 4.221151e-001
9.295209e+002, 4.237007e-001
9.314494e+002, 4.198413e-001
9.333779e+002, 4.141458e-001
9.353063e+002, 4.044353e-001
9.372348e+002, 3.910942e-001
9.391633e+002, 3.760786e-001
9.410917e+002, 3.592416e-001
9.430202e+002, 3.422914e-001
9.449487e+002, 3.259473e-001
9.468771e+002, 3.105846e-001
9.488056e+002, 2.919140e-001
9.507341e+002, 2.674560e-001
9.526625e+002, 2.388739e-001
9.545910e+002, 2.113511e-001
9.565195e+002, 1.874259e-001
9.584479e+002, 1.693322e-001
9.603764e+002, 1.559172e-001
9.623049e+002, 1.472581e-001
9.642333e+002, 1.419122e-001
9.661618e+002, 1.389108e-001
9.680903e+002, 1.372828e-001
9.700187e+002, 1.390857e-001
9.719472e+002, 1.414316e-001
9.738757e+002, 1.460277e-001
9.758041e+002, 1.537289e-001
9.777326e+002, 1.655905e-001
9.796611e+002, 1.807731e-001
9.815895e+002, 1.988848e-001
9.835180e+002, 2.194044e-001
9.854465e+002, 2.457990e-001
9.873749e+002, 2.766051e-001
9.893034e+002, 3.091013e-001
9.912319e+002, 3.452239e-001
9.931603e+002, 3.825249e-001
9.950888e+002, 4.132797e-001
9.970173e+002, 4.310700e-001
9.989457e+002, 4.371838e-001
1.000874e+003, 4.323968e-001
1.002803e+003, 4.164192e-001
1.004731e+003, 3.982708e-001
1.006660e+003, 3.782498e-001
1.008588e+003, 3.575608e-001
1.010517e+003, 3.398773e-001
1.012445e+003, 3.227929e-001
1.014373e+003, 3.076381e-001
1.016302e+003, 2.980814e-001
1.018230e+003, 2.934591e-001
1.020159e+003, 2.930399e-001
1.022087e+003, 2.966415e-001
1.024016e+003, 3.040184e-001
1.025944e+003, 3.147251e-001
1.027873e+003, 3.279709e-001
1.029801e+003, 3.355222e-001
1.031730e+003, 3.330029e-001
1.033658e+003, 3.218192e-001
1.035587e+003, 3.032139e-001
1.037515e+003, 2.811136e-001
1.039443e+003, 2.660215e-001
1.041372e+003, 2.576230e-001
1.043300e+003, 2.526436e-001
1.045229e+003, 2.521026e-001
1.047157e+003, 2.539549e-001
1.049086e+003, 2.548434e-001
1.051014e+003, 2.553152e-001
1.052943e+003, 2.561376e-001
1.054871e+003, 2.568733e-001
1.056800e+003, 2.564934e-001
1.058728e+003, 2.549480e-001
1.060657e+003, 2.532957e-001
1.062585e+003, 2.533784e-001
1.064514e+003, 2.532486e-001
1.066442e+003, 2.507961e-001
1.068370e+003, 2.473718e-001
1.070299e+003, 2.427060e-001
1.072227e+003, 2.374538e-001
1.074156e+003, 2.322038e-001
1.076084e+003, 2.282710e-001
1.078013e+003, 2.228382e-001
1.079941e+003, 2.153371e-001
1.081870e+003, 2.111654e-001
1.083798e+003, 2.057490e-001
1.085727e+003, 1.996490e-001
1.087655e+003, 1.932377e-001
1.089584e+003, 1.875066e-001
1.091512e+003, 1.824760e-001
1.093441e+003, 1.772242e-001
1.095369e+003, 1.711694e-001
1.097297e+003, 1.671102e-001
1.099226e+003, 1.638203e-001
1.101154e+003, 1.617773e-001
1.103083e+003, 1.627840e-001
1.105011e+003, 1.660568e-001
1.106940e+003, 1.710495e-001
1.108868e+003, 1.785770e-001
1.110797e+003, 1.917959e-001
1.112725e+003, 2.084407e-001
1.114654e+003, 2.253670e-001
1.116582e+003, 2.442579e-001
1.118511e+003, 2.616509e-001
1.120439e+003, 2.726238e-001
1.122368e+003, 2.775270e-001
1.124296e+003, 2.786213e-001
1.126224e+003, 2.737040e-001
1.128153e+003, 2.652384e-001
1.130081e+003, 2.564439e-001
1.132010e+003, 2.467986e-001
1.133938e+003, 2.350683e-001
1.135867e+003, 2.230902e-001
1.137795e+003, 2.106800e-001
1.139724e+003, 1.985718e-001
1.141652e+003, 1.860328e-001
1.143581e+003, 1.743164e-001
1.145509e+003, 1.630817e-001
1.147438e+003, 1.521710e-001
1.149366e+003, 1.408824e-001
1.151295e+003, 1.298807e-001
1.153223e+003, 1.196812e-001
1.155151e+003, 1.083047e-001
1.157080e+003, 9.799783e-002
1.159008e+003, 8.892471e-002
1.160937e+003, 7.897541e-002
1.162865e+003, 6.974684e-002
1.164794e+003, 6.257434e-002
1.166722e+003, 5.574056e-002
1.168651e+003, 5.061910e-002
1.170579e+003, 4.589861e-002
1.172508e+003, 4.035931e-002
1.174436e+003, 3.592534e-002
1.176365e+003, 3.288927e-002
1.178293e+003, 3.181823e-002
1.180222e+003, 3.071782e-002
1.182150e+003, 2.854750e-002
1.184078e+003, 2.627536e-002
1.186007e+003, 2.473985e-002
1.187935e+003, 2.349970e-002
1.189864e+003, 2.272977e-002
1.191792e+003, 2.212281e-002
1.193721e+003, 2.067710e-002
1.195649e+003, 2.054106e-002
1.197578e+003, 2.040455e-002
1.199506e+003, 1.985935e-002
1.201435e+003, 1.968961e-002
1.203363e+003, 1.966684e-002
1.205292e+003, 1.979916e-002
1.207220e+003, 1.898490e-002
1.209149e+003, 1.734891e-002
1.211077e+003, 1.652115e-002
1.213005e+003, 1.570525e-002
1.214934e+003, 1.574154e-002
1.216862e+003, 1.628511e-002
1.218791e+003, 1.601319e-002
1.220719e+003, 1.655369e-002
1.222648e+003, 1.717964e-002
1.224576e+003, 1.713480e-002
1.226505e+003, 1.586528e-002
1.228433e+003, 1.486016e-002
1.230362e+003, 1.513778e-002
1.232290e+003, 1.537120e-002
1.234219e+003, 1.596300e-002
1.236147e+003, 1.666878e-002
1.238076e+003, 1.616594e-002
1.240004e+003, 1.558424e-002
1.241932e+003, 1.540704e-002
1.243861e+003, 1.531757e-002
1.245789e+003, 1.490625e-002
1.247718e+003, 1.356053e-002
1.249646e+003, 1.292453e-002
1.251575e+003, 1.433421e-002
1.253503e+003, 1.556925e-002
1.255432e+003, 1.519483e-002
1.257360e+003, 1.554639e-002
1.259289e+003, 1.512714e-002
1.261217e+003, 1.425858e-002
1.263146e+003, 1.452978e-002
1.265074e+003, 1.556150e-002
1.267003e+003, 1.550869e-002
1.268931e+003, 1.554538e-002
1.270859e+003, 1.598107e-002
1.272788e+003, 1.480957e-002
1.274716e+003, 1.455332e-002
1.276645e+003, 1.423384e-002
1.278573e+003, 1.382384e-002
1.280502e+003, 1.399586e-002
1.282430e+003, 1.462802e-002
1.284359e+003, 1.458689e-002
1.286287e+003, 1.407764e-002
1.288216e+003, 1.408280e-002
1.290144e+003, 1.423534e-002
1.292073e+003, 1.451053e-002
1.294001e+003, 1.375528e-002
1.295930e+003, 1.400142e-002
1.297858e+003, 1.408939e-002
1.299786e+003, 1.345303e-002
1.301715e+003, 1.366642e-002
1.303643e+003, 1.407364e-002
1.305572e+003, 1.395333e-002
1.307500e+003, 1.290832e-002
1.309429e+003, 1.309361e-002
1.311357e+003, 1.396016e-002
1.313286e+003, 1.411626e-002
1.315214e+003, 1.387711e-002
1.317143e+003, 1.324364e-002
1.319071e+003, 1.294199e-002
1.321000e+003, 1.365578e-002
1.322928e+003, 1.410875e-002
1.324857e+003, 1.363057e-002
1.326785e+003, 1.295111e-002
1.328714e+003, 1.240882e-002
1.330642e+003, 1.276047e-002
1.332570e+003, 1.402505e-002
1.334499e+003, 1.463477e-002
1.336427e+003, 1.390528e-002
1.338356e+003, 1.375075e-002
1.340284e+003, 1.370652e-002
1.342213e+003, 1.311347e-002
1.344141e+003, 1.293250e-002
1.346070e+003, 1.303260e-002
1.347998e+003, 1.413349e-002
1.349927e+003, 1.549534e-002
1.351855e+003, 1.529472e-002
1.353784e+003, 1.493225e-002
1.355712e+003, 1.432473e-002
1.357641e+003, 1.442819e-002
1.359569e+003, 1.527576e-002
1.361497e+003, 1.531615e-002
1.363426e+003, 1.573746e-002
1.365354e+003, 1.568133e-002
1.367283e+003, 1.495327e-002
1.369211e+003, 1.505469e-002
1.371140e+003, 1.466754e-002
1.373068e+003, 1.450840e-002
1.374997e+003, 1.600873e-002
1.376925e+003, 1.608670e-002
1.378854e+003, 1.458717e-002
1.380782e+003, 1.548914e-002
1.382711e+003, 1.568956e-002
1.384639e+003, 1.507989e-002
1.386568e+003, 1.554297e-002
1.388496e+003, 1.565475e-002
1.390424e+003, 1.538976e-002
1.392353e+003, 1.667767e-002
1.394281e+003, 1.738731e-002
1.396210e+003, 1.589879e-002
1.398138e+003, 1.538777e-002
1.400067e+003, 1.567557e-002
1.401995e+003, 1.619934e-002
1.403924e+003, 1.703434e-002
1.405852e+003, 1.625920e-002
1.407781e+003, 1.569818e-002
1.409709e+003, 1.666874e-002
1.411638e+003, 1.704280e-002
1.413566e+003, 1.762934e-002
1.415495e+003, 1.844720e-002
1.417423e+003, 1.793296e-002
1.419351e+003, 1.680831e-002
1.421280e+003, 1.586837e-002
1.423208e+003, 1.639031e-002
1.425137e+003, 1.712914e-002
1.427065e+003, 1.802902e-002
1.428994e+003, 1.903582e-002
1.430922e+003, 1.868570e-002
1.432851e+003, 1.901168e-002
1.434779e+003, 1.872923e-002
1.436708e+003, 1.684545e-002
1.438636e+003, 1.710683e-002
1.440565e+003, 1.772569e-002
1.442493e+003, 1.841853e-002
1.444422e+003, 1.948862e-002
1.446350e+003, 2.053931e-002
1.448278e+003, 2.082700e-002
1.450207e+003, 2.036976e-002
1.452135e+003, 1.884689e-002
1.454064e+003, 1.818485e-002
1.455992e+003, 1.856442e-002
1.457921e+003, 1.841415e-002
1.459849e+003, 1.779403e-002
1.461778e+003, 1.867051e-002
1.463706e+003, 2.029529e-002
1.465635e+003, 2.058616e-002
1.467563e+003, 2.030515e-002
1.469492e+003, 2.092955e-002
1.471420e+003, 2.089507e-002
1.473349e+003, 2.005138e-002
1.475277e+003, 2.007222e-002
1.477205e+003, 2.022871e-002
1.479134e+003, 1.992023e-002
1.481062e+003, 1.888758e-002
1.482991e+003, 1.915978e-002
1.484919e+003, 1.968296e-002
1.486848e+003, 1.906819e-002
1.488776e+003, 1.910250e-002
1.490705e+003, 1.965913e-002
1.492633e+003, 1.906699e-002
1.494562e+003, 1.881207e-002
1.496490e+003, 1.884771e-002
1.498419e+003, 1.940849e-002
1.500347e+003, 2.033892e-002
1.502276e+003, 2.062581e-002
1.504204e+003, 1.976477e-002
1.506132e+003, 1.908949e-002
1.508061e+003, 1.874058e-002
1.509989e+003, 1.934430e-002
1.511918e+003, 2.029086e-002
1.513846e+003, 2.082160e-002
1.515775e+003, 2.127803e-002
1.517703e+003, 2.106421e-002
1.519632e+003, 2.042619e-002
1.521560e+003, 2.033141e-002
1.523489e+003, 2.075815e-002
1.525417e+003, 2.129058e-002
1.527346e+003, 2.145535e-002
1.529274e+003, 2.196083e-002
1.531203e+003, 2.222180e-002
1.533131e+003, 2.233357e-002
1.535059e+003, 2.307414e-002
1.536988e+003, 2.317825e-002
1.538916e+003, 2.307722e-002
1.540845e+003, 2.370815e-002
1.542773e+003, 2.421078e-002
1.544702e+003, 2.402387e-002
1.546630e+003, 2.454811e-002
1.548559e+003, 2.427411e-002
1.550487e+003, 2.504163e-002
1.552416e+003, 2.654455e-002
1.554344e+003, 2.603722e-002
1.556273e+003, 2.565793e-002
1.558201e+003, 2.574947e-002
1.560130e+003, 2.625717e-002
1.562058e+003, 2.811619e-002
1.563986e+003, 2.799187e-002
1.565915e+003, 2.718308e-002
1.567843e+003, 2.887977e-002
1.569772e+003, 2.976119e-002
1.571700e+003, 3.067587e-002
1.573629e+003, 3.162165e-002
1.575557e+003, 3.254840e-002
1.577486e+003, 3.421451e-002
1.579414e+003, 3.633498e-002
1.581343e+003, 3.693213e-002
1.583271e+003, 3.746416e-002
1.585200e+003, 3.821209e-002
1.587128e+003, 3.945902e-002
1.589057e+003, 4.163343e-002
1.590985e+003, 4.433123e-002
1.592913e+003, 4.744063e-002
1.594842e+003, 4.953378e-002
1.596770e+003, 5.078404e-002
1.598699e+003, 5.230355e-002
1.600627e+003, 5.368740e-002
1.602556e+003, 5.524974e-002
1.604484e+003, 5.677257e-002
1.606413e+003, 5.734373e-002
1.608341e+003, 5.601987e-002
1.610270e+003, 5.421428e-002
1.612198e+003, 5.318836e-002
1.614127e+003, 5.235622e-002
1.616055e+003, 5.051160e-002
1.617984e+003, 4.881346e-002
1.619912e+003, 4.783256e-002
1.621840e+003, 4.753021e-002
1.623769e+003, 4.759005e-002
1.625697e+003, 4.711189e-002
1.627626e+003, 4.497832e-002
1.629554e+003, 4.376086e-002
1.631483e+003, 4.394760e-002
1.633411e+003, 4.402631e-002
1.635340e+003, 4.390678e-002
1.637268e+003, 4.342779e-002
1.639197e+003, 4.342853e-002
1.641125e+003, 4.312631e-002
1.643054e+003, 4.173378e-002
1.644982e+003, 3.957325e-002
1.646911e+003, 3.837566e-002
1.648839e+003, 3.843199e-002
1.650767e+003, 3.696642e-002
1.652696e+003, 3.324571e-002
1.654624e+003, 3.297751e-002
1.656553e+003, 3.423230e-002
1.658481e+003, 3.469536e-002
1.660410e+003, 3.549441e-002
1.662338e+003, 3.439225e-002
1.664267e+003, 3.351054e-002
1.666195e+003, 3.466265e-002
1.668124e+003, 3.587989e-002
1.670052e+003, 3.505706e-002
1.671981e+003, 3.443232e-002
1.673909e+003, 3.523296e-002
1.675838e+003, 3.614753e-002
1.677766e+003, 3.656252e-002
1.679694e+003, 3.648781e-002
1.681623e+003, 3.546791e-002
1.683551e+003, 3.316483e-002
1.685480e+003, 3.128957e-002
1.687408e+003, 3.048362e-002
1.689337e+003, 2.843351e-002
1.691265e+003, 2.580827e-002
1.693194e+003, 2.485015e-002
1.695122e+003, 2.332633e-002
1.697051e+003, 2.271211e-002
1.698979e+003, 2.258641e-002
1.700908e+003, 2.106226e-002
1.702836e+003, 2.026233e-002
1.704765e+003, 1.990640e-002
1.706693e+003, 1.945995e-002
1.708621e+003, 2.016969e-002
1.710550e+003, 2.095581e-002
1.712478e+003, 1.918549e-002
1.714407e+003, 1.832067e-002
1.716335e+003, 1.743663e-002
1.718264e+003, 1.697843e-002
1.720192e+003, 1.757097e-002
1.722121e+003, 1.748854e-002
1.724049e+003, 1.724931e-002
1.725978e+003, 1.729049e-002
1.727906e+003, 1.661389e-002
1.729835e+003, 1.644161e-002
1.731763e+003, 1.599454e-002
1.733692e+003, 1.492996e-002
1.735620e+003, 1.495622e-002
1.737548e+003, 1.519518e-002
1.739477e+003, 1.477707e-002
1.741405e+003, 1.544612e-002
1.743334e+003, 1.502640e-002
1.745262e+003, 1.483678e-002
1.747191e+003, 1.500798e-002
1.749119e+003, 1.648527e-002
1.751048e+003, 1.615858e-002
1.752976e+003, 1.405917e-002
1.754905e+003, 1.370129e-002
1.756833e+003, 1.327455e-002
1.758762e+003, 1.441699e-002
1.760690e+003, 1.578789e-002
1.762619e+003, 1.443736e-002
1.764547e+003, 1.426623e-002
1.766475e+003, 1.571508e-002
1.768404e+003, 1.563483e-002
1.770332e+003, 1.494644e-002
1.772261e+003, 1.478355e-002
1.774189e+003, 1.464039e-002
1.776118e+003, 1.451320e-002
1.778046e+003, 1.378093e-002
1.779975e+003, 1.442955e-002
1.781903e+003, 1.470401e-002
1.783832e+003, 1.539309e-002
1.785760e+003, 1.589273e-002
1.787689e+003, 1.440015e-002
1.789617e+003, 1.295086e-002
1.791546e+003, 1.216256e-002
1.793474e+003, 1.527835e-002
1.795402e+003, 1.593144e-002
1.797331e+003, 1.440585e-002
1.799259e+003, 1.461694e-002
1.801188e+003, 1.490993e-002
1.803116e+003, 1.480255e-002
1.805045e+003, 1.539848e-002
1.806973e+003, 1.450144e-002
1.808902e+003, 1.413789e-002
1.810830e+003, 1.458470e-002
1.812759e+003, 1.440019e-002
1.814687e+003, 1.449653e-002
1.816616e+003, 1.549147e-002
1.818544e+003, 1.511304e-002
1.820473e+003, 1.437001e-002
1.822401e+003, 1.600828e-002
1.824329e+003, 1.651829e-002
1.826258e+003, 1.350173e-002
1.828186e+003, 1.291720e-002
1.830115e+003, 1.476202e-002
1.832043e+003, 1.672013e-002
1.833972e+003, 1.514003e-002
1.835900e+003, 1.483218e-002
1.837829e+003, 1.492968e-002
1.839757e+003, 1.403210e-002
1.841686e+003, 1.297651e-002
1.843614e+003, 1.269485e-002
1.845543e+003, 1.282826e-002
1.847471e+003, 1.481924e-002
1.849400e+003, 1.436137e-002
1.851328e+003, 1.412763e-002
1.853256e+003, 1.646510e-002
1.855185e+003, 1.747896e-002
1.857113e+003, 1.727258e-002
1.859042e+003, 1.825773e-002
1.860970e+003, 1.844115e-002
1.862899e+003, 1.654354e-002
1.864827e+003, 1.463329e-002
1.866756e+003, 1.459436e-002
1.868684e+003, 1.652448e-002
1.870613e+003, 1.563880e-002
1.872541e+003, 1.390988e-002
1.874470e+003, 1.528170e-002
1.876398e+003, 1.885518e-002
1.878327e+003, 1.854315e-002
1.880255e+003, 1.437195e-002
1.882183e+003, 1.376372e-002
1.884112e+003, 1.257530e-002
1.886040e+003, 1.171154e-002
1.887969e+003, 1.528902e-002
1.889897e+003, 1.746571e-002
1.891826e+003, 1.883667e-002
1.893754e+003, 1.884428e-002
1.895683e+003, 1.743747e-002
1.897611e+003, 1.587798e-002
1.899540e+003, 1.670777e-002
1.901468e+003, 1.680830e-002
1.903397e+003, 1.589880e-002
1.905325e+003, 1.591976e-002
1.907254e+003, 1.786544e-002
1.909182e+003, 1.804972e-002
1.911110e+003, 1.697055e-002
1.913039e+003, 1.693430e-002
1.914967e+003, 1.737678e-002
1.916896e+003, 1.815929e-002
1.918824e+003, 1.764449e-002
1.920753e+003, 1.921793e-002
1.922681e+003, 2.019901e-002
1.924610e+003, 1.896473e-002
1.926538e+003, 1.717785e-002
1.928467e+003, 1.793363e-002
1.930395e+003, 1.875824e-002
1.932324e+003, 1.727709e-002
1.934252e+003, 1.396930e-002
1.936181e+003, 1.435102e-002
1.938109e+003, 1.534203e-002
1.940037e+003, 1.884603e-002
1.941966e+003, 1.858180e-002
1.943894e+003, 1.956213e-002
1.945823e+003, 2.211477e-002
1.947751e+003, 2.069905e-002
1.949680e+003, 1.751138e-002
1.951608e+003, 1.896682e-002
1.953537e+003, 2.332276e-002
1.955465e+003, 2.108772e-002
1.957394e+003, 1.953576e-002
1.959322e+003, 2.129331e-002
1.961251e+003, 1.885095e-002
1.963179e+003, 1.907841e-002
1.965108e+003, 2.062737e-002
1.967036e+003, 1.873740e-002
1.968964e+003, 1.619381e-002
1.970893e+003, 1.799637e-002
1.972821e+003, 1.972268e-002
1.974750e+003, 2.216160e-002
1.976678e+003, 1.787226e-002
1.978607e+003, 1.767803e-002
1.980535e+003, 1.927018e-002
1.982464e+003, 2.193428e-002
1.984392e+003, 2.663159e-002
1.986321e+003, 2.393663e-002
1.988249e+003, 1.327518e-002
1.990178e+003, 1.003582e-002
1.992106e+003, 8.137593e-003
1.994035e+003, 9.124976e-003
1.995963e+003, 1.785763e-002
1.997891e+003, 2.047147e-002
1.999820e+003, 2.255744e-002
2.001748e+003, 2.002800e-002
2.003677e+003, 1.816565e-002
2.005605e+003, 2.800428e-002
2.007534e+003, 3.432854e-002
2.009462e+003, 2.393271e-002
2.011391e+003, 1.168259e-002
2.013319e+003, 1.921282e-002
2.015248e+003, 2.491751e-002
2.017176e+003, 1.973879e-002
2.019105e+003, 1.943667e-002
2.021033e+003, 1.624576e-002
2.022962e+003, 1.372620e-002
2.024890e+003, 1.987435e-002
2.026818e+003, 2.171865e-002
2.028747e+003, 2.401884e-002
2.030675e+003, 2.474004e-002
2.032604e+003, 2.659900e-002
2.034532e+003, 2.220782e-002
2.036461e+003, 1.874615e-002
2.038389e+003, 2.028565e-002
2.040318e+003, 2.421907e-002
2.042246e+003, 2.673978e-002
2.044175e+003, 2.882652e-002
2.046103e+003, 2.675725e-002
2.048031e+003, 2.305142e-002
2.049960e+003, 2.441762e-002
2.051888e+003, 2.517168e-002
2.053817e+003, 2.621239e-002
2.055745e+003, 2.423853e-002
2.057674e+003, 2.370416e-002
2.059602e+003, 2.318649e-002
2.061531e+003, 1.816836e-002
2.063459e+003, 1.842396e-002
2.065388e+003, 2.220667e-002
2.067316e+003, 2.233599e-002
2.069245e+003, 2.073620e-002
2.071173e+003, 1.831053e-002
2.073102e+003, 2.000036e-002
2.075030e+003, 2.251273e-002
2.076958e+003, 2.261467e-002
2.078887e+003, 2.225052e-002
2.080815e+003, 1.988427e-002
2.082744e+003, 2.056577e-002
2.084672e+003, 2.398875e-002
2.086601e+003, 2.529699e-002
2.088529e+003, 2.790726e-002
2.090458e+003, 2.977881e-002
2.092386e+003, 2.478110e-002
2.094315e+003, 2.040960e-002
2.096243e+003, 1.941299e-002
2.098172e+003, 2.126350e-002
2.100100e+003, 1.896177e-002
2.102029e+003, 1.900423e-002
2.103957e+003, 2.303551e-002
2.105885e+003, 2.574173e-002
2.107814e+003, 2.751303e-002
2.109742e+003, 2.873632e-002
2.111671e+003, 2.488839e-002
2.113599e+003, 2.028330e-002
2.115528e+003, 2.072630e-002
2.117456e+003, 1.942325e-002
2.119385e+003, 2.077870e-002
2.121313e+003, 2.216721e-002
2.123242e+003, 2.253252e-002
2.125170e+003, 2.385513e-002
2.127099e+003, 2.345525e-002
2.129027e+003, 2.068045e-002
2.130956e+003, 2.021205e-002
2.132884e+003, 2.084975e-002
2.134813e+003, 2.207863e-002
2.136741e+003, 2.261098e-002
2.138669e+003, 2.674213e-002
2.140598e+003, 2.912366e-002
2.142526e+003, 3.021951e-002
2.144455e+003, 2.817517e-002
2.146383e+003, 2.127945e-002
2.148312e+003, 2.045144e-002
2.150240e+003, 2.530649e-002
2.152169e+003, 2.955226e-002
2.154097e+003, 3.084621e-002
2.156026e+003, 2.814001e-002
2.157954e+003, 2.656232e-002
2.159883e+003, 2.698226e-002
2.161811e+003, 2.570549e-002
2.163740e+003, 3.017894e-002
2.165668e+003, 2.767751e-002
2.167596e+003, 2.352540e-002
2.169525e+003, 3.152466e-002
2.171453e+003, 3.622042e-002
2.173382e+003, 2.888709e-002
2.175310e+003, 2.201649e-002
2.177239e+003, 2.414129e-002
2.179167e+003, 2.583075e-002
2.181096e+003, 2.186802e-002
2.183024e+003, 2.451288e-002
2.184953e+003, 2.661584e-002
2.186881e+003, 2.856449e-002
2.188810e+003, 2.336892e-002
2.190738e+003, 2.081039e-002
2.192667e+003, 1.741719e-002
2.194595e+003, 2.218755e-002
2.196523e+003, 2.754444e-002
2.198452e+003, 3.137016e-002
2.200380e+003, 2.851616e-002
2.202309e+003, 2.143591e-002
2.204237e+003, 2.374196e-002
2.206166e+003, 2.584518e-002
2.208094e+003, 2.950639e-002
2.210023e+003, 3.334317e-002
2.211951e+003, 2.516724e-002
2.213880e+003, 2.022521e-002
2.215808e+003, 2.604053e-002
2.217737e+003, 2.479430e-002
2.219665e+003, 2.207045e-002
2.221594e+003, 2.369179e-002
2.223522e+003, 2.596159e-002
2.225450e+003, 2.758540e-002
2.227379e+003, 2.787716e-002
2.229307e+003, 2.409912e-002
2.231236e+003, 2.412014e-002
2.233164e+003, 3.008985e-002
2.235093e+003, 2.716541e-002
2.237021e+003, 2.553609e-002
2.238950e+003, 2.960296e-002
2.240878e+003, 3.139461e-002
2.242807e+003, 3.309900e-002
2.244735e+003, 3.104085e-002
2.246664e+003, 2.953838e-002
2.248592e+003, 2.583776e-002
2.250521e+003, 2.338355e-002
2.252449e+003, 2.199015e-002
2.254377e+003, 2.383378e-002
2.256306e+003, 2.375367e-002
2.258234e+003, 2.412112e-002
2.260163e+003, 2.364908e-002
2.262091e+003, 2.441241e-002
2.264020e+003, 2.602782e-002
2.265948e+003, 2.556057e-002
2.267877e+003, 2.189303e-002
2.269805e+003, 2.172172e-002
2.271734e+003, 2.314974e-002
2.273662e+003, 2.177086e-002
2.275591e+003, 2.398736e-002
2.277519e+003, 2.999730e-002
2.279448e+003, 3.233212e-002
2.281376e+003, 3.074360e-002
2.283304e+003, 2.750010e-002
2.285233e+003, 2.492961e-002
2.287161e+003, 2.464832e-002
2.289090e+003, 2.411868e-002
2.291018e+003, 2.504756e-002
2.292947e+003, 2.595830e-002
2.294875e+003, 2.425555e-002
2.296804e+003, 2.552438e-002
2.298732e+003, 2.719251e-002
2.300661e+003, 2.780723e-002
2.302589e+003, 3.025588e-002
2.304518e+003, 2.851260e-002
2.306446e+003, 2.793299e-002
2.308375e+003, 2.728513e-002
2.310303e+003, 2.304696e-002
2.312231e+003, 2.396335e-002
2.314160e+003, 2.696354e-002
2.316088e+003, 2.708734e-002
2.318017e+003, 2.716123e-002
2.319945e+003, 2.594737e-002
2.321874e+003, 2.708357e-002
2.323802e+003, 2.879893e-002
2.325731e+003, 2.550855e-002
2.327659e+003, 2.573108e-002
2.329588e+003, 2.875045e-002
2.331516e+003, 3.000083e-002
2.333445e+003, 2.917822e-002
2.335373e+003, 2.814633e-002
2.337302e+003, 2.784108e-002
2.339230e+003, 2.585133e-002
2.341158e+003, 2.371709e-002
2.343087e+003, 2.489878e-002
2.345015e+003, 2.803035e-002
2.346944e+003, 2.879697e-002
2.348872e+003, 2.947711e-002
2.350801e+003, 2.893917e-002
2.352729e+003, 2.710893e-002
2.354658e+003, 2.802129e-002
2.356586e+003, 2.850498e-002
2.358515e+003, 2.619990e-002
2.360443e+003, 2.811312e-002
2.362372e+003, 3.046727e-002
2.364300e+003, 2.971429e-002
2.366229e+003, 2.826330e-002
2.368157e+003, 2.850495e-002
2.370085e+003, 2.906753e-002
2.372014e+003, 2.978633e-002
2.373942e+003, 2.706894e-002
2.375871e+003, 2.475989e-002
2.377799e+003, 2.698256e-002
2.379728e+003, 2.981313e-002
2.381656e+003, 3.106337e-002
2.383585e+003, 3.008766e-002
2.385513e+003, 2.765880e-002
2.387442e+003, 2.671223e-002
2.389370e+003, 2.642542e-002
2.391299e+003, 2.606507e-002
2.393227e+003, 2.729248e-002
2.395156e+003, 2.896901e-002
2.397084e+003, 2.577622e-002
2.399012e+003, 2.202574e-002
2.400941e+003, 2.292194e-002
2.402869e+003, 2.477596e-002
2.404798e+003, 2.794288e-002
2.406726e+003, 2.883992e-002
2.408655e+003, 2.629811e-002
2.410583e+003, 2.687651e-002
2.412512e+003, 2.981465e-002
2.414440e+003, 3.054406e-002
2.416369e+003, 2.762909e-002
2.418297e+003, 2.391954e-002
2.420226e+003, 2.586340e-002
2.422154e+003, 3.154269e-002
2.424083e+003, 3.303770e-002
2.426011e+003, 2.806843e-002
2.427939e+003, 2.623831e-002
2.429868e+003, 2.633358e-002
2.431796e+003, 3.131646e-002
2.433725e+003, 3.319409e-002
2.435653e+003, 2.758252e-002
2.437582e+003, 2.789873e-002
2.439510e+003, 2.887306e-002
2.441439e+003, 2.633734e-002
2.443367e+003, 2.552889e-002
2.445296e+003, 2.779690e-002
2.447224e+003, 2.847382e-002
2.449153e+003, 2.688261e-002
2.451081e+003, 2.625553e-002
2.453010e+003, 2.530073e-002
2.454938e+003, 2.483009e-002
2.456866e+003, 2.826264e-002
2.458795e+003, 3.057491e-002
2.460723e+003, 2.757455e-002
2.462652e+003, 2.256997e-002
2.464580e+003, 2.083362e-002
2.466509e+003, 2.480414e-002
2.468437e+003, 2.894250e-002
2.470366e+003, 2.766178e-002
2.472294e+003, 2.646865e-002
2.474223e+003, 3.038126e-002
2.476151e+003, 3.019183e-002
2.478080e+003, 2.559155e-002
2.480008e+003, 2.522857e-002
2.481937e+003, 2.847299e-002
2.483865e+003, 2.857365e-002
2.485793e+003, 2.860270e-002
2.487722e+003, 3.161222e-002
2.489650e+003, 2.940891e-002
2.491579e+003, 2.825710e-002
2.493507e+003, 2.850799e-002
2.495436e+003, 2.848439e-002
2.497364e+003, 2.858978e-002
2.499293e+003, 2.659233e-002
2.501221e+003, 2.463878e-002
2.503150e+003, 2.666040e-002
2.505078e+003, 3.080293e-002
2.507007e+003, 2.829414e-002
2.508935e+003, 2.536625e-002
2.510864e+003, 2.804621e-002
2.512792e+003, 2.766944e-002
2.514720e+003, 2.908421e-002
2.516649e+003, 2.926385e-002
2.518577e+003, 2.974683e-002
2.520506e+003, 3.103547e-002
2.522434e+003, 3.168987e-002
2.524363e+003, 3.371213e-002
2.526291e+003, 3.034150e-002
2.528220e+003, 2.831622e-002
2.530148e+003, 2.824951e-002
2.532077e+003, 2.772198e-002
2.534005e+003, 2.684620e-002
2.535934e+003, 2.991710e-002
2.537862e+003, 2.984158e-002
2.539791e+003, 2.789868e-002
2.541719e+003, 2.586749e-002
2.543647e+003, 2.589914e-002
2.545576e+003, 3.016385e-002
2.547504e+003, 3.148630e-002
2.549433e+003, 2.980164e-002
2.551361e+003, 2.987634e-002
2.553290e+003, 3.110472e-002
2.555218e+003, 2.966461e-002
2.557147e+003, 2.812947e-002
2.559075e+003, 3.092797e-002
2.561004e+003, 3.213052e-002
2.562932e+003, 3.219705e-002
2.564861e+003, 3.154608e-002
2.566789e+003, 3.029962e-002
2.568718e+003, 2.809915e-002
2.570646e+003, 2.761066e-002
2.572574e+003, 2.640932e-002
2.574503e+003, 2.781279e-002
2.576431e+003, 2.894605e-002
2.578360e+003, 2.892192e-002
2.580288e+003, 2.842008e-002
2.582217e+003, 2.748846e-002
2.584145e+003, 2.779000e-002
2.586074e+003, 3.032390e-002
2.588002e+003, 3.187191e-002
2.589931e+003, 3.271548e-002
2.591859e+003, 3.414112e-002
2.593788e+003, 3.248112e-002
2.595716e+003, 3.017775e-002
2.597645e+003, 3.035950e-002
2.599573e+003, 3.173076e-002
2.601501e+003, 3.306441e-002
2.603430e+003, 3.295514e-002
2.605358e+003, 3.141122e-002
2.607287e+003, 2.975041e-002
2.609215e+003, 2.861570e-002
2.611144e+003, 2.933972e-002
2.613072e+003, 3.212010e-002
2.615001e+003, 3.224215e-002
2.616929e+003, 2.850099e-002
2.618858e+003, 3.090652e-002
2.620786e+003, 3.448276e-002
2.622715e+003, 3.247354e-002
2.624643e+003, 3.091837e-002
2.626572e+003, 3.251825e-002
2.628500e+003, 3.269748e-002
2.630428e+003, 3.248324e-002
2.632357e+003, 3.434184e-002
2.634285e+003, 3.416343e-002
2.636214e+003, 3.379811e-002
2.638142e+003, 3.394479e-002
2.640071e+003, 3.524375e-002
2.641999e+003, 3.421132e-002
2.643928e+003, 3.234683e-002
2.645856e+003, 3.235152e-002
2.647785e+003, 3.336360e-002
2.649713e+003, 3.498976e-002
2.651642e+003, 3.429378e-002
2.653570e+003, 3.293393e-002
2.655499e+003, 3.446087e-002
2.657427e+003, 3.675243e-002
2.659355e+003, 3.639983e-002
2.661284e+003, 3.559487e-002
2.663212e+003, 3.553049e-002
2.665141e+003, 3.402992e-002
2.667069e+003, 3.451643e-002
2.668998e+003, 3.270217e-002
2.670926e+003, 3.114350e-002
2.672855e+003, 3.193669e-002
2.674783e+003, 3.404015e-002
2.676712e+003, 3.577626e-002
2.678640e+003, 3.592298e-002
2.680569e+003, 3.528686e-002
2.682497e+003, 3.643954e-002
2.684426e+003, 3.631596e-002
2.686354e+003, 3.472182e-002
2.688282e+003, 3.303926e-002
2.690211e+003, 3.357036e-002
2.692139e+003, 3.340209e-002
2.694068e+003, 3.340073e-002
2.695996e+003, 3.385453e-002
2.697925e+003, 3.350201e-002
2.699853e+003, 3.317216e-002
2.701782e+003, 3.488756e-002
2.703710e+003, 3.375591e-002
2.705639e+003, 3.306987e-002
2.707567e+003, 3.450085e-002
2.709496e+003, 3.421915e-002
2.711424e+003, 3.478039e-002
2.713353e+003, 3.627128e-002
2.715281e+003, 3.728010e-002
2.717209e+003, 3.996938e-002
2.719138e+003, 4.032401e-002
2.721066e+003, 4.119721e-002
2.722995e+003, 4.050475e-002
2.724923e+003, 3.856506e-002
2.726852e+003, 4.048455e-002
2.728780e+003, 4.223353e-002
2.730709e+003, 3.946237e-002
2.732637e+003, 3.721976e-002
2.734566e+003, 3.721872e-002
2.736494e+003, 4.035466e-002
2.738423e+003, 4.129718e-002
2.740351e+003, 4.023174e-002
2.742280e+003, 3.875158e-002
2.744208e+003, 3.891661e-002
2.746136e+003, 3.961961e-002
2.748065e+003, 3.934409e-002
2.749993e+003, 4.083673e-002
2.751922e+003, 4.045463e-002
2.753850e+003, 4.003301e-002
2.755779e+003, 4.090839e-002
2.757707e+003, 4.169150e-002
2.759636e+003, 4.084212e-002
2.761564e+003, 4.129501e-002
2.763493e+003, 4.238622e-002
2.765421e+003, 4.256891e-002
2.767350e+003, 4.350848e-002
2.769278e+003, 4.184385e-002
2.771207e+003, 4.098045e-002
2.773135e+003, 4.327873e-002
2.775063e+003, 4.298767e-002
2.776992e+003, 4.157100e-002
2.778920e+003, 4.114832e-002
2.780849e+003, 4.187189e-002
2.782777e+003, 4.228410e-002
2.784706e+003, 4.162355e-002
2.786634e+003, 4.082012e-002
2.788563e+003, 4.185251e-002
2.790491e+003, 4.374336e-002
2.792420e+003, 4.469704e-002
2.794348e+003, 4.410557e-002
2.796277e+003, 4.507404e-002
2.798205e+003, 4.504303e-002
2.800134e+003, 4.481404e-002
2.802062e+003, 4.672771e-002
2.803990e+003, 4.635328e-002
2.805919e+003, 4.506042e-002
2.807847e+003, 4.765999e-002
2.809776e+003, 4.705223e-002
2.811704e+003, 4.606116e-002
2.813633e+003, 4.790440e-002
2.815561e+003, 5.058682e-002
2.817490e+003, 5.029032e-002
2.819418e+003, 4.723069e-002
2.821347e+003, 4.653008e-002
2.823275e+003, 4.886876e-002
2.825204e+003, 5.161370e-002
2.827132e+003, 5.206025e-002
2.829061e+003, 4.959220e-002
2.830989e+003, 4.810627e-002
2.832917e+003, 4.842416e-002
2.834846e+003, 5.115139e-002
2.836774e+003, 5.412184e-002
2.838703e+003, 5.297488e-002
2.840631e+003, 5.337263e-002
2.842560e+003, 5.448925e-002
2.844488e+003, 5.383986e-002
2.846417e+003, 5.062377e-002
2.848345e+003, 5.162446e-002
2.850274e+003, 5.420066e-002
2.852202e+003, 5.341382e-002
2.854131e+003, 5.243607e-002
2.856059e+003, 5.201807e-002
2.857988e+003, 5.357655e-002
2.859916e+003, 5.433699e-002
2.861844e+003, 5.476375e-002
2.863773e+003, 5.668266e-002
2.865701e+003, 5.819487e-002
2.867630e+003, 5.761545e-002
2.869558e+003, 5.755401e-002
2.871487e+003, 5.526112e-002
2.873415e+003, 5.351639e-002
2.875344e+003, 5.564224e-002
2.877272e+003, 5.527096e-002
2.879201e+003, 5.676155e-002
2.881129e+003, 5.647765e-002
2.883058e+003, 5.445547e-002
2.884986e+003, 5.421685e-002
2.886915e+003, 5.528375e-002
2.888843e+003, 5.783113e-002
2.890771e+003, 5.832726e-002
2.892700e+003, 5.745576e-002
2.894628e+003, 5.822625e-002
2.896557e+003, 5.892561e-002
2.898485e+003, 5.943920e-002
2.900414e+003, 6.275652e-002
2.902342e+003, 6.592430e-002
2.904271e+003, 6.709636e-002
2.906199e+003, 6.962608e-002
2.908128e+003, 6.741256e-002
2.910056e+003, 6.165197e-002
2.911985e+003, 6.173920e-002
2.913913e+003, 6.306726e-002
2.915842e+003, 6.572804e-002
2.917770e+003, 6.841022e-002
2.919698e+003, 7.145673e-002
2.921627e+003, 7.133926e-002
2.923555e+003, 6.901743e-002
2.925484e+003, 6.910243e-002
2.927412e+003, 7.079695e-002
2.929341e+003, 7.112095e-002
2.931269e+003, 7.049422e-002
2.933198e+003, 6.759594e-002
2.935126e+003, 6.757076e-002
2.937055e+003, 6.988208e-002
2.938983e+003, 7.236042e-002
2.940912e+003, 7.289100e-002
2.942840e+003, 7.068008e-002
2.944769e+003, 7.007304e-002
2.946697e+003, 7.183197e-002
2.948625e+003, 7.590622e-002
2.950554e+003, 7.601746e-002
2.952482e+003, 7.423171e-002
2.954411e+003, 7.336282e-002
2.956339e+003, 7.294862e-002
2.958268e+003, 7.366303e-002
2.960196e+003, 7.272313e-002
2.962125e+003, 7.252606e-002
2.964053e+003, 7.233098e-002
2.965982e+003, 7.181156e-002
2.967910e+003, 7.392684e-002
2.969839e+003, 7.775645e-002
2.971767e+003, 7.856024e-002
2.973696e+003, 7.827879e-002
2.975624e+003, 7.920858e-002
2.977552e+003, 8.079153e-002
2.979481e+003, 8.122189e-002
2.981409e+003, 8.143013e-002
2.983338e+003, 8.158994e-002
2.985266e+003, 8.134293e-002
2.987195e+003, 7.860484e-002
2.989123e+003, 8.214214e-002
2.991052e+003, 8.666378e-002
2.992980e+003, 8.523674e-002
2.994909e+003, 8.316960e-002
2.996837e+003, 8.437017e-002
2.998766e+003, 8.807629e-002
3.000694e+003, 8.783104e-002
3.002623e+003, 8.664341e-002
3.004551e+003, 8.902055e-002
3.006479e+003, 9.224838e-002
3.008408e+003, 8.984781e-002
3.010336e+003, 8.806673e-002
3.012265e+003, 8.780602e-002
3.014193e+003, 8.946934e-002
3.016122e+003, 9.129746e-002
3.018050e+003, 9.205888e-002
3.019979e+003, 9.048311e-002
3.021907e+003, 9.093516e-002
3.023836e+003, 9.321126e-002
3.025764e+003, 9.323303e-002
3.027693e+003, 9.442560e-002
3.029621e+003, 9.769195e-002
3.031550e+003, 9.831571e-002
3.033478e+003, 9.907360e-002
3.035406e+003, 9.989405e-002
3.037335e+003, 1.021679e-001
3.039263e+003, 1.012479e-001
3.041192e+003, 1.007113e-001
3.043120e+003, 1.007399e-001
3.045049e+003, 9.949435e-002
3.046977e+003, 1.018039e-001
3.048906e+003, 1.044143e-001
3.050834e+003, 1.049456e-001
3.052763e+003, 1.068734e-001
3.054691e+003, 1.086913e-001
3.056620e+003, 1.080218e-001
3.058548e+003, 1.094686e-001
3.060477e+003, 1.121196e-001
3.062405e+003, 1.142186e-001
3.064333e+003, 1.136007e-001
3.066262e+003, 1.124121e-001
3.068190e+003, 1.114434e-001
3.070119e+003, 1.106411e-001
3.072047e+003, 1.134694e-001
3.073976e+003, 1.138435e-001
3.075904e+003, 1.137556e-001
3.077833e+003, 1.134453e-001
3.079761e+003, 1.166215e-001
3.081690e+003, 1.207622e-001
3.083618e+003, 1.207886e-001
3.085547e+003, 1.190871e-001
3.087475e+003, 1.190973e-001
3.089404e+003, 1.234409e-001
3.091332e+003, 1.254530e-001
3.093260e+003, 1.245476e-001
3.095189e+003, 1.245301e-001
3.097117e+003, 1.245133e-001
3.099046e+003, 1.303905e-001
3.100974e+003, 1.346306e-001
3.102903e+003, 1.365413e-001
3.104831e+003, 1.359664e-001
3.106760e+003, 1.366254e-001
3.108688e+003, 1.356906e-001
3.110617e+003, 1.337107e-001
3.112545e+003, 1.395082e-001
3.114474e+003, 1.424272e-001
3.116402e+003, 1.430176e-001
3.118331e+003, 1.396589e-001
3.120259e+003, 1.374538e-001
3.122188e+003, 1.377650e-001
3.124116e+003, 1.373908e-001
3.126044e+003, 1.389889e-001
3.127973e+003, 1.403526e-001
3.129901e+003, 1.398174e-001
3.131830e+003, 1.435617e-001
3.133758e+003, 1.464947e-001
3.135687e+003, 1.473117e-001
3.137615e+003, 1.477475e-001
3.139544e+003, 1.450314e-001
3.141472e+003, 1.452565e-001
3.143401e+003, 1.480147e-001
3.145329e+003, 1.537065e-001
3.147258e+003, 1.566000e-001
3.149186e+003, 1.511092e-001
3.151115e+003, 1.451306e-001
3.153043e+003, 1.438914e-001
3.154971e+003, 1.432299e-001
3.156900e+003, 1.458449e-001
3.158828e+003, 1.478791e-001
3.160757e+003, 1.460195e-001
3.162685e+003, 1.443239e-001
3.164614e+003, 1.446347e-001
3.166542e+003, 1.464238e-001
3.168471e+003, 1.474016e-001
3.170399e+003, 1.464923e-001
3.172328e+003, 1.487033e-001
3.174256e+003, 1.477402e-001
3.176185e+003, 1.436505e-001
3.178113e+003, 1.416633e-001
3.180042e+003, 1.474989e-001
3.181970e+003, 1.523095e-001
3.183898e+003, 1.470677e-001
3.185827e+003, 1.413427e-001
3.187755e+003, 1.429167e-001
3.189684e+003, 1.449972e-001
3.191612e+003, 1.440488e-001
3.193541e+003, 1.425194e-001
3.195469e+003, 1.414171e-001
3.197398e+003, 1.450657e-001
3.199326e+003, 1.439092e-001
3.201255e+003, 1.462579e-001
3.203183e+003, 1.484542e-001
3.205112e+003, 1.471887e-001
3.207040e+003, 1.461622e-001
3.208969e+003, 1.471172e-001
3.210897e+003, 1.470867e-001
3.212825e+003, 1.455779e-001
3.214754e+003, 1.476726e-001
3.216682e+003, 1.447437e-001
3.218611e+003, 1.459880e-001
3.220539e+003, 1.487949e-001
3.222468e+003, 1.475637e-001
3.224396e+003, 1.454494e-001
3.226325e+003, 1.462953e-001
3.228253e+003, 1.461766e-001
3.230182e+003, 1.465586e-001
3.232110e+003, 1.488103e-001
3.234039e+003, 1.514005e-001
3.235967e+003, 1.513263e-001
3.237896e+003, 1.477419e-001
3.239824e+003, 1.491820e-001
3.241752e+003, 1.510580e-001
3.243681e+003, 1.495638e-001
3.245609e+003, 1.492742e-001
3.247538e+003, 1.515151e-001
3.249466e+003, 1.534941e-001
3.251395e+003, 1.499736e-001
3.253323e+003, 1.467130e-001
3.255252e+003, 1.481243e-001
3.257180e+003, 1.501501e-001
3.259109e+003, 1.519799e-001
3.261037e+003, 1.526753e-001
3.262966e+003, 1.492489e-001
3.264894e+003, 1.461455e-001
3.266823e+003, 1.446828e-001
3.268751e+003, 1.475121e-001
3.270679e+003, 1.507431e-001
3.272608e+003, 1.495859e-001
3.274536e+003, 1.438750e-001
3.276465e+003, 1.427946e-001
3.278393e+003, 1.482494e-001
3.280322e+003, 1.507334e-001
3.282250e+003, 1.499178e-001
3.284179e+003, 1.485802e-001
3.286107e+003, 1.475677e-001
3.288036e+003, 1.509592e-001
3.289964e+003, 1.509313e-001
3.291893e+003, 1.498415e-001
3.293821e+003, 1.527360e-001
3.295750e+003, 1.507407e-001
3.297678e+003, 1.455494e-001
3.299606e+003, 1.421024e-001
3.301535e+003, 1.424403e-001
3.303463e+003, 1.442877e-001
3.305392e+003, 1.484864e-001
3.307320e+003, 1.469775e-001
3.309249e+003, 1.458728e-001
3.311177e+003, 1.441313e-001
3.313106e+003, 1.397959e-001
3.315034e+003, 1.412995e-001
3.316963e+003, 1.389354e-001
3.318891e+003, 1.400901e-001
3.320820e+003, 1.437710e-001
3.322748e+003, 1.441925e-001
3.324677e+003, 1.406490e-001
3.326605e+003, 1.401887e-001
3.328533e+003, 1.421678e-001
3.330462e+003, 1.425395e-001
3.332390e+003, 1.467702e-001
3.334319e+003, 1.454784e-001
3.336247e+003, 1.419847e-001
3.338176e+003, 1.380454e-001
3.340104e+003, 1.383974e-001
3.342033e+003, 1.432098e-001
3.343961e+003, 1.389094e-001
3.345890e+003, 1.326627e-001
3.347818e+003, 1.349744e-001
3.349747e+003, 1.373459e-001
3.351675e+003, 1.397124e-001
3.353604e+003, 1.398093e-001
3.355532e+003, 1.413686e-001
3.357460e+003, 1.409955e-001
3.359389e+003, 1.387210e-001
3.361317e+003, 1.418315e-001
3.363246e+003, 1.434562e-001
3.365174e+003, 1.378648e-001
3.367103e+003, 1.346954e-001
3.369031e+003, 1.401001e-001
3.370960e+003, 1.411881e-001
3.372888e+003, 1.373422e-001
3.374817e+003, 1.365130e-001
3.376745e+003, 1.434252e-001
3.378674e+003, 1.412278e-001
3.380602e+003, 1.414613e-001
3.382531e+003, 1.403055e-001
3.384459e+003, 1.385306e-001
3.386387e+003, 1.380584e-001
3.388316e+003, 1.370428e-001
3.390244e+003, 1.380429e-001
3.392173e+003, 1.352060e-001
3.394101e+003, 1.331548e-001
3.396030e+003, 1.326361e-001
3.397958e+003, 1.335837e-001
3.399887e+003, 1.340167e-001
3.401815e+003, 1.344572e-001
3.403744e+003, 1.322692e-001
3.405672e+003, 1.267022e-001
3.407601e+003, 1.307394e-001
3.409529e+003, 1.337260e-001
3.411458e+003, 1.305249e-001
3.413386e+003, 1.281198e-001
3.415314e+003, 1.288232e-001
3.417243e+003, 1.315189e-001
3.419171e+003, 1.294956e-001
3.421100e+003, 1.266877e-001
3.423028e+003, 1.264992e-001
3.424957e+003, 1.238122e-001
3.426885e+003, 1.231144e-001
3.428814e+003, 1.238149e-001
3.430742e+003, 1.223335e-001
3.432671e+003, 1.210449e-001
3.434599e+003, 1.192099e-001
3.436528e+003, 1.228528e-001
3.438456e+003, 1.256400e-001
3.440385e+003, 1.183183e-001
3.442313e+003, 1.150045e-001
3.444241e+003, 1.207635e-001
3.446170e+003, 1.276649e-001
3.448098e+003, 1.180657e-001
3.450027e+003, 1.077249e-001
3.451955e+003, 1.126211e-001
3.453884e+003, 1.156023e-001
3.455812e+003, 1.127381e-001
3.457741e+003, 1.161617e-001
3.459669e+003, 1.218142e-001
3.461598e+003, 1.168551e-001
3.463526e+003, 1.124025e-001
3.465455e+003, 1.101481e-001
3.467383e+003, 1.089400e-001
3.469312e+003, 1.103713e-001
3.471240e+003, 1.114179e-001
3.473168e+003, 1.085681e-001
3.475097e+003, 1.028844e-001
3.477025e+003, 9.716789e-002
3.478954e+003, 1.008995e-001
3.480882e+003, 1.033470e-001
3.482811e+003, 1.021219e-001
3.484739e+003, 1.059456e-001
3.486668e+003, 1.064998e-001
3.488596e+003, 1.069442e-001
3.490525e+003, 1.090566e-001
3.492453e+003, 1.036115e-001
3.494382e+003, 9.897820e-002
3.496310e+003, 9.499085e-002
3.498239e+003, 9.419954e-002
3.500167e+003, 9.779500e-002
3.502095e+003, 9.585100e-002
3.504024e+003, 9.277957e-002
3.505952e+003, 9.458298e-002
3.507881e+003, 9.234522e-002
3.509809e+003, 9.289712e-002
3.511738e+003, 9.676205e-002
3.513666e+003, 9.242240e-002
3.515595e+003, 8.476755e-002
3.517523e+003, 8.945658e-002
3.519452e+003, 9.583963e-002
3.521380e+003, 9.975456e-002
3.523309e+003, 9.915416e-002
3.525237e+003, 9.343032e-002
3.527166e+003, 9.348880e-002
3.529094e+003, 9.439513e-002
3.531022e+003, 8.998419e-002
3.532951e+003, 8.962527e-002
3.534879e+003, 9.083846e-002
3.536808e+003, 9.240059e-002
3.538736e+003, 9.648118e-002
3.540665e+003, 9.896488e-002
3.542593e+003, 1.004469e-001
3.544522e+003, 9.716555e-002
3.546450e+003, 9.944072e-002
3.548379e+003, 1.066575e-001
3.550307e+003, 1.110388e-001
3.552236e+003, 1.149080e-001
3.554164e+003, 1.164802e-001
3.556093e+003, 1.169750e-001
3.558021e+003, 1.177275e-001
3.559949e+003, 1.236294e-001
3.561878e+003, 1.314696e-001
3.563806e+003, 1.302521e-001
3.565735e+003, 1.275298e-001
3.567663e+003, 1.281621e-001
3.569592e+003, 1.214715e-001
3.571520e+003, 1.068755e-001
3.573449e+003, 1.022198e-001
3.575377e+003, 1.052012e-001
3.577306e+003, 1.038802e-001
3.579234e+003, 9.618662e-002
3.581163e+003, 8.939223e-002
3.583091e+003, 8.490964e-002
3.585020e+003, 8.008955e-002
3.586948e+003, 7.077840e-002
3.588876e+003, 5.880145e-002
3.590805e+003, 5.292119e-002
3.592733e+003, 5.378899e-002
3.594662e+003, 5.408356e-002
3.596590e+003, 5.411854e-002
3.598519e+003, 4.998955e-002
3.600447e+003, 4.503444e-002
3.602376e+003, 4.414847e-002
3.604304e+003, 4.647863e-002
3.606233e+003, 4.892834e-002
3.608161e+003, 4.674123e-002
3.610090e+003, 4.213275e-002
3.612018e+003, 3.729839e-002
3.613947e+003, 3.447156e-002
3.615875e+003, 3.856696e-002
3.617803e+003, 4.035448e-002
3.619732e+003, 4.192749e-002
3.621660e+003, 4.081953e-002
3.623589e+003, 3.306581e-002
3.625517e+003, 3.072375e-002
3.627446e+003, 3.776578e-002
3.629374e+003, 3.904814e-002
3.631303e+003, 3.728295e-002
3.633231e+003, 3.552923e-002
3.635160e+003, 3.120380e-002
3.637088e+003, 3.255738e-002
3.639017e+003, 2.840686e-002
3.640945e+003, 2.907646e-002
3.642874e+003, 3.270844e-002
3.644802e+003, 3.046918e-002
3.646730e+003, 3.427168e-002
3.648659e+003, 3.789138e-002
3.650587e+003, 3.784641e-002
3.652516e+003, 3.537693e-002
3.654444e+003, 3.385589e-002
3.656373e+003, 3.025517e-002
3.658301e+003, 2.248358e-002
3.660230e+003, 2.174940e-002
3.662158e+003, 3.122906e-002
3.664087e+003, 3.298031e-002
3.666015e+003, 2.944176e-002
3.667944e+003, 3.177222e-002
3.669872e+003, 2.999979e-002
3.671801e+003, 2.410469e-002
3.673729e+003, 2.253213e-002
3.675657e+003, 2.069427e-002
3.677586e+003, 2.231487e-002
3.679514e+003, 3.215339e-002
3.681443e+003, 3.692693e-002
3.683371e+003, 3.367898e-002
3.685300e+003, 2.456796e-002
3.687228e+003, 1.764964e-002
3.689157e+003, 2.364745e-002
3.691085e+003, 2.916146e-002
3.693014e+003, 2.937438e-002
3.694942e+003, 2.521792e-002
3.696871e+003, 2.495678e-002
3.698799e+003, 1.933993e-002
3.700728e+003, 2.056607e-002
3.702656e+003, 2.800126e-002
3.704584e+003, 2.924161e-002
3.706513e+003, 3.278163e-002
3.708441e+003, 2.996833e-002
3.710370e+003, 2.137670e-002
3.712298e+003, 2.293936e-002
3.714227e+003, 3.236993e-002
3.716155e+003, 4.152294e-002
3.718084e+003, 3.809671e-002
3.720012e+003, 2.780952e-002
3.721941e+003, 2.667566e-002
3.723869e+003, 3.148854e-002
3.725798e+003, 2.660400e-002
3.727726e+003, 2.460801e-002
3.729655e+003, 3.004320e-002
3.731583e+003, 3.112506e-002
3.733511e+003, 2.673529e-002
3.735440e+003, 2.607588e-002
3.737368e+003, 3.008703e-002
3.739297e+003, 2.862111e-002
3.741225e+003, 2.549358e-002
3.743154e+003, 2.358559e-002
3.745082e+003, 2.595236e-002
3.747011e+003, 2.726225e-002
3.748939e+003, 2.162481e-002
3.750868e+003, 2.037074e-002
3.752796e+003, 2.198025e-002
3.754725e+003, 2.529984e-002
3.756653e+003, 2.765292e-002
3.758582e+003, 3.260871e-002
3.760510e+003, 3.447977e-002
3.762438e+003, 3.344117e-002
3.764367e+003, 3.242075e-002
3.766295e+003, 3.018627e-002
3.768224e+003, 3.109134e-002
3.770152e+003, 2.972776e-002
3.772081e+003, 3.092779e-002
3.774009e+003, 3.251120e-002
3.775938e+003, 3.272271e-002
3.777866e+003, 2.644923e-002
3.779795e+003, 2.245677e-002
3.781723e+003, 2.673081e-002
3.783652e+003, 2.944251e-002
3.785580e+003, 2.503756e-002
3.787509e+003, 2.696117e-002
3.789437e+003, 3.371667e-002
3.791365e+003, 2.679944e-002
3.793294e+003, 2.391232e-002
3.795222e+003, 2.374347e-002
3.797151e+003, 2.429042e-002
3.799079e+003, 2.453057e-002
3.801008e+003, 2.113064e-002
3.802936e+003, 1.979546e-002
3.804865e+003, 2.101538e-002
3.806793e+003, 2.062228e-002
3.808722e+003, 2.345821e-002
3.810650e+003, 2.793952e-002
3.812579e+003, 2.756485e-002
3.814507e+003, 3.048593e-002
3.816436e+003, 2.777408e-002
3.818364e+003, 2.134371e-002
3.820292e+003, 2.190593e-002
3.822221e+003, 2.413960e-002
3.824149e+003, 2.396487e-002
3.826078e+003, 2.592201e-002
3.828006e+003, 3.273962e-002
3.829935e+003, 3.579197e-002
3.831863e+003, 2.775920e-002
3.833792e+003, 2.567740e-002
3.835720e+003, 3.229682e-002
3.837649e+003, 3.154149e-002
3.839577e+003, 2.711230e-002
3.841506e+003, 3.046988e-002
3.843434e+003, 3.543444e-002
3.845363e+003, 3.634893e-002
3.847291e+003, 3.781577e-002
3.849219e+003, 3.616940e-002
3.851148e+003, 2.846587e-002
3.853076e+003, 2.124725e-002
3.855005e+003, 2.687276e-002
3.856933e+003, 3.502934e-002
3.858862e+003, 3.172831e-002
3.860790e+003, 2.629588e-002
3.862719e+003, 2.498297e-002
3.864647e+003, 3.030661e-002
3.866576e+003, 3.166883e-002
3.868504e+003, 2.765754e-002
3.870433e+003, 2.609723e-002
3.872361e+003, 2.655027e-002
3.874290e+003, 2.324091e-002
3.876218e+003, 2.016938e-002
3.878146e+003, 2.780760e-002
3.880075e+003, 3.624161e-002
3.882003e+003, 3.135264e-002
3.883932e+003, 2.335916e-002
3.885860e+003, 2.254426e-002
3.887789e+003, 2.724606e-002
3.889717e+003, 2.974864e-002
3.891646e+003, 3.281063e-002
3.893574e+003, 3.580395e-002
3.895503e+003, 3.506886e-002
3.897431e+003, 2.714452e-002
3.899360e+003, 2.545142e-002
3.901288e+003, 2.737144e-002
3.903217e+003, 2.916445e-002
3.905145e+003, 3.007140e-002
3.907073e+003, 2.790292e-002
3.909002e+003, 2.762512e-002
3.910930e+003, 2.712589e-002
3.912859e+003, 2.866605e-002
3.914787e+003, 3.264726e-002
3.916716e+003, 3.098531e-002
3.918644e+003, 2.729659e-002
3.920573e+003, 2.109629e-002
3.922501e+003, 2.335011e-002
3.924430e+003, 3.290120e-002
3.926358e+003, 3.337973e-002
3.928287e+003, 3.268106e-002
3.930215e+003, 3.531293e-002
3.932144e+003, 3.288198e-002
3.934072e+003, 2.849160e-002
3.936000e+003, 2.885165e-002
3.937929e+003, 3.345279e-002
3.939857e+003, 2.927989e-002
3.941786e+003, 2.771728e-002
3.943714e+003, 2.834661e-002
3.945643e+003, 2.283457e-002
3.947571e+003, 2.074172e-002
3.949500e+003, 2.993902e-002
3.951428e+003, 3.590475e-002
3.953357e+003, 3.751875e-002
3.955285e+003, 4.497327e-002
3.957214e+003, 3.898155e-002
3.959142e+003, 2.831137e-002
3.961071e+003, 2.953842e-002
3.962999e+003, 3.316313e-002
3.964927e+003, 3.415280e-002
3.966856e+003, 3.340196e-002
3.968784e+003, 3.578080e-002
3.970713e+003, 2.660918e-002
3.972641e+003, 2.050611e-002
3.974570e+003, 2.579125e-002
3.976498e+003, 3.204560e-002
3.978427e+003, 2.909402e-002
3.980355e+003, 2.548156e-002
3.982284e+003, 3.052586e-002
3.984212e+003, 3.753217e-002
3.986141e+003, 3.321516e-002
3.988069e+003, 3.352462e-002
3.989998e+003, 2.689264e-002
3.991926e+003, 2.929492e-002
3.993854e+003, 3.386016e-002
3.995783e+003, 3.062336e-002
3.997711e+003, 2.589302e-002
3.999640e+003, 2.533913e-002
##END=



