##NAMES=Pyrite
##RRUFFID=R050070
##IDEAL CHEMISTRY=Fe^2+^(S_2_)^2-^
##LOCALITY=Mina San Jose de Huanzala, Minero de Huallanca District, Department de Huanuco, Peru
##OWNER=RRUFF
##SOURCE=Rock Currier
##DESCRIPTION=Brass-yellow metallic cube
##STATUS=The identification of this mineral has been confirmed by X-ray diffraction and chemical analysis
##URL=rruff.info/R050070
##MEASURED CHEMISTRY=Fe_1.00_S_2.00_
3.991926e+002, 2.430716e-001
4.011211e+002, 2.459003e-001
4.030496e+002, 2.470825e-001
4.049780e+002, 2.632592e-001
4.069065e+002, 2.697088e-001
4.088350e+002, 2.760280e-001
4.107634e+002, 2.774089e-001
4.126919e+002, 2.684118e-001
4.146204e+002, 2.599612e-001
4.165488e+002, 2.519446e-001
4.184773e+002, 2.407209e-001
4.204058e+002, 2.210785e-001
4.223342e+002, 2.027805e-001
4.242627e+002, 1.862187e-001
4.261912e+002, 1.676308e-001
4.281196e+002, 1.462725e-001
4.300481e+002, 1.256998e-001
4.319766e+002, 1.065433e-001
4.339050e+002, 8.370005e-002
4.358335e+002, 5.787392e-002
4.377620e+002, 3.953011e-002
4.396904e+002, 3.522649e-002
4.416189e+002, 3.906460e-002
4.435474e+002, 4.822785e-002
4.454758e+002, 6.347798e-002
4.474043e+002, 8.396450e-002
4.493328e+002, 1.055149e-001
4.512612e+002, 1.245121e-001
4.531897e+002, 1.399232e-001
4.551182e+002, 1.533452e-001
4.570466e+002, 1.648986e-001
4.589751e+002, 1.746896e-001
4.609036e+002, 1.831268e-001
4.628320e+002, 1.897347e-001
4.647605e+002, 1.948850e-001
4.666890e+002, 1.991051e-001
4.686174e+002, 2.028264e-001
4.705459e+002, 2.053430e-001
4.724744e+002, 2.077550e-001
4.744028e+002, 2.108733e-001
4.763313e+002, 2.146125e-001
4.782598e+002, 2.167947e-001
4.801882e+002, 2.188907e-001
4.821167e+002, 2.214934e-001
4.840452e+002, 2.228751e-001
4.859736e+002, 2.255661e-001
4.879021e+002, 2.286784e-001
4.898306e+002, 2.300342e-001
4.917590e+002, 2.314973e-001
4.936875e+002, 2.345134e-001
4.956160e+002, 2.367682e-001
4.975444e+002, 2.389397e-001
4.994729e+002, 2.411997e-001
5.014014e+002, 2.434875e-001
5.033298e+002, 2.455233e-001
5.052583e+002, 2.472861e-001
5.071868e+002, 2.501698e-001
5.091152e+002, 2.536863e-001
5.110437e+002, 2.563924e-001
5.129722e+002, 2.574456e-001
5.149006e+002, 2.588036e-001
5.168291e+002, 2.611362e-001
5.187576e+002, 2.623993e-001
5.206860e+002, 2.627007e-001
5.226145e+002, 2.634250e-001
5.245430e+002, 2.645448e-001
5.264714e+002, 2.660063e-001
5.283999e+002, 2.660299e-001
5.303284e+002, 2.647106e-001
5.322568e+002, 2.648866e-001
5.341853e+002, 2.658883e-001
5.361138e+002, 2.664137e-001
5.380422e+002, 2.665057e-001
5.399707e+002, 2.656200e-001
5.418992e+002, 2.654333e-001
5.438276e+002, 2.657512e-001
5.457561e+002, 2.661429e-001
5.476846e+002, 2.660509e-001
5.496130e+002, 2.653756e-001
5.515415e+002, 2.642612e-001
5.534700e+002, 2.642190e-001
5.553984e+002, 2.639517e-001
5.573269e+002, 2.630545e-001
5.592554e+002, 2.623895e-001
5.611838e+002, 2.618684e-001
5.631123e+002, 2.614578e-001
5.650408e+002, 2.604866e-001
5.669692e+002, 2.599545e-001
5.688977e+002, 2.597686e-001
5.708262e+002, 2.601322e-001
5.727546e+002, 2.613342e-001
5.746831e+002, 2.617283e-001
5.766116e+002, 2.616805e-001
5.785400e+002, 2.618786e-001
5.804685e+002, 2.628720e-001
5.823970e+002, 2.641720e-001
5.843254e+002, 2.647775e-001
5.862539e+002, 2.651998e-001
5.881824e+002, 2.648214e-001
5.901108e+002, 2.631221e-001
5.920393e+002, 2.624286e-001
5.939678e+002, 2.626625e-001
5.958962e+002, 2.630498e-001
5.978247e+002, 2.638804e-001
5.997532e+002, 2.667104e-001
6.016816e+002, 2.681206e-001
6.036101e+002, 2.658376e-001
6.055386e+002, 2.611368e-001
6.074670e+002, 2.568653e-001
6.093955e+002, 2.555647e-001
6.113240e+002, 2.568508e-001
6.132524e+002, 2.589279e-001
6.151809e+002, 2.618465e-001
6.171094e+002, 2.647744e-001
6.190378e+002, 2.675273e-001
6.209663e+002, 2.700850e-001
6.228948e+002, 2.711439e-001
6.248232e+002, 2.691049e-001
6.267517e+002, 2.638837e-001
6.286802e+002, 2.583566e-001
6.306086e+002, 2.553425e-001
6.325371e+002, 2.553188e-001
6.344656e+002, 2.567724e-001
6.363940e+002, 2.579139e-001
6.383225e+002, 2.594586e-001
6.402510e+002, 2.607486e-001
6.421794e+002, 2.620569e-001
6.441079e+002, 2.636589e-001
6.460364e+002, 2.657432e-001
6.479648e+002, 2.681324e-001
6.498933e+002, 2.701291e-001
6.518218e+002, 2.716818e-001
6.537502e+002, 2.730961e-001
6.556787e+002, 2.748116e-001
6.576072e+002, 2.767621e-001
6.595356e+002, 2.782140e-001
6.614641e+002, 2.792040e-001
6.633926e+002, 2.794722e-001
6.653210e+002, 2.776009e-001
6.672495e+002, 2.729351e-001
6.691780e+002, 2.658410e-001
6.711064e+002, 2.588150e-001
6.730349e+002, 2.543575e-001
6.749634e+002, 2.529747e-001
6.768918e+002, 2.532697e-001
6.788203e+002, 2.538741e-001
6.807488e+002, 2.544509e-001
6.826772e+002, 2.548433e-001
6.846057e+002, 2.555925e-001
6.865342e+002, 2.564707e-001
6.884626e+002, 2.573292e-001
6.903911e+002, 2.582030e-001
6.923196e+002, 2.585923e-001
6.942480e+002, 2.593062e-001
6.961765e+002, 2.598988e-001
6.981050e+002, 2.603032e-001
7.000334e+002, 2.610861e-001
7.019619e+002, 2.618355e-001
7.038904e+002, 2.620436e-001
7.058188e+002, 2.626975e-001
7.077473e+002, 2.634459e-001
7.096758e+002, 2.639501e-001
7.116042e+002, 2.643814e-001
7.135327e+002, 2.648963e-001
7.154612e+002, 2.655019e-001
7.173896e+002, 2.660248e-001
7.193181e+002, 2.666886e-001
7.212466e+002, 2.668381e-001
7.231750e+002, 2.669773e-001
7.251035e+002, 2.675959e-001
7.270320e+002, 2.681558e-001
7.289604e+002, 2.684706e-001
7.308889e+002, 2.691112e-001
7.328174e+002, 2.698033e-001
7.347458e+002, 2.703609e-001
7.366743e+002, 2.708476e-001
7.386028e+002, 2.714335e-001
7.405313e+002, 2.722689e-001
7.424597e+002, 2.726341e-001
7.443882e+002, 2.727547e-001
7.463167e+002, 2.729366e-001
7.482451e+002, 2.734065e-001
7.501736e+002, 2.741230e-001
7.521021e+002, 2.746265e-001
7.540305e+002, 2.749145e-001
7.559590e+002, 2.753324e-001
7.578875e+002, 2.760112e-001
7.598159e+002, 2.765891e-001
7.617444e+002, 2.767675e-001
7.636729e+002, 2.767852e-001
7.656013e+002, 2.774061e-001
7.675298e+002, 2.779922e-001
7.694583e+002, 2.785280e-001
7.713867e+002, 2.793428e-001
7.733152e+002, 2.799665e-001
7.752437e+002, 2.805701e-001
7.771721e+002, 2.811175e-001
7.791006e+002, 2.819791e-001
7.810291e+002, 2.832341e-001
7.829575e+002, 2.843664e-001
7.848860e+002, 2.854174e-001
7.868145e+002, 2.866791e-001
7.887429e+002, 2.880903e-001
7.906714e+002, 2.895012e-001
7.925999e+002, 2.906149e-001
7.945283e+002, 2.918160e-001
7.964568e+002, 2.934135e-001
7.983853e+002, 2.951125e-001
8.003137e+002, 2.963729e-001
8.022422e+002, 2.978456e-001
8.041707e+002, 2.994919e-001
8.060991e+002, 3.006968e-001
8.080276e+002, 3.021319e-001
8.099561e+002, 3.036362e-001
8.118845e+002, 3.046968e-001
8.138130e+002, 3.050515e-001
8.157415e+002, 3.051962e-001
8.176699e+002, 3.049273e-001
8.195984e+002, 3.041998e-001
8.215269e+002, 3.030004e-001
8.234553e+002, 3.016928e-001
8.253838e+002, 3.006318e-001
8.273123e+002, 2.991572e-001
8.292407e+002, 2.971459e-001
8.311692e+002, 2.948715e-001
8.330977e+002, 2.923124e-001
8.350261e+002, 2.898542e-001
8.369546e+002, 2.877928e-001
8.388831e+002, 2.860324e-001
8.408115e+002, 2.843800e-001
8.427400e+002, 2.827244e-001
8.446685e+002, 2.810800e-001
8.465969e+002, 2.796471e-001
8.485254e+002, 2.784144e-001
8.504539e+002, 2.773542e-001
8.523823e+002, 2.766480e-001
8.543108e+002, 2.762852e-001
8.562393e+002, 2.761348e-001
8.581677e+002, 2.759713e-001
8.600962e+002, 2.757084e-001
8.620247e+002, 2.759168e-001
8.639531e+002, 2.761493e-001
8.658816e+002, 2.766142e-001
8.678101e+002, 2.770877e-001
8.697385e+002, 2.776386e-001
8.716670e+002, 2.782319e-001
8.735955e+002, 2.790048e-001
8.755239e+002, 2.799092e-001
8.774524e+002, 2.807176e-001
8.793809e+002, 2.815071e-001
8.813093e+002, 2.824034e-001
8.832378e+002, 2.831451e-001
8.851663e+002, 2.835635e-001
8.870947e+002, 2.840728e-001
8.890232e+002, 2.850952e-001
8.909517e+002, 2.861278e-001
8.928801e+002, 2.865362e-001
8.948085e+002, 2.868891e-001
8.967370e+002, 2.877707e-001
8.986655e+002, 2.885778e-001
9.005939e+002, 2.893767e-001
9.025224e+002, 2.902462e-001
9.044509e+002, 2.910113e-001
9.063793e+002, 2.917039e-001
9.083078e+002, 2.922153e-001
9.102363e+002, 2.924377e-001
9.121647e+002, 2.929428e-001
9.140932e+002, 2.938456e-001
9.160217e+002, 2.948652e-001
9.179501e+002, 2.956021e-001
9.198786e+002, 2.962006e-001
9.218071e+002, 2.967722e-001
9.237355e+002, 2.976924e-001
9.256640e+002, 2.987266e-001
9.275925e+002, 2.995236e-001
9.295209e+002, 3.004629e-001
9.314494e+002, 3.012600e-001
9.333779e+002, 3.017981e-001
9.353063e+002, 3.028199e-001
9.372348e+002, 3.035950e-001
9.391633e+002, 3.044187e-001
9.410917e+002, 3.054793e-001
9.430202e+002, 3.063738e-001
9.449487e+002, 3.069853e-001
9.468771e+002, 3.077692e-001
9.488056e+002, 3.087482e-001
9.507341e+002, 3.096269e-001
9.526625e+002, 3.103863e-001
9.545910e+002, 3.112742e-001
9.565195e+002, 3.124519e-001
9.584479e+002, 3.136594e-001
9.603764e+002, 3.143989e-001
9.623049e+002, 3.151541e-001
9.642333e+002, 3.159897e-001
9.661618e+002, 3.171306e-001
9.680903e+002, 3.182565e-001
9.700187e+002, 3.191884e-001
9.719472e+002, 3.204139e-001
9.738757e+002, 3.217337e-001
9.758041e+002, 3.226662e-001
9.777326e+002, 3.238700e-001
9.796611e+002, 3.252440e-001
9.815895e+002, 3.264416e-001
9.835180e+002, 3.277474e-001
9.854465e+002, 3.292062e-001
9.873749e+002, 3.306541e-001
9.893034e+002, 3.323844e-001
9.912319e+002, 3.340192e-001
9.931603e+002, 3.356550e-001
9.950888e+002, 3.377974e-001
9.970173e+002, 3.397303e-001
9.989457e+002, 3.414771e-001
1.000874e+003, 3.441301e-001
1.002803e+003, 3.470383e-001
1.004731e+003, 3.495558e-001
1.006660e+003, 3.526533e-001
1.008588e+003, 3.562776e-001
1.010517e+003, 3.599803e-001
1.012445e+003, 3.637809e-001
1.014373e+003, 3.671079e-001
1.016302e+003, 3.680731e-001
1.018230e+003, 3.646212e-001
1.020159e+003, 3.589057e-001
1.022087e+003, 3.547876e-001
1.024016e+003, 3.525326e-001
1.025944e+003, 3.522895e-001
1.027873e+003, 3.552899e-001
1.029801e+003, 3.601207e-001
1.031730e+003, 3.636580e-001
1.033658e+003, 3.649350e-001
1.035587e+003, 3.646477e-001
1.037515e+003, 3.631985e-001
1.039444e+003, 3.609574e-001
1.041372e+003, 3.581855e-001
1.043301e+003, 3.558540e-001
1.045229e+003, 3.544098e-001
1.047157e+003, 3.533598e-001
1.049086e+003, 3.524016e-001
1.051014e+003, 3.522577e-001
1.052943e+003, 3.525525e-001
1.054871e+003, 3.529353e-001
1.056800e+003, 3.535685e-001
1.058728e+003, 3.546650e-001
1.060657e+003, 3.560469e-001
1.062585e+003, 3.577639e-001
1.064514e+003, 3.598665e-001
1.066442e+003, 3.622012e-001
1.068371e+003, 3.649401e-001
1.070299e+003, 3.677683e-001
1.072228e+003, 3.707553e-001
1.074156e+003, 3.734394e-001
1.076084e+003, 3.750363e-001
1.078013e+003, 3.750773e-001
1.079941e+003, 3.740739e-001
1.081870e+003, 3.724321e-001
1.083798e+003, 3.704987e-001
1.085727e+003, 3.684706e-001
1.087655e+003, 3.665439e-001
1.089584e+003, 3.645833e-001
1.091512e+003, 3.634017e-001
1.093441e+003, 3.622974e-001
1.095369e+003, 3.610277e-001
1.097298e+003, 3.600936e-001
1.099226e+003, 3.594628e-001
1.101155e+003, 3.592893e-001
1.103083e+003, 3.590894e-001
1.105011e+003, 3.589794e-001
1.106940e+003, 3.594756e-001
1.108868e+003, 3.602698e-001
1.110797e+003, 3.610515e-001
1.112725e+003, 3.617525e-001
1.114654e+003, 3.619886e-001
1.116582e+003, 3.620346e-001
1.118511e+003, 3.618198e-001
1.120439e+003, 3.611400e-001
1.122368e+003, 3.604926e-001
1.124296e+003, 3.598272e-001
1.126225e+003, 3.589621e-001
1.128153e+003, 3.580979e-001
1.130082e+003, 3.573264e-001
1.132010e+003, 3.565421e-001
1.133938e+003, 3.553654e-001
1.135867e+003, 3.542365e-001
1.137795e+003, 3.532563e-001
1.139724e+003, 3.520223e-001
1.141652e+003, 3.506078e-001
1.143581e+003, 3.496375e-001
1.145509e+003, 3.486469e-001
1.147438e+003, 3.475333e-001
1.149366e+003, 3.464099e-001
1.151295e+003, 3.450297e-001
1.153223e+003, 3.434723e-001
1.155152e+003, 3.416472e-001
1.157080e+003, 3.391248e-001
1.159009e+003, 3.363270e-001
1.160937e+003, 3.335336e-001
1.162865e+003, 3.305968e-001
1.164794e+003, 3.273865e-001
1.166722e+003, 3.239466e-001
1.168651e+003, 3.201598e-001
1.170579e+003, 3.161888e-001
1.172508e+003, 3.121555e-001
1.174436e+003, 3.081590e-001
1.176365e+003, 3.037985e-001
1.178293e+003, 2.995228e-001
1.180222e+003, 2.953431e-001
1.182150e+003, 2.911398e-001
1.184079e+003, 2.870771e-001
1.186007e+003, 2.829663e-001
1.187936e+003, 2.786944e-001
1.189864e+003, 2.746790e-001
1.191792e+003, 2.708346e-001
1.193721e+003, 2.670989e-001
1.195649e+003, 2.633493e-001
1.197578e+003, 2.595311e-001
1.199506e+003, 2.556823e-001
1.201435e+003, 2.518560e-001
1.203363e+003, 2.480259e-001
1.205292e+003, 2.444066e-001
1.207220e+003, 2.408596e-001
1.209149e+003, 2.373219e-001
1.211077e+003, 2.342357e-001
1.213006e+003, 2.317047e-001
1.214934e+003, 2.294541e-001
1.216863e+003, 2.276618e-001
1.218791e+003, 2.261188e-001
1.220719e+003, 2.249452e-001
1.222648e+003, 2.240572e-001
1.224576e+003, 2.233028e-001
1.226505e+003, 2.229117e-001
1.228433e+003, 2.227695e-001
1.230362e+003, 2.226784e-001
1.232290e+003, 2.229652e-001
1.234219e+003, 2.236389e-001
1.236147e+003, 2.244902e-001
1.238076e+003, 2.253996e-001
1.240004e+003, 2.263446e-001
1.241933e+003, 2.274701e-001
1.243861e+003, 2.286020e-001
1.245790e+003, 2.294607e-001
1.247718e+003, 2.303529e-001
1.249646e+003, 2.314051e-001
1.251575e+003, 2.322623e-001
1.253503e+003, 2.330409e-001
1.255432e+003, 2.338982e-001
1.257360e+003, 2.345950e-001
1.259289e+003, 2.352388e-001
1.261217e+003, 2.358375e-001
1.263146e+003, 2.366162e-001
1.265074e+003, 2.373389e-001
1.267003e+003, 2.381261e-001
1.268931e+003, 2.389982e-001
1.270860e+003, 2.398501e-001
1.272788e+003, 2.405933e-001
1.274717e+003, 2.412509e-001
1.276645e+003, 2.420290e-001
1.278573e+003, 2.427689e-001
1.280502e+003, 2.433740e-001
1.282430e+003, 2.440524e-001
1.284359e+003, 2.448771e-001
1.286287e+003, 2.456975e-001
1.288216e+003, 2.465415e-001
1.290144e+003, 2.474174e-001
1.292073e+003, 2.480063e-001
1.294001e+003, 2.484535e-001
1.295930e+003, 2.490393e-001
1.297858e+003, 2.496268e-001
1.299787e+003, 2.503517e-001
1.301715e+003, 2.510420e-001
1.303644e+003, 2.514800e-001
1.305572e+003, 2.520343e-001
1.307500e+003, 2.526031e-001
1.309429e+003, 2.530953e-001
1.311357e+003, 2.537351e-001
1.313286e+003, 2.542798e-001
1.315214e+003, 2.548338e-001
1.317143e+003, 2.554885e-001
1.319071e+003, 2.562285e-001
1.321000e+003, 2.567981e-001
1.322928e+003, 2.573217e-001
1.324857e+003, 2.580748e-001
1.326785e+003, 2.586337e-001
1.328714e+003, 2.594177e-001
1.330642e+003, 2.600107e-001
1.332571e+003, 2.603585e-001
1.334499e+003, 2.608426e-001
1.336427e+003, 2.613981e-001
1.338356e+003, 2.618762e-001
1.340284e+003, 2.624766e-001
1.342213e+003, 2.628811e-001
1.344141e+003, 2.631727e-001
1.346070e+003, 2.635711e-001
1.347998e+003, 2.641970e-001
1.349927e+003, 2.647806e-001
1.351855e+003, 2.653544e-001
1.353784e+003, 2.657036e-001
1.355712e+003, 2.661921e-001
1.357641e+003, 2.669011e-001
1.359569e+003, 2.672602e-001
1.361498e+003, 2.677860e-001
1.363426e+003, 2.682885e-001
1.365354e+003, 2.687110e-001
1.367283e+003, 2.690554e-001
1.369211e+003, 2.692809e-001
1.371140e+003, 2.696618e-001
1.373068e+003, 2.700469e-001
1.374997e+003, 2.707089e-001
1.376925e+003, 2.714860e-001
1.378854e+003, 2.719496e-001
1.380782e+003, 2.720438e-001
1.382711e+003, 2.723032e-001
1.384639e+003, 2.726908e-001
1.386568e+003, 2.730675e-001
1.388496e+003, 2.735237e-001
1.390424e+003, 2.737756e-001
1.392353e+003, 2.741031e-001
1.394281e+003, 2.744836e-001
1.396210e+003, 2.750082e-001
1.398138e+003, 2.755228e-001
1.400067e+003, 2.757934e-001
1.401995e+003, 2.764946e-001
1.403924e+003, 2.769803e-001
1.405852e+003, 2.772278e-001
1.407781e+003, 2.776192e-001
1.409709e+003, 2.780747e-001
1.411638e+003, 2.782004e-001
1.413566e+003, 2.784267e-001
1.415495e+003, 2.790403e-001
1.417423e+003, 2.794308e-001
1.419351e+003, 2.796515e-001
1.421280e+003, 2.797881e-001
1.423208e+003, 2.801796e-001
1.425137e+003, 2.806751e-001
1.427065e+003, 2.811219e-001
1.428994e+003, 2.814336e-001
1.430922e+003, 2.817025e-001
1.432851e+003, 2.820594e-001
1.434779e+003, 2.825767e-001
1.436708e+003, 2.829425e-001
1.438636e+003, 2.835491e-001
1.440565e+003, 2.839020e-001
1.442493e+003, 2.840140e-001
1.444422e+003, 2.846057e-001
1.446350e+003, 2.853691e-001
1.448278e+003, 2.857653e-001
1.450207e+003, 2.859634e-001
1.452135e+003, 2.864464e-001
1.454064e+003, 2.868860e-001
1.455992e+003, 2.872270e-001
1.457921e+003, 2.876544e-001
1.459849e+003, 2.881695e-001
1.461778e+003, 2.886444e-001
1.463706e+003, 2.891105e-001
1.465635e+003, 2.893542e-001
1.467563e+003, 2.895646e-001
1.469492e+003, 2.898103e-001
1.471420e+003, 2.903993e-001
1.473349e+003, 2.909571e-001
1.475277e+003, 2.912734e-001
1.477205e+003, 2.915964e-001
1.479134e+003, 2.917770e-001
1.481062e+003, 2.919145e-001
1.482991e+003, 2.925816e-001
1.484919e+003, 2.930359e-001
1.486848e+003, 2.930916e-001
1.488776e+003, 2.931189e-001
1.490705e+003, 2.934599e-001
1.492633e+003, 2.935984e-001
1.494562e+003, 2.932677e-001
1.496490e+003, 2.929777e-001
1.498419e+003, 2.928772e-001
1.500347e+003, 2.925780e-001
1.502276e+003, 2.922029e-001
1.504204e+003, 2.919546e-001
1.506132e+003, 2.917465e-001
1.508061e+003, 2.916295e-001
1.509989e+003, 2.917379e-001
1.511918e+003, 2.918223e-001
1.513846e+003, 2.917780e-001
1.515775e+003, 2.915811e-001
1.517703e+003, 2.916564e-001
1.519632e+003, 2.917477e-001
1.521560e+003, 2.917983e-001
1.523489e+003, 2.919308e-001
1.525417e+003, 2.921815e-001
1.527346e+003, 2.923703e-001
1.529274e+003, 2.922516e-001
1.531203e+003, 2.923288e-001
1.533131e+003, 2.926518e-001
1.535059e+003, 2.929987e-001
1.536988e+003, 2.932932e-001
1.538916e+003, 2.936826e-001
1.540845e+003, 2.938918e-001
1.542773e+003, 2.940980e-001
1.544702e+003, 2.945436e-001
1.546630e+003, 2.948717e-001
1.548559e+003, 2.948467e-001
1.550487e+003, 2.950979e-001
1.552416e+003, 2.953739e-001
1.554344e+003, 2.955184e-001
1.556273e+003, 2.958407e-001
1.558201e+003, 2.961320e-001
1.560130e+003, 2.964236e-001
1.562058e+003, 2.966374e-001
1.563986e+003, 2.967503e-001
1.565915e+003, 2.971216e-001
1.567843e+003, 2.974611e-001
1.569772e+003, 2.976336e-001
1.571700e+003, 2.980256e-001
1.573629e+003, 2.983972e-001
1.575557e+003, 2.986837e-001
1.577486e+003, 2.987981e-001
1.579414e+003, 2.989323e-001
1.581343e+003, 2.994191e-001
1.583271e+003, 2.999291e-001
1.585200e+003, 3.001866e-001
1.587128e+003, 3.008074e-001
1.589057e+003, 3.013517e-001
1.590985e+003, 3.015646e-001
1.592913e+003, 3.019470e-001
1.594842e+003, 3.024436e-001
1.596770e+003, 3.029509e-001
1.598699e+003, 3.031230e-001
1.600627e+003, 3.032459e-001
1.602556e+003, 3.036638e-001
1.604484e+003, 3.040960e-001
1.606413e+003, 3.045920e-001
1.608341e+003, 3.052813e-001
1.610270e+003, 3.056920e-001
1.612198e+003, 3.059230e-001
1.614127e+003, 3.065162e-001
1.616055e+003, 3.066568e-001
1.617984e+003, 3.067943e-001
1.619912e+003, 3.070406e-001
1.621840e+003, 3.073701e-001
1.623769e+003, 3.078081e-001
1.625697e+003, 3.083338e-001
1.627626e+003, 3.086701e-001
1.629554e+003, 3.088745e-001
1.631483e+003, 3.091129e-001
1.633411e+003, 3.094987e-001
1.635340e+003, 3.098285e-001
1.637268e+003, 3.098286e-001
1.639197e+003, 3.100581e-001
1.641125e+003, 3.101820e-001
1.643054e+003, 3.103053e-001
1.644982e+003, 3.105006e-001
1.646911e+003, 3.105496e-001
1.648839e+003, 3.103568e-001
1.650767e+003, 3.104317e-001
1.652696e+003, 3.102322e-001
1.654624e+003, 3.098433e-001
1.656553e+003, 3.099126e-001
1.658481e+003, 3.100063e-001
1.660410e+003, 3.098649e-001
1.662338e+003, 3.094345e-001
1.664267e+003, 3.091121e-001
1.666195e+003, 3.089883e-001
1.668124e+003, 3.087887e-001
1.670052e+003, 3.085295e-001
1.671981e+003, 3.085047e-001
1.673909e+003, 3.084665e-001
1.675838e+003, 3.085001e-001
1.677766e+003, 3.086007e-001
1.679694e+003, 3.083062e-001
1.681623e+003, 3.082349e-001
1.683551e+003, 3.082118e-001
1.685480e+003, 3.076714e-001
1.687408e+003, 3.076378e-001
1.689337e+003, 3.080716e-001
1.691265e+003, 3.081785e-001
1.693194e+003, 3.080975e-001
1.695122e+003, 3.078041e-001
1.697051e+003, 3.076310e-001
1.698979e+003, 3.076008e-001
1.700908e+003, 3.072797e-001
1.702836e+003, 3.072978e-001
1.704765e+003, 3.072038e-001
1.706693e+003, 3.069709e-001
1.708621e+003, 3.071165e-001
1.710550e+003, 3.071935e-001
1.712478e+003, 3.069998e-001
1.714407e+003, 3.071067e-001
1.716335e+003, 3.069343e-001
1.718264e+003, 3.066023e-001
1.720192e+003, 3.069783e-001
1.722121e+003, 3.071732e-001
1.724049e+003, 3.069704e-001
1.725978e+003, 3.069640e-001
1.727906e+003, 3.071718e-001
1.729835e+003, 3.067136e-001
1.731763e+003, 3.064508e-001
1.733692e+003, 3.065509e-001
1.735620e+003, 3.061089e-001
1.737548e+003, 3.056418e-001
1.739477e+003, 3.053090e-001
1.741405e+003, 3.050295e-001
1.743334e+003, 3.050434e-001
1.745262e+003, 3.052801e-001
1.747191e+003, 3.052081e-001
1.749119e+003, 3.049237e-001
1.751048e+003, 3.046943e-001
1.752976e+003, 3.043725e-001
1.754905e+003, 3.043226e-001
1.756833e+003, 3.048145e-001
1.758762e+003, 3.051109e-001
1.760690e+003, 3.050961e-001
1.762619e+003, 3.048762e-001
1.764547e+003, 3.045655e-001
1.766475e+003, 3.045096e-001
1.768404e+003, 3.044490e-001
1.770332e+003, 3.046465e-001
1.772261e+003, 3.045110e-001
1.774189e+003, 3.041750e-001
1.776118e+003, 3.044057e-001
1.778046e+003, 3.045560e-001
1.779975e+003, 3.044481e-001
1.781903e+003, 3.046489e-001
1.783832e+003, 3.048288e-001
1.785760e+003, 3.047097e-001
1.787689e+003, 3.043945e-001
1.789617e+003, 3.042267e-001
1.791546e+003, 3.042210e-001
1.793474e+003, 3.042895e-001
1.795402e+003, 3.045473e-001
1.797331e+003, 3.048497e-001
1.799259e+003, 3.048009e-001
1.801188e+003, 3.043828e-001
1.803116e+003, 3.041644e-001
1.805045e+003, 3.045227e-001
1.806973e+003, 3.045506e-001
1.808902e+003, 3.042966e-001
1.810830e+003, 3.045122e-001
1.812759e+003, 3.046384e-001
1.814687e+003, 3.044643e-001
1.816616e+003, 3.043738e-001
1.818544e+003, 3.050460e-001
1.820473e+003, 3.052772e-001
1.822401e+003, 3.051795e-001
1.824329e+003, 3.051775e-001
1.826258e+003, 3.052048e-001
1.828186e+003, 3.053733e-001
1.830115e+003, 3.056488e-001
1.832043e+003, 3.054879e-001
1.833972e+003, 3.051646e-001
1.835900e+003, 3.050806e-001
1.837829e+003, 3.051999e-001
1.839757e+003, 3.050271e-001
1.841686e+003, 3.051290e-001
1.843614e+003, 3.059307e-001
1.845543e+003, 3.057655e-001
1.847471e+003, 3.056256e-001
1.849400e+003, 3.053834e-001
1.851328e+003, 3.049193e-001
1.853256e+003, 3.053970e-001
1.855185e+003, 3.060706e-001
1.857113e+003, 3.063924e-001
1.859042e+003, 3.061780e-001
1.860970e+003, 3.066542e-001
1.862899e+003, 3.061391e-001
1.864827e+003, 3.054589e-001
1.866756e+003, 3.060888e-001
1.868684e+003, 3.069087e-001
1.870613e+003, 3.067499e-001
1.872541e+003, 3.065187e-001
1.874470e+003, 3.065751e-001
1.876398e+003, 3.062704e-001
1.878327e+003, 3.061063e-001
1.880255e+003, 3.065445e-001
1.882183e+003, 3.073254e-001
1.884112e+003, 3.072253e-001
1.886040e+003, 3.070286e-001
1.887969e+003, 3.062812e-001
1.889897e+003, 3.060859e-001
1.891826e+003, 3.072110e-001
1.893754e+003, 3.074604e-001
1.895683e+003, 3.069532e-001
1.897611e+003, 3.068949e-001
1.899540e+003, 3.062729e-001
1.901468e+003, 3.053058e-001
1.903397e+003, 3.057930e-001
1.905325e+003, 3.062977e-001
1.907254e+003, 3.069078e-001
1.909182e+003, 3.071638e-001
1.911110e+003, 3.071013e-001
1.913039e+003, 3.071847e-001
1.914967e+003, 3.071258e-001
1.916896e+003, 3.062240e-001
1.918824e+003, 3.062122e-001
1.920753e+003, 3.063132e-001
1.922681e+003, 3.062212e-001
1.924610e+003, 3.062667e-001
1.926538e+003, 3.060090e-001
1.928467e+003, 3.065197e-001
1.930395e+003, 3.065633e-001
1.932324e+003, 3.054046e-001
1.934252e+003, 3.044290e-001
1.936181e+003, 3.035226e-001
1.938109e+003, 3.039266e-001
1.940037e+003, 3.041569e-001
1.941966e+003, 3.036623e-001
1.943894e+003, 3.044435e-001
1.945823e+003, 3.057345e-001
1.947751e+003, 3.054672e-001
1.949680e+003, 3.033722e-001
1.951608e+003, 3.007566e-001
1.953537e+003, 3.009405e-001
1.955465e+003, 3.014114e-001
1.957394e+003, 3.014402e-001
1.959322e+003, 3.009292e-001
1.961251e+003, 2.983854e-001
1.963179e+003, 2.979322e-001
1.965108e+003, 2.990052e-001
1.967036e+003, 2.997286e-001
1.968964e+003, 2.987559e-001
1.970893e+003, 2.953466e-001
1.972821e+003, 2.951216e-001
1.974750e+003, 2.965954e-001
1.976678e+003, 2.979540e-001
1.978607e+003, 2.994326e-001
1.980535e+003, 3.002413e-001
1.982464e+003, 3.001194e-001
1.984392e+003, 3.010498e-001
1.986321e+003, 3.013564e-001
1.988249e+003, 3.016900e-001
1.990178e+003, 3.015232e-001
1.992106e+003, 3.011129e-001
1.994035e+003, 3.019112e-001
1.995963e+003, 3.034395e-001
1.997891e+003, 3.036048e-001
1.999820e+003, 3.029584e-001
2.001748e+003, 3.012673e-001
2.003677e+003, 2.990032e-001
2.005605e+003, 2.985135e-001
2.007534e+003, 3.008984e-001
2.009462e+003, 3.018027e-001
2.011391e+003, 3.007624e-001
2.013319e+003, 2.995976e-001
2.015248e+003, 2.993059e-001
2.017176e+003, 2.988401e-001
2.019105e+003, 3.020402e-001
2.021033e+003, 3.017947e-001
2.022962e+003, 2.986984e-001
2.024890e+003, 2.983739e-001
2.026818e+003, 2.981938e-001
2.028747e+003, 2.990663e-001
2.030675e+003, 3.005557e-001
2.032604e+003, 3.008246e-001
2.034532e+003, 3.012561e-001
2.036461e+003, 3.019559e-001
2.038389e+003, 3.028566e-001
2.040318e+003, 3.034632e-001
2.042246e+003, 3.034556e-001
2.044175e+003, 3.042863e-001
2.046103e+003, 3.055266e-001
2.048032e+003, 3.068067e-001
2.049960e+003, 3.091488e-001
2.051889e+003, 3.097012e-001
2.053817e+003, 3.098997e-001
2.055746e+003, 3.109508e-001
2.057674e+003, 3.113613e-001
2.059603e+003, 3.115691e-001
2.061531e+003, 3.121920e-001
2.063459e+003, 3.114407e-001
2.065388e+003, 3.121091e-001
2.067316e+003, 3.130268e-001
2.069245e+003, 3.123808e-001
2.071173e+003, 3.128127e-001
2.073102e+003, 3.135619e-001
2.075030e+003, 3.141505e-001
2.076959e+003, 3.144832e-001
2.078887e+003, 3.151141e-001
2.080816e+003, 3.159880e-001
2.082744e+003, 3.160646e-001
2.084673e+003, 3.163850e-001
2.086601e+003, 3.167199e-001
2.088530e+003, 3.163508e-001
2.090458e+003, 3.162833e-001
2.092386e+003, 3.160455e-001
2.094315e+003, 3.156672e-001
2.096243e+003, 3.154065e-001
2.098172e+003, 3.165282e-001
2.100100e+003, 3.169286e-001
2.102029e+003, 3.174360e-001
2.103957e+003, 3.182561e-001
2.105886e+003, 3.177783e-001
2.107814e+003, 3.176850e-001
2.109743e+003, 3.180934e-001
2.111671e+003, 3.186428e-001
2.113600e+003, 3.191843e-001
2.115528e+003, 3.195868e-001
2.117457e+003, 3.189834e-001
2.119385e+003, 3.173797e-001
2.121313e+003, 3.178123e-001
2.123242e+003, 3.185952e-001
2.125170e+003, 3.177037e-001
2.127099e+003, 3.165383e-001
2.129027e+003, 3.145396e-001
2.130956e+003, 3.128193e-001
2.132884e+003, 3.132200e-001
2.134813e+003, 3.143981e-001
2.136741e+003, 3.140739e-001
2.138670e+003, 3.124833e-001
2.140598e+003, 3.114603e-001
2.142527e+003, 3.118429e-001
2.144455e+003, 3.111435e-001
2.146384e+003, 3.105744e-001
2.148312e+003, 3.095429e-001
2.150240e+003, 3.068410e-001
2.152169e+003, 3.062242e-001
2.154097e+003, 3.054345e-001
2.156026e+003, 3.005064e-001
2.157954e+003, 2.976079e-001
2.159883e+003, 3.016255e-001
2.161811e+003, 3.058394e-001
2.163740e+003, 3.081164e-001
2.165668e+003, 3.084461e-001
2.167597e+003, 3.090963e-001
2.169525e+003, 3.098641e-001
2.171454e+003, 3.087495e-001
2.173382e+003, 3.073663e-001
2.175311e+003, 3.062157e-001
2.177239e+003, 3.082095e-001
2.179167e+003, 3.111201e-001
2.181096e+003, 3.107937e-001
2.183024e+003, 3.092358e-001
2.184953e+003, 3.097942e-001
2.186881e+003, 3.114849e-001
2.188810e+003, 3.138684e-001
2.190738e+003, 3.143514e-001
2.192667e+003, 3.127140e-001
2.194595e+003, 3.120402e-001
2.196524e+003, 3.132337e-001
2.198452e+003, 3.130342e-001
2.200381e+003, 3.128316e-001
2.202309e+003, 3.131410e-001
2.204238e+003, 3.131987e-001
2.206166e+003, 3.138198e-001
2.208094e+003, 3.150584e-001
2.210023e+003, 3.168498e-001
2.211951e+003, 3.181738e-001
2.213880e+003, 3.193509e-001
2.215808e+003, 3.190286e-001
2.217737e+003, 3.183438e-001
2.219665e+003, 3.191349e-001
2.221594e+003, 3.189143e-001
2.223522e+003, 3.195212e-001
2.225451e+003, 3.196576e-001
2.227379e+003, 3.197561e-001
2.229308e+003, 3.206114e-001
2.231236e+003, 3.221450e-001
2.233165e+003, 3.228309e-001
2.235093e+003, 3.227735e-001
2.237021e+003, 3.235229e-001
2.238950e+003, 3.240715e-001
2.240878e+003, 3.238216e-001
2.242807e+003, 3.238802e-001
2.244735e+003, 3.234960e-001
2.246664e+003, 3.231767e-001
2.248592e+003, 3.233700e-001
2.250521e+003, 3.229055e-001
2.252449e+003, 3.226316e-001
2.254378e+003, 3.239030e-001
2.256306e+003, 3.245153e-001
2.258235e+003, 3.256060e-001
2.260163e+003, 3.257709e-001
2.262092e+003, 3.254688e-001
2.264020e+003, 3.261319e-001
2.265948e+003, 3.261580e-001
2.267877e+003, 3.260136e-001
2.269805e+003, 3.260551e-001
2.271734e+003, 3.267569e-001
2.273662e+003, 3.283345e-001
2.275591e+003, 3.289867e-001
2.277519e+003, 3.294669e-001
2.279448e+003, 3.298754e-001
2.281376e+003, 3.300287e-001
2.283305e+003, 3.308420e-001
2.285233e+003, 3.319603e-001
2.287162e+003, 3.322388e-001
2.289090e+003, 3.327519e-001
2.291019e+003, 3.333446e-001
2.292947e+003, 3.331975e-001
2.294875e+003, 3.334667e-001
2.296804e+003, 3.339794e-001
2.298732e+003, 3.340892e-001
2.300661e+003, 3.339292e-001
2.302589e+003, 3.339658e-001
2.304518e+003, 3.344475e-001
2.306446e+003, 3.353638e-001
2.308375e+003, 3.356694e-001
2.310303e+003, 3.354984e-001
2.312232e+003, 3.364516e-001
2.314160e+003, 3.369604e-001
2.316089e+003, 3.369921e-001
2.318017e+003, 3.375689e-001
2.319946e+003, 3.381737e-001
2.321874e+003, 3.384690e-001
2.323802e+003, 3.395889e-001
2.325731e+003, 3.394569e-001
2.327659e+003, 3.384948e-001
2.329588e+003, 3.385504e-001
2.331516e+003, 3.393616e-001
2.333445e+003, 3.396816e-001
2.335373e+003, 3.392839e-001
2.337302e+003, 3.392582e-001
2.339230e+003, 3.393877e-001
2.341159e+003, 3.394566e-001
2.343087e+003, 3.391873e-001
2.345016e+003, 3.394843e-001
2.346944e+003, 3.392377e-001
2.348873e+003, 3.389706e-001
2.350801e+003, 3.395091e-001
2.352729e+003, 3.402682e-001
2.354658e+003, 3.404832e-001
2.356586e+003, 3.406728e-001
2.358515e+003, 3.408144e-001
2.360443e+003, 3.409562e-001
2.362372e+003, 3.407535e-001
2.364300e+003, 3.405568e-001
2.366229e+003, 3.401627e-001
2.368157e+003, 3.398553e-001
2.370086e+003, 3.403059e-001
2.372014e+003, 3.408650e-001
2.373942e+003, 3.411142e-001
2.375871e+003, 3.406928e-001
2.377799e+003, 3.408415e-001
2.379728e+003, 3.413386e-001
2.381656e+003, 3.408612e-001
2.383585e+003, 3.401259e-001
2.385513e+003, 3.403769e-001
2.387442e+003, 3.400968e-001
2.389370e+003, 3.396433e-001
2.391299e+003, 3.397597e-001
2.393227e+003, 3.401013e-001
2.395156e+003, 3.403502e-001
2.397084e+003, 3.406504e-001
2.399012e+003, 3.401802e-001
2.400941e+003, 3.408037e-001
2.402869e+003, 3.419569e-001
2.404798e+003, 3.418123e-001
2.406726e+003, 3.416868e-001
2.408655e+003, 3.420561e-001
2.410583e+003, 3.423409e-001
2.412512e+003, 3.417479e-001
2.414440e+003, 3.413468e-001
2.416369e+003, 3.410282e-001
2.418297e+003, 3.416160e-001
2.420226e+003, 3.413752e-001
2.422154e+003, 3.406402e-001
2.424083e+003, 3.408460e-001
2.426011e+003, 3.418548e-001
2.427939e+003, 3.427388e-001
2.429868e+003, 3.433887e-001
2.431796e+003, 3.434577e-001
2.433725e+003, 3.427804e-001
2.435653e+003, 3.424393e-001
2.437582e+003, 3.427841e-001
2.439510e+003, 3.430793e-001
2.441439e+003, 3.437988e-001
2.443367e+003, 3.442960e-001
2.445296e+003, 3.443093e-001
2.447224e+003, 3.436816e-001
2.449153e+003, 3.431515e-001
2.451081e+003, 3.438667e-001
2.453010e+003, 3.443516e-001
2.454938e+003, 3.448893e-001
2.456866e+003, 3.449509e-001
2.458795e+003, 3.450187e-001
2.460723e+003, 3.449616e-001
2.462652e+003, 3.446563e-001
2.464580e+003, 3.446112e-001
2.466509e+003, 3.450981e-001
2.468437e+003, 3.453202e-001
2.470366e+003, 3.455343e-001
2.472294e+003, 3.449586e-001
2.474223e+003, 3.440227e-001
2.476151e+003, 3.446800e-001
2.478080e+003, 3.464177e-001
2.480008e+003, 3.468416e-001
2.481937e+003, 3.463466e-001
2.483865e+003, 3.465714e-001
2.485793e+003, 3.468454e-001
2.487722e+003, 3.464670e-001
2.489650e+003, 3.463393e-001
2.491579e+003, 3.461243e-001
2.493507e+003, 3.464734e-001
2.495436e+003, 3.467826e-001
2.497364e+003, 3.461202e-001
2.499293e+003, 3.457468e-001
2.501221e+003, 3.464565e-001
2.503150e+003, 3.472205e-001
2.505078e+003, 3.473822e-001
2.507007e+003, 3.472430e-001
2.508935e+003, 3.470055e-001
2.510864e+003, 3.478103e-001
2.512792e+003, 3.489150e-001
2.514720e+003, 3.489754e-001
2.516649e+003, 3.479566e-001
2.518577e+003, 3.472498e-001
2.520506e+003, 3.471981e-001
2.522434e+003, 3.483523e-001
2.524363e+003, 3.492630e-001
2.526291e+003, 3.492912e-001
2.528220e+003, 3.480594e-001
2.530148e+003, 3.486405e-001
2.532077e+003, 3.488765e-001
2.534005e+003, 3.487866e-001
2.535934e+003, 3.491660e-001
2.537862e+003, 3.491853e-001
2.539791e+003, 3.500636e-001
2.541719e+003, 3.499960e-001
2.543647e+003, 3.484538e-001
2.545576e+003, 3.484719e-001
2.547504e+003, 3.501833e-001
2.549433e+003, 3.518468e-001
2.551361e+003, 3.515834e-001
2.553290e+003, 3.499898e-001
2.555218e+003, 3.500780e-001
2.557147e+003, 3.511736e-001
2.559075e+003, 3.513787e-001
2.561004e+003, 3.511325e-001
2.562932e+003, 3.513451e-001
2.564861e+003, 3.513568e-001
2.566789e+003, 3.516712e-001
2.568718e+003, 3.520057e-001
2.570646e+003, 3.519438e-001
2.572574e+003, 3.517373e-001
2.574503e+003, 3.517303e-001
2.576431e+003, 3.516872e-001
2.578360e+003, 3.515575e-001
2.580288e+003, 3.517999e-001
2.582217e+003, 3.527951e-001
2.584145e+003, 3.535064e-001
2.586074e+003, 3.539124e-001
2.588002e+003, 3.537017e-001
2.589931e+003, 3.539519e-001
2.591859e+003, 3.545558e-001
2.593788e+003, 3.540991e-001
2.595716e+003, 3.537228e-001
2.597645e+003, 3.541681e-001
2.599573e+003, 3.540633e-001
2.601501e+003, 3.544506e-001
2.603430e+003, 3.547445e-001
2.605358e+003, 3.545106e-001
2.607287e+003, 3.553124e-001
2.609215e+003, 3.561791e-001
2.611144e+003, 3.564336e-001
2.613072e+003, 3.568407e-001
2.615001e+003, 3.574831e-001
2.616929e+003, 3.569368e-001
2.618858e+003, 3.571138e-001
2.620786e+003, 3.575924e-001
2.622715e+003, 3.573699e-001
2.624643e+003, 3.581758e-001
2.626572e+003, 3.590729e-001
2.628500e+003, 3.591442e-001
2.630428e+003, 3.590623e-001
2.632357e+003, 3.590118e-001
2.634285e+003, 3.592747e-001
2.636214e+003, 3.602659e-001
2.638142e+003, 3.610662e-001
2.640071e+003, 3.607045e-001
2.641999e+003, 3.604357e-001
2.643928e+003, 3.607278e-001
2.645856e+003, 3.611176e-001
2.647785e+003, 3.617312e-001
2.649713e+003, 3.622280e-001
2.651642e+003, 3.630730e-001
2.653570e+003, 3.631408e-001
2.655499e+003, 3.629422e-001
2.657427e+003, 3.628232e-001
2.659355e+003, 3.628826e-001
2.661284e+003, 3.630281e-001
2.663212e+003, 3.630874e-001
2.665141e+003, 3.631369e-001
2.667069e+003, 3.630360e-001
2.668998e+003, 3.629287e-001
2.670926e+003, 3.626931e-001
2.672855e+003, 3.624204e-001
2.674783e+003, 3.631103e-001
2.676712e+003, 3.638628e-001
2.678640e+003, 3.640946e-001
2.680569e+003, 3.641391e-001
2.682497e+003, 3.645827e-001
2.684426e+003, 3.648711e-001
2.686354e+003, 3.646921e-001
2.688282e+003, 3.648977e-001
2.690211e+003, 3.652565e-001
2.692139e+003, 3.649240e-001
2.694068e+003, 3.653925e-001
2.695996e+003, 3.657788e-001
2.697925e+003, 3.658075e-001
2.699853e+003, 3.654305e-001
2.701782e+003, 3.654870e-001
2.703710e+003, 3.658293e-001
2.705639e+003, 3.658469e-001
2.707567e+003, 3.660673e-001
2.709496e+003, 3.667415e-001
2.711424e+003, 3.671044e-001
2.713353e+003, 3.669430e-001
2.715281e+003, 3.671854e-001
2.717209e+003, 3.671767e-001
2.719138e+003, 3.673754e-001
2.721066e+003, 3.677919e-001
2.722995e+003, 3.676390e-001
2.724923e+003, 3.680960e-001
2.726852e+003, 3.682912e-001
2.728780e+003, 3.681160e-001
2.730709e+003, 3.683421e-001
2.732637e+003, 3.686003e-001
2.734566e+003, 3.689672e-001
2.736494e+003, 3.695436e-001
2.738423e+003, 3.694418e-001
2.740351e+003, 3.692442e-001
2.742280e+003, 3.689271e-001
2.744208e+003, 3.690065e-001
2.746136e+003, 3.693409e-001
2.748065e+003, 3.697937e-001
2.749993e+003, 3.702457e-001
2.751922e+003, 3.706277e-001
2.753850e+003, 3.709325e-001
2.755779e+003, 3.709102e-001
2.757707e+003, 3.704434e-001
2.759636e+003, 3.702330e-001
2.761564e+003, 3.703968e-001
2.763493e+003, 3.705893e-001
2.765421e+003, 3.705178e-001
2.767350e+003, 3.707172e-001
2.769278e+003, 3.714780e-001
2.771207e+003, 3.714780e-001
2.773135e+003, 3.716692e-001
2.775063e+003, 3.722305e-001
2.776992e+003, 3.722280e-001
2.778920e+003, 3.723944e-001
2.780849e+003, 3.727575e-001
2.782777e+003, 3.731631e-001
2.784706e+003, 3.734549e-001
2.786634e+003, 3.734588e-001
2.788563e+003, 3.730634e-001
2.790491e+003, 3.729298e-001
2.792420e+003, 3.734264e-001
2.794348e+003, 3.736953e-001
2.796277e+003, 3.739790e-001
2.798205e+003, 3.741672e-001
2.800134e+003, 3.741163e-001
2.802062e+003, 3.740022e-001
2.803990e+003, 3.739070e-001
2.805919e+003, 3.738971e-001
2.807847e+003, 3.741092e-001
2.809776e+003, 3.742908e-001
2.811704e+003, 3.746164e-001
2.813633e+003, 3.752132e-001
2.815561e+003, 3.757246e-001
2.817490e+003, 3.755669e-001
2.819418e+003, 3.750503e-001
2.821347e+003, 3.756166e-001
2.823275e+003, 3.767157e-001
2.825204e+003, 3.766172e-001
2.827132e+003, 3.761017e-001
2.829061e+003, 3.765653e-001
2.830989e+003, 3.774321e-001
2.832917e+003, 3.778850e-001
2.834846e+003, 3.775537e-001
2.836774e+003, 3.772850e-001
2.838703e+003, 3.771324e-001
2.840631e+003, 3.776161e-001
2.842560e+003, 3.780956e-001
2.844488e+003, 3.782433e-001
2.846417e+003, 3.786753e-001
2.848345e+003, 3.778140e-001
2.850274e+003, 3.770446e-001
2.852202e+003, 3.772170e-001
2.854131e+003, 3.776765e-001
2.856059e+003, 3.775709e-001
2.857988e+003, 3.777033e-001
2.859916e+003, 3.778372e-001
2.861844e+003, 3.779868e-001
2.863773e+003, 3.781463e-001
2.865701e+003, 3.775834e-001
2.867630e+003, 3.781778e-001
2.869558e+003, 3.793840e-001
2.871487e+003, 3.793667e-001
2.873415e+003, 3.793078e-001
2.875344e+003, 3.794186e-001
2.877272e+003, 3.802756e-001
2.879201e+003, 3.806208e-001
2.881129e+003, 3.802946e-001
2.883058e+003, 3.801609e-001
2.884986e+003, 3.806498e-001
2.886915e+003, 3.811421e-001
2.888843e+003, 3.814814e-001
2.890771e+003, 3.811754e-001
2.892700e+003, 3.812433e-001
2.894628e+003, 3.812510e-001
2.896557e+003, 3.811763e-001
2.898485e+003, 3.813034e-001
2.900414e+003, 3.817861e-001
2.902342e+003, 3.815088e-001
2.904271e+003, 3.808995e-001
2.906199e+003, 3.809775e-001
2.908128e+003, 3.818416e-001
2.910056e+003, 3.826390e-001
2.911985e+003, 3.819481e-001
2.913913e+003, 3.816056e-001
2.915842e+003, 3.813657e-001
2.917770e+003, 3.812684e-001
2.919698e+003, 3.811876e-001
2.921627e+003, 3.809921e-001
2.923555e+003, 3.807557e-001
2.925484e+003, 3.802980e-001
2.927412e+003, 3.809381e-001
2.929341e+003, 3.819189e-001
2.931269e+003, 3.823190e-001
2.933198e+003, 3.820444e-001
2.935126e+003, 3.822358e-001
2.937055e+003, 3.827186e-001
2.938983e+003, 3.824046e-001
2.940912e+003, 3.820488e-001
2.942840e+003, 3.830237e-001
2.944769e+003, 3.838730e-001
2.946697e+003, 3.844330e-001
2.948625e+003, 3.845300e-001
2.950554e+003, 3.843697e-001
2.952482e+003, 3.846743e-001
2.954411e+003, 3.847021e-001
2.956339e+003, 3.844607e-001
2.958268e+003, 3.847529e-001
2.960196e+003, 3.850490e-001
2.962125e+003, 3.851703e-001
2.964053e+003, 3.853701e-001
2.965982e+003, 3.859525e-001
2.967910e+003, 3.864709e-001
2.969839e+003, 3.862806e-001
2.971767e+003, 3.861552e-001
2.973696e+003, 3.865045e-001
2.975624e+003, 3.871298e-001
2.977552e+003, 3.867706e-001
2.979481e+003, 3.865515e-001
2.981409e+003, 3.871245e-001
2.983338e+003, 3.875530e-001
2.985266e+003, 3.874568e-001
2.987195e+003, 3.878022e-001
2.989123e+003, 3.878120e-001
2.991052e+003, 3.878187e-001
2.992980e+003, 3.876080e-001
2.994909e+003, 3.880415e-001
2.996837e+003, 3.889479e-001
2.998766e+003, 3.892221e-001
3.000694e+003, 3.887238e-001
3.002623e+003, 3.889925e-001
3.004551e+003, 3.891762e-001
3.006479e+003, 3.890215e-001
3.008408e+003, 3.888378e-001
3.010336e+003, 3.884457e-001
3.012265e+003, 3.886881e-001
3.014193e+003, 3.891360e-001
3.016122e+003, 3.890468e-001
3.018050e+003, 3.895159e-001
3.019979e+003, 3.902165e-001
3.021907e+003, 3.900052e-001
3.023836e+003, 3.906084e-001
3.025764e+003, 3.915760e-001
3.027693e+003, 3.913622e-001
3.029621e+003, 3.917814e-001
3.031550e+003, 3.927499e-001
3.033478e+003, 3.920245e-001
3.035406e+003, 3.909456e-001
3.037335e+003, 3.913720e-001
3.039263e+003, 3.915606e-001
3.041192e+003, 3.926479e-001
3.043120e+003, 3.931307e-001
3.045049e+003, 3.924031e-001
3.046977e+003, 3.922685e-001
3.048906e+003, 3.923028e-001
3.050834e+003, 3.924491e-001
3.052763e+003, 3.928366e-001
3.054691e+003, 3.930677e-001
3.056620e+003, 3.926674e-001
3.058548e+003, 3.925681e-001
3.060477e+003, 3.927711e-001
3.062405e+003, 3.931424e-001
3.064333e+003, 3.937893e-001
3.066262e+003, 3.936909e-001
3.068190e+003, 3.939182e-001
3.070119e+003, 3.939472e-001
3.072047e+003, 3.940921e-001
3.073976e+003, 3.939224e-001
3.075904e+003, 3.941095e-001
3.077833e+003, 3.942020e-001
3.079761e+003, 3.937718e-001
3.081690e+003, 3.940915e-001
3.083618e+003, 3.948554e-001
3.085547e+003, 3.953906e-001
3.087475e+003, 3.954728e-001
3.089404e+003, 3.947934e-001
3.091332e+003, 3.943462e-001
3.093260e+003, 3.944943e-001
3.095189e+003, 3.950866e-001
3.097117e+003, 3.957411e-001
3.099046e+003, 3.953488e-001
3.100974e+003, 3.943864e-001
3.102903e+003, 3.947254e-001
3.104831e+003, 3.954726e-001
3.106760e+003, 3.954657e-001
3.108688e+003, 3.953666e-001
3.110617e+003, 3.962640e-001
3.112545e+003, 3.969773e-001
3.114474e+003, 3.972706e-001
3.116402e+003, 3.972795e-001
3.118331e+003, 3.962741e-001
3.120259e+003, 3.957959e-001
3.122188e+003, 3.960848e-001
3.124116e+003, 3.963861e-001
3.126044e+003, 3.973051e-001
3.127973e+003, 3.978328e-001
3.129901e+003, 3.974076e-001
3.131830e+003, 3.974485e-001
3.133758e+003, 3.983179e-001
3.135687e+003, 3.988104e-001
3.137615e+003, 3.988042e-001
3.139544e+003, 3.980980e-001
3.141472e+003, 3.976560e-001
3.143401e+003, 3.980200e-001
3.145329e+003, 3.982112e-001
3.147258e+003, 3.979995e-001
3.149186e+003, 3.982116e-001
3.151115e+003, 3.992265e-001
3.153043e+003, 4.001268e-001
3.154971e+003, 3.993881e-001
3.156900e+003, 3.987077e-001
3.158828e+003, 3.988326e-001
3.160757e+003, 3.993404e-001
3.162685e+003, 3.994587e-001
3.164614e+003, 3.993717e-001
3.166542e+003, 3.999219e-001
3.168471e+003, 3.998875e-001
3.170399e+003, 3.992421e-001
3.172328e+003, 3.993849e-001
3.174256e+003, 3.996877e-001
3.176185e+003, 3.996667e-001
3.178113e+003, 3.996982e-001
3.180042e+003, 4.006674e-001
3.181970e+003, 4.010781e-001
3.183898e+003, 4.003655e-001
3.185827e+003, 3.998170e-001
3.187755e+003, 4.011717e-001
3.189684e+003, 4.028946e-001
3.191612e+003, 4.024543e-001
3.193541e+003, 4.019799e-001
3.195469e+003, 4.018383e-001
3.197398e+003, 4.026283e-001
3.199326e+003, 4.028067e-001
3.201255e+003, 4.025641e-001
3.203183e+003, 4.015849e-001
3.205112e+003, 4.010552e-001
3.207040e+003, 4.016711e-001
3.208969e+003, 4.019575e-001
3.210897e+003, 4.026457e-001
3.212825e+003, 4.036989e-001
3.214754e+003, 4.041775e-001
3.216682e+003, 4.036370e-001
3.218611e+003, 4.041676e-001
3.220539e+003, 4.030180e-001
3.222468e+003, 4.019607e-001
3.224396e+003, 4.033432e-001
3.226325e+003, 4.040703e-001
3.228253e+003, 4.032355e-001
3.230182e+003, 4.025021e-001
3.232110e+003, 4.014358e-001
3.234039e+003, 4.009694e-001
3.235967e+003, 4.021417e-001
3.237896e+003, 4.019462e-001
3.239824e+003, 4.018657e-001
3.241752e+003, 4.022320e-001
3.243681e+003, 4.024962e-001
3.245609e+003, 4.015706e-001
3.247538e+003, 4.009660e-001
3.249466e+003, 4.007632e-001
3.251395e+003, 4.006366e-001
3.253323e+003, 4.006408e-001
3.255252e+003, 4.003810e-001
3.257180e+003, 3.998917e-001
3.259109e+003, 3.991151e-001
3.261037e+003, 3.991079e-001
3.262966e+003, 3.985545e-001
3.264894e+003, 3.980267e-001
3.266823e+003, 3.981003e-001
3.268751e+003, 3.983459e-001
3.270679e+003, 3.975867e-001
3.272608e+003, 3.961505e-001
3.274536e+003, 3.955500e-001
3.276465e+003, 3.967445e-001
3.278393e+003, 3.959941e-001
3.280322e+003, 3.940773e-001
3.282250e+003, 3.944494e-001
3.284179e+003, 3.955619e-001
3.286107e+003, 3.956606e-001
3.288036e+003, 3.943360e-001
3.289964e+003, 3.937034e-001
3.291893e+003, 3.938106e-001
3.293821e+003, 3.940127e-001
3.295750e+003, 3.933055e-001
3.297678e+003, 3.922641e-001
3.299606e+003, 3.920005e-001
3.301535e+003, 3.919453e-001
3.303463e+003, 3.919018e-001
3.305392e+003, 3.913803e-001
3.307320e+003, 3.917863e-001
3.309249e+003, 3.910047e-001
3.311177e+003, 3.897157e-001
3.313106e+003, 3.900643e-001
3.315034e+003, 3.900462e-001
3.316963e+003, 3.899266e-001
3.318891e+003, 3.898006e-001
3.320820e+003, 3.897270e-001
3.322748e+003, 3.886969e-001
3.324677e+003, 3.876088e-001
3.326605e+003, 3.873295e-001
3.328533e+003, 3.875487e-001
3.330462e+003, 3.867859e-001
3.332390e+003, 3.859837e-001
3.334319e+003, 3.864089e-001
3.336247e+003, 3.870552e-001
3.338176e+003, 3.864453e-001
3.340104e+003, 3.857160e-001
3.342033e+003, 3.850804e-001
3.343961e+003, 3.838526e-001
3.345890e+003, 3.824948e-001
3.347818e+003, 3.821934e-001
3.349747e+003, 3.831506e-001
3.351675e+003, 3.825725e-001
3.353604e+003, 3.818800e-001
3.355532e+003, 3.826827e-001
3.357460e+003, 3.823749e-001
3.359389e+003, 3.815164e-001
3.361317e+003, 3.809014e-001
3.363246e+003, 3.803765e-001
3.365174e+003, 3.795582e-001
3.367103e+003, 3.792789e-001
3.369031e+003, 3.794411e-001
3.370960e+003, 3.790241e-001
3.372888e+003, 3.790258e-001
3.374817e+003, 3.778867e-001
3.376745e+003, 3.774071e-001
3.378674e+003, 3.778049e-001
3.380602e+003, 3.760331e-001
3.382531e+003, 3.748325e-001
3.384459e+003, 3.746662e-001
3.386387e+003, 3.743028e-001
3.388316e+003, 3.736733e-001
3.390244e+003, 3.735369e-001
3.392173e+003, 3.738599e-001
3.394101e+003, 3.741842e-001
3.396030e+003, 3.740893e-001
3.397958e+003, 3.731928e-001
3.399887e+003, 3.722658e-001
3.401815e+003, 3.725044e-001
3.403744e+003, 3.724652e-001
3.405672e+003, 3.718861e-001
3.407601e+003, 3.707382e-001
3.409529e+003, 3.699547e-001
3.411458e+003, 3.698463e-001
3.413386e+003, 3.693039e-001
3.415314e+003, 3.689204e-001
3.417243e+003, 3.681107e-001
3.419171e+003, 3.668350e-001
3.421100e+003, 3.661898e-001
3.423028e+003, 3.662311e-001
3.424957e+003, 3.660147e-001
3.426885e+003, 3.661591e-001
3.428814e+003, 3.662644e-001
3.430742e+003, 3.659866e-001
3.432671e+003, 3.652667e-001
3.434599e+003, 3.635434e-001
3.436528e+003, 3.635508e-001
3.438456e+003, 3.641106e-001
3.440385e+003, 3.640422e-001
3.442313e+003, 3.630742e-001
3.444241e+003, 3.616403e-001
3.446170e+003, 3.614862e-001
3.448098e+003, 3.618443e-001
3.450027e+003, 3.624174e-001
3.451955e+003, 3.631530e-001
3.453884e+003, 3.619110e-001
3.455812e+003, 3.605958e-001
3.457741e+003, 3.605633e-001
3.459669e+003, 3.603051e-001
3.461598e+003, 3.604875e-001
3.463526e+003, 3.605430e-001
3.465455e+003, 3.590216e-001
3.467383e+003, 3.580420e-001
3.469312e+003, 3.568483e-001
3.471240e+003, 3.561223e-001
3.473168e+003, 3.572214e-001
3.475097e+003, 3.569320e-001
3.477025e+003, 3.567096e-001
3.478954e+003, 3.569576e-001
3.480882e+003, 3.574961e-001
3.482811e+003, 3.577799e-001
3.484739e+003, 3.559660e-001
3.486668e+003, 3.553469e-001
3.488596e+003, 3.542821e-001
3.490525e+003, 3.543063e-001
3.492453e+003, 3.566577e-001
3.494382e+003, 3.568194e-001
3.496310e+003, 3.544020e-001
3.498239e+003, 3.531211e-001
3.500167e+003, 3.539740e-001
3.502095e+003, 3.549218e-001
3.504024e+003, 3.546101e-001
3.505952e+003, 3.536239e-001
3.507881e+003, 3.533953e-001
3.509809e+003, 3.536970e-001
3.511738e+003, 3.551552e-001
3.513666e+003, 3.548664e-001
3.515595e+003, 3.532913e-001
3.517523e+003, 3.535135e-001
3.519452e+003, 3.538207e-001
3.521380e+003, 3.539311e-001
3.523309e+003, 3.538966e-001
3.525237e+003, 3.532580e-001
3.527166e+003, 3.526049e-001
3.529094e+003, 3.518876e-001
3.531022e+003, 3.518948e-001
3.532951e+003, 3.529935e-001
3.534879e+003, 3.529586e-001
3.536808e+003, 3.527263e-001
3.538736e+003, 3.528137e-001
3.540665e+003, 3.532627e-001
3.542593e+003, 3.535338e-001
3.544522e+003, 3.530590e-001
3.546450e+003, 3.532959e-001
3.548379e+003, 3.538264e-001
3.550307e+003, 3.536098e-001
3.552236e+003, 3.528948e-001
3.554164e+003, 3.524533e-001
3.556093e+003, 3.531038e-001
3.558021e+003, 3.528839e-001
3.559949e+003, 3.526559e-001
3.561878e+003, 3.525169e-001
3.563806e+003, 3.532743e-001
3.565735e+003, 3.540449e-001
3.567663e+003, 3.535684e-001
3.569592e+003, 3.538117e-001
3.571520e+003, 3.538684e-001
3.573449e+003, 3.537195e-001
3.575377e+003, 3.540312e-001
3.577306e+003, 3.535950e-001
3.579234e+003, 3.523451e-001
3.581163e+003, 3.511804e-001
3.583091e+003, 3.512718e-001
3.585020e+003, 3.518030e-001
3.586948e+003, 3.529949e-001
3.588876e+003, 3.536152e-001
3.590805e+003, 3.543258e-001
3.592733e+003, 3.542789e-001
3.594662e+003, 3.540313e-001
3.596590e+003, 3.543410e-001
3.598519e+003, 3.538146e-001
3.600447e+003, 3.525770e-001
3.602376e+003, 3.529724e-001
3.604304e+003, 3.533815e-001
3.606233e+003, 3.524782e-001
3.608161e+003, 3.529753e-001
3.610090e+003, 3.549262e-001
3.612018e+003, 3.545985e-001
3.613947e+003, 3.535321e-001
3.615875e+003, 3.545272e-001
3.617803e+003, 3.549331e-001
3.619732e+003, 3.548114e-001
3.621660e+003, 3.541877e-001
3.623589e+003, 3.548728e-001
3.625517e+003, 3.561271e-001
3.627446e+003, 3.545968e-001
3.629374e+003, 3.534873e-001
3.631303e+003, 3.544717e-001
3.633231e+003, 3.540250e-001
3.635160e+003, 3.542663e-001
3.637088e+003, 3.560473e-001
3.639017e+003, 3.557253e-001
3.640945e+003, 3.551753e-001
3.642874e+003, 3.555774e-001
3.644802e+003, 3.556728e-001
3.646730e+003, 3.565479e-001
3.648659e+003, 3.574035e-001
3.650587e+003, 3.562760e-001
3.652516e+003, 3.550372e-001
3.654444e+003, 3.555443e-001
3.656373e+003, 3.581021e-001
3.658301e+003, 3.605903e-001
3.660230e+003, 3.586075e-001
3.662158e+003, 3.575113e-001
3.664087e+003, 3.597245e-001
3.666015e+003, 3.592398e-001
3.667944e+003, 3.566927e-001
3.669872e+003, 3.569472e-001
3.671801e+003, 3.585863e-001
3.673729e+003, 3.592879e-001
3.675657e+003, 3.587831e-001
3.677586e+003, 3.582723e-001
3.679514e+003, 3.581371e-001
3.681443e+003, 3.592009e-001
3.683371e+003, 3.617945e-001
3.685300e+003, 3.626252e-001
3.687228e+003, 3.602018e-001
3.689157e+003, 3.592151e-001
3.691085e+003, 3.602753e-001
3.693014e+003, 3.594423e-001
3.694942e+003, 3.586959e-001
3.696871e+003, 3.591155e-001
3.698799e+003, 3.599228e-001
3.700728e+003, 3.612475e-001
3.702656e+003, 3.616072e-001
3.704584e+003, 3.627724e-001
3.706513e+003, 3.616333e-001
3.708441e+003, 3.603266e-001
3.710370e+003, 3.604857e-001
3.712298e+003, 3.611173e-001
3.714227e+003, 3.615301e-001
3.716155e+003, 3.622388e-001
3.718084e+003, 3.619677e-001
3.720012e+003, 3.608402e-001
3.721941e+003, 3.613434e-001
3.723869e+003, 3.630806e-001
3.725798e+003, 3.648397e-001
3.727726e+003, 3.651564e-001
3.729655e+003, 3.643613e-001
3.731583e+003, 3.638578e-001
3.733511e+003, 3.648987e-001
3.735440e+003, 3.644798e-001
3.737368e+003, 3.640870e-001
3.739297e+003, 3.633935e-001
3.741225e+003, 3.631343e-001
3.743154e+003, 3.636437e-001
3.745082e+003, 3.631853e-001
3.747011e+003, 3.634738e-001
3.748939e+003, 3.652941e-001
3.750868e+003, 3.672477e-001
3.752796e+003, 3.664798e-001
3.754725e+003, 3.649768e-001
3.756653e+003, 3.662839e-001
3.758582e+003, 3.670934e-001
3.760510e+003, 3.664913e-001
3.762438e+003, 3.655261e-001
3.764367e+003, 3.651094e-001
3.766295e+003, 3.664334e-001
3.768224e+003, 3.662511e-001
3.770152e+003, 3.649195e-001
3.772081e+003, 3.661745e-001
3.774009e+003, 3.663964e-001
3.775938e+003, 3.666508e-001
3.777866e+003, 3.665973e-001
3.779795e+003, 3.665656e-001
3.781723e+003, 3.669651e-001
3.783652e+003, 3.688629e-001
3.785580e+003, 3.695722e-001
3.787509e+003, 3.683788e-001
3.789437e+003, 3.682786e-001
3.791365e+003, 3.692443e-001
3.793294e+003, 3.685269e-001
3.795222e+003, 3.676086e-001
3.797151e+003, 3.685573e-001
3.799079e+003, 3.691798e-001
3.801008e+003, 3.679303e-001
3.802936e+003, 3.679075e-001
3.804865e+003, 3.686181e-001
3.806793e+003, 3.690923e-001
3.808722e+003, 3.682938e-001
3.810650e+003, 3.673519e-001
3.812579e+003, 3.677667e-001
3.814507e+003, 3.692365e-001
3.816436e+003, 3.704930e-001
3.818364e+003, 3.717846e-001
3.820292e+003, 3.710376e-001
3.822221e+003, 3.690375e-001
3.824149e+003, 3.694369e-001
3.826078e+003, 3.704334e-001
3.828006e+003, 3.705571e-001
3.829935e+003, 3.699978e-001
3.831863e+003, 3.701083e-001
3.833792e+003, 3.697490e-001
3.835720e+003, 3.695658e-001
3.837649e+003, 3.706616e-001
3.839577e+003, 3.720704e-001
3.841506e+003, 3.710689e-001
3.843434e+003, 3.704177e-001
3.845363e+003, 3.700746e-001
3.847291e+003, 3.712627e-001
3.849219e+003, 3.724169e-001
3.851148e+003, 3.726625e-001
3.853076e+003, 3.728791e-001
3.855005e+003, 3.717290e-001
3.856933e+003, 3.720324e-001
3.858862e+003, 3.726145e-001
3.860790e+003, 3.725209e-001
3.862719e+003, 3.722249e-001
3.864647e+003, 3.723135e-001
3.866576e+003, 3.728651e-001
3.868504e+003, 3.732624e-001
3.870433e+003, 3.713020e-001
3.872361e+003, 3.718620e-001
3.874290e+003, 3.725075e-001
3.876218e+003, 3.708088e-001
3.878146e+003, 3.715782e-001
3.880075e+003, 3.725452e-001
3.882003e+003, 3.713862e-001
3.883932e+003, 3.710762e-001
3.885860e+003, 3.720753e-001
3.887789e+003, 3.723928e-001
3.889717e+003, 3.728613e-001
3.891646e+003, 3.733554e-001
3.893574e+003, 3.739896e-001
3.895503e+003, 3.742215e-001
3.897431e+003, 3.738542e-001
3.899360e+003, 3.738557e-001
3.901288e+003, 3.739081e-001
3.903217e+003, 3.740411e-001
3.905145e+003, 3.736249e-001
3.907073e+003, 3.742542e-001
3.909002e+003, 3.744058e-001
3.910930e+003, 3.738284e-001
3.912859e+003, 3.744682e-001
3.914787e+003, 3.743151e-001
3.916716e+003, 3.738601e-001
3.918644e+003, 3.740956e-001
3.920573e+003, 3.747313e-001
3.922501e+003, 3.767447e-001
3.924430e+003, 3.771619e-001
3.926358e+003, 3.755592e-001
3.928287e+003, 3.757365e-001
3.930215e+003, 3.766876e-001
3.932144e+003, 3.761002e-001
3.934072e+003, 3.752051e-001
3.936000e+003, 3.750857e-001
3.937929e+003, 3.748430e-001
3.939857e+003, 3.752228e-001
3.941786e+003, 3.761360e-001
3.943714e+003, 3.764743e-001
3.945643e+003, 3.771204e-001
3.947571e+003, 3.761682e-001
3.949500e+003, 3.772514e-001
3.951428e+003, 3.782158e-001
3.953357e+003, 3.771557e-001
3.955285e+003, 3.769113e-001
3.957214e+003, 3.778518e-001
3.959142e+003, 3.769612e-001
3.961071e+003, 3.764023e-001
3.962999e+003, 3.759331e-001
3.964927e+003, 3.750294e-001
3.966856e+003, 3.758650e-001
3.968784e+003, 3.758994e-001
3.970713e+003, 3.753171e-001
3.972641e+003, 3.772987e-001
3.974570e+003, 3.773161e-001
3.976498e+003, 3.762791e-001
3.978427e+003, 3.771743e-001
3.980355e+003, 3.791401e-001
3.982284e+003, 3.796503e-001
3.984212e+003, 3.787661e-001
3.986141e+003, 3.777483e-001
3.988069e+003, 3.792594e-001
3.989998e+003, 3.797698e-001
3.991926e+003, 3.774990e-001
3.993854e+003, 3.766941e-001
3.995783e+003, 3.788529e-001
3.997711e+003, 3.804226e-001
3.999640e+003, 3.806061e-001
##END=



