##NAMES=Pyrope
##RRUFFID=R050446
##IDEAL CHEMISTRY=Mg_3_Al_2_(SiO_4_)_3_
##LOCALITY=Sunset Crater, Arizona, USA
##OWNER=RRUFF
##SOURCE=Marcus Origlieri
##DESCRIPTION=Red fragment
##STATUS=The identification of this mineral has been confirmed by X-ray diffraction and chemical analysis
##URL=rruff.info/R050446
##MEASURED CHEMISTRY=(Mg_1.93_Fe^2+^_0.65_Ca_0.42_)_Î£=3_Al_2.00_(Si_1.00_O_4_)_3_
399.1926, 0.2237830
401.1211, 0.2157040
403.0496, 0.2167411
404.9780, 0.2179751
406.9065, 0.2274029
408.8350, 0.2334901
410.7634, 0.2437436
412.6919, 0.2510566
414.6204, 0.2649327
416.5488, 0.2757547
418.4773, 0.2804482
420.4058, 0.2880308
422.3342, 0.2966152
424.2627, 0.2994183
426.1912, 0.3034799
428.1196, 0.3150836
430.0481, 0.3334908
431.9766, 0.3418821
433.9050, 0.3384406
435.8335, 0.3436767
437.7620, 0.3560619
439.6904, 0.3637705
441.6189, 0.3630567
443.5474, 0.3524389
445.4758, 0.3442495
447.4043, 0.3454924
449.3328, 0.3421211
451.2612, 0.3380357
453.1897, 0.3325311
455.1182, 0.3235712
457.0466, 0.3100284
458.9751, 0.2935916
460.9036, 0.2829558
462.8320, 0.2753684
464.7605, 0.2650166
466.6890, 0.2568131
468.6174, 0.2528597
470.5459, 0.2562372
472.4744, 0.2665546
474.4028, 0.2736796
476.3313, 0.2716086
478.2598, 0.2656066
480.1882, 0.2584360
482.1167, 0.2485342
484.0452, 0.2371031
485.9736, 0.2259734
487.9021, 0.2140836
489.8306, 0.2059871
491.7590, 0.2000242
493.6875, 0.1938419
495.6160, 0.1874098
497.5444, 0.1811916
499.4729, 0.1752288
501.4014, 0.1695333
503.3298, 0.1634225
505.2583, 0.1561517
507.1868, 0.1496216
509.1152, 0.1445813
511.0437, 0.1400764
512.9722, 0.1342302
514.9006, 0.1294359
516.8291, 0.1259233
518.7576, 0.1237584
520.6860, 0.1228528
522.6145, 0.1229574
524.5430, 0.1252988
526.4714, 0.1284371
528.3999, 0.1287441
530.3284, 0.1266419
532.2568, 0.1223806
534.1853, 0.1160331
536.1138, 0.1095793
538.0422, 0.1033707
539.9707, 9.7327411E-02
541.8992, 9.0675890E-02
543.8276, 8.5036643E-02
545.7561, 8.0926090E-02
547.6846, 7.7814557E-02
549.6130, 7.6160237E-02
551.5415, 7.5866237E-02
553.4700, 7.7592440E-02
555.3984, 8.3413072E-02
557.3269, 9.2667930E-02
559.2554, 0.1068801
561.1838, 0.1257112
563.1123, 0.1472225
565.0408, 0.1694460
566.9692, 0.1873128
568.8977, 0.1969925
570.8262, 0.1972925
572.7546, 0.1896119
574.6831, 0.1772084
576.6116, 0.1638557
578.5400, 0.1510240
580.4685, 0.1383554
582.3970, 0.1271033
584.3254, 0.1174671
586.2539, 0.1083164
588.1824, 0.1003828
590.1108, 9.3334787E-02
592.0393, 8.6061247E-02
593.9678, 7.9477347E-02
595.8962, 7.3372044E-02
597.8247, 6.7348182E-02
599.7532, 6.2207401E-02
601.6816, 5.7830941E-02
603.6101, 5.3441789E-02
605.5386, 4.9591530E-02
607.4670, 4.6120338E-02
609.3955, 4.3622069E-02
611.3240, 4.1619770E-02
613.2524, 3.9440110E-02
615.1809, 3.8095359E-02
617.1094, 3.7435342E-02
619.0378, 3.6699880E-02
620.9663, 3.5430491E-02
622.8948, 3.4360379E-02
624.8232, 3.3728398E-02
626.7517, 3.3265401E-02
628.6802, 3.2834161E-02
630.6086, 3.2643389E-02
632.5371, 3.3005361E-02
634.4656, 3.3349641E-02
636.3940, 3.3723839E-02
638.3225, 3.4073491E-02
640.2510, 3.4308609E-02
642.1794, 3.5038751E-02
644.1079, 3.5521049E-02
646.0364, 3.5810560E-02
647.9648, 3.6213480E-02
649.8933, 3.6442421E-02
651.8218, 3.6555290E-02
653.7502, 3.6446851E-02
655.6787, 3.5774969E-02
657.6072, 3.5152439E-02
659.5356, 3.4738291E-02
661.4641, 3.4198672E-02
663.3926, 3.3882260E-02
665.3210, 3.3453729E-02
667.2495, 3.3166450E-02
669.1780, 3.3074301E-02
671.1064, 3.3353359E-02
673.0349, 3.3660039E-02
674.9634, 3.3223551E-02
676.8918, 3.2997958E-02
678.8203, 3.3441059E-02
680.7488, 3.3914629E-02
682.6772, 3.4140982E-02
684.6057, 3.4207899E-02
686.5342, 3.4518529E-02
688.4626, 3.4894619E-02
690.3911, 3.4874849E-02
692.3196, 3.5212580E-02
694.2480, 3.5548989E-02
696.1765, 3.5596769E-02
698.1050, 3.5885721E-02
700.0334, 3.6300272E-02
701.9619, 3.6839079E-02
703.8904, 3.7255190E-02
705.8188, 3.7482481E-02
707.7473, 3.7891220E-02
709.6758, 3.8534280E-02
711.6042, 3.9105639E-02
713.5327, 3.9471641E-02
715.4612, 4.0030770E-02
717.3896, 4.0545449E-02
719.3181, 4.1642569E-02
721.2466, 4.2237669E-02
723.1750, 4.2578660E-02
725.1035, 4.3506019E-02
727.0320, 4.4543479E-02
728.9604, 4.5448370E-02
730.8889, 4.6368409E-02
732.8174, 4.7284961E-02
734.7458, 4.8311930E-02
736.6743, 4.9117949E-02
738.6028, 4.9942609E-02
740.5313, 5.1217340E-02
742.4597, 5.2612491E-02
744.3882, 5.3859171E-02
746.3167, 5.5370148E-02
748.2451, 5.6952249E-02
750.1736, 5.8366660E-02
752.1021, 5.9920430E-02
754.0305, 6.1705612E-02
755.9590, 6.3490801E-02
757.8875, 6.5536924E-02
759.8159, 6.7696162E-02
761.7444, 7.0416987E-02
763.6729, 7.2835661E-02
765.6013, 7.5314321E-02
767.5298, 7.8073733E-02
769.4583, 8.1129692E-02
771.3867, 8.4419154E-02
773.3152, 8.7721743E-02
775.2437, 9.1384888E-02
777.1721, 9.5362537E-02
779.1006, 9.9362537E-02
781.0291, 0.1040361
782.9575, 0.1090213
784.8860, 0.1139951
786.8145, 0.1192152
788.7429, 0.1247388
790.6714, 0.1305994
792.5999, 0.1367752
794.5283, 0.1432695
796.4568, 0.1499574
798.3853, 0.1571532
800.3137, 0.1645630
802.2422, 0.1720748
804.1707, 0.1799353
806.0991, 0.1876142
808.0276, 0.1948995
809.9561, 0.2014337
811.8845, 0.2075507
813.8130, 0.2139896
815.7415, 0.2207181
817.6699, 0.2278556
819.5984, 0.2353105
821.5269, 0.2430080
823.4553, 0.2517411
825.3838, 0.2610093
827.3123, 0.2708751
829.2407, 0.2811830
831.1692, 0.2919514
833.0977, 0.3020384
835.0261, 0.3110281
836.9546, 0.3200606
838.8831, 0.3290015
840.8115, 0.3367700
842.7400, 0.3431013
844.6685, 0.3491344
846.5969, 0.3555984
848.5254, 0.3613729
850.4539, 0.3666161
852.3823, 0.3716394
854.3108, 0.3755808
856.2393, 0.3784966
858.1677, 0.3805606
860.0962, 0.3816917
862.0247, 0.3817039
863.9531, 0.3794433
865.8816, 0.3746662
867.8101, 0.3693068
869.7385, 0.3620884
871.6670, 0.3517340
873.5955, 0.3400362
875.5239, 0.3274298
877.4524, 0.3143973
879.3809, 0.3025935
881.3093, 0.2941939
883.2378, 0.2902079
885.1663, 0.2915114
887.0947, 0.2969144
889.0232, 0.3045118
890.9517, 0.3120432
892.8801, 0.3164211
894.8085, 0.3165097
896.7370, 0.3124678
898.6655, 0.3038761
900.5939, 0.2924444
902.5224, 0.2794577
904.4509, 0.2657047
906.3793, 0.2519646
908.3078, 0.2387831
910.2363, 0.2263940
912.1647, 0.2146344
914.0932, 0.2033131
916.0217, 0.1921832
917.9501, 0.1814158
919.8786, 0.1712048
921.8071, 0.1612889
923.7355, 0.1522737
925.6640, 0.1444027
927.5925, 0.1372387
929.5209, 0.1315626
931.4494, 0.1280305
933.3779, 0.1258926
935.3063, 0.1254189
937.2348, 0.1272352
939.1633, 0.1315037
941.0917, 0.1384692
943.0202, 0.1490099
944.9487, 0.1645841
946.8771, 0.1851373
948.8056, 0.2095532
950.7341, 0.2361441
952.6625, 0.2611904
954.5910, 0.2825357
956.5195, 0.2996405
958.4479, 0.3109771
960.3764, 0.3160025
962.3049, 0.3152775
964.2333, 0.3081942
966.1618, 0.2960704
968.0903, 0.2815261
970.0187, 0.2664353
971.9472, 0.2515341
973.8757, 0.2374918
975.8041, 0.2242201
977.7326, 0.2119973
979.6611, 0.2008858
981.5895, 0.1904417
983.5180, 0.1806922
985.4465, 0.1716773
987.3749, 0.1631233
989.3034, 0.1552076
991.2319, 0.1477540
993.1603, 0.1406999
995.0888, 0.1341317
997.0173, 0.1278540
998.9457, 0.1214960
1000.874, 0.1153349
1002.803, 0.1098032
1004.731, 0.1043722
1006.660, 9.8905466E-02
1008.588, 9.3536012E-02
1010.517, 8.8255674E-02
1012.445, 8.3335690E-02
1014.373, 7.8265652E-02
1016.302, 7.3364541E-02
1018.230, 6.8769567E-02
1020.159, 6.4004406E-02
1022.087, 5.9541062E-02
1024.016, 5.5563711E-02
1025.944, 5.1698741E-02
1027.873, 4.7893740E-02
1029.801, 4.4388581E-02
1031.730, 4.1477889E-02
1033.658, 3.8750499E-02
1035.587, 3.6146920E-02
1037.515, 3.3855341E-02
1039.444, 3.2052342E-02
1041.372, 3.0645400E-02
1043.301, 2.9244971E-02
1045.229, 2.7987350E-02
1047.157, 2.6770920E-02
1049.086, 2.5508650E-02
1051.014, 2.4321601E-02
1052.943, 2.3142910E-02
1054.871, 2.1971369E-02
1056.800, 2.1130821E-02
1058.728, 2.0570260E-02
1060.657, 1.9927980E-02
1062.585, 1.9140329E-02
1064.514, 1.8364631E-02
1066.442, 1.7539769E-02
1068.371, 1.6917070E-02
1070.299, 1.6475299E-02
1072.228, 1.5885750E-02
1074.156, 1.5443520E-02
1076.084, 1.4729530E-02
1078.013, 1.4113490E-02
1079.941, 1.3880660E-02
1081.870, 1.3691850E-02
1083.798, 1.3564880E-02
1085.727, 1.3276730E-02
1087.655, 1.2674620E-02
1089.584, 1.2387470E-02
1091.512, 1.2512320E-02
1093.441, 1.2039750E-02
1095.369, 1.1682620E-02
1097.298, 1.1693980E-02
1099.226, 1.1310980E-02
1101.155, 1.1133640E-02
1103.083, 1.1075100E-02
1105.011, 1.0912060E-02
1106.940, 1.0667220E-02
1108.868, 1.0269150E-02
1110.797, 9.7895404E-03
1112.725, 9.5213847E-03
1114.654, 9.3131382E-03
1116.582, 8.9907590E-03
1118.511, 8.6652199E-03
1120.439, 8.3822170E-03
1122.368, 8.1320237E-03
1124.296, 7.9434998E-03
1126.225, 7.7251331E-03
1128.153, 7.5871279E-03
1130.082, 7.4329530E-03
1132.010, 7.1377009E-03
1133.938, 6.8251351E-03
1135.867, 6.8515111E-03
1137.795, 6.8007610E-03
1139.724, 6.7368681E-03
1141.652, 6.3114311E-03
1143.581, 5.7594222E-03
1145.509, 5.6888890E-03
1147.438, 5.3818780E-03
1149.366, 5.0497670E-03
1151.295, 5.0209002E-03
1153.223, 4.7898749E-03
1155.152, 4.6019289E-03
1157.080, 4.5067780E-03
1159.009, 4.6402770E-03
1160.937, 4.4273380E-03
1162.865, 3.8303109E-03
1164.794, 3.4476980E-03
1166.722, 3.3650210E-03
1168.651, 3.1609910E-03
1170.579, 2.9150050E-03
1172.508, 2.9066389E-03
1174.436, 2.8541270E-03
1176.365, 2.6795219E-03
1178.293, 2.6339160E-03
1180.222, 2.7007291E-03
1182.150, 2.5634069E-03
1184.079, 2.5676680E-03
1186.007, 2.5881610E-03
1187.936, 2.2708119E-03
1189.864, 2.0345850E-03
1191.792, 1.9548731E-03
1193.721, 1.8732779E-03
1195.649, 1.8176220E-03
1197.578, 1.8068160E-03
1199.506, 1.7395370E-03
1201.435, 1.6639740E-03
1203.363, 1.7058060E-03
1205.292, 1.6421530E-03
1207.220, 1.4601140E-03
1209.149, 1.3797320E-03
1211.077, 1.1712320E-03
1213.006, 1.1753920E-03
1214.934, 1.1451470E-03
1216.863, 1.0527440E-03
1218.791, 8.7684533E-04
1220.719, 7.7144738E-04
1222.648, 7.9526420E-04
1224.576, 6.9778232E-04
1226.505, 5.7018670E-04
1228.433, 6.3636323E-04
1230.362, 4.0403000E-04
1232.290, 2.4410110E-04
1234.219, 3.4620319E-04
1236.147, 4.6819661E-04
1238.076, 4.1280329E-04
1240.004, 2.9545079E-04
1241.933, 3.1752640E-04
1243.861, 1.9011310E-04
1245.790, 7.7773417E-05
1247.718, 7.2229181E-05
1249.646, -8.2811667E-08
1251.575, 1.5221520E-04
1253.503, 3.4076549E-04
1255.432, 4.4502551E-04
1257.360, 3.0333779E-04
1259.289, 2.4928219E-04
1261.217, 3.5001300E-04
1263.146, 3.0808360E-04
1265.074, 2.2153420E-04
1267.003, 4.0854199E-04
1268.931, 6.8188412E-04
1270.860, 7.4506889E-04
1272.788, 8.8139297E-04
1274.717, 1.3277330E-03
1276.645, 1.2328190E-03
1278.573, 1.0493801E-03
1280.502, 1.0091360E-03
1282.430, 9.6749258E-04
1284.359, 9.3787111E-04
1286.287, 9.0999377E-04
1288.216, 9.6604222E-04
1290.144, 9.5087389E-04
1292.073, 8.9316082E-04
1294.001, 8.5412821E-04
1295.930, 1.0587210E-03
1297.858, 1.1312180E-03
1299.787, 8.7601988E-04
1301.715, 9.3326392E-04
1303.644, 1.0013670E-03
1305.572, 1.0308441E-03
1307.500, 1.3395590E-03
1309.429, 1.4311729E-03
1311.357, 1.1985410E-03
1313.286, 1.2399860E-03
1315.214, 1.4062600E-03
1317.143, 1.4788520E-03
1319.071, 1.5287820E-03
1321.000, 1.4227580E-03
1322.928, 1.4653950E-03
1324.857, 1.8258400E-03
1326.785, 1.9376590E-03
1328.714, 1.7266690E-03
1330.642, 1.7502690E-03
1332.571, 2.0188130E-03
1334.499, 2.1762131E-03
1336.427, 2.1106461E-03
1338.356, 2.1650989E-03
1340.284, 2.0608041E-03
1342.213, 2.0183360E-03
1344.141, 1.9316820E-03
1346.070, 1.9815310E-03
1347.998, 2.0622660E-03
1349.927, 1.9864461E-03
1351.855, 1.9171520E-03
1353.784, 2.0916429E-03
1355.712, 2.1603990E-03
1357.641, 2.4028129E-03
1359.569, 2.4724950E-03
1361.498, 2.3506661E-03
1363.426, 2.2788011E-03
1365.354, 2.3516479E-03
1367.283, 2.3660669E-03
1369.211, 2.4939941E-03
1371.140, 2.5664461E-03
1373.068, 2.4904190E-03
1374.997, 2.3483131E-03
1376.925, 2.3990599E-03
1378.854, 2.6169501E-03
1380.782, 2.8551449E-03
1382.711, 2.9923220E-03
1384.639, 3.1851069E-03
1386.568, 3.5156619E-03
1388.496, 3.8602189E-03
1390.424, 3.9816462E-03
1392.353, 3.9115241E-03
1394.281, 4.1127759E-03
1396.210, 4.3297759E-03
1398.138, 4.3347301E-03
1400.067, 4.3414570E-03
1401.995, 4.4367118E-03
1403.924, 4.2941528E-03
1405.852, 4.1170330E-03
1407.781, 4.4237282E-03
1409.709, 4.6727951E-03
1411.638, 4.4141761E-03
1413.566, 4.3741181E-03
1415.495, 4.5417030E-03
1417.423, 4.4815610E-03
1419.351, 4.3307799E-03
1421.280, 4.2103850E-03
1423.208, 4.2596860E-03
1425.137, 4.1920501E-03
1427.065, 4.2468999E-03
1428.994, 4.3444671E-03
1430.922, 4.3803141E-03
1432.851, 4.3750769E-03
1434.779, 4.2905360E-03
1436.708, 4.2055720E-03
1438.636, 4.1245050E-03
1440.565, 4.0368279E-03
1442.493, 3.9785439E-03
1444.422, 3.9658980E-03
1446.350, 3.9289962E-03
1448.278, 3.7670820E-03
1450.207, 3.0986969E-03
1452.135, 2.8886520E-03
1454.064, 2.9474739E-03
1455.992, 2.7274981E-03
1457.921, 2.6193890E-03
1459.849, 2.8722179E-03
1461.778, 2.8565510E-03
1463.706, 2.6245720E-03
1465.635, 2.7027889E-03
1467.563, 2.7649470E-03
1469.492, 3.0474309E-03
1471.420, 3.6183691E-03
1473.349, 4.2545898E-03
1475.277, 4.4902968E-03
1477.205, 4.6150158E-03
1479.134, 4.7426838E-03
1481.062, 5.0974940E-03
1482.991, 5.3731771E-03
1484.919, 5.3068399E-03
1486.848, 5.3762719E-03
1488.776, 5.5965730E-03
1490.705, 5.5674030E-03
1492.633, 5.4470641E-03
1494.562, 5.5479431E-03
1496.490, 5.7811379E-03
1498.419, 5.7031871E-03
1500.347, 5.7793362E-03
1502.276, 5.9916428E-03
1504.204, 5.9247441E-03
1506.132, 5.7600848E-03
1508.061, 5.6952261E-03
1509.989, 5.5760462E-03
1511.918, 5.4886951E-03
1513.846, 5.8035022E-03
1515.775, 6.0807629E-03
1517.703, 6.2022489E-03
1519.632, 5.9485221E-03
1521.560, 5.8828699E-03
1523.489, 6.1874720E-03
1525.417, 6.3663912E-03
1527.346, 6.4607449E-03
1529.274, 6.3615632E-03
1531.203, 6.2784660E-03
1533.131, 6.2463740E-03
1535.059, 6.2924311E-03
1536.988, 6.0540792E-03
1538.916, 6.1080889E-03
1540.845, 6.2558488E-03
1542.773, 6.2593441E-03
1544.702, 6.6442038E-03
1546.630, 6.8703769E-03
1548.559, 6.8641701E-03
1550.487, 6.5921480E-03
1552.416, 6.5252930E-03
1554.344, 6.9294102E-03
1556.273, 6.9610360E-03
1558.201, 6.6735400E-03
1560.130, 6.6930228E-03
1562.058, 6.6453670E-03
1563.986, 6.5431092E-03
1565.915, 6.6891280E-03
1567.843, 6.6189910E-03
1569.772, 6.3077221E-03
1571.700, 6.0120001E-03
1573.629, 5.8531221E-03
1575.557, 6.0645160E-03
1577.486, 6.0808510E-03
1579.414, 5.6207511E-03
1581.343, 5.7242420E-03
1583.271, 6.1083920E-03
1585.200, 6.0269162E-03
1587.128, 5.7481541E-03
1589.057, 5.5890838E-03
1590.985, 5.8241072E-03
1592.913, 5.9375730E-03
1594.842, 5.9315972E-03
1596.770, 5.9488560E-03
1598.699, 5.8165020E-03
1600.627, 5.7238350E-03
1602.556, 5.9685349E-03
1604.484, 5.7004821E-03
1606.413, 5.5912151E-03
1608.341, 5.8933399E-03
1610.270, 5.6934408E-03
1612.198, 5.4594600E-03
1614.127, 5.4253498E-03
1616.055, 5.5251941E-03
1617.984, 5.5472408E-03
1619.912, 5.4306248E-03
1621.840, 5.5298619E-03
1623.769, 5.9044580E-03
1625.697, 5.9823589E-03
1627.626, 6.0279649E-03
1629.554, 5.9960079E-03
1631.483, 5.7541658E-03
1633.411, 5.6233192E-03
1635.340, 5.6909672E-03
1637.268, 5.8400398E-03
1639.197, 5.8494378E-03
1641.125, 5.9868721E-03
1643.054, 6.1654360E-03
1644.982, 5.7789730E-03
1646.911, 5.5067819E-03
1648.839, 5.6487890E-03
1650.767, 5.4582241E-03
1652.696, 5.3998218E-03
1654.624, 5.3445352E-03
1656.553, 5.3389301E-03
1658.481, 5.4914812E-03
1660.410, 5.8042221E-03
1662.338, 5.6565092E-03
1664.267, 5.6228889E-03
1666.195, 5.5645881E-03
1668.124, 5.4008900E-03
1670.052, 5.1724100E-03
1671.981, 5.2802740E-03
1673.909, 5.1229121E-03
1675.838, 4.9345740E-03
1677.766, 5.1722829E-03
1679.694, 5.1646638E-03
1681.623, 4.9422421E-03
1683.551, 4.9498752E-03
1685.480, 4.9870880E-03
1687.408, 4.7863410E-03
1689.337, 4.7634160E-03
1691.265, 5.0580911E-03
1693.194, 4.8146099E-03
1695.122, 4.6811430E-03
1697.051, 4.8295949E-03
1698.979, 4.5748721E-03
1700.908, 4.1995919E-03
1702.836, 3.7373879E-03
1704.765, 3.4981091E-03
1706.693, 3.2295629E-03
1708.621, 2.9315711E-03
1710.550, 3.1285980E-03
1712.478, 3.3191030E-03
1714.407, 3.3554791E-03
1716.335, 3.2574621E-03
1718.264, 3.3046971E-03
1720.192, 3.5637270E-03
1722.121, 3.8179681E-03
1724.049, 3.5142640E-03
1725.978, 3.1674400E-03
1727.906, 3.2693590E-03
1729.835, 3.0404751E-03
1731.763, 1.9200990E-03
1733.692, 1.3623720E-03
1735.620, 1.2608840E-03
1737.548, 5.5318169E-04
1739.477, -1.3958130E-04
1741.405, -3.6215261E-04
1743.334, -5.6779580E-05
1745.262, 2.4922000E-04
1747.191, 6.3655223E-04
1749.119, 1.5568270E-03
1751.048, 2.2072950E-03
1752.976, 3.2021720E-03
1754.905, 4.1114269E-03
1756.833, 4.8302952E-03
1758.762, 5.4105930E-03
1760.690, 5.7457932E-03
1762.619, 5.9558279E-03
1764.547, 6.1854012E-03
1766.475, 6.5289158E-03
1768.404, 6.6992822E-03
1770.332, 6.9423658E-03
1772.261, 7.1323360E-03
1774.189, 6.9013769E-03
1776.118, 6.4788540E-03
1778.046, 6.6243280E-03
1779.975, 6.6569732E-03
1781.903, 7.0128231E-03
1783.832, 7.4121910E-03
1785.760, 7.3449379E-03
1787.689, 7.2946302E-03
1789.617, 7.3672072E-03
1791.546, 7.5401412E-03
1793.474, 7.1205492E-03
1795.402, 7.1071330E-03
1797.331, 7.3741931E-03
1799.259, 7.1340729E-03
1801.188, 6.8823001E-03
1803.116, 7.2632050E-03
1805.045, 7.6438212E-03
1806.973, 7.5064749E-03
1808.902, 7.0101582E-03
1810.830, 7.2054430E-03
1812.759, 7.2696740E-03
1814.687, 6.6604749E-03
1816.616, 6.3230200E-03
1818.544, 6.9306241E-03
1820.473, 6.9920109E-03
1822.401, 7.0705148E-03
1824.329, 7.3884339E-03
1826.258, 7.1902550E-03
1828.186, 6.8852450E-03
1830.115, 7.2163320E-03
1832.043, 6.9889911E-03
1833.972, 6.3461880E-03
1835.900, 6.4525078E-03
1837.829, 6.3788081E-03
1839.757, 6.3805250E-03
1841.686, 6.9182352E-03
1843.614, 7.0976559E-03
1845.543, 7.2645769E-03
1847.471, 7.6421411E-03
1849.400, 8.0091357E-03
1851.328, 7.6088640E-03
1853.256, 7.5487890E-03
1855.185, 7.3655560E-03
1857.113, 6.1648688E-03
1859.042, 6.1327261E-03
1860.970, 6.8774251E-03
1862.899, 7.0391400E-03
1864.827, 7.1581909E-03
1866.756, 7.0077931E-03
1868.684, 6.9324090E-03
1870.613, 7.2438079E-03
1872.541, 7.1519972E-03
1874.470, 7.4982210E-03
1876.398, 7.5308471E-03
1878.327, 6.8998891E-03
1880.255, 6.6543110E-03
1882.183, 7.4027008E-03
1884.112, 7.6699350E-03
1886.040, 7.2713941E-03
1887.969, 7.5410460E-03
1889.897, 6.9636130E-03
1891.826, 6.2146639E-03
1893.754, 6.1306572E-03
1895.683, 5.8593298E-03
1897.611, 5.2670268E-03
1899.540, 5.1664771E-03
1901.468, 4.8236079E-03
1903.397, 4.9875509E-03
1905.325, 5.7479301E-03
1907.254, 6.0805171E-03
1909.182, 5.3582890E-03
1911.110, 4.4185650E-03
1913.039, 3.9578341E-03
1914.967, 4.1352520E-03
1916.896, 4.3076910E-03
1918.824, 4.1479892E-03
1920.753, 4.5974380E-03
1922.681, 4.7421600E-03
1924.610, 3.4792579E-03
1926.538, 1.9074260E-03
1928.467, 2.1593990E-03
1930.395, 4.1604671E-03
1932.324, 4.6182438E-03
1934.252, 3.8099720E-03
1936.181, 2.2051500E-03
1938.109, 2.2567320E-03
1940.037, 4.6679000E-03
1941.966, 5.6677358E-03
1943.894, 4.3774918E-03
1945.823, 3.4078110E-03
1947.751, 3.5234259E-03
1949.680, 4.0934221E-03
1951.608, 3.4071009E-03
1953.537, 2.2297199E-03
1955.465, 1.1313170E-03
1957.394, -3.7990851E-04
1959.322, 5.5070192E-04
1961.251, 2.0850969E-03
1963.179, 2.8419979E-03
1965.108, 2.6773659E-03
1967.036, 1.8663920E-03
1968.964, 6.7889330E-04
1970.893, 1.0208470E-03
1972.821, 2.1421560E-03
1974.750, 2.4751101E-03
1976.678, 3.6695451E-03
1978.607, 3.2051301E-03
1980.535, -1.2434680E-04
1982.464, 1.5450970E-03
1984.392, 3.6645839E-03
1986.321, 5.1386962E-03
1988.249, 5.0679389E-03
1990.178, 3.3663239E-03
1992.106, 2.9264591E-03
1994.035, 5.3666472E-03
1995.963, 6.9959350E-03
1997.891, 6.1451108E-03
1999.820, 5.5579208E-03
2001.748, 4.8031099E-03
2003.677, 4.8347740E-03
2005.605, 3.0749231E-03
2007.534, 2.8582229E-03
2009.462, 3.8194770E-03
2011.391, 4.1315788E-03
2013.319, 3.2440179E-03
2015.248, 1.7857359E-03
2017.176, 3.4386290E-03
2019.105, 3.3152541E-03
2021.033, 5.9015318E-03
2022.962, 5.9340210E-03
2024.890, 3.9540660E-03
2026.818, 3.9093299E-03
2028.747, 3.3773079E-03
2030.675, 3.3140590E-03
2032.604, 4.3473840E-03
2034.532, 4.9122102E-03
2036.461, 5.3421990E-03
2038.389, 3.7388650E-03
2040.318, 6.8260352E-03
2042.246, 1.0951030E-02
2044.175, 8.2631418E-03
2046.103, 4.7663888E-03
2048.032, 5.9126010E-03
2049.960, 9.5920172E-03
2051.889, 8.4901256E-03
2053.817, 6.6374480E-03
2055.746, 7.3141130E-03
2057.674, 9.0230824E-03
2059.603, 9.8644607E-03
2061.531, 9.2930533E-03
2063.459, 9.2057940E-03
2065.388, 9.9698082E-03
2067.316, 1.0974510E-02
2069.245, 1.1057210E-02
2071.173, 1.0139590E-02
2073.102, 9.8993201E-03
2075.030, 9.7795893E-03
2076.959, 9.8942891E-03
2078.887, 9.7488156E-03
2080.816, 9.7059384E-03
2082.744, 9.6689658E-03
2084.673, 1.0078470E-02
2086.601, 1.0550100E-02
2088.530, 1.0478850E-02
2090.458, 9.3596950E-03
2092.386, 7.9783164E-03
2094.315, 7.9366677E-03
2096.243, 8.9738239E-03
2098.172, 1.0996510E-02
2100.100, 1.0899080E-02
2102.029, 9.9112689E-03
2103.957, 1.0664300E-02
2105.886, 1.1726910E-02
2107.814, 1.0509830E-02
2109.743, 1.0128360E-02
2111.671, 1.0004480E-02
2113.600, 8.2015730E-03
2115.528, 8.7962626E-03
2117.457, 1.1266750E-02
2119.385, 1.1962140E-02
2121.313, 9.5285960E-03
2123.242, 7.4920529E-03
2125.170, 8.1138369E-03
2127.099, 8.8980980E-03
2129.027, 7.5241318E-03
2130.956, 5.8313520E-03
2132.884, 5.8576078E-03
2134.813, 7.2129611E-03
2136.741, 8.3991000E-03
2138.670, 8.9543723E-03
2140.598, 9.5033599E-03
2142.527, 8.4708417E-03
2144.455, 7.7219359E-03
2146.384, 5.8792951E-03
2148.312, 5.1026768E-03
2150.240, 6.1033261E-03
2152.169, 6.2450431E-03
2154.097, 6.0000522E-03
2156.026, 5.7042930E-03
2157.954, 7.3577352E-03
2159.883, 1.1709790E-02
2161.811, 1.4367890E-02
2163.740, 1.3092530E-02
2165.668, 1.1982850E-02
2167.597, 1.0080090E-02
2169.525, 8.2633840E-03
2171.454, 1.0642740E-02
2173.382, 1.3535420E-02
2175.311, 1.5461040E-02
2177.239, 1.4037450E-02
2179.167, 1.0720640E-02
2181.096, 9.9418657E-03
2183.024, 1.1258580E-02
2184.953, 1.1964760E-02
2186.881, 1.1676350E-02
2188.810, 1.1714620E-02
2190.738, 1.1556080E-02
2192.667, 1.1646190E-02
2194.595, 1.0064760E-02
2196.524, 8.7749641E-03
2198.452, 8.9639779E-03
2200.381, 1.0416350E-02
2202.309, 1.1605890E-02
2204.238, 1.1622260E-02
2206.166, 1.2367230E-02
2208.094, 1.2077480E-02
2210.023, 1.2086180E-02
2211.951, 1.3611700E-02
2213.880, 1.3091590E-02
2215.808, 1.1411760E-02
2217.737, 1.0437230E-02
2219.665, 1.0001660E-02
2221.594, 1.3419910E-02
2223.522, 1.4853890E-02
2225.451, 1.3354010E-02
2227.379, 1.2447270E-02
2229.308, 1.2678350E-02
2231.236, 1.2083450E-02
2233.165, 1.3071380E-02
2235.093, 1.3337910E-02
2237.021, 1.1586490E-02
2238.950, 1.1453770E-02
2240.878, 1.2800580E-02
2242.807, 1.3703370E-02
2244.735, 1.3674870E-02
2246.664, 1.2849010E-02
2248.592, 1.1066630E-02
2250.521, 1.1849540E-02
2252.449, 1.3624540E-02
2254.378, 1.3309340E-02
2256.306, 1.3445550E-02
2258.235, 1.5026060E-02
2260.163, 1.4497980E-02
2262.092, 1.3338020E-02
2264.020, 1.2979670E-02
2265.948, 1.3173480E-02
2267.877, 1.2983730E-02
2269.805, 1.3629620E-02
2271.734, 1.3936830E-02
2273.662, 1.3343700E-02
2275.591, 1.4304680E-02
2277.519, 1.4773840E-02
2279.448, 1.4491310E-02
2281.376, 1.5190940E-02
2283.305, 1.5394320E-02
2285.233, 1.5500000E-02
2287.162, 1.5512770E-02
2289.090, 1.4540680E-02
2291.019, 1.4068540E-02
2292.947, 1.4583990E-02
2294.875, 1.3704380E-02
2296.804, 1.3492630E-02
2298.732, 1.4118150E-02
2300.661, 1.4326390E-02
2302.589, 1.3840950E-02
2304.518, 1.4403700E-02
2306.446, 1.5193910E-02
2308.375, 1.5358910E-02
2310.303, 1.5656050E-02
2312.232, 1.5553020E-02
2314.160, 1.5640991E-02
2316.089, 1.6351320E-02
2318.017, 1.6703790E-02
2319.946, 1.6272539E-02
2321.874, 1.6015811E-02
2323.802, 1.6638311E-02
2325.731, 1.6743399E-02
2327.659, 1.6196620E-02
2329.588, 1.5759841E-02
2331.516, 1.5610480E-02
2333.445, 1.5282990E-02
2335.373, 1.5313220E-02
2337.302, 1.5832080E-02
2339.230, 1.5631741E-02
2341.159, 1.5529310E-02
2343.087, 1.5732020E-02
2345.016, 1.5060100E-02
2346.944, 1.4103070E-02
2348.873, 1.4180080E-02
2350.801, 1.4431220E-02
2352.729, 1.5001730E-02
2354.658, 1.5811451E-02
2356.586, 1.5146060E-02
2358.515, 1.4931960E-02
2360.443, 1.5402410E-02
2362.372, 1.6314561E-02
2364.300, 1.6888460E-02
2366.229, 1.5915429E-02
2368.157, 1.4104210E-02
2370.086, 1.4623600E-02
2372.014, 1.5508480E-02
2373.942, 1.4568970E-02
2375.871, 1.4223340E-02
2377.799, 1.4707320E-02
2379.728, 1.4509960E-02
2381.656, 1.4040290E-02
2383.585, 1.3639690E-02
2385.513, 1.4071920E-02
2387.442, 1.4440990E-02
2389.370, 1.4197160E-02
2391.299, 1.3955230E-02
2393.227, 1.4448090E-02
2395.156, 1.4839870E-02
2397.084, 1.4327300E-02
2399.012, 1.4106110E-02
2400.941, 1.3675730E-02
2402.869, 1.4081980E-02
2404.798, 1.4993370E-02
2406.726, 1.5252080E-02
2408.655, 1.5285360E-02
2410.583, 1.6198020E-02
2412.512, 1.5713770E-02
2414.440, 1.4441420E-02
2416.369, 1.4183810E-02
2418.297, 1.4765200E-02
2420.226, 1.4921010E-02
2422.154, 1.4802100E-02
2424.083, 1.5173900E-02
2426.011, 1.4945920E-02
2427.939, 1.5083630E-02
2429.868, 1.5349720E-02
2431.796, 1.5763320E-02
2433.725, 1.4287000E-02
2435.653, 1.3541110E-02
2437.582, 1.4924800E-02
2439.510, 1.5711671E-02
2441.439, 1.4581990E-02
2443.367, 1.3989330E-02
2445.296, 1.4571920E-02
2447.224, 1.5074300E-02
2449.153, 1.4998200E-02
2451.081, 1.5448050E-02
2453.010, 1.5514790E-02
2454.938, 1.5966579E-02
2456.866, 1.5838331E-02
2458.795, 1.4276710E-02
2460.723, 1.3566610E-02
2462.652, 1.4183000E-02
2464.580, 1.4686020E-02
2466.509, 1.4577540E-02
2468.437, 1.4715800E-02
2470.366, 1.5611780E-02
2472.294, 1.6656039E-02
2474.223, 1.6176639E-02
2476.151, 1.5565350E-02
2478.080, 1.5698429E-02
2480.008, 1.5546150E-02
2481.937, 1.4415160E-02
2483.865, 1.5338400E-02
2485.793, 1.6569400E-02
2487.722, 1.5545590E-02
2489.650, 1.5219430E-02
2491.579, 1.5960800E-02
2493.507, 1.6716890E-02
2495.436, 1.6667930E-02
2497.364, 1.6633840E-02
2499.293, 1.5804419E-02
2501.221, 1.5167870E-02
2503.150, 1.4838740E-02
2505.078, 1.4692500E-02
2507.007, 1.5327720E-02
2508.935, 1.6621260E-02
2510.864, 1.6931679E-02
2512.792, 1.5454460E-02
2514.720, 1.5216950E-02
2516.649, 1.5468030E-02
2518.577, 1.5809100E-02
2520.506, 1.6551649E-02
2522.434, 1.7218210E-02
2524.363, 1.6879581E-02
2526.291, 1.5170690E-02
2528.220, 1.3549470E-02
2530.148, 1.4236900E-02
2532.077, 1.5833139E-02
2534.005, 1.6535969E-02
2535.934, 1.6952170E-02
2537.862, 1.6332900E-02
2539.791, 1.5465510E-02
2541.719, 1.5321910E-02
2543.647, 1.5199120E-02
2545.576, 1.5714770E-02
2547.504, 1.7094750E-02
2549.433, 1.6966751E-02
2551.361, 1.6393270E-02
2553.290, 1.6157029E-02
2555.218, 1.5014720E-02
2557.147, 1.4430530E-02
2559.075, 1.5696799E-02
2561.004, 1.5965641E-02
2562.932, 1.5546580E-02
2564.861, 1.6475949E-02
2566.789, 1.6391320E-02
2568.718, 1.6344300E-02
2570.646, 1.5357590E-02
2572.574, 1.5104090E-02
2574.503, 1.6342331E-02
2576.431, 1.5778320E-02
2578.360, 1.4707510E-02
2580.288, 1.6216930E-02
2582.217, 1.7600041E-02
2584.145, 1.7412109E-02
2586.074, 1.6863920E-02
2588.002, 1.6435510E-02
2589.931, 1.5923750E-02
2591.859, 1.6283460E-02
2593.788, 1.6380250E-02
2595.716, 1.6663330E-02
2597.645, 1.7239450E-02
2599.573, 1.6621569E-02
2601.501, 1.7199229E-02
2603.430, 1.8964341E-02
2605.358, 1.8411430E-02
2607.287, 1.7747920E-02
2609.215, 1.7728290E-02
2611.144, 1.6894700E-02
2613.072, 1.7532540E-02
2615.001, 1.7794270E-02
2616.929, 1.7284591E-02
2618.858, 1.7191339E-02
2620.786, 1.7027611E-02
2622.715, 1.7938031E-02
2624.643, 1.8515270E-02
2626.572, 1.7478259E-02
2628.500, 1.7246591E-02
2630.428, 1.7695369E-02
2632.357, 1.8076999E-02
2634.285, 1.8711939E-02
2636.214, 1.8623620E-02
2638.142, 1.8827120E-02
2640.071, 1.8860180E-02
2641.999, 1.7777570E-02
2643.928, 1.7646510E-02
2645.856, 1.8046800E-02
2647.785, 1.8133029E-02
2649.713, 1.8120730E-02
2651.642, 1.7471580E-02
2653.570, 1.7386889E-02
2655.499, 1.7813180E-02
2657.427, 1.8476671E-02
2659.355, 1.8080510E-02
2661.284, 1.7009079E-02
2663.212, 1.6757440E-02
2665.141, 1.7130069E-02
2667.069, 1.7240500E-02
2668.998, 1.6431579E-02
2670.926, 1.6212970E-02
2672.855, 1.7222701E-02
2674.783, 1.7554410E-02
2676.712, 1.7561041E-02
2678.640, 1.7728589E-02
2680.569, 1.7574530E-02
2682.497, 1.7058790E-02
2684.426, 1.6933599E-02
2686.354, 1.7964210E-02
2688.282, 1.8713551E-02
2690.211, 1.7300250E-02
2692.139, 1.6468290E-02
2694.068, 1.6946239E-02
2695.996, 1.6749030E-02
2697.925, 1.6950820E-02
2699.853, 1.7593350E-02
2701.782, 1.7989010E-02
2703.710, 1.8220020E-02
2705.639, 1.8306039E-02
2707.567, 1.7483620E-02
2709.496, 1.6726259E-02
2711.424, 1.7446790E-02
2713.353, 1.7548541E-02
2715.281, 1.7016510E-02
2717.209, 1.7830839E-02
2719.138, 1.7478321E-02
2721.066, 1.6913099E-02
2722.995, 1.7962789E-02
2724.923, 1.8953299E-02
2726.852, 1.8253829E-02
2728.780, 1.7358441E-02
2730.709, 1.7139820E-02
2732.637, 1.7466770E-02
2734.566, 1.8025231E-02
2736.494, 1.7499611E-02
2738.423, 1.6720770E-02
2740.351, 1.7199701E-02
2742.280, 1.8215841E-02
2744.208, 1.8156830E-02
2746.136, 1.7291950E-02
2748.065, 1.8081300E-02
2749.993, 1.8640289E-02
2751.922, 1.8949861E-02
2753.850, 1.9149769E-02
2755.779, 1.8974470E-02
2757.707, 1.9077990E-02
2759.636, 1.8805681E-02
2761.564, 1.8736839E-02
2763.493, 1.8117361E-02
2765.421, 1.8563200E-02
2767.350, 1.9407541E-02
2769.278, 1.9372201E-02
2771.207, 1.8856451E-02
2773.135, 1.8012211E-02
2775.063, 1.8132079E-02
2776.992, 1.8082559E-02
2778.920, 1.7912410E-02
2780.849, 1.8469799E-02
2782.777, 1.9372750E-02
2784.706, 1.8620780E-02
2786.634, 1.8011890E-02
2788.563, 1.8346259E-02
2790.491, 1.8566040E-02
2792.420, 1.8363180E-02
2794.348, 1.7807569E-02
2796.277, 1.7256150E-02
2798.205, 1.7553970E-02
2800.134, 1.8058371E-02
2802.062, 1.8369000E-02
2803.990, 1.9054610E-02
2805.919, 1.9526679E-02
2807.847, 1.9295171E-02
2809.776, 1.9312110E-02
2811.704, 1.8644281E-02
2813.633, 1.8092919E-02
2815.561, 1.7913880E-02
2817.490, 1.8219201E-02
2819.418, 1.8508671E-02
2821.347, 1.8341780E-02
2823.275, 1.7788120E-02
2825.204, 1.7934861E-02
2827.132, 1.8189330E-02
2829.061, 1.7143590E-02
2830.989, 1.6328489E-02
2832.917, 1.7265299E-02
2834.846, 1.6780959E-02
2836.774, 1.5729651E-02
2838.703, 1.4625470E-02
2840.631, 1.3558190E-02
2842.560, 1.2719880E-02
2844.488, 1.1131560E-02
2846.417, 9.3638077E-03
2848.345, 7.2623659E-03
2850.274, 4.7959299E-03
2852.202, 3.6153609E-03
2854.131, 4.3344740E-03
2856.059, 5.2580428E-03
2857.988, 5.8943531E-03
2859.916, 6.7539108E-03
2861.844, 7.8633921E-03
2863.773, 9.8954113E-03
2865.701, 1.1503770E-02
2867.630, 1.2362810E-02
2869.558, 1.2326760E-02
2871.487, 1.1539190E-02
2873.415, 1.1355540E-02
2875.344, 1.1599790E-02
2877.272, 1.1829770E-02
2879.201, 1.2805380E-02
2881.129, 1.3700040E-02
2883.058, 1.4041100E-02
2884.986, 1.4083740E-02
2886.915, 1.3555420E-02
2888.843, 1.2452230E-02
2890.771, 1.2287010E-02
2892.700, 1.1396160E-02
2894.628, 9.5477290E-03
2896.557, 9.6260412E-03
2898.485, 8.9917611E-03
2900.414, 8.0629895E-03
2902.342, 8.3244666E-03
2904.271, 7.5836582E-03
2906.199, 6.2661730E-03
2908.128, 6.1285691E-03
2910.056, 6.3638361E-03
2911.985, 4.1561951E-03
2913.913, 1.7257470E-03
2915.842, -1.3622450E-05
2917.770, -2.3968811E-03
2919.698, -4.1927020E-03
2921.627, -6.8102409E-03
2923.555, -9.4573880E-03
2925.484, -9.2058433E-03
2927.412, -7.3747840E-03
2929.341, -6.1589181E-03
2931.269, -3.9549880E-03
2933.198, -1.6404400E-04
2935.126, 2.3665030E-03
2937.055, 4.2822929E-03
2938.983, 5.3623980E-03
2940.912, 5.0515491E-03
2942.840, 5.2350000E-03
2944.769, 6.5679229E-03
2946.697, 8.7303463E-03
2948.625, 1.0246420E-02
2950.554, 8.9283194E-03
2952.482, 8.5384930E-03
2954.411, 8.7523134E-03
2956.339, 7.6345769E-03
2958.268, 8.3382577E-03
2960.196, 1.0970210E-02
2962.125, 1.1890050E-02
2964.053, 1.1634850E-02
2965.982, 1.2990010E-02
2967.910, 1.3272750E-02
2969.839, 1.2956310E-02
2971.767, 1.3802650E-02
2973.696, 1.5517120E-02
2975.624, 1.6170761E-02
2977.552, 1.6507961E-02
2979.481, 1.6559539E-02
2981.409, 1.6604681E-02
2983.338, 1.6702641E-02
2985.266, 1.7886071E-02
2987.195, 1.8260149E-02
2989.123, 1.9212250E-02
2991.052, 1.9789750E-02
2992.980, 1.9496139E-02
2994.909, 1.9005129E-02
2996.837, 1.9607540E-02
2998.766, 2.1110959E-02
3000.694, 2.1274600E-02
3002.623, 2.0177970E-02
3004.551, 1.8958541E-02
3006.479, 1.9458180E-02
3008.408, 1.9613629E-02
3010.336, 1.8913271E-02
3012.265, 2.0036099E-02
3014.193, 2.1443710E-02
3016.122, 2.1719040E-02
3018.050, 2.0967560E-02
3019.979, 2.0226421E-02
3021.907, 2.1348160E-02
3023.836, 2.1891840E-02
3025.764, 2.1125371E-02
3027.693, 2.1272290E-02
3029.621, 2.0971959E-02
3031.550, 2.2535820E-02
3033.478, 2.2793621E-02
3035.406, 2.1852801E-02
3037.335, 2.2928379E-02
3039.263, 2.2910049E-02
3041.192, 2.1999979E-02
3043.120, 2.1687729E-02
3045.049, 2.2720641E-02
3046.977, 2.3804860E-02
3048.906, 2.3781249E-02
3050.834, 2.3353200E-02
3052.763, 2.3747079E-02
3054.691, 2.3520051E-02
3056.620, 2.2747731E-02
3058.548, 2.2478500E-02
3060.477, 2.2244550E-02
3062.405, 2.1709030E-02
3064.333, 2.1208631E-02
3066.262, 2.2356341E-02
3068.190, 2.2655670E-02
3070.119, 2.2016549E-02
3072.047, 2.2752890E-02
3073.976, 2.4195001E-02
3075.904, 2.4973810E-02
3077.833, 2.4730969E-02
3079.761, 2.3722220E-02
3081.690, 2.3724290E-02
3083.618, 2.4032971E-02
3085.547, 2.2319900E-02
3087.475, 2.1923151E-02
3089.404, 2.3150420E-02
3091.332, 2.3716370E-02
3093.260, 2.4405541E-02
3095.189, 2.3947019E-02
3097.117, 2.2706650E-02
3099.046, 2.1676561E-02
3100.974, 2.2546429E-02
3102.903, 2.4135020E-02
3104.831, 2.4712140E-02
3106.760, 2.4019981E-02
3108.688, 2.3770999E-02
3110.617, 2.4124920E-02
3112.545, 2.4137050E-02
3114.474, 2.3051379E-02
3116.402, 2.3497090E-02
3118.331, 2.4567051E-02
3120.259, 2.5145501E-02
3122.188, 2.4661480E-02
3124.116, 2.3910360E-02
3126.044, 2.3983520E-02
3127.973, 2.3998210E-02
3129.901, 2.4163220E-02
3131.830, 2.5828650E-02
3133.758, 2.5099330E-02
3135.687, 2.4747480E-02
3137.615, 2.6509481E-02
3139.544, 2.5498031E-02
3141.472, 2.3879100E-02
3143.401, 2.3327131E-02
3145.329, 2.4465760E-02
3147.258, 2.3549050E-02
3149.186, 2.1846270E-02
3151.115, 2.3656620E-02
3153.043, 2.5106929E-02
3154.971, 2.5033919E-02
3156.900, 2.4808589E-02
3158.828, 2.3814000E-02
3160.757, 2.3323840E-02
3162.685, 2.4243200E-02
3164.614, 2.5111290E-02
3166.542, 2.5428601E-02
3168.471, 2.4652500E-02
3170.399, 2.5261290E-02
3172.328, 2.5456959E-02
3174.256, 2.4234589E-02
3176.185, 2.3911539E-02
3178.113, 2.5451681E-02
3180.042, 2.5211919E-02
3181.970, 2.3498069E-02
3183.898, 2.1923190E-02
3185.827, 2.3054739E-02
3187.755, 2.5966000E-02
3189.684, 2.5462531E-02
3191.612, 2.3158330E-02
3193.541, 2.3507860E-02
3195.469, 2.5503540E-02
3197.398, 2.4425181E-02
3199.326, 2.5209250E-02
3201.255, 2.6440769E-02
3203.183, 2.5913240E-02
3205.112, 2.5685851E-02
3207.040, 2.5415150E-02
3208.969, 2.5690010E-02
3210.897, 2.6847150E-02
3212.825, 2.6463101E-02
3214.754, 2.5543099E-02
3216.682, 2.6087809E-02
3218.611, 2.4750041E-02
3220.539, 2.2719830E-02
3222.468, 2.3720790E-02
3224.396, 2.4179811E-02
3226.325, 2.5124289E-02
3228.253, 2.6151249E-02
3230.182, 2.5130680E-02
3232.110, 2.3845250E-02
3234.039, 2.3903510E-02
3235.967, 2.3659419E-02
3237.896, 2.3219280E-02
3239.824, 2.4703929E-02
3241.752, 2.4889840E-02
3243.681, 2.5088871E-02
3245.609, 2.4040779E-02
3247.538, 2.3497820E-02
3249.466, 2.5700711E-02
3251.395, 2.5355721E-02
3253.323, 2.5225131E-02
3255.252, 2.7883850E-02
3257.180, 2.7711060E-02
3259.109, 2.5112459E-02
3261.037, 2.5152611E-02
3262.966, 2.5608100E-02
3264.894, 2.5662670E-02
3266.823, 2.4375521E-02
3268.751, 2.4556620E-02
3270.679, 2.4295701E-02
3272.608, 2.5761729E-02
3274.536, 2.5974911E-02
3276.465, 2.6039289E-02
3278.393, 2.7101140E-02
3280.322, 2.7289251E-02
3282.250, 2.5425389E-02
3284.179, 2.5513111E-02
3286.107, 2.4412850E-02
3288.036, 2.2125861E-02
3289.964, 2.1597780E-02
3291.893, 2.2497259E-02
3293.821, 2.4292320E-02
3295.750, 2.4032660E-02
3297.678, 2.4176070E-02
3299.606, 2.4450529E-02
3301.535, 2.6845200E-02
3303.463, 2.7083719E-02
3305.392, 2.5204681E-02
3307.320, 2.4341270E-02
3309.249, 2.6301630E-02
3311.177, 2.6330590E-02
3313.106, 2.5500249E-02
3315.034, 2.5262220E-02
3316.963, 2.5525579E-02
3318.891, 2.6742870E-02
3320.820, 2.6537040E-02
3322.748, 2.4912430E-02
3324.677, 2.3076881E-02
3326.605, 2.4147259E-02
3328.533, 2.5677370E-02
3330.462, 2.5185850E-02
3332.390, 2.5617210E-02
3334.319, 2.5458310E-02
3336.247, 2.5562139E-02
3338.176, 2.5115089E-02
3340.104, 2.5048411E-02
3342.033, 2.5193460E-02
3343.961, 2.5572190E-02
3345.890, 2.6689390E-02
3347.818, 2.7046129E-02
3349.747, 2.6525389E-02
3351.675, 2.6226729E-02
3353.604, 2.7620271E-02
3355.532, 2.8539071E-02
3357.460, 2.7751019E-02
3359.389, 2.5065860E-02
3361.317, 2.3442000E-02
3363.246, 2.3789890E-02
3365.174, 2.4100270E-02
3367.103, 2.4484791E-02
3369.031, 2.4642641E-02
3370.960, 2.4370980E-02
3372.888, 2.5986090E-02
3374.817, 2.7316419E-02
3376.745, 2.5122520E-02
3378.674, 2.2388021E-02
3380.602, 2.3507860E-02
3382.531, 2.6375860E-02
3384.459, 2.7610419E-02
3386.387, 2.7422650E-02
3388.316, 2.5147960E-02
3390.244, 2.5866801E-02
3392.173, 2.7718930E-02
3394.101, 2.7119780E-02
3396.030, 2.8014651E-02
3397.958, 2.8477799E-02
3399.887, 2.6146630E-02
3401.815, 2.5991101E-02
3403.744, 2.7218761E-02
3405.672, 2.6884690E-02
3407.601, 2.6456051E-02
3409.529, 2.4442500E-02
3411.458, 2.4263740E-02
3413.386, 2.4659541E-02
3415.314, 2.4634350E-02
3417.243, 2.5433719E-02
3419.171, 2.5885170E-02
3421.100, 2.4671121E-02
3423.028, 2.4774641E-02
3424.957, 2.5748940E-02
3426.885, 2.4489351E-02
3428.814, 2.3416720E-02
3430.742, 2.4999110E-02
3432.671, 2.4758959E-02
3434.599, 2.5321890E-02
3436.528, 2.8245330E-02
3438.456, 2.6521180E-02
3440.385, 2.6752010E-02
3442.313, 2.7308909E-02
3444.241, 2.6437091E-02
3446.170, 2.6031811E-02
3448.098, 2.6251471E-02
3450.027, 2.4382710E-02
3451.955, 2.2658300E-02
3453.884, 2.3947900E-02
3455.812, 2.6024260E-02
3457.741, 2.6026890E-02
3459.669, 2.6144629E-02
3461.598, 2.6994500E-02
3463.526, 2.7805081E-02
3465.455, 2.8927591E-02
3467.383, 3.0095510E-02
3469.312, 2.7240871E-02
3471.240, 2.5564531E-02
3473.168, 2.6479810E-02
3475.097, 2.6528031E-02
3477.025, 2.6612870E-02
3478.954, 2.7567670E-02
3480.882, 2.7666230E-02
3482.811, 2.7526541E-02
3484.739, 2.6697179E-02
3486.668, 2.7836230E-02
3488.596, 2.7600160E-02
3490.525, 2.5593171E-02
3492.453, 2.5648611E-02
3494.382, 2.8927941E-02
3496.310, 2.8205160E-02
3498.239, 2.7549909E-02
3500.167, 2.6259979E-02
3502.095, 2.5725210E-02
3504.024, 2.7150650E-02
3505.952, 2.7558491E-02
3507.881, 2.7372820E-02
3509.809, 2.7272429E-02
3511.738, 2.7132010E-02
3513.666, 2.6242569E-02
3515.595, 2.6313391E-02
3517.523, 2.7915901E-02
3519.452, 3.0472860E-02
3521.380, 3.1269621E-02
3523.309, 2.8482430E-02
3525.237, 2.7328581E-02
3527.166, 2.7971240E-02
3529.094, 2.6286541E-02
3531.022, 2.3872660E-02
3532.951, 2.5500709E-02
3534.879, 2.5860021E-02
3536.808, 2.3362560E-02
3538.736, 2.3594370E-02
3540.665, 2.6266640E-02
3542.593, 2.9102029E-02
3544.522, 3.0677101E-02
3546.450, 2.9508941E-02
3548.379, 2.8427711E-02
3550.307, 2.7727960E-02
3552.236, 2.6053900E-02
3554.164, 2.7658449E-02
3556.093, 3.0076761E-02
3558.021, 2.9592721E-02
3559.949, 3.0212101E-02
3561.878, 3.1949691E-02
3563.806, 3.1937812E-02
3565.735, 3.1177230E-02
3567.663, 2.6751701E-02
3569.592, 2.5759639E-02
3571.520, 2.8972000E-02
3573.449, 3.0951619E-02
3575.377, 2.8040759E-02
3577.306, 2.7298730E-02
3579.234, 2.8828930E-02
3581.163, 2.7963620E-02
3583.091, 2.7179049E-02
3585.020, 2.6824070E-02
3586.948, 2.6940560E-02
3588.876, 2.7232010E-02
3590.805, 2.5431460E-02
3592.733, 2.2856191E-02
3594.662, 2.4674840E-02
3596.590, 2.7320741E-02
3598.519, 2.7524440E-02
3600.447, 2.6115021E-02
3602.376, 2.4791701E-02
3604.304, 2.6343370E-02
3606.233, 2.7084921E-02
3608.161, 2.7810290E-02
3610.090, 2.8111679E-02
3612.018, 2.6405230E-02
3613.947, 2.8515780E-02
3615.875, 2.9098431E-02
3617.803, 2.7348550E-02
3619.732, 2.7100639E-02
3621.660, 3.1737231E-02
3623.589, 2.9700469E-02
3625.517, 2.6446370E-02
3627.446, 2.7463879E-02
3629.374, 3.0059310E-02
3631.303, 2.8331500E-02
3633.231, 2.7807970E-02
3635.160, 2.9994410E-02
3637.088, 2.9107830E-02
3639.017, 2.6111569E-02
3640.945, 2.4404230E-02
3642.874, 2.4667609E-02
3644.802, 2.5790559E-02
3646.730, 2.5089709E-02
3648.659, 2.5540540E-02
3650.587, 2.7163930E-02
3652.516, 2.5654489E-02
3654.444, 2.5095539E-02
3656.373, 2.3343910E-02
3658.301, 2.3711760E-02
3660.230, 2.6793810E-02
3662.158, 2.4501810E-02
3664.087, 2.2144491E-02
3666.015, 2.3094740E-02
3667.944, 2.2621740E-02
3669.872, 2.1087870E-02
3671.801, 2.6604351E-02
3673.729, 2.8637109E-02
3675.657, 2.4996860E-02
3677.586, 2.4289509E-02
3679.514, 2.4219191E-02
3681.443, 2.3331670E-02
3683.371, 2.5589310E-02
3685.300, 2.6285769E-02
3687.228, 2.6012041E-02
3689.157, 2.5250960E-02
3691.085, 2.6881879E-02
3693.014, 2.5605939E-02
3694.942, 2.4679011E-02
3696.871, 2.4540139E-02
3698.799, 2.3675600E-02
3700.728, 2.3780160E-02
3702.656, 2.4314960E-02
3704.584, 2.2241751E-02
3706.513, 2.3528690E-02
3708.441, 2.6043180E-02
3710.370, 2.7399801E-02
3712.298, 2.8182290E-02
3714.227, 3.0369891E-02
3716.155, 2.7491620E-02
3718.084, 2.4844831E-02
3720.012, 2.4769099E-02
3721.941, 2.6101880E-02
3723.869, 2.8951449E-02
3725.798, 3.1360291E-02
3727.726, 3.0141730E-02
3729.655, 2.5408139E-02
3731.583, 2.4284391E-02
3733.511, 2.4835110E-02
3735.440, 2.6808741E-02
3737.368, 3.1142199E-02
3739.297, 2.6356190E-02
3741.225, 2.1963339E-02
3743.154, 2.3459891E-02
3745.082, 2.2990510E-02
3747.011, 2.4085499E-02
3748.939, 2.6892491E-02
3750.868, 2.7491430E-02
3752.796, 2.6626009E-02
3754.725, 2.5043810E-02
3756.653, 2.4214691E-02
3758.582, 2.3857949E-02
3760.510, 2.3581950E-02
3762.438, 2.6139870E-02
3764.367, 2.6717739E-02
3766.295, 2.6213709E-02
3768.224, 2.4814120E-02
3770.152, 2.4049539E-02
3772.081, 2.6239630E-02
3774.009, 2.6357111E-02
3775.938, 2.6545789E-02
3777.866, 2.7269639E-02
3779.795, 2.7227780E-02
3781.723, 2.7861079E-02
3783.652, 2.7078910E-02
3785.580, 2.4647631E-02
3787.509, 2.4789499E-02
3789.437, 2.6244519E-02
3791.365, 2.4427090E-02
3793.294, 2.1327561E-02
3795.222, 2.5441760E-02
3797.151, 2.9343920E-02
3799.079, 2.9514140E-02
3801.008, 2.9708629E-02
3802.936, 2.8735621E-02
3804.865, 2.8862180E-02
3806.793, 2.8827140E-02
3808.722, 2.6166899E-02
3810.650, 2.5177719E-02
3812.579, 2.8556930E-02
3814.507, 2.8283110E-02
3816.436, 2.9804880E-02
3818.364, 3.0738510E-02
3820.292, 2.7023070E-02
3822.221, 2.6032699E-02
3824.149, 2.8245950E-02
3826.078, 2.9347969E-02
3828.006, 2.6547469E-02
3829.935, 2.3478329E-02
3831.863, 2.5482770E-02
3833.792, 2.9303189E-02
3835.720, 2.7950360E-02
3837.649, 2.6431650E-02
3839.577, 2.7661270E-02
3841.506, 2.7979961E-02
3843.434, 2.6832519E-02
3845.363, 2.9223450E-02
3847.291, 2.7875500E-02
3849.219, 2.5766430E-02
3851.148, 2.9916830E-02
3853.076, 3.0289920E-02
3855.005, 2.9188059E-02
3856.933, 2.8593130E-02
3858.862, 2.5105819E-02
3860.790, 2.2878060E-02
3862.719, 2.6847631E-02
3864.647, 2.6655329E-02
3866.576, 2.2103410E-02
3868.504, 2.2074560E-02
3870.433, 2.6686771E-02
3872.361, 2.9775860E-02
3874.290, 2.8030779E-02
3876.218, 2.5205050E-02
3878.146, 2.3824049E-02
3880.075, 2.9348319E-02
3882.003, 3.3348121E-02
3883.932, 3.2655239E-02
3885.860, 3.1493049E-02
3887.789, 3.0356480E-02
3889.717, 3.0959381E-02
3891.646, 3.0180490E-02
3893.574, 2.7247200E-02
3895.503, 2.5429631E-02
3897.431, 2.6088370E-02
3899.360, 2.4580600E-02
3901.288, 2.3820819E-02
3903.217, 2.5162561E-02
3905.145, 2.4443779E-02
3907.073, 2.9204270E-02
3909.002, 3.1445991E-02
3910.930, 2.8941371E-02
3912.859, 2.4290441E-02
3914.787, 2.3808010E-02
3916.716, 2.8837660E-02
3918.644, 2.7764950E-02
3920.573, 2.6086690E-02
3922.501, 2.7072979E-02
3924.430, 3.0648669E-02
3926.358, 3.0398970E-02
3928.287, 2.6297420E-02
3930.215, 2.4851080E-02
3932.144, 2.7418209E-02
3934.072, 2.9242299E-02
3936.000, 2.7717991E-02
3937.929, 2.7511060E-02
3939.857, 2.6038850E-02
3941.786, 2.7007580E-02
3943.714, 2.8660361E-02
3945.643, 2.9013280E-02
3947.571, 3.0321820E-02
3949.500, 3.0803690E-02
3951.428, 3.0309871E-02
3953.357, 2.7251210E-02
3955.285, 2.5842110E-02
3957.214, 2.8376911E-02
3959.142, 2.6587110E-02
3961.071, 2.6158391E-02
3962.999, 2.7040999E-02
3964.927, 2.7385030E-02
3966.856, 2.5297230E-02
3968.784, 2.5905341E-02
3970.713, 2.6572891E-02
3972.641, 2.6392510E-02
3974.570, 2.7832080E-02
3976.498, 2.8226569E-02
3978.427, 2.8807539E-02
3980.355, 3.1864289E-02
3982.284, 3.3735771E-02
3984.212, 3.2744810E-02
3986.141, 3.4008861E-02
3988.069, 3.2842230E-02
3989.998, 3.0326931E-02
3991.926, 2.9883860E-02
3993.854, 3.0409710E-02
3995.783, 3.0285619E-02
3997.711, 2.9055201E-02
3999.640, 2.9069221E-02
##END=



