##NAMES=Pyrope
##RRUFFID=R050113
##IDEAL CHEMISTRY=Mg_3_Al_2_(SiO_4_)_3_
##LOCALITY=Warsik, Pakistan
##OWNER=RRUFF
##SOURCE=Farooq and Nazia Sawal
##DESCRIPTION=Reddish-purple fragment
##STATUS=The identification of this mineral has been confirmed by X-ray diffraction and chemical analysis
##URL=rruff.info/R050113
##MEASURED CHEMISTRY=(Mg_1.83_Fe^2+^_1.12_Ca_0.03_Mn_0.02_)_Σ=3_(Al_1.82_Fe^3+^_0.18_)_Σ=2_((Si_0.99_Al_0.01_)_Σ=1_O_4_)_3_
3.991926e+002, 1.194214e-001
4.011211e+002, 1.289123e-001
4.030495e+002, 1.394708e-001
4.049780e+002, 1.449463e-001
4.069065e+002, 1.541316e-001
4.088349e+002, 1.650772e-001
4.107634e+002, 1.697757e-001
4.126919e+002, 1.741696e-001
4.146203e+002, 1.820990e-001
4.165488e+002, 1.901268e-001
4.184773e+002, 1.942891e-001
4.204057e+002, 1.971158e-001
4.223342e+002, 2.032705e-001
4.242627e+002, 2.051104e-001
4.261911e+002, 2.055087e-001
4.281196e+002, 2.076164e-001
4.300481e+002, 2.120525e-001
4.319765e+002, 2.159925e-001
4.339050e+002, 2.171509e-001
4.358335e+002, 2.181994e-001
4.377619e+002, 2.196088e-001
4.396904e+002, 2.201012e-001
4.416189e+002, 2.199979e-001
4.435473e+002, 2.208034e-001
4.454758e+002, 2.213453e-001
4.474043e+002, 2.211737e-001
4.493327e+002, 2.196399e-001
4.512612e+002, 2.140302e-001
4.531897e+002, 2.051372e-001
4.551181e+002, 1.957684e-001
4.570466e+002, 1.918018e-001
4.589751e+002, 1.956422e-001
4.609035e+002, 2.045262e-001
4.628320e+002, 2.115304e-001
4.647605e+002, 2.153575e-001
4.666889e+002, 2.151630e-001
4.686174e+002, 2.116446e-001
4.705459e+002, 2.053731e-001
4.724743e+002, 1.991674e-001
4.744028e+002, 1.922273e-001
4.763313e+002, 1.839863e-001
4.782597e+002, 1.777703e-001
4.801882e+002, 1.724616e-001
4.821167e+002, 1.677779e-001
4.840451e+002, 1.635719e-001
4.859736e+002, 1.578771e-001
4.879021e+002, 1.519086e-001
4.898305e+002, 1.472100e-001
4.917590e+002, 1.424899e-001
4.936875e+002, 1.367299e-001
4.956159e+002, 1.313881e-001
4.975444e+002, 1.266537e-001
4.994729e+002, 1.208734e-001
5.014013e+002, 1.141621e-001
5.033298e+002, 1.083404e-001
5.052583e+002, 1.021163e-001
5.071867e+002, 9.633860e-002
5.091152e+002, 9.062420e-002
5.110437e+002, 8.457500e-002
5.129721e+002, 7.902378e-002
5.149006e+002, 7.464750e-002
5.168290e+002, 7.267638e-002
5.187575e+002, 7.347798e-002
5.206860e+002, 7.518253e-002
5.226144e+002, 7.695557e-002
5.245429e+002, 7.669695e-002
5.264714e+002, 7.300093e-002
5.283998e+002, 6.706208e-002
5.303283e+002, 6.020473e-002
5.322568e+002, 5.392106e-002
5.341852e+002, 4.913697e-002
5.361137e+002, 4.602418e-002
5.380422e+002, 4.451487e-002
5.399706e+002, 4.528920e-002
5.418991e+002, 4.822702e-002
5.438276e+002, 5.339237e-002
5.457560e+002, 6.185449e-002
5.476845e+002, 7.403591e-002
5.496130e+002, 8.897639e-002
5.515414e+002, 1.063222e-001
5.534699e+002, 1.244192e-001
5.553984e+002, 1.402332e-001
5.573268e+002, 1.520345e-001
5.592553e+002, 1.596962e-001
5.611838e+002, 1.614736e-001
5.631122e+002, 1.581077e-001
5.650407e+002, 1.517531e-001
5.669692e+002, 1.435019e-001
5.688976e+002, 1.337887e-001
5.708261e+002, 1.236648e-001
5.727546e+002, 1.133993e-001
5.746830e+002, 1.037513e-001
5.766115e+002, 9.455790e-002
5.785400e+002, 8.608235e-002
5.804684e+002, 7.793249e-002
5.823969e+002, 7.027617e-002
5.843254e+002, 6.300411e-002
5.862538e+002, 5.620801e-002
5.881823e+002, 5.039348e-002
5.901108e+002, 4.468605e-002
5.920392e+002, 3.952013e-002
5.939677e+002, 3.547131e-002
5.958962e+002, 3.222426e-002
5.978246e+002, 2.967499e-002
5.997531e+002, 2.794617e-002
6.016816e+002, 2.700142e-002
6.036100e+002, 2.630925e-002
6.055385e+002, 2.577464e-002
6.074670e+002, 2.541645e-002
6.093954e+002, 2.511524e-002
6.113239e+002, 2.511217e-002
6.132524e+002, 2.572040e-002
6.151808e+002, 2.628054e-002
6.171093e+002, 2.693121e-002
6.190378e+002, 2.850613e-002
6.209662e+002, 3.083297e-002
6.228947e+002, 3.371146e-002
6.248232e+002, 3.756728e-002
6.267516e+002, 4.278008e-002
6.286801e+002, 4.888125e-002
6.306086e+002, 5.386794e-002
6.325370e+002, 5.469849e-002
6.344655e+002, 5.044622e-002
6.363940e+002, 4.380288e-002
6.383224e+002, 3.749107e-002
6.402509e+002, 3.265139e-002
6.421794e+002, 2.938232e-002
6.441078e+002, 2.735363e-002
6.460363e+002, 2.585337e-002
6.479648e+002, 2.451368e-002
6.498932e+002, 2.357592e-002
6.518217e+002, 2.303802e-002
6.537502e+002, 2.264361e-002
6.556786e+002, 2.230729e-002
6.576071e+002, 2.230454e-002
6.595356e+002, 2.255460e-002
6.614641e+002, 2.275242e-002
6.633925e+002, 2.288335e-002
6.653210e+002, 2.298394e-002
6.672495e+002, 2.317138e-002
6.691779e+002, 2.340497e-002
6.711064e+002, 2.372307e-002
6.730349e+002, 2.388823e-002
6.749633e+002, 2.410805e-002
6.768918e+002, 2.448360e-002
6.788203e+002, 2.491321e-002
6.807487e+002, 2.517381e-002
6.826772e+002, 2.540397e-002
6.846057e+002, 2.586626e-002
6.865341e+002, 2.630303e-002
6.884626e+002, 2.670347e-002
6.903911e+002, 2.704864e-002
6.923195e+002, 2.760763e-002
6.942480e+002, 2.841560e-002
6.961765e+002, 2.915454e-002
6.981049e+002, 2.966268e-002
7.000334e+002, 3.030779e-002
7.019619e+002, 3.094272e-002
7.038903e+002, 3.180448e-002
7.058188e+002, 3.269812e-002
7.077473e+002, 3.341644e-002
7.096757e+002, 3.412281e-002
7.116042e+002, 3.516817e-002
7.135327e+002, 3.636698e-002
7.154611e+002, 3.737598e-002
7.173896e+002, 3.829190e-002
7.193181e+002, 3.952214e-002
7.212465e+002, 4.074672e-002
7.231750e+002, 4.175342e-002
7.251035e+002, 4.281583e-002
7.270319e+002, 4.415151e-002
7.289604e+002, 4.571307e-002
7.308889e+002, 4.747809e-002
7.328173e+002, 4.925835e-002
7.347458e+002, 5.113020e-002
7.366743e+002, 5.305312e-002
7.386027e+002, 5.509364e-002
7.405312e+002, 5.711126e-002
7.424597e+002, 5.910659e-002
7.443881e+002, 6.111550e-002
7.463166e+002, 6.318368e-002
7.482451e+002, 6.512568e-002
7.501735e+002, 6.699526e-002
7.521020e+002, 6.876061e-002
7.540305e+002, 7.030391e-002
7.559589e+002, 7.141941e-002
7.578874e+002, 7.258328e-002
7.598159e+002, 7.374786e-002
7.617443e+002, 7.486153e-002
7.636728e+002, 7.633858e-002
7.656013e+002, 7.821348e-002
7.675297e+002, 8.067569e-002
7.694582e+002, 8.345518e-002
7.713867e+002, 8.626700e-002
7.733151e+002, 8.891691e-002
7.752436e+002, 9.180622e-002
7.771721e+002, 9.510042e-002
7.791005e+002, 9.808786e-002
7.810290e+002, 1.010908e-001
7.829575e+002, 1.043988e-001
7.848859e+002, 1.076760e-001
7.868144e+002, 1.107208e-001
7.887429e+002, 1.141585e-001
7.906713e+002, 1.173684e-001
7.925998e+002, 1.205981e-001
7.945283e+002, 1.242494e-001
7.964567e+002, 1.276403e-001
7.983852e+002, 1.311524e-001
8.003137e+002, 1.345418e-001
8.022421e+002, 1.376584e-001
8.041706e+002, 1.409337e-001
8.060991e+002, 1.443176e-001
8.080275e+002, 1.478675e-001
8.099560e+002, 1.512407e-001
8.118845e+002, 1.544546e-001
8.138129e+002, 1.578893e-001
8.157414e+002, 1.614501e-001
8.176699e+002, 1.648687e-001
8.195983e+002, 1.682560e-001
8.215268e+002, 1.719782e-001
8.234553e+002, 1.757741e-001
8.253837e+002, 1.791794e-001
8.273122e+002, 1.824934e-001
8.292407e+002, 1.857578e-001
8.311691e+002, 1.891570e-001
8.330976e+002, 1.922199e-001
8.350261e+002, 1.950927e-001
8.369545e+002, 1.982049e-001
8.388830e+002, 2.010879e-001
8.408115e+002, 2.035284e-001
8.427399e+002, 2.060160e-001
8.446684e+002, 2.081700e-001
8.465969e+002, 2.099716e-001
8.485253e+002, 2.117676e-001
8.504538e+002, 2.134064e-001
8.523823e+002, 2.147793e-001
8.543107e+002, 2.159136e-001
8.562392e+002, 2.166156e-001
8.581677e+002, 2.167416e-001
8.600961e+002, 2.163007e-001
8.620246e+002, 2.152325e-001
8.639531e+002, 2.137291e-001
8.658815e+002, 2.119220e-001
8.678100e+002, 2.099877e-001
8.697385e+002, 2.072922e-001
8.716669e+002, 2.033010e-001
8.735954e+002, 1.982821e-001
8.755239e+002, 1.926846e-001
8.774523e+002, 1.870536e-001
8.793808e+002, 1.822800e-001
8.813093e+002, 1.797306e-001
8.832377e+002, 1.799797e-001
8.851662e+002, 1.825217e-001
8.870947e+002, 1.857872e-001
8.890231e+002, 1.882091e-001
8.909516e+002, 1.886674e-001
8.928801e+002, 1.870930e-001
8.948085e+002, 1.838429e-001
8.967370e+002, 1.789305e-001
8.986655e+002, 1.729676e-001
9.005939e+002, 1.665120e-001
9.025224e+002, 1.594491e-001
9.044509e+002, 1.521245e-001
9.063793e+002, 1.446676e-001
9.083078e+002, 1.370919e-001
9.102363e+002, 1.291402e-001
9.121647e+002, 1.207186e-001
9.140932e+002, 1.124074e-001
9.160217e+002, 1.041864e-001
9.179501e+002, 9.626210e-002
9.198786e+002, 8.924909e-002
9.218071e+002, 8.361188e-002
9.237355e+002, 7.945637e-002
9.256640e+002, 7.727854e-002
9.275925e+002, 7.714494e-002
9.295209e+002, 7.909511e-002
9.314494e+002, 8.352473e-002
9.333779e+002, 9.041872e-002
9.353063e+002, 9.998768e-002
9.372348e+002, 1.122225e-001
9.391633e+002, 1.263556e-001
9.410917e+002, 1.416334e-001
9.430202e+002, 1.569066e-001
9.449487e+002, 1.701699e-001
9.468771e+002, 1.805550e-001
9.488056e+002, 1.877296e-001
9.507341e+002, 1.918462e-001
9.526625e+002, 1.934491e-001
9.545910e+002, 1.929717e-001
9.565195e+002, 1.902749e-001
9.584479e+002, 1.856086e-001
9.603764e+002, 1.798374e-001
9.623049e+002, 1.733936e-001
9.642333e+002, 1.668797e-001
9.661618e+002, 1.605196e-001
9.680903e+002, 1.543400e-001
9.700187e+002, 1.481694e-001
9.719472e+002, 1.418957e-001
9.738757e+002, 1.357085e-001
9.758041e+002, 1.298599e-001
9.777326e+002, 1.242188e-001
9.796611e+002, 1.187130e-001
9.815895e+002, 1.133488e-001
9.835180e+002, 1.082362e-001
9.854465e+002, 1.031156e-001
9.873749e+002, 9.792560e-002
9.893034e+002, 9.292895e-002
9.912319e+002, 8.791509e-002
9.931603e+002, 8.290859e-002
9.950888e+002, 7.791816e-002
9.970173e+002, 7.287389e-002
9.989457e+002, 6.797335e-002
1.000874e+003, 6.333685e-002
1.002803e+003, 5.889656e-002
1.004731e+003, 5.480944e-002
1.006660e+003, 5.107650e-002
1.008588e+003, 4.746624e-002
1.010517e+003, 4.366059e-002
1.012445e+003, 4.005450e-002
1.014373e+003, 3.683091e-002
1.016302e+003, 3.374404e-002
1.018230e+003, 3.098139e-002
1.020159e+003, 2.854570e-002
1.022087e+003, 2.613954e-002
1.024016e+003, 2.393617e-002
1.025944e+003, 2.204264e-002
1.027873e+003, 2.065247e-002
1.029801e+003, 1.945772e-002
1.031730e+003, 1.815167e-002
1.033658e+003, 1.717828e-002
1.035587e+003, 1.635138e-002
1.037515e+003, 1.549450e-002
1.039443e+003, 1.475573e-002
1.041372e+003, 1.404751e-002
1.043300e+003, 1.335304e-002
1.045229e+003, 1.260773e-002
1.047157e+003, 1.211919e-002
1.049086e+003, 1.170615e-002
1.051014e+003, 1.143363e-002
1.052943e+003, 1.135212e-002
1.054871e+003, 1.097587e-002
1.056800e+003, 1.054852e-002
1.058728e+003, 1.037742e-002
1.060657e+003, 1.009469e-002
1.062585e+003, 9.562042e-003
1.064514e+003, 9.268121e-003
1.066442e+003, 8.970832e-003
1.068370e+003, 8.627469e-003
1.070299e+003, 8.385799e-003
1.072227e+003, 8.128526e-003
1.074156e+003, 7.976715e-003
1.076084e+003, 7.848257e-003
1.078013e+003, 7.694787e-003
1.079941e+003, 7.707854e-003
1.081870e+003, 7.735896e-003
1.083798e+003, 7.887289e-003
1.085727e+003, 8.436626e-003
1.087655e+003, 8.878849e-003
1.089584e+003, 9.014303e-003
1.091512e+003, 8.748239e-003
1.093441e+003, 8.439560e-003
1.095369e+003, 8.245936e-003
1.097297e+003, 8.002159e-003
1.099226e+003, 7.608791e-003
1.101154e+003, 7.240307e-003
1.103083e+003, 6.881727e-003
1.105011e+003, 6.748770e-003
1.106940e+003, 6.447976e-003
1.108868e+003, 6.115597e-003
1.110797e+003, 5.825103e-003
1.112725e+003, 5.501124e-003
1.114654e+003, 5.326939e-003
1.116582e+003, 5.170472e-003
1.118511e+003, 4.916632e-003
1.120439e+003, 4.683317e-003
1.122368e+003, 4.671475e-003
1.124296e+003, 4.788052e-003
1.126224e+003, 4.725949e-003
1.128153e+003, 4.593317e-003
1.130081e+003, 4.315320e-003
1.132010e+003, 4.096572e-003
1.133938e+003, 4.127037e-003
1.135867e+003, 4.199903e-003
1.137795e+003, 4.178515e-003
1.139724e+003, 4.067358e-003
1.141652e+003, 3.840348e-003
1.143581e+003, 3.923437e-003
1.145509e+003, 3.995589e-003
1.147438e+003, 3.981923e-003
1.149366e+003, 3.762289e-003
1.151295e+003, 3.729244e-003
1.153223e+003, 3.534579e-003
1.155151e+003, 3.372729e-003
1.157080e+003, 3.361837e-003
1.159008e+003, 3.245367e-003
1.160937e+003, 3.108936e-003
1.162865e+003, 3.041839e-003
1.164794e+003, 3.073945e-003
1.166722e+003, 3.028670e-003
1.168651e+003, 3.078668e-003
1.170579e+003, 3.068762e-003
1.172508e+003, 3.006401e-003
1.174436e+003, 2.954708e-003
1.176365e+003, 2.805982e-003
1.178293e+003, 2.697930e-003
1.180222e+003, 2.724085e-003
1.182150e+003, 2.758306e-003
1.184078e+003, 2.775151e-003
1.186007e+003, 2.729258e-003
1.187935e+003, 2.691398e-003
1.189864e+003, 2.609973e-003
1.191792e+003, 2.579837e-003
1.193721e+003, 2.719336e-003
1.195649e+003, 2.518596e-003
1.197578e+003, 2.412461e-003
1.199506e+003, 2.537425e-003
1.201435e+003, 2.541946e-003
1.203363e+003, 2.512651e-003
1.205292e+003, 2.670714e-003
1.207220e+003, 2.708881e-003
1.209149e+003, 2.721706e-003
1.211077e+003, 2.933334e-003
1.213005e+003, 2.947626e-003
1.214934e+003, 2.734492e-003
1.216862e+003, 2.639832e-003
1.218791e+003, 2.645641e-003
1.220719e+003, 2.713206e-003
1.222648e+003, 2.837545e-003
1.224576e+003, 2.856463e-003
1.226505e+003, 2.756095e-003
1.228433e+003, 2.650754e-003
1.230362e+003, 2.625420e-003
1.232290e+003, 2.628389e-003
1.234219e+003, 2.662053e-003
1.236147e+003, 2.747515e-003
1.238076e+003, 2.854815e-003
1.240004e+003, 2.818665e-003
1.241932e+003, 2.696694e-003
1.243861e+003, 2.786051e-003
1.245789e+003, 2.784275e-003
1.247718e+003, 2.690114e-003
1.249646e+003, 2.792777e-003
1.251575e+003, 2.933203e-003
1.253503e+003, 2.959567e-003
1.255432e+003, 2.913772e-003
1.257360e+003, 2.821551e-003
1.259289e+003, 2.935652e-003
1.261217e+003, 2.922718e-003
1.263146e+003, 2.887303e-003
1.265074e+003, 3.032263e-003
1.267003e+003, 3.081596e-003
1.268931e+003, 3.086123e-003
1.270859e+003, 3.091537e-003
1.272788e+003, 3.147637e-003
1.274716e+003, 3.177771e-003
1.276645e+003, 3.216238e-003
1.278573e+003, 3.339569e-003
1.280502e+003, 3.381022e-003
1.282430e+003, 3.364318e-003
1.284359e+003, 3.451591e-003
1.286287e+003, 3.498765e-003
1.288216e+003, 3.428126e-003
1.290144e+003, 3.564847e-003
1.292073e+003, 3.700569e-003
1.294001e+003, 3.716328e-003
1.295930e+003, 3.720965e-003
1.297858e+003, 3.672749e-003
1.299786e+003, 3.686146e-003
1.301715e+003, 3.755227e-003
1.303643e+003, 3.774147e-003
1.305572e+003, 3.807172e-003
1.307500e+003, 4.071537e-003
1.309429e+003, 4.300497e-003
1.311357e+003, 4.264375e-003
1.313286e+003, 4.292049e-003
1.315214e+003, 4.418985e-003
1.317143e+003, 4.455293e-003
1.319071e+003, 4.525519e-003
1.321000e+003, 4.534659e-003
1.322928e+003, 4.552466e-003
1.324857e+003, 4.608271e-003
1.326785e+003, 4.560083e-003
1.328714e+003, 4.549283e-003
1.330642e+003, 4.546563e-003
1.332570e+003, 4.572430e-003
1.334499e+003, 4.757218e-003
1.336427e+003, 4.835808e-003
1.338356e+003, 4.791061e-003
1.340284e+003, 4.792064e-003
1.342213e+003, 4.850986e-003
1.344141e+003, 5.043511e-003
1.346070e+003, 5.089582e-003
1.347998e+003, 5.157532e-003
1.349927e+003, 5.188521e-003
1.351855e+003, 5.103356e-003
1.353784e+003, 5.039205e-003
1.355712e+003, 5.065332e-003
1.357641e+003, 5.206684e-003
1.359569e+003, 5.296764e-003
1.361497e+003, 5.417139e-003
1.363426e+003, 5.513367e-003
1.365354e+003, 5.679143e-003
1.367283e+003, 5.803868e-003
1.369211e+003, 5.853435e-003
1.371140e+003, 5.892569e-003
1.373068e+003, 5.844861e-003
1.374997e+003, 5.865735e-003
1.376925e+003, 5.865819e-003
1.378854e+003, 5.938318e-003
1.380782e+003, 5.893037e-003
1.382711e+003, 5.965039e-003
1.384639e+003, 5.911238e-003
1.386568e+003, 5.837461e-003
1.388496e+003, 5.917601e-003
1.390424e+003, 6.041547e-003
1.392353e+003, 6.206808e-003
1.394281e+003, 6.324599e-003
1.396210e+003, 6.411152e-003
1.398138e+003, 6.543303e-003
1.400067e+003, 6.473992e-003
1.401995e+003, 6.364807e-003
1.403924e+003, 6.434355e-003
1.405852e+003, 6.465852e-003
1.407781e+003, 6.528997e-003
1.409709e+003, 6.662462e-003
1.411638e+003, 6.679485e-003
1.413566e+003, 6.668880e-003
1.415495e+003, 6.673346e-003
1.417423e+003, 6.762977e-003
1.419351e+003, 6.832487e-003
1.421280e+003, 6.770364e-003
1.423208e+003, 6.744859e-003
1.425137e+003, 6.828345e-003
1.427065e+003, 6.815081e-003
1.428994e+003, 6.886638e-003
1.430922e+003, 6.917423e-003
1.432851e+003, 7.083764e-003
1.434779e+003, 7.098026e-003
1.436708e+003, 7.016635e-003
1.438636e+003, 7.113136e-003
1.440565e+003, 7.140888e-003
1.442493e+003, 6.949676e-003
1.444422e+003, 6.931978e-003
1.446350e+003, 7.142760e-003
1.448278e+003, 7.276078e-003
1.450207e+003, 7.349317e-003
1.452135e+003, 7.543240e-003
1.454064e+003, 7.648261e-003
1.455992e+003, 7.630882e-003
1.457921e+003, 7.517563e-003
1.459849e+003, 7.354126e-003
1.461778e+003, 7.391544e-003
1.463706e+003, 7.485317e-003
1.465635e+003, 7.369173e-003
1.467563e+003, 7.216180e-003
1.469492e+003, 7.261777e-003
1.471420e+003, 7.516596e-003
1.473349e+003, 7.593052e-003
1.475277e+003, 7.505621e-003
1.477205e+003, 7.381258e-003
1.479134e+003, 7.427748e-003
1.481062e+003, 7.559486e-003
1.482991e+003, 7.507849e-003
1.484919e+003, 7.410865e-003
1.486848e+003, 7.511811e-003
1.488776e+003, 7.631823e-003
1.490705e+003, 7.651673e-003
1.492633e+003, 7.685112e-003
1.494562e+003, 7.893479e-003
1.496490e+003, 7.995290e-003
1.498419e+003, 8.007722e-003
1.500347e+003, 7.949455e-003
1.502276e+003, 7.947448e-003
1.504204e+003, 8.110654e-003
1.506132e+003, 8.345602e-003
1.508061e+003, 8.266835e-003
1.509989e+003, 8.180861e-003
1.511918e+003, 8.138578e-003
1.513846e+003, 8.139330e-003
1.515775e+003, 8.377714e-003
1.517703e+003, 8.466272e-003
1.519632e+003, 8.642673e-003
1.521560e+003, 8.715367e-003
1.523489e+003, 8.719887e-003
1.525417e+003, 8.920205e-003
1.527346e+003, 8.974129e-003
1.529274e+003, 8.915583e-003
1.531203e+003, 8.949935e-003
1.533131e+003, 9.030378e-003
1.535059e+003, 8.984737e-003
1.536988e+003, 9.189741e-003
1.538916e+003, 9.508443e-003
1.540845e+003, 9.667261e-003
1.542773e+003, 9.570478e-003
1.544702e+003, 9.396053e-003
1.546630e+003, 9.302367e-003
1.548559e+003, 9.332974e-003
1.550487e+003, 9.473662e-003
1.552416e+003, 9.601546e-003
1.554344e+003, 9.612452e-003
1.556273e+003, 9.714006e-003
1.558201e+003, 9.855394e-003
1.560130e+003, 9.766022e-003
1.562058e+003, 9.518302e-003
1.563986e+003, 9.608016e-003
1.565915e+003, 9.703196e-003
1.567843e+003, 9.771079e-003
1.569772e+003, 9.845017e-003
1.571700e+003, 9.906061e-003
1.573629e+003, 9.959926e-003
1.575557e+003, 1.005061e-002
1.577486e+003, 1.006521e-002
1.579414e+003, 1.002046e-002
1.581343e+003, 1.006015e-002
1.583271e+003, 9.937773e-003
1.585200e+003, 9.881589e-003
1.587128e+003, 1.003150e-002
1.589057e+003, 1.024263e-002
1.590985e+003, 1.039501e-002
1.592913e+003, 1.036081e-002
1.594842e+003, 1.037553e-002
1.596770e+003, 1.030695e-002
1.598699e+003, 1.031652e-002
1.600627e+003, 1.045717e-002
1.602556e+003, 1.044726e-002
1.604484e+003, 1.028163e-002
1.606413e+003, 1.019749e-002
1.608341e+003, 1.035934e-002
1.610270e+003, 1.038684e-002
1.612198e+003, 1.044648e-002
1.614127e+003, 1.047501e-002
1.616055e+003, 1.059512e-002
1.617984e+003, 1.067354e-002
1.619912e+003, 1.074711e-002
1.621840e+003, 1.092501e-002
1.623769e+003, 1.084410e-002
1.625697e+003, 1.074499e-002
1.627626e+003, 1.069315e-002
1.629554e+003, 1.074290e-002
1.631483e+003, 1.091614e-002
1.633411e+003, 1.115500e-002
1.635340e+003, 1.120705e-002
1.637268e+003, 1.109928e-002
1.639197e+003, 1.110968e-002
1.641125e+003, 1.120143e-002
1.643054e+003, 1.134885e-002
1.644982e+003, 1.141182e-002
1.646911e+003, 1.146731e-002
1.648839e+003, 1.142381e-002
1.650767e+003, 1.156842e-002
1.652696e+003, 1.176157e-002
1.654624e+003, 1.162052e-002
1.656553e+003, 1.130377e-002
1.658481e+003, 1.115403e-002
1.660410e+003, 1.130348e-002
1.662338e+003, 1.130595e-002
1.664267e+003, 1.128241e-002
1.666195e+003, 1.128637e-002
1.668124e+003, 1.132203e-002
1.670052e+003, 1.109142e-002
1.671981e+003, 1.091915e-002
1.673909e+003, 1.095075e-002
1.675838e+003, 1.100217e-002
1.677766e+003, 1.086910e-002
1.679694e+003, 1.070127e-002
1.681623e+003, 1.088379e-002
1.683551e+003, 1.099551e-002
1.685480e+003, 1.096097e-002
1.687408e+003, 1.097768e-002
1.689337e+003, 1.089532e-002
1.691265e+003, 1.084164e-002
1.693194e+003, 1.083427e-002
1.695122e+003, 1.092639e-002
1.697051e+003, 1.090780e-002
1.698979e+003, 1.090868e-002
1.700908e+003, 1.071871e-002
1.702836e+003, 1.054538e-002
1.704765e+003, 1.056245e-002
1.706693e+003, 1.072599e-002
1.708621e+003, 1.079271e-002
1.710550e+003, 1.065415e-002
1.712478e+003, 1.048029e-002
1.714407e+003, 1.061981e-002
1.716335e+003, 1.081709e-002
1.718264e+003, 1.092662e-002
1.720192e+003, 1.080306e-002
1.722121e+003, 1.060624e-002
1.724049e+003, 1.066810e-002
1.725978e+003, 1.074451e-002
1.727906e+003, 1.067710e-002
1.729835e+003, 1.067754e-002
1.731763e+003, 1.087923e-002
1.733692e+003, 1.107201e-002
1.735620e+003, 1.090008e-002
1.737548e+003, 1.055653e-002
1.739477e+003, 1.017491e-002
1.741405e+003, 1.005354e-002
1.743334e+003, 1.018454e-002
1.745262e+003, 1.025421e-002
1.747191e+003, 1.048654e-002
1.749119e+003, 1.064870e-002
1.751048e+003, 1.074809e-002
1.752976e+003, 1.091662e-002
1.754905e+003, 1.078251e-002
1.756833e+003, 1.073039e-002
1.758762e+003, 1.090315e-002
1.760690e+003, 1.094739e-002
1.762619e+003, 1.117379e-002
1.764547e+003, 1.134980e-002
1.766475e+003, 1.125289e-002
1.768404e+003, 1.109850e-002
1.770332e+003, 1.107564e-002
1.772261e+003, 1.155959e-002
1.774189e+003, 1.153735e-002
1.776118e+003, 1.086898e-002
1.778046e+003, 1.070594e-002
1.779975e+003, 1.093284e-002
1.781903e+003, 1.129613e-002
1.783832e+003, 1.156188e-002
1.785760e+003, 1.154403e-002
1.787689e+003, 1.145505e-002
1.789617e+003, 1.108600e-002
1.791546e+003, 1.111201e-002
1.793474e+003, 1.141473e-002
1.795402e+003, 1.142970e-002
1.797331e+003, 1.134309e-002
1.799259e+003, 1.152026e-002
1.801188e+003, 1.152962e-002
1.803116e+003, 1.123896e-002
1.805045e+003, 1.123257e-002
1.806973e+003, 1.137890e-002
1.808902e+003, 1.124338e-002
1.810830e+003, 1.118158e-002
1.812759e+003, 1.121783e-002
1.814687e+003, 1.097508e-002
1.816616e+003, 1.069923e-002
1.818544e+003, 1.099885e-002
1.820473e+003, 1.130811e-002
1.822401e+003, 1.116627e-002
1.824329e+003, 1.116274e-002
1.826258e+003, 1.130119e-002
1.828186e+003, 1.150292e-002
1.830115e+003, 1.163138e-002
1.832043e+003, 1.134565e-002
1.833972e+003, 1.120275e-002
1.835900e+003, 1.130063e-002
1.837829e+003, 1.153356e-002
1.839757e+003, 1.136661e-002
1.841686e+003, 1.173665e-002
1.843614e+003, 1.220801e-002
1.845543e+003, 1.217469e-002
1.847471e+003, 1.181904e-002
1.849400e+003, 1.177209e-002
1.851328e+003, 1.181061e-002
1.853256e+003, 1.168412e-002
1.855185e+003, 1.197971e-002
1.857113e+003, 1.206896e-002
1.859042e+003, 1.164284e-002
1.860970e+003, 1.130846e-002
1.862899e+003, 1.163288e-002
1.864827e+003, 1.195198e-002
1.866756e+003, 1.183113e-002
1.868684e+003, 1.174067e-002
1.870613e+003, 1.164492e-002
1.872541e+003, 1.132401e-002
1.874470e+003, 1.098934e-002
1.876398e+003, 1.096391e-002
1.878327e+003, 1.114414e-002
1.880255e+003, 1.113679e-002
1.882183e+003, 1.098030e-002
1.884112e+003, 1.101212e-002
1.886040e+003, 1.062840e-002
1.887969e+003, 1.083307e-002
1.889897e+003, 1.148695e-002
1.891826e+003, 1.079708e-002
1.893754e+003, 9.994445e-003
1.895683e+003, 1.046187e-002
1.897611e+003, 1.075135e-002
1.899540e+003, 1.086396e-002
1.901468e+003, 1.085595e-002
1.903397e+003, 1.072454e-002
1.905325e+003, 1.029080e-002
1.907254e+003, 1.034506e-002
1.909182e+003, 1.083240e-002
1.911110e+003, 1.046787e-002
1.913039e+003, 9.981798e-003
1.914967e+003, 1.024564e-002
1.916896e+003, 1.027435e-002
1.918824e+003, 9.748067e-003
1.920753e+003, 9.650777e-003
1.922681e+003, 1.008371e-002
1.924610e+003, 1.006957e-002
1.926538e+003, 9.951850e-003
1.928467e+003, 9.974434e-003
1.930395e+003, 1.014780e-002
1.932324e+003, 9.604411e-003
1.934252e+003, 9.617127e-003
1.936181e+003, 9.660096e-003
1.938109e+003, 9.494456e-003
1.940037e+003, 9.088870e-003
1.941966e+003, 9.437278e-003
1.943894e+003, 1.076193e-002
1.945823e+003, 9.995454e-003
1.947751e+003, 8.867457e-003
1.949680e+003, 9.530006e-003
1.951608e+003, 9.702218e-003
1.953537e+003, 9.287358e-003
1.955465e+003, 8.939039e-003
1.957394e+003, 8.785752e-003
1.959322e+003, 9.167263e-003
1.961251e+003, 1.086515e-002
1.963179e+003, 1.067913e-002
1.965108e+003, 9.516000e-003
1.967036e+003, 8.982270e-003
1.968964e+003, 8.668433e-003
1.970893e+003, 8.853249e-003
1.972821e+003, 9.462693e-003
1.974750e+003, 9.042779e-003
1.976678e+003, 9.090397e-003
1.978607e+003, 1.060054e-002
1.980535e+003, 1.161066e-002
1.982464e+003, 1.142508e-002
1.984392e+003, 1.177309e-002
1.986321e+003, 1.142297e-002
1.988249e+003, 1.124673e-002
1.990178e+003, 1.139266e-002
1.992106e+003, 1.082302e-002
1.994035e+003, 1.086825e-002
1.995963e+003, 1.178574e-002
1.997891e+003, 1.143567e-002
1.999820e+003, 1.048541e-002
2.001748e+003, 9.613473e-003
2.003677e+003, 1.047102e-002
2.005605e+003, 1.214714e-002
2.007534e+003, 1.291888e-002
2.009462e+003, 1.243222e-002
2.011391e+003, 1.132293e-002
2.013319e+003, 1.089029e-002
2.015248e+003, 1.239203e-002
2.017176e+003, 1.268310e-002
2.019105e+003, 1.213990e-002
2.021033e+003, 1.198057e-002
2.022962e+003, 1.328288e-002
2.024890e+003, 1.386419e-002
2.026818e+003, 1.288109e-002
2.028747e+003, 1.236685e-002
2.030675e+003, 1.368804e-002
2.032604e+003, 1.359557e-002
2.034532e+003, 1.183490e-002
2.036461e+003, 1.131237e-002
2.038389e+003, 1.318816e-002
2.040318e+003, 1.344810e-002
2.042246e+003, 1.404780e-002
2.044175e+003, 1.584395e-002
2.046103e+003, 1.631874e-002
2.048031e+003, 1.569032e-002
2.049960e+003, 1.522980e-002
2.051888e+003, 1.414549e-002
2.053817e+003, 1.343286e-002
2.055745e+003, 1.419358e-002
2.057674e+003, 1.427328e-002
2.059602e+003, 1.372552e-002
2.061531e+003, 1.347819e-002
2.063459e+003, 1.319430e-002
2.065388e+003, 1.423993e-002
2.067316e+003, 1.508002e-002
2.069245e+003, 1.469223e-002
2.071173e+003, 1.464225e-002
2.073102e+003, 1.518822e-002
2.075030e+003, 1.503701e-002
2.076958e+003, 1.482780e-002
2.078887e+003, 1.502978e-002
2.080815e+003, 1.552388e-002
2.082744e+003, 1.599126e-002
2.084672e+003, 1.597388e-002
2.086601e+003, 1.529971e-002
2.088529e+003, 1.494188e-002
2.090458e+003, 1.524888e-002
2.092386e+003, 1.527694e-002
2.094315e+003, 1.473894e-002
2.096243e+003, 1.481637e-002
2.098172e+003, 1.553008e-002
2.100100e+003, 1.509998e-002
2.102029e+003, 1.462739e-002
2.103957e+003, 1.511295e-002
2.105885e+003, 1.522623e-002
2.107814e+003, 1.511841e-002
2.109742e+003, 1.536562e-002
2.111671e+003, 1.578645e-002
2.113599e+003, 1.563324e-002
2.115528e+003, 1.544600e-002
2.117456e+003, 1.506704e-002
2.119385e+003, 1.492875e-002
2.121313e+003, 1.487585e-002
2.123242e+003, 1.545299e-002
2.125170e+003, 1.617392e-002
2.127099e+003, 1.557571e-002
2.129027e+003, 1.388778e-002
2.130956e+003, 1.318136e-002
2.132884e+003, 1.342539e-002
2.134813e+003, 1.497499e-002
2.136741e+003, 1.572257e-002
2.138669e+003, 1.501337e-002
2.140598e+003, 1.412538e-002
2.142526e+003, 1.437193e-002
2.144455e+003, 1.473551e-002
2.146383e+003, 1.479370e-002
2.148312e+003, 1.547752e-002
2.150240e+003, 1.557311e-002
2.152169e+003, 1.544689e-002
2.154097e+003, 1.469131e-002
2.156026e+003, 1.240856e-002
2.157954e+003, 1.263157e-002
2.159883e+003, 1.610590e-002
2.161811e+003, 1.834153e-002
2.163740e+003, 1.822897e-002
2.165668e+003, 1.747688e-002
2.167596e+003, 1.623769e-002
2.169525e+003, 1.492071e-002
2.171453e+003, 1.451658e-002
2.173382e+003, 1.573271e-002
2.175310e+003, 1.660601e-002
2.177239e+003, 1.555924e-002
2.179167e+003, 1.503706e-002
2.181096e+003, 1.604726e-002
2.183024e+003, 1.645221e-002
2.184953e+003, 1.679153e-002
2.186881e+003, 1.663641e-002
2.188810e+003, 1.525212e-002
2.190738e+003, 1.506373e-002
2.192667e+003, 1.689485e-002
2.194595e+003, 1.713278e-002
2.196523e+003, 1.722520e-002
2.198452e+003, 1.688703e-002
2.200380e+003, 1.713576e-002
2.202309e+003, 1.709193e-002
2.204237e+003, 1.608803e-002
2.206166e+003, 1.562747e-002
2.208094e+003, 1.569640e-002
2.210023e+003, 1.572097e-002
2.211951e+003, 1.570813e-002
2.213880e+003, 1.579956e-002
2.215808e+003, 1.576468e-002
2.217737e+003, 1.551188e-002
2.219665e+003, 1.613507e-002
2.221594e+003, 1.735104e-002
2.223522e+003, 1.749518e-002
2.225450e+003, 1.617241e-002
2.227379e+003, 1.670344e-002
2.229307e+003, 1.728667e-002
2.231236e+003, 1.667673e-002
2.233164e+003, 1.704681e-002
2.235093e+003, 1.763709e-002
2.237021e+003, 1.713616e-002
2.238950e+003, 1.643655e-002
2.240878e+003, 1.632856e-002
2.242807e+003, 1.694544e-002
2.244735e+003, 1.685509e-002
2.246664e+003, 1.652801e-002
2.248592e+003, 1.606061e-002
2.250521e+003, 1.619228e-002
2.252449e+003, 1.616733e-002
2.254377e+003, 1.661257e-002
2.256306e+003, 1.637502e-002
2.258234e+003, 1.643624e-002
2.260163e+003, 1.694050e-002
2.262091e+003, 1.735479e-002
2.264020e+003, 1.776058e-002
2.265948e+003, 1.801853e-002
2.267877e+003, 1.781730e-002
2.269805e+003, 1.779832e-002
2.271734e+003, 1.745175e-002
2.273662e+003, 1.724296e-002
2.275591e+003, 1.725537e-002
2.277519e+003, 1.709450e-002
2.279448e+003, 1.717507e-002
2.281376e+003, 1.774953e-002
2.283304e+003, 1.830455e-002
2.285233e+003, 1.828408e-002
2.287161e+003, 1.834499e-002
2.289090e+003, 1.839264e-002
2.291018e+003, 1.811546e-002
2.292947e+003, 1.819018e-002
2.294875e+003, 1.810757e-002
2.296804e+003, 1.786895e-002
2.298732e+003, 1.785560e-002
2.300661e+003, 1.788560e-002
2.302589e+003, 1.814924e-002
2.304518e+003, 1.827368e-002
2.306446e+003, 1.808438e-002
2.308375e+003, 1.803660e-002
2.310303e+003, 1.838215e-002
2.312231e+003, 1.862930e-002
2.314160e+003, 1.872879e-002
2.316088e+003, 1.906214e-002
2.318017e+003, 1.868347e-002
2.319945e+003, 1.899390e-002
2.321874e+003, 1.971489e-002
2.323802e+003, 1.988686e-002
2.325731e+003, 1.898864e-002
2.327659e+003, 1.824920e-002
2.329588e+003, 1.823980e-002
2.331516e+003, 1.839880e-002
2.333445e+003, 1.843446e-002
2.335373e+003, 1.881327e-002
2.337302e+003, 1.866707e-002
2.339230e+003, 1.804587e-002
2.341158e+003, 1.828664e-002
2.343087e+003, 1.850874e-002
2.345015e+003, 1.825980e-002
2.346944e+003, 1.825409e-002
2.348872e+003, 1.835220e-002
2.350801e+003, 1.844549e-002
2.352729e+003, 1.860300e-002
2.354658e+003, 1.873232e-002
2.356586e+003, 1.920034e-002
2.358515e+003, 1.939777e-002
2.360443e+003, 1.897986e-002
2.362372e+003, 1.844099e-002
2.364300e+003, 1.835346e-002
2.366229e+003, 1.843967e-002
2.368157e+003, 1.839411e-002
2.370085e+003, 1.829849e-002
2.372014e+003, 1.830921e-002
2.373942e+003, 1.821152e-002
2.375871e+003, 1.816631e-002
2.377799e+003, 1.780486e-002
2.379728e+003, 1.763641e-002
2.381656e+003, 1.763617e-002
2.383585e+003, 1.779658e-002
2.385513e+003, 1.823230e-002
2.387442e+003, 1.778827e-002
2.389370e+003, 1.783287e-002
2.391299e+003, 1.852636e-002
2.393227e+003, 1.854367e-002
2.395156e+003, 1.862614e-002
2.397084e+003, 1.864481e-002
2.399012e+003, 1.808578e-002
2.400941e+003, 1.822831e-002
2.402869e+003, 1.858653e-002
2.404798e+003, 1.821485e-002
2.406726e+003, 1.773822e-002
2.408655e+003, 1.790612e-002
2.410583e+003, 1.854454e-002
2.412512e+003, 1.855205e-002
2.414440e+003, 1.841628e-002
2.416369e+003, 1.849210e-002
2.418297e+003, 1.885862e-002
2.420226e+003, 1.879322e-002
2.422154e+003, 1.833238e-002
2.424083e+003, 1.833599e-002
2.426011e+003, 1.873802e-002
2.427939e+003, 1.884321e-002
2.429868e+003, 1.855169e-002
2.431796e+003, 1.834551e-002
2.433725e+003, 1.839755e-002
2.435653e+003, 1.851731e-002
2.437582e+003, 1.857848e-002
2.439510e+003, 1.851962e-002
2.441439e+003, 1.833431e-002
2.443367e+003, 1.829606e-002
2.445296e+003, 1.855616e-002
2.447224e+003, 1.904567e-002
2.449153e+003, 1.938366e-002
2.451081e+003, 1.935863e-002
2.453010e+003, 1.878056e-002
2.454938e+003, 1.872974e-002
2.456866e+003, 1.866507e-002
2.458795e+003, 1.890158e-002
2.460723e+003, 1.955651e-002
2.462652e+003, 1.957249e-002
2.464580e+003, 1.930931e-002
2.466509e+003, 1.961810e-002
2.468437e+003, 1.941519e-002
2.470366e+003, 1.913908e-002
2.472294e+003, 1.982626e-002
2.474223e+003, 2.000356e-002
2.476151e+003, 1.957055e-002
2.478080e+003, 1.938845e-002
2.480008e+003, 1.928992e-002
2.481937e+003, 1.945662e-002
2.483865e+003, 1.956884e-002
2.485793e+003, 1.940380e-002
2.487722e+003, 1.923942e-002
2.489650e+003, 1.944076e-002
2.491579e+003, 1.960266e-002
2.493507e+003, 1.961706e-002
2.495436e+003, 1.944590e-002
2.497364e+003, 1.920821e-002
2.499293e+003, 1.960459e-002
2.501221e+003, 1.960941e-002
2.503150e+003, 1.964976e-002
2.505078e+003, 1.962136e-002
2.507007e+003, 1.912082e-002
2.508935e+003, 1.904964e-002
2.510864e+003, 1.882860e-002
2.512792e+003, 1.881754e-002
2.514720e+003, 1.891386e-002
2.516649e+003, 1.887830e-002
2.518577e+003, 1.922775e-002
2.520506e+003, 1.981087e-002
2.522434e+003, 1.997777e-002
2.524363e+003, 1.970779e-002
2.526291e+003, 1.934109e-002
2.528220e+003, 1.906753e-002
2.530148e+003, 1.942238e-002
2.532077e+003, 2.024965e-002
2.534005e+003, 2.041823e-002
2.535934e+003, 2.033181e-002
2.537862e+003, 2.022735e-002
2.539791e+003, 1.965385e-002
2.541719e+003, 1.929487e-002
2.543647e+003, 1.914423e-002
2.545576e+003, 1.922619e-002
2.547504e+003, 1.980337e-002
2.549433e+003, 2.036129e-002
2.551361e+003, 2.047381e-002
2.553290e+003, 1.993813e-002
2.555218e+003, 1.984457e-002
2.557147e+003, 1.942772e-002
2.559075e+003, 1.917991e-002
2.561004e+003, 1.936693e-002
2.562932e+003, 2.024249e-002
2.564861e+003, 2.039973e-002
2.566789e+003, 1.994793e-002
2.568718e+003, 1.996992e-002
2.570646e+003, 2.008991e-002
2.572574e+003, 2.046867e-002
2.574503e+003, 2.053256e-002
2.576431e+003, 2.008832e-002
2.578360e+003, 2.030524e-002
2.580288e+003, 2.045510e-002
2.582217e+003, 2.057877e-002
2.584145e+003, 2.062282e-002
2.586074e+003, 2.030232e-002
2.588002e+003, 2.052842e-002
2.589931e+003, 1.998686e-002
2.591859e+003, 1.973575e-002
2.593788e+003, 2.047361e-002
2.595716e+003, 2.058455e-002
2.597645e+003, 2.070081e-002
2.599573e+003, 2.084461e-002
2.601501e+003, 2.062152e-002
2.603430e+003, 2.053744e-002
2.605358e+003, 2.031645e-002
2.607287e+003, 2.019075e-002
2.609215e+003, 2.030618e-002
2.611144e+003, 2.045005e-002
2.613072e+003, 2.080195e-002
2.615001e+003, 2.076434e-002
2.616929e+003, 2.055182e-002
2.618858e+003, 2.082347e-002
2.620786e+003, 2.083225e-002
2.622715e+003, 2.087969e-002
2.624643e+003, 2.136545e-002
2.626572e+003, 2.137502e-002
2.628500e+003, 2.077146e-002
2.630428e+003, 2.066607e-002
2.632357e+003, 2.080031e-002
2.634285e+003, 2.066079e-002
2.636214e+003, 2.037177e-002
2.638142e+003, 2.047956e-002
2.640071e+003, 2.090824e-002
2.641999e+003, 2.108006e-002
2.643928e+003, 2.128247e-002
2.645856e+003, 2.118813e-002
2.647785e+003, 2.126594e-002
2.649713e+003, 2.123813e-002
2.651642e+003, 2.107495e-002
2.653570e+003, 2.101765e-002
2.655499e+003, 2.116651e-002
2.657427e+003, 2.104072e-002
2.659355e+003, 2.095691e-002
2.661284e+003, 2.062447e-002
2.663212e+003, 2.038772e-002
2.665141e+003, 2.043914e-002
2.667069e+003, 2.079872e-002
2.668998e+003, 2.089226e-002
2.670926e+003, 2.064111e-002
2.672855e+003, 2.030914e-002
2.674783e+003, 2.053601e-002
2.676712e+003, 2.086193e-002
2.678640e+003, 2.078179e-002
2.680569e+003, 2.064783e-002
2.682497e+003, 2.078680e-002
2.684426e+003, 2.038394e-002
2.686354e+003, 2.041569e-002
2.688282e+003, 2.051944e-002
2.690211e+003, 2.066342e-002
2.692139e+003, 2.075249e-002
2.694068e+003, 2.091582e-002
2.695996e+003, 2.117625e-002
2.697925e+003, 2.122998e-002
2.699853e+003, 2.096980e-002
2.701782e+003, 2.060024e-002
2.703710e+003, 2.043360e-002
2.705639e+003, 2.054623e-002
2.707567e+003, 2.060924e-002
2.709496e+003, 2.073017e-002
2.711424e+003, 2.070514e-002
2.713353e+003, 2.069899e-002
2.715281e+003, 2.082146e-002
2.717209e+003, 2.088618e-002
2.719138e+003, 2.111568e-002
2.721066e+003, 2.100692e-002
2.722995e+003, 2.080149e-002
2.724923e+003, 2.082668e-002
2.726852e+003, 2.080398e-002
2.728780e+003, 2.092874e-002
2.730709e+003, 2.107263e-002
2.732637e+003, 2.112759e-002
2.734566e+003, 2.110227e-002
2.736494e+003, 2.095563e-002
2.738423e+003, 2.140515e-002
2.740351e+003, 2.136123e-002
2.742280e+003, 2.109932e-002
2.744208e+003, 2.074917e-002
2.746136e+003, 2.076467e-002
2.748065e+003, 2.116789e-002
2.749993e+003, 2.115861e-002
2.751922e+003, 2.132268e-002
2.753850e+003, 2.160720e-002
2.755779e+003, 2.144187e-002
2.757707e+003, 2.114397e-002
2.759636e+003, 2.148274e-002
2.761564e+003, 2.181824e-002
2.763493e+003, 2.180698e-002
2.765421e+003, 2.164277e-002
2.767350e+003, 2.156972e-002
2.769278e+003, 2.176850e-002
2.771207e+003, 2.181086e-002
2.773135e+003, 2.147586e-002
2.775063e+003, 2.150332e-002
2.776992e+003, 2.151609e-002
2.778920e+003, 2.141171e-002
2.780849e+003, 2.132967e-002
2.782777e+003, 2.152493e-002
2.784706e+003, 2.178838e-002
2.786634e+003, 2.204029e-002
2.788563e+003, 2.209562e-002
2.790491e+003, 2.206776e-002
2.792420e+003, 2.199462e-002
2.794348e+003, 2.199339e-002
2.796277e+003, 2.193233e-002
2.798205e+003, 2.189476e-002
2.800134e+003, 2.209623e-002
2.802062e+003, 2.218566e-002
2.803990e+003, 2.204291e-002
2.805919e+003, 2.205739e-002
2.807847e+003, 2.165171e-002
2.809776e+003, 2.173868e-002
2.811704e+003, 2.180177e-002
2.813633e+003, 2.205314e-002
2.815561e+003, 2.222850e-002
2.817490e+003, 2.202280e-002
2.819418e+003, 2.207457e-002
2.821347e+003, 2.210888e-002
2.823275e+003, 2.202540e-002
2.825204e+003, 2.213794e-002
2.827132e+003, 2.199185e-002
2.829061e+003, 2.193680e-002
2.830989e+003, 2.198554e-002
2.832917e+003, 2.226905e-002
2.834846e+003, 2.207026e-002
2.836774e+003, 2.214517e-002
2.838703e+003, 2.246917e-002
2.840631e+003, 2.274853e-002
2.842560e+003, 2.279888e-002
2.844488e+003, 2.275011e-002
2.846417e+003, 2.302790e-002
2.848345e+003, 2.316282e-002
2.850274e+003, 2.316011e-002
2.852202e+003, 2.304780e-002
2.854131e+003, 2.247205e-002
2.856059e+003, 2.250659e-002
2.857988e+003, 2.261358e-002
2.859916e+003, 2.224336e-002
2.861844e+003, 2.189957e-002
2.863773e+003, 2.218002e-002
2.865701e+003, 2.254519e-002
2.867630e+003, 2.275029e-002
2.869558e+003, 2.273197e-002
2.871487e+003, 2.251142e-002
2.873415e+003, 2.230426e-002
2.875344e+003, 2.220157e-002
2.877272e+003, 2.233213e-002
2.879201e+003, 2.255658e-002
2.881129e+003, 2.247128e-002
2.883058e+003, 2.224882e-002
2.884986e+003, 2.253821e-002
2.886915e+003, 2.224390e-002
2.888843e+003, 2.180177e-002
2.890771e+003, 2.187392e-002
2.892700e+003, 2.203372e-002
2.894628e+003, 2.271846e-002
2.896557e+003, 2.304663e-002
2.898485e+003, 2.318472e-002
2.900414e+003, 2.326190e-002
2.902342e+003, 2.304688e-002
2.904271e+003, 2.317019e-002
2.906199e+003, 2.296088e-002
2.908128e+003, 2.298307e-002
2.910056e+003, 2.324891e-002
2.911985e+003, 2.313960e-002
2.913913e+003, 2.312629e-002
2.915842e+003, 2.303286e-002
2.917770e+003, 2.297976e-002
2.919698e+003, 2.324262e-002
2.921627e+003, 2.306433e-002
2.923555e+003, 2.250752e-002
2.925484e+003, 2.239351e-002
2.927412e+003, 2.243432e-002
2.929341e+003, 2.269232e-002
2.931269e+003, 2.263587e-002
2.933198e+003, 2.265935e-002
2.935126e+003, 2.207831e-002
2.937055e+003, 2.149528e-002
2.938983e+003, 2.167974e-002
2.940912e+003, 2.203861e-002
2.942840e+003, 2.201466e-002
2.944769e+003, 2.175026e-002
2.946697e+003, 2.143701e-002
2.948625e+003, 2.144616e-002
2.950554e+003, 2.179514e-002
2.952482e+003, 2.221950e-002
2.954411e+003, 2.242744e-002
2.956339e+003, 2.209960e-002
2.958268e+003, 2.175865e-002
2.960196e+003, 2.169192e-002
2.962125e+003, 2.161820e-002
2.964053e+003, 2.169359e-002
2.965982e+003, 2.211523e-002
2.967910e+003, 2.269385e-002
2.969839e+003, 2.259532e-002
2.971767e+003, 2.189180e-002
2.973696e+003, 2.201022e-002
2.975624e+003, 2.258552e-002
2.977552e+003, 2.232839e-002
2.979481e+003, 2.229855e-002
2.981409e+003, 2.199120e-002
2.983338e+003, 2.142812e-002
2.985266e+003, 2.159101e-002
2.987195e+003, 2.200363e-002
2.989123e+003, 2.190611e-002
2.991052e+003, 2.228697e-002
2.992980e+003, 2.270997e-002
2.994909e+003, 2.245742e-002
2.996837e+003, 2.197057e-002
2.998766e+003, 2.190962e-002
3.000694e+003, 2.215779e-002
3.002623e+003, 2.211919e-002
3.004551e+003, 2.202971e-002
3.006479e+003, 2.183474e-002
3.008408e+003, 2.159029e-002
3.010336e+003, 2.142109e-002
3.012265e+003, 2.146331e-002
3.014193e+003, 2.082400e-002
3.016122e+003, 2.072004e-002
3.018050e+003, 2.106055e-002
3.019979e+003, 2.153043e-002
3.021907e+003, 2.207875e-002
3.023836e+003, 2.224210e-002
3.025764e+003, 2.201321e-002
3.027693e+003, 2.185269e-002
3.029621e+003, 2.196254e-002
3.031550e+003, 2.215148e-002
3.033478e+003, 2.247285e-002
3.035406e+003, 2.276205e-002
3.037335e+003, 2.225082e-002
3.039263e+003, 2.206279e-002
3.041192e+003, 2.216858e-002
3.043120e+003, 2.240218e-002
3.045049e+003, 2.232381e-002
3.046977e+003, 2.226493e-002
3.048906e+003, 2.270800e-002
3.050834e+003, 2.280719e-002
3.052763e+003, 2.214300e-002
3.054691e+003, 2.221955e-002
3.056620e+003, 2.255390e-002
3.058548e+003, 2.305782e-002
3.060477e+003, 2.335623e-002
3.062405e+003, 2.328894e-002
3.064333e+003, 2.297640e-002
3.066262e+003, 2.268802e-002
3.068190e+003, 2.262855e-002
3.070119e+003, 2.299687e-002
3.072047e+003, 2.316209e-002
3.073976e+003, 2.300563e-002
3.075904e+003, 2.235164e-002
3.077833e+003, 2.224452e-002
3.079761e+003, 2.254433e-002
3.081690e+003, 2.309583e-002
3.083618e+003, 2.375013e-002
3.085547e+003, 2.333328e-002
3.087475e+003, 2.333868e-002
3.089404e+003, 2.339137e-002
3.091332e+003, 2.314917e-002
3.093260e+003, 2.295580e-002
3.095189e+003, 2.254254e-002
3.097117e+003, 2.271332e-002
3.099046e+003, 2.256549e-002
3.100974e+003, 2.257095e-002
3.102903e+003, 2.340834e-002
3.104831e+003, 2.392982e-002
3.106760e+003, 2.392885e-002
3.108688e+003, 2.345981e-002
3.110617e+003, 2.249487e-002
3.112545e+003, 2.151298e-002
3.114474e+003, 2.128275e-002
3.116402e+003, 2.225700e-002
3.118331e+003, 2.342024e-002
3.120259e+003, 2.316009e-002
3.122188e+003, 2.293732e-002
3.124116e+003, 2.325924e-002
3.126044e+003, 2.323165e-002
3.127973e+003, 2.299106e-002
3.129901e+003, 2.350991e-002
3.131830e+003, 2.385288e-002
3.133758e+003, 2.333973e-002
3.135687e+003, 2.322577e-002
3.137615e+003, 2.327050e-002
3.139544e+003, 2.303382e-002
3.141472e+003, 2.300688e-002
3.143401e+003, 2.268377e-002
3.145329e+003, 2.302525e-002
3.147258e+003, 2.421832e-002
3.149186e+003, 2.418557e-002
3.151115e+003, 2.408741e-002
3.153043e+003, 2.395658e-002
3.154971e+003, 2.326939e-002
3.156900e+003, 2.299254e-002
3.158828e+003, 2.338245e-002
3.160757e+003, 2.341173e-002
3.162685e+003, 2.374390e-002
3.164614e+003, 2.460069e-002
3.166542e+003, 2.457646e-002
3.168471e+003, 2.464593e-002
3.170399e+003, 2.444469e-002
3.172328e+003, 2.420567e-002
3.174256e+003, 2.351120e-002
3.176185e+003, 2.392804e-002
3.178113e+003, 2.402925e-002
3.180042e+003, 2.378790e-002
3.181970e+003, 2.342116e-002
3.183898e+003, 2.366605e-002
3.185827e+003, 2.423414e-002
3.187755e+003, 2.400181e-002
3.189684e+003, 2.362258e-002
3.191612e+003, 2.373162e-002
3.193541e+003, 2.381958e-002
3.195469e+003, 2.332543e-002
3.197398e+003, 2.335899e-002
3.199326e+003, 2.392503e-002
3.201255e+003, 2.430952e-002
3.203183e+003, 2.397274e-002
3.205112e+003, 2.331141e-002
3.207040e+003, 2.332348e-002
3.208969e+003, 2.420684e-002
3.210897e+003, 2.433764e-002
3.212825e+003, 2.378472e-002
3.214754e+003, 2.433867e-002
3.216682e+003, 2.469992e-002
3.218611e+003, 2.452434e-002
3.220539e+003, 2.402165e-002
3.222468e+003, 2.460011e-002
3.224396e+003, 2.534785e-002
3.226325e+003, 2.485780e-002
3.228253e+003, 2.435709e-002
3.230182e+003, 2.422080e-002
3.232110e+003, 2.375756e-002
3.234039e+003, 2.353513e-002
3.235967e+003, 2.367803e-002
3.237896e+003, 2.428765e-002
3.239824e+003, 2.432908e-002
3.241752e+003, 2.462794e-002
3.243681e+003, 2.491495e-002
3.245609e+003, 2.493785e-002
3.247538e+003, 2.526932e-002
3.249466e+003, 2.480812e-002
3.251395e+003, 2.436318e-002
3.253323e+003, 2.474189e-002
3.255252e+003, 2.496664e-002
3.257180e+003, 2.459669e-002
3.259109e+003, 2.409401e-002
3.261037e+003, 2.383033e-002
3.262966e+003, 2.418002e-002
3.264894e+003, 2.427044e-002
3.266823e+003, 2.435117e-002
3.268751e+003, 2.437908e-002
3.270679e+003, 2.456699e-002
3.272608e+003, 2.427060e-002
3.274536e+003, 2.399025e-002
3.276465e+003, 2.401032e-002
3.278393e+003, 2.404013e-002
3.280322e+003, 2.378888e-002
3.282250e+003, 2.398533e-002
3.284179e+003, 2.463266e-002
3.286107e+003, 2.491145e-002
3.288036e+003, 2.486597e-002
3.289964e+003, 2.519083e-002
3.291893e+003, 2.514841e-002
3.293821e+003, 2.448109e-002
3.295750e+003, 2.414775e-002
3.297678e+003, 2.429433e-002
3.299606e+003, 2.451993e-002
3.301535e+003, 2.399331e-002
3.303463e+003, 2.362693e-002
3.305392e+003, 2.427648e-002
3.307320e+003, 2.420214e-002
3.309249e+003, 2.433635e-002
3.311177e+003, 2.386308e-002
3.313106e+003, 2.320923e-002
3.315034e+003, 2.388739e-002
3.316963e+003, 2.486672e-002
3.318891e+003, 2.415490e-002
3.320820e+003, 2.399785e-002
3.322748e+003, 2.522048e-002
3.324677e+003, 2.552390e-002
3.326605e+003, 2.482457e-002
3.328533e+003, 2.425765e-002
3.330462e+003, 2.374470e-002
3.332390e+003, 2.361511e-002
3.334319e+003, 2.354073e-002
3.336247e+003, 2.366714e-002
3.338176e+003, 2.388915e-002
3.340104e+003, 2.357704e-002
3.342033e+003, 2.410035e-002
3.343961e+003, 2.456910e-002
3.345890e+003, 2.498020e-002
3.347818e+003, 2.500272e-002
3.349747e+003, 2.459780e-002
3.351675e+003, 2.424040e-002
3.353604e+003, 2.392762e-002
3.355532e+003, 2.449721e-002
3.357460e+003, 2.499036e-002
3.359389e+003, 2.504241e-002
3.361317e+003, 2.550495e-002
3.363246e+003, 2.446305e-002
3.365174e+003, 2.387954e-002
3.367103e+003, 2.481297e-002
3.369031e+003, 2.468752e-002
3.370960e+003, 2.449629e-002
3.372888e+003, 2.452415e-002
3.374817e+003, 2.475570e-002
3.376745e+003, 2.477222e-002
3.378674e+003, 2.401588e-002
3.380602e+003, 2.417259e-002
3.382531e+003, 2.444844e-002
3.384459e+003, 2.427550e-002
3.386387e+003, 2.426468e-002
3.388316e+003, 2.413069e-002
3.390244e+003, 2.447479e-002
3.392173e+003, 2.416419e-002
3.394101e+003, 2.384082e-002
3.396030e+003, 2.384007e-002
3.397958e+003, 2.355612e-002
3.399887e+003, 2.355414e-002
3.401815e+003, 2.342491e-002
3.403744e+003, 2.312609e-002
3.405672e+003, 2.341041e-002
3.407601e+003, 2.418585e-002
3.409529e+003, 2.472601e-002
3.411458e+003, 2.500242e-002
3.413386e+003, 2.455985e-002
3.415314e+003, 2.441656e-002
3.417243e+003, 2.550592e-002
3.419171e+003, 2.613601e-002
3.421100e+003, 2.488870e-002
3.423028e+003, 2.421964e-002
3.424957e+003, 2.451624e-002
3.426885e+003, 2.457875e-002
3.428814e+003, 2.441147e-002
3.430742e+003, 2.471202e-002
3.432671e+003, 2.415926e-002
3.434599e+003, 2.371186e-002
3.436528e+003, 2.474602e-002
3.438456e+003, 2.513825e-002
3.440385e+003, 2.421118e-002
3.442313e+003, 2.370157e-002
3.444241e+003, 2.359832e-002
3.446170e+003, 2.427461e-002
3.448098e+003, 2.430235e-002
3.450027e+003, 2.455842e-002
3.451955e+003, 2.429870e-002
3.453884e+003, 2.364712e-002
3.455812e+003, 2.360169e-002
3.457741e+003, 2.385834e-002
3.459669e+003, 2.427618e-002
3.461598e+003, 2.450606e-002
3.463526e+003, 2.458689e-002
3.465455e+003, 2.468601e-002
3.467383e+003, 2.434790e-002
3.469312e+003, 2.330966e-002
3.471240e+003, 2.246875e-002
3.473168e+003, 2.237247e-002
3.475097e+003, 2.213867e-002
3.477025e+003, 2.247786e-002
3.478954e+003, 2.324141e-002
3.480882e+003, 2.349511e-002
3.482811e+003, 2.348279e-002
3.484739e+003, 2.392400e-002
3.486668e+003, 2.411693e-002
3.488596e+003, 2.446489e-002
3.490525e+003, 2.381130e-002
3.492453e+003, 2.324397e-002
3.494382e+003, 2.256987e-002
3.496310e+003, 2.282161e-002
3.498239e+003, 2.325584e-002
3.500167e+003, 2.367204e-002
3.502095e+003, 2.341732e-002
3.504024e+003, 2.296208e-002
3.505952e+003, 2.318877e-002
3.507881e+003, 2.368002e-002
3.509809e+003, 2.317671e-002
3.511738e+003, 2.244321e-002
3.513666e+003, 2.263677e-002
3.515595e+003, 2.287654e-002
3.517523e+003, 2.261357e-002
3.519452e+003, 2.293382e-002
3.521380e+003, 2.339830e-002
3.523309e+003, 2.380387e-002
3.525237e+003, 2.440307e-002
3.527166e+003, 2.423663e-002
3.529094e+003, 2.465586e-002
3.531022e+003, 2.407271e-002
3.532951e+003, 2.312426e-002
3.534879e+003, 2.279685e-002
3.536808e+003, 2.259734e-002
3.538736e+003, 2.254408e-002
3.540665e+003, 2.239994e-002
3.542593e+003, 2.224730e-002
3.544522e+003, 2.289522e-002
3.546450e+003, 2.352070e-002
3.548379e+003, 2.339226e-002
3.550307e+003, 2.328590e-002
3.552236e+003, 2.281383e-002
3.554164e+003, 2.238418e-002
3.556093e+003, 2.194783e-002
3.558021e+003, 2.231994e-002
3.559949e+003, 2.246762e-002
3.561878e+003, 2.297369e-002
3.563806e+003, 2.396535e-002
3.565735e+003, 2.300418e-002
3.567663e+003, 2.202733e-002
3.569592e+003, 2.243469e-002
3.571520e+003, 2.330405e-002
3.573449e+003, 2.370214e-002
3.575377e+003, 2.275639e-002
3.577306e+003, 2.229987e-002
3.579234e+003, 2.270161e-002
3.581163e+003, 2.232052e-002
3.583091e+003, 2.101598e-002
3.585020e+003, 2.075893e-002
3.586948e+003, 2.178166e-002
3.588876e+003, 2.271867e-002
3.590805e+003, 2.297197e-002
3.592733e+003, 2.382401e-002
3.594662e+003, 2.343726e-002
3.596590e+003, 2.250944e-002
3.598519e+003, 2.165225e-002
3.600447e+003, 2.128081e-002
3.602376e+003, 2.098865e-002
3.604304e+003, 2.056105e-002
3.606233e+003, 2.105821e-002
3.608161e+003, 2.239404e-002
3.610090e+003, 2.274724e-002
3.612018e+003, 2.118500e-002
3.613947e+003, 2.132884e-002
3.615875e+003, 2.205898e-002
3.617803e+003, 2.266847e-002
3.619732e+003, 2.247006e-002
3.621660e+003, 2.263795e-002
3.623589e+003, 2.396640e-002
3.625517e+003, 2.419627e-002
3.627446e+003, 2.283578e-002
3.629374e+003, 2.218004e-002
3.631303e+003, 2.174185e-002
3.633231e+003, 2.191597e-002
3.635160e+003, 2.349850e-002
3.637088e+003, 2.352196e-002
3.639017e+003, 2.219281e-002
3.640945e+003, 2.199683e-002
3.642874e+003, 2.207310e-002
3.644802e+003, 2.204865e-002
3.646730e+003, 2.226849e-002
3.648659e+003, 2.254473e-002
3.650587e+003, 2.190369e-002
3.652516e+003, 2.119305e-002
3.654444e+003, 2.233471e-002
3.656373e+003, 2.312860e-002
3.658301e+003, 2.132167e-002
3.660230e+003, 2.052407e-002
3.662158e+003, 2.161483e-002
3.664087e+003, 2.133911e-002
3.666015e+003, 2.084406e-002
3.667944e+003, 2.135539e-002
3.669872e+003, 2.214604e-002
3.671801e+003, 2.275498e-002
3.673729e+003, 2.313887e-002
3.675657e+003, 2.398555e-002
3.677586e+003, 2.366863e-002
3.679514e+003, 2.236266e-002
3.681443e+003, 2.243214e-002
3.683371e+003, 2.204020e-002
3.685300e+003, 2.163345e-002
3.687228e+003, 2.217462e-002
3.689157e+003, 2.275693e-002
3.691085e+003, 2.274152e-002
3.693014e+003, 2.222948e-002
3.694942e+003, 2.182093e-002
3.696871e+003, 2.179617e-002
3.698799e+003, 2.203676e-002
3.700728e+003, 2.212108e-002
3.702656e+003, 2.262213e-002
3.704584e+003, 2.329194e-002
3.706513e+003, 2.334056e-002
3.708441e+003, 2.372538e-002
3.710370e+003, 2.254180e-002
3.712298e+003, 2.256809e-002
3.714227e+003, 2.301854e-002
3.716155e+003, 2.208277e-002
3.718084e+003, 2.228831e-002
3.720012e+003, 2.346514e-002
3.721941e+003, 2.312610e-002
3.723869e+003, 2.183527e-002
3.725798e+003, 2.210247e-002
3.727726e+003, 2.253054e-002
3.729655e+003, 2.202712e-002
3.731583e+003, 2.124983e-002
3.733511e+003, 2.189727e-002
3.735440e+003, 2.204959e-002
3.737368e+003, 2.179314e-002
3.739297e+003, 2.168373e-002
3.741225e+003, 2.180361e-002
3.743154e+003, 2.332725e-002
3.745082e+003, 2.334043e-002
3.747011e+003, 2.252470e-002
3.748939e+003, 2.197746e-002
3.750868e+003, 2.196196e-002
3.752796e+003, 2.228788e-002
3.754725e+003, 2.262756e-002
3.756653e+003, 2.299567e-002
3.758582e+003, 2.228368e-002
3.760510e+003, 2.243472e-002
3.762438e+003, 2.291851e-002
3.764367e+003, 2.296937e-002
3.766295e+003, 2.231673e-002
3.768224e+003, 2.198496e-002
3.770152e+003, 2.268336e-002
3.772081e+003, 2.256257e-002
3.774009e+003, 2.368943e-002
3.775938e+003, 2.407872e-002
3.777866e+003, 2.401673e-002
3.779795e+003, 2.363446e-002
3.781723e+003, 2.294550e-002
3.783652e+003, 2.280493e-002
3.785580e+003, 2.292215e-002
3.787509e+003, 2.268445e-002
3.789437e+003, 2.283874e-002
3.791365e+003, 2.291344e-002
3.793294e+003, 2.324453e-002
3.795222e+003, 2.264240e-002
3.797151e+003, 2.200353e-002
3.799079e+003, 2.189597e-002
3.801008e+003, 2.253208e-002
3.802936e+003, 2.228323e-002
3.804865e+003, 2.218071e-002
3.806793e+003, 2.272413e-002
3.808722e+003, 2.287846e-002
3.810650e+003, 2.336791e-002
3.812579e+003, 2.209123e-002
3.814507e+003, 2.090204e-002
3.816436e+003, 2.205237e-002
3.818364e+003, 2.212137e-002
3.820292e+003, 2.130203e-002
3.822221e+003, 2.227058e-002
3.824149e+003, 2.328486e-002
3.826078e+003, 2.244615e-002
3.828006e+003, 2.168334e-002
3.829935e+003, 2.161818e-002
3.831863e+003, 2.157096e-002
3.833792e+003, 2.229994e-002
3.835720e+003, 2.227679e-002
3.837649e+003, 2.281892e-002
3.839577e+003, 2.302827e-002
3.841506e+003, 2.283778e-002
3.843434e+003, 2.316638e-002
3.845363e+003, 2.336279e-002
3.847291e+003, 2.342250e-002
3.849219e+003, 2.280605e-002
3.851148e+003, 2.396633e-002
3.853076e+003, 2.401411e-002
3.855005e+003, 2.294945e-002
3.856933e+003, 2.308677e-002
3.858862e+003, 2.270119e-002
3.860790e+003, 2.155425e-002
3.862719e+003, 2.183538e-002
3.864647e+003, 2.270092e-002
3.866576e+003, 2.322764e-002
3.868504e+003, 2.332998e-002
3.870433e+003, 2.266636e-002
3.872361e+003, 2.207905e-002
3.874290e+003, 2.314265e-002
3.876218e+003, 2.395403e-002
3.878146e+003, 2.371119e-002
3.880075e+003, 2.287233e-002
3.882003e+003, 2.277916e-002
3.883932e+003, 2.372133e-002
3.885860e+003, 2.420368e-002
3.887789e+003, 2.414621e-002
3.889717e+003, 2.419391e-002
3.891646e+003, 2.384299e-002
3.893574e+003, 2.361227e-002
3.895503e+003, 2.346223e-002
3.897431e+003, 2.322537e-002
3.899360e+003, 2.328247e-002
3.901288e+003, 2.358774e-002
3.903217e+003, 2.279874e-002
3.905145e+003, 2.171794e-002
3.907073e+003, 2.159168e-002
3.909002e+003, 2.253820e-002
3.910930e+003, 2.239204e-002
3.912859e+003, 2.262042e-002
3.914787e+003, 2.305032e-002
3.916716e+003, 2.276904e-002
3.918644e+003, 2.273726e-002
3.920573e+003, 2.231527e-002
3.922501e+003, 2.338745e-002
3.924430e+003, 2.446926e-002
3.926358e+003, 2.337293e-002
3.928287e+003, 2.260397e-002
3.930215e+003, 2.233945e-002
3.932144e+003, 2.231481e-002
3.934072e+003, 2.291794e-002
3.936000e+003, 2.302306e-002
3.937929e+003, 2.264415e-002
3.939857e+003, 2.317708e-002
3.941786e+003, 2.430473e-002
3.943714e+003, 2.378327e-002
3.945643e+003, 2.317041e-002
3.947571e+003, 2.311005e-002
3.949500e+003, 2.268504e-002
3.951428e+003, 2.240457e-002
3.953357e+003, 2.273262e-002
3.955285e+003, 2.284016e-002
3.957214e+003, 2.232337e-002
3.959142e+003, 2.227170e-002
3.961071e+003, 2.313399e-002
3.962999e+003, 2.372632e-002
3.964927e+003, 2.341985e-002
3.966856e+003, 2.355040e-002
3.968784e+003, 2.421457e-002
3.970713e+003, 2.447043e-002
3.972641e+003, 2.339164e-002
3.974570e+003, 2.209531e-002
3.976498e+003, 2.211047e-002
3.978427e+003, 2.237347e-002
3.980355e+003, 2.219865e-002
3.982284e+003, 2.115203e-002
3.984212e+003, 2.118275e-002
3.986141e+003, 2.318277e-002
3.988069e+003, 2.392392e-002
3.989998e+003, 2.267383e-002
3.991926e+003, 2.303624e-002
3.993854e+003, 2.467189e-002
3.995783e+003, 2.454901e-002
3.997711e+003, 2.370034e-002
3.999640e+003, 2.378665e-002
4.001568e+003, 0.000000e+000
##END=



