##NAMES=Ramsdellite
##RRUFFID=R050552
##IDEAL CHEMISTRY=Mn^4+^O_2_
##LOCALITY=Lake Valley, Sierra County, New Mexico, USA
##OWNER=RRUFF
##SOURCE=Dave Bunk Minerals
##DESCRIPTION=Black bladed crystals
##STATUS=The identification of this mineral is confirmed by single-crystal X-ray diffraction and chemical analysis.
##URL=rruff.info/R050552
##MEASURED CHEMISTRY=(Mn^4+^_0.98_Al_0.02_)_Σ=1_(O_1.98_(OH)_0.02_)_Σ=2_
399.1926, 0.4261761
401.1211, 0.3966631
403.0496, 0.3985701
404.9780, 0.4124183
406.9065, 0.4221004
408.8350, 0.4173549
410.7634, 0.4082251
412.6919, 0.4102501
414.6204, 0.4103421
416.5488, 0.4138468
418.4773, 0.4113421
420.4058, 0.4130368
422.3342, 0.4186337
424.2627, 0.4181505
426.1912, 0.4255956
428.1196, 0.4310324
430.0481, 0.4271249
431.9766, 0.4284860
433.9050, 0.4354287
435.8335, 0.4408873
437.7620, 0.4462033
439.6904, 0.4500803
441.6189, 0.4534190
443.5474, 0.4540227
445.4758, 0.4584350
447.4043, 0.4577527
449.3328, 0.4548601
451.2612, 0.4621040
453.1897, 0.4680527
455.1182, 0.4739266
457.0466, 0.4780435
458.9751, 0.4759091
460.9036, 0.4758280
462.8320, 0.4789366
464.7605, 0.4768238
466.6890, 0.4721466
468.6174, 0.4746964
470.5459, 0.4803173
472.4744, 0.4802803
474.4028, 0.4787275
476.3313, 0.4786642
478.2598, 0.4777154
480.1882, 0.4781188
482.1167, 0.4793581
484.0452, 0.4814541
485.9736, 0.4823024
487.9021, 0.4800260
489.8306, 0.4810487
491.7590, 0.4820588
493.6875, 0.4825678
495.6160, 0.4848908
497.5444, 0.4864391
499.4729, 0.4873895
501.4014, 0.4855925
503.3298, 0.4814141
505.2583, 0.4818402
507.1868, 0.4787521
509.1152, 0.4696071
511.0437, 0.4638404
512.9722, 0.4599500
514.9006, 0.4555468
516.8291, 0.4494847
518.7576, 0.4418192
520.6860, 0.4349638
522.6145, 0.4287978
524.5430, 0.4247419
526.4714, 0.4226454
528.3999, 0.4193385
530.3284, 0.4148861
532.2568, 0.4137417
534.1853, 0.4173347
536.1138, 0.4215530
538.0422, 0.4244033
539.9707, 0.4233553
541.8992, 0.4227365
543.8276, 0.4242576
545.7561, 0.4260456
547.6846, 0.4263754
549.6130, 0.4254149
551.5415, 0.4235222
553.4700, 0.4186715
555.3984, 0.4145336
557.3269, 0.4096541
559.2554, 0.4055074
561.1838, 0.4031073
563.1123, 0.3991117
565.0408, 0.3957742
566.9692, 0.3943689
568.8977, 0.3937888
570.8262, 0.3910192
572.7546, 0.3880132
574.6831, 0.3848265
576.6116, 0.3811686
578.5400, 0.3791614
580.4685, 0.3782480
582.3970, 0.3756451
584.3254, 0.3743526
586.2539, 0.3731330
588.1824, 0.3706871
590.1108, 0.3682156
592.0393, 0.3652251
593.9678, 0.3616379
595.8962, 0.3566357
597.8247, 0.3505617
599.7532, 0.3454393
601.6816, 0.3416552
603.6101, 0.3377590
605.5386, 0.3325246
607.4670, 0.3288692
609.3955, 0.3266234
611.3240, 0.3243661
613.2524, 0.3215683
615.1809, 0.3185537
617.1094, 0.3162435
619.0378, 0.3138330
620.9663, 0.3116641
622.8948, 0.3115211
624.8232, 0.3121388
626.7517, 0.3115424
628.6802, 0.3112843
630.6086, 0.3106069
632.5371, 0.3102429
634.4656, 0.3108736
636.3940, 0.3110465
638.3225, 0.3098897
640.2510, 0.3105579
642.1794, 0.3103852
644.1079, 0.3085403
646.0364, 0.3071486
647.9648, 0.3059129
649.8933, 0.3049729
651.8218, 0.3035159
653.7502, 0.3018316
655.6787, 0.3013821
657.6072, 0.3011497
659.5356, 0.3006241
661.4641, 0.3002224
663.3926, 0.2996337
665.3210, 0.2993981
667.2495, 0.2997772
669.1780, 0.2996254
671.1064, 0.2993793
673.0349, 0.2986249
674.9634, 0.2978645
676.8918, 0.2976460
678.8203, 0.2969531
680.7488, 0.2963526
682.6772, 0.2961067
684.6057, 0.2952248
686.5342, 0.2931076
688.4626, 0.2908881
690.3911, 0.2889876
692.3196, 0.2866434
694.2480, 0.2841603
696.1765, 0.2812174
698.1050, 0.2777919
700.0334, 0.2736658
701.9619, 0.2697850
703.8904, 0.2667698
705.8188, 0.2634763
707.7473, 0.2592215
709.6758, 0.2553485
711.6042, 0.2510470
713.5327, 0.2468716
715.4612, 0.2434336
717.3896, 0.2395618
719.3181, 0.2354806
721.2466, 0.2319617
723.1750, 0.2288954
725.1035, 0.2258414
727.0320, 0.2232804
728.9604, 0.2202864
730.8889, 0.2174470
732.8174, 0.2152261
734.7458, 0.2130448
736.6743, 0.2108023
738.6028, 0.2086852
740.5313, 0.2064372
742.4597, 0.2042370
744.3882, 0.2021707
746.3167, 0.2004143
748.2451, 0.1988575
750.1736, 0.1972958
752.1021, 0.1953913
754.0305, 0.1938631
755.9590, 0.1930571
757.8875, 0.1921798
759.8159, 0.1912825
761.7444, 0.1903701
763.6729, 0.1892022
765.6013, 0.1884206
767.5298, 0.1877728
769.4583, 0.1866497
771.3867, 0.1858720
773.3152, 0.1855794
775.2437, 0.1852972
777.1721, 0.1846890
779.1006, 0.1844044
781.0291, 0.1843918
782.9575, 0.1842557
784.8860, 0.1838949
786.8145, 0.1837230
788.7429, 0.1829977
790.6714, 0.1819167
792.5999, 0.1807413
794.5283, 0.1792845
796.4568, 0.1775066
798.3853, 0.1757524
800.3137, 0.1740471
802.2422, 0.1730747
804.1707, 0.1726691
806.0991, 0.1721976
808.0276, 0.1715128
809.9561, 0.1712589
811.8845, 0.1715674
813.8130, 0.1720959
815.7415, 0.1730299
817.6699, 0.1744857
819.5984, 0.1757933
821.5269, 0.1771471
823.4553, 0.1787567
825.3838, 0.1803350
827.3123, 0.1820308
829.2407, 0.1841223
831.1692, 0.1863047
833.0977, 0.1878805
835.0261, 0.1898249
836.9546, 0.1922511
838.8831, 0.1944151
840.8115, 0.1963498
842.7400, 0.1981482
844.6685, 0.2000437
846.5969, 0.2021992
848.5254, 0.2042409
850.4539, 0.2062399
852.3823, 0.2088203
854.3108, 0.2111093
856.2393, 0.2131949
858.1677, 0.2152433
860.0962, 0.2172039
862.0247, 0.2194683
863.9531, 0.2219611
865.8816, 0.2246676
867.8101, 0.2280889
869.7385, 0.2324502
871.6670, 0.2368279
873.5955, 0.2406176
875.5239, 0.2427788
877.4524, 0.2428668
879.3809, 0.2416833
881.3093, 0.2403803
883.2378, 0.2399299
885.1663, 0.2401968
887.0947, 0.2414267
889.0232, 0.2436847
890.9517, 0.2458754
892.8801, 0.2480612
894.8085, 0.2505366
896.7370, 0.2528383
898.6655, 0.2546842
900.5939, 0.2568402
902.5224, 0.2592099
904.4509, 0.2619256
906.3793, 0.2643183
908.3078, 0.2664185
910.2363, 0.2682133
912.1647, 0.2696454
914.0932, 0.2715478
916.0217, 0.2739542
917.9501, 0.2759159
919.8786, 0.2774561
921.8071, 0.2793263
923.7355, 0.2813946
925.6640, 0.2831426
927.5925, 0.2851064
929.5209, 0.2867230
931.4494, 0.2883965
933.3779, 0.2899399
935.3063, 0.2916891
937.2348, 0.2938512
939.1633, 0.2961368
941.0917, 0.2978770
943.0202, 0.2999220
944.9487, 0.3021675
946.8771, 0.3039967
948.8056, 0.3059967
950.7341, 0.3081074
952.6625, 0.3099791
954.5910, 0.3120626
956.5195, 0.3144338
958.4479, 0.3164416
960.3764, 0.3180276
962.3049, 0.3197342
964.2333, 0.3210934
966.1618, 0.3223823
968.0903, 0.3240196
970.0187, 0.3255125
971.9472, 0.3270434
973.8757, 0.3287655
975.8041, 0.3302929
977.7326, 0.3315482
979.6611, 0.3326700
981.5895, 0.3345428
983.5180, 0.3365573
985.4465, 0.3377541
987.3749, 0.3391561
989.3034, 0.3412506
991.2319, 0.3432522
993.1603, 0.3445536
995.0888, 0.3455888
997.0173, 0.3470669
998.9457, 0.3488867
1000.874, 0.3504313
1002.803, 0.3519149
1004.731, 0.3536052
1006.660, 0.3552071
1008.588, 0.3570832
1010.517, 0.3589409
1012.445, 0.3607469
1014.373, 0.3626087
1016.302, 0.3639747
1018.230, 0.3654953
1020.159, 0.3674501
1022.087, 0.3692994
1024.016, 0.3709022
1025.944, 0.3730126
1027.873, 0.3753043
1029.801, 0.3770994
1031.730, 0.3790277
1033.658, 0.3808408
1035.587, 0.3832949
1037.515, 0.3860295
1039.444, 0.3878225
1041.372, 0.3892993
1043.301, 0.3912121
1045.229, 0.3935957
1047.157, 0.3958446
1049.086, 0.3976566
1051.014, 0.3996058
1052.943, 0.4018656
1054.871, 0.4044046
1056.800, 0.4063330
1058.728, 0.4082912
1060.657, 0.4108341
1062.585, 0.4129582
1064.514, 0.4151598
1066.442, 0.4176083
1068.371, 0.4202954
1070.299, 0.4231136
1072.228, 0.4257888
1074.156, 0.4280062
1076.084, 0.4308842
1078.013, 0.4337760
1079.941, 0.4362252
1081.870, 0.4380917
1083.798, 0.4395577
1085.727, 0.4409359
1087.655, 0.4422667
1089.584, 0.4431063
1091.512, 0.4435550
1093.441, 0.4433146
1095.369, 0.4423125
1097.298, 0.4419135
1099.226, 0.4419202
1101.155, 0.4419325
1103.083, 0.4417307
1105.011, 0.4414245
1106.940, 0.4408912
1108.868, 0.4407136
1110.797, 0.4404666
1112.725, 0.4402444
1114.654, 0.4401939
1116.582, 0.4405066
1118.511, 0.4406242
1120.439, 0.4402235
1122.368, 0.4403512
1124.296, 0.4410688
1126.225, 0.4417480
1128.153, 0.4419166
1130.082, 0.4421144
1132.010, 0.4432474
1133.938, 0.4451917
1135.867, 0.4473912
1137.795, 0.4489195
1139.724, 0.4501741
1141.652, 0.4518909
1143.581, 0.4539151
1145.509, 0.4563243
1147.438, 0.4580255
1149.366, 0.4590796
1151.295, 0.4601305
1153.223, 0.4613401
1155.152, 0.4617329
1157.080, 0.4611338
1159.009, 0.4603737
1160.937, 0.4594346
1162.865, 0.4583189
1164.794, 0.4572035
1166.722, 0.4559728
1168.651, 0.4537776
1170.579, 0.4514572
1172.508, 0.4493925
1174.436, 0.4469354
1176.365, 0.4450483
1178.293, 0.4439097
1180.222, 0.4427838
1182.150, 0.4416810
1184.079, 0.4410014
1186.007, 0.4405441
1187.936, 0.4406255
1189.864, 0.4410196
1191.792, 0.4416012
1193.721, 0.4420195
1195.649, 0.4428620
1197.578, 0.4439249
1199.506, 0.4447088
1201.435, 0.4459012
1203.363, 0.4468389
1205.292, 0.4478356
1207.220, 0.4491099
1209.149, 0.4502468
1211.077, 0.4515930
1213.006, 0.4531920
1214.934, 0.4545155
1216.863, 0.4557354
1218.791, 0.4574004
1220.719, 0.4590964
1222.648, 0.4606661
1224.576, 0.4623215
1226.505, 0.4642159
1228.433, 0.4659800
1230.362, 0.4675595
1232.290, 0.4693888
1234.219, 0.4706775
1236.147, 0.4721139
1238.076, 0.4740688
1240.004, 0.4759972
1241.933, 0.4772142
1243.861, 0.4786321
1245.790, 0.4808886
1247.718, 0.4829914
1249.646, 0.4850365
1251.575, 0.4864053
1253.503, 0.4878768
1255.432, 0.4895989
1257.360, 0.4911190
1259.289, 0.4925763
1261.217, 0.4942228
1263.146, 0.4961196
1265.074, 0.4983423
1267.003, 0.5003266
1268.931, 0.5023881
1270.860, 0.5043109
1272.788, 0.5060961
1274.717, 0.5076880
1276.645, 0.5084308
1278.573, 0.5089706
1280.502, 0.5102676
1282.430, 0.5116194
1284.359, 0.5129283
1286.287, 0.5141680
1288.216, 0.5149279
1290.144, 0.5163735
1292.073, 0.5180827
1294.001, 0.5198854
1295.930, 0.5214746
1297.858, 0.5229999
1299.787, 0.5242876
1301.715, 0.5260114
1303.644, 0.5276821
1305.572, 0.5290551
1307.500, 0.5303712
1309.429, 0.5320024
1311.357, 0.5338282
1313.286, 0.5350627
1315.214, 0.5361336
1317.143, 0.5376355
1319.071, 0.5389525
1321.000, 0.5401646
1322.928, 0.5419503
1324.857, 0.5433769
1326.785, 0.5439801
1328.714, 0.5453467
1330.642, 0.5473434
1332.571, 0.5490533
1334.499, 0.5502377
1336.427, 0.5519569
1338.356, 0.5537950
1340.284, 0.5551266
1342.213, 0.5564523
1344.141, 0.5575712
1346.070, 0.5591260
1347.998, 0.5604528
1349.927, 0.5621219
1351.855, 0.5639817
1353.784, 0.5654678
1355.712, 0.5669063
1357.641, 0.5684822
1359.569, 0.5703827
1361.498, 0.5723513
1363.426, 0.5741666
1365.354, 0.5761814
1367.283, 0.5787432
1369.211, 0.5810971
1371.140, 0.5831010
1373.068, 0.5858739
1374.997, 0.5884792
1376.925, 0.5906542
1378.854, 0.5926791
1380.782, 0.5945833
1382.711, 0.5966364
1384.639, 0.5989230
1386.568, 0.6014982
1388.496, 0.6034572
1390.424, 0.6059540
1392.353, 0.6093603
1394.281, 0.6115375
1396.210, 0.6135768
1398.138, 0.6156887
1400.067, 0.6174072
1401.995, 0.6191284
1403.924, 0.6208572
1405.852, 0.6236323
1407.781, 0.6257702
1409.709, 0.6268174
1411.638, 0.6273320
1413.566, 0.6281331
1415.495, 0.6293460
1417.423, 0.6298658
1419.351, 0.6293485
1421.280, 0.6285346
1423.208, 0.6282154
1425.137, 0.6283640
1427.065, 0.6279088
1428.994, 0.6272915
1430.922, 0.6268303
1432.851, 0.6260955
1434.779, 0.6255221
1436.708, 0.6245671
1438.636, 0.6234383
1440.565, 0.6226241
1442.493, 0.6221915
1444.422, 0.6213042
1446.350, 0.6202794
1448.278, 0.6197047
1450.207, 0.6188309
1452.135, 0.6178234
1454.064, 0.6168559
1455.992, 0.6154779
1457.921, 0.6142760
1459.849, 0.6132438
1461.778, 0.6122300
1463.706, 0.6110906
1465.635, 0.6096889
1467.563, 0.6088285
1469.492, 0.6082141
1471.420, 0.6080831
1473.349, 0.6080937
1475.277, 0.6080869
1477.205, 0.6085123
1479.134, 0.6085989
1481.062, 0.6086463
1482.991, 0.6092265
1484.919, 0.6095814
1486.848, 0.6102052
1488.776, 0.6111156
1490.705, 0.6120840
1492.633, 0.6125568
1494.562, 0.6126614
1496.490, 0.6134765
1498.419, 0.6149623
1500.347, 0.6156917
1502.276, 0.6159428
1504.204, 0.6173448
1506.132, 0.6189075
1508.061, 0.6201207
1509.989, 0.6209443
1511.918, 0.6212967
1513.846, 0.6220935
1515.775, 0.6234569
1517.703, 0.6254314
1519.632, 0.6267093
1521.560, 0.6276754
1523.489, 0.6286865
1525.417, 0.6299335
1527.346, 0.6311214
1529.274, 0.6324381
1531.203, 0.6338276
1533.131, 0.6345930
1535.059, 0.6354131
1536.988, 0.6361377
1538.916, 0.6373446
1540.845, 0.6385157
1542.773, 0.6389973
1544.702, 0.6390827
1546.630, 0.6396074
1548.559, 0.6407793
1550.487, 0.6414146
1552.416, 0.6415195
1554.344, 0.6417155
1556.273, 0.6424190
1558.201, 0.6436048
1560.130, 0.6443391
1562.058, 0.6447569
1563.986, 0.6453416
1565.915, 0.6461055
1567.843, 0.6471450
1569.772, 0.6479154
1571.700, 0.6486376
1573.629, 0.6489967
1575.557, 0.6492698
1577.486, 0.6497386
1579.414, 0.6501562
1581.343, 0.6507825
1583.271, 0.6514775
1585.200, 0.6523489
1587.128, 0.6532164
1589.057, 0.6540652
1590.985, 0.6544219
1592.913, 0.6557328
1594.842, 0.6573295
1596.770, 0.6577324
1598.699, 0.6577048
1600.627, 0.6583309
1602.556, 0.6597399
1604.484, 0.6602837
1606.413, 0.6606845
1608.341, 0.6615355
1610.270, 0.6621826
1612.198, 0.6631746
1614.127, 0.6639214
1616.055, 0.6647940
1617.984, 0.6666415
1619.912, 0.6667538
1621.840, 0.6667019
1623.769, 0.6676368
1625.697, 0.6683432
1627.626, 0.6691097
1629.554, 0.6700800
1631.483, 0.6708876
1633.411, 0.6714746
1635.340, 0.6721862
1637.268, 0.6731908
1639.197, 0.6733636
1641.125, 0.6736644
1643.054, 0.6735665
1644.982, 0.6742341
1646.911, 0.6745988
1648.839, 0.6752034
1650.767, 0.6765937
1652.696, 0.6770610
1654.624, 0.6770603
1656.553, 0.6771550
1658.481, 0.6775256
1660.410, 0.6775031
1662.338, 0.6779413
1664.267, 0.6784952
1666.195, 0.6782306
1668.124, 0.6786758
1670.052, 0.6791486
1671.981, 0.6800317
1673.909, 0.6810060
1675.838, 0.6816053
1677.766, 0.6821446
1679.694, 0.6829828
1681.623, 0.6837075
1683.551, 0.6848958
1685.480, 0.6860271
1687.408, 0.6870978
1689.337, 0.6882461
1691.265, 0.6893895
1693.194, 0.6902393
1695.122, 0.6914669
1697.051, 0.6928981
1698.979, 0.6946449
1700.908, 0.6961791
1702.836, 0.6970502
1704.765, 0.6984442
1706.693, 0.6992247
1708.621, 0.6996215
1710.550, 0.7009566
1712.478, 0.7020410
1714.407, 0.7027514
1716.335, 0.7039698
1718.264, 0.7056448
1720.192, 0.7063415
1722.121, 0.7066426
1724.049, 0.7072513
1725.978, 0.7079973
1727.906, 0.7087147
1729.835, 0.7086169
1731.763, 0.7076535
1733.692, 0.7073554
1735.620, 0.7072016
1737.548, 0.7066972
1739.477, 0.7054447
1741.405, 0.7044992
1743.334, 0.7048696
1745.262, 0.7060537
1747.191, 0.7079740
1749.119, 0.7091430
1751.048, 0.7101960
1752.976, 0.7114615
1754.905, 0.7137692
1756.833, 0.7156934
1758.762, 0.7169215
1760.690, 0.7179491
1762.619, 0.7190748
1764.547, 0.7210046
1766.475, 0.7226025
1768.404, 0.7235857
1770.332, 0.7247646
1772.261, 0.7253764
1774.189, 0.7252584
1776.118, 0.7265972
1778.046, 0.7286096
1779.975, 0.7297643
1781.903, 0.7301298
1783.832, 0.7304138
1785.760, 0.7315436
1787.689, 0.7335711
1789.617, 0.7346778
1791.546, 0.7354542
1793.474, 0.7362688
1795.402, 0.7370941
1797.331, 0.7380667
1799.259, 0.7394387
1801.188, 0.7390522
1803.116, 0.7389067
1805.045, 0.7396529
1806.973, 0.7403816
1808.902, 0.7414343
1810.830, 0.7420351
1812.759, 0.7427560
1814.687, 0.7435555
1816.616, 0.7444059
1818.544, 0.7448676
1820.473, 0.7466257
1822.401, 0.7485214
1824.329, 0.7481853
1826.258, 0.7473713
1828.186, 0.7483167
1830.115, 0.7504432
1832.043, 0.7513800
1833.972, 0.7518936
1835.900, 0.7521667
1837.829, 0.7524611
1839.757, 0.7537899
1841.686, 0.7553019
1843.614, 0.7557535
1845.543, 0.7557417
1847.471, 0.7566769
1849.400, 0.7585234
1851.328, 0.7596424
1853.256, 0.7607211
1855.185, 0.7614058
1857.113, 0.7594551
1859.042, 0.7595116
1860.970, 0.7615647
1862.899, 0.7615586
1864.827, 0.7611439
1866.756, 0.7621544
1868.684, 0.7643118
1870.613, 0.7658188
1872.541, 0.7660357
1874.470, 0.7664883
1876.398, 0.7682322
1878.327, 0.7701805
1880.255, 0.7708974
1882.183, 0.7712833
1884.112, 0.7717372
1886.040, 0.7713601
1887.969, 0.7709879
1889.897, 0.7723342
1891.826, 0.7727387
1893.754, 0.7723093
1895.683, 0.7728405
1897.611, 0.7749745
1899.540, 0.7774046
1901.468, 0.7776241
1903.397, 0.7769269
1905.325, 0.7776976
1907.254, 0.7785687
1909.182, 0.7777003
1911.110, 0.7774172
1913.039, 0.7755448
1914.967, 0.7751498
1916.896, 0.7792423
1918.824, 0.7800206
1920.753, 0.7771944
1922.681, 0.7780052
1924.610, 0.7806026
1926.538, 0.7820432
1928.467, 0.7794899
1930.395, 0.7780803
1932.324, 0.7779500
1934.252, 0.7800763
1936.181, 0.7811770
1938.109, 0.7778487
1940.037, 0.7782816
1941.966, 0.7793044
1943.894, 0.7784299
1945.823, 0.7780511
1947.751, 0.7804277
1949.680, 0.7818313
1951.608, 0.7758077
1953.537, 0.7718450
1955.465, 0.7735100
1957.394, 0.7729267
1959.322, 0.7706043
1961.251, 0.7711861
1963.179, 0.7722545
1965.108, 0.7720038
1967.036, 0.7735708
1968.964, 0.7720563
1970.893, 0.7693552
1972.821, 0.7659311
1974.750, 0.7660065
1976.678, 0.7682346
1978.607, 0.7665080
1980.535, 0.7686223
1982.464, 0.7761104
1984.392, 0.7763917
1986.321, 0.7743720
1988.249, 0.7768992
1990.178, 0.7771005
1992.106, 0.7769307
1994.035, 0.7768213
1995.963, 0.7760314
1997.891, 0.7741370
1999.820, 0.7735064
2001.748, 0.7785618
2003.677, 0.7803519
2005.605, 0.7762523
2007.534, 0.7759329
2009.462, 0.7783119
2011.391, 0.7786959
2013.319, 0.7795664
2015.248, 0.7778583
2017.176, 0.7744786
2019.105, 0.7715541
2021.033, 0.7760375
2022.962, 0.7839172
2024.890, 0.7849573
2026.818, 0.7791981
2028.747, 0.7746622
2030.675, 0.7740465
2032.604, 0.7767929
2034.532, 0.7755715
2036.461, 0.7758585
2038.389, 0.7808042
2040.318, 0.7822146
2042.246, 0.7837906
2044.175, 0.7875392
2046.103, 0.7875307
2048.032, 0.7870897
2049.960, 0.7922684
2051.889, 0.7958828
2053.817, 0.7984289
2055.746, 0.7990156
2057.674, 0.7986736
2059.603, 0.8023290
2061.531, 0.8031158
2063.459, 0.8013552
2065.388, 0.8017243
2067.316, 0.8019320
2069.245, 0.8010730
2071.173, 0.8021110
2073.102, 0.8002394
2075.030, 0.7997903
2076.959, 0.8032992
2078.887, 0.8073580
2080.816, 0.8106052
2082.744, 0.8108799
2084.673, 0.8082170
2086.601, 0.8062506
2088.530, 0.8086802
2090.458, 0.8086776
2092.386, 0.8047690
2094.315, 0.8068883
2096.243, 0.8111725
2098.172, 0.8110642
2100.100, 0.8116807
2102.029, 0.8098552
2103.957, 0.8078849
2105.886, 0.8082715
2107.814, 0.8099260
2109.743, 0.8110732
2111.671, 0.8122720
2113.600, 0.8118827
2115.528, 0.8100998
2117.457, 0.8097663
2119.385, 0.8131033
2121.313, 0.8138684
2123.242, 0.8115487
2125.170, 0.8118815
2127.099, 0.8112729
2129.027, 0.8133702
2130.956, 0.8140990
2132.884, 0.8130114
2134.813, 0.8149238
2136.741, 0.8120396
2138.670, 0.8095239
2140.598, 0.8095131
2142.527, 0.8062639
2144.455, 0.8015646
2146.384, 0.7968251
2148.312, 0.7985332
2150.240, 0.8030947
2152.169, 0.8011308
2154.097, 0.7945724
2156.026, 0.7873402
2157.954, 0.7852058
2159.883, 0.7922281
2161.811, 0.8012962
2163.740, 0.8077649
2165.668, 0.8073696
2167.597, 0.8067915
2169.525, 0.8086513
2171.454, 0.8140710
2173.382, 0.8134009
2175.311, 0.8141565
2177.239, 0.8167918
2179.167, 0.8129322
2181.096, 0.8148476
2183.024, 0.8187684
2184.953, 0.8205083
2186.881, 0.8246259
2188.810, 0.8273673
2190.738, 0.8288772
2192.667, 0.8332400
2194.595, 0.8342099
2196.524, 0.8282658
2198.452, 0.8286130
2200.381, 0.8326814
2202.309, 0.8354703
2204.238, 0.8334484
2206.166, 0.8325572
2208.094, 0.8360950
2210.023, 0.8383905
2211.951, 0.8377040
2213.880, 0.8398947
2215.808, 0.8479804
2217.737, 0.8493115
2219.665, 0.8473969
2221.594, 0.8473353
2223.522, 0.8490452
2225.451, 0.8498272
2227.379, 0.8513800
2229.308, 0.8521031
2231.236, 0.8535205
2233.165, 0.8542795
2235.093, 0.8544949
2237.021, 0.8542413
2238.950, 0.8550885
2240.878, 0.8566108
2242.807, 0.8606156
2244.735, 0.8624480
2246.664, 0.8652236
2248.592, 0.8640998
2250.521, 0.8628345
2252.449, 0.8654904
2254.378, 0.8685263
2256.306, 0.8702939
2258.235, 0.8700871
2260.163, 0.8693944
2262.092, 0.8719587
2264.020, 0.8759239
2265.948, 0.8768502
2267.877, 0.8774345
2269.805, 0.8780381
2271.734, 0.8793187
2273.662, 0.8802419
2275.591, 0.8796641
2277.519, 0.8792852
2279.448, 0.8802555
2281.376, 0.8854678
2283.305, 0.8893045
2285.233, 0.8897251
2287.162, 0.8908824
2289.090, 0.8930405
2291.019, 0.8930075
2292.947, 0.8940045
2294.875, 0.8953626
2296.804, 0.8966295
2298.732, 0.8957451
2300.661, 0.8951004
2302.589, 0.8965129
2304.518, 0.8997201
2306.446, 0.9019189
2308.375, 0.9030105
2310.303, 0.9017792
2312.232, 0.9024065
2314.160, 0.9047729
2316.089, 0.9064527
2318.017, 0.9074033
2319.946, 0.9083409
2321.874, 0.9098142
2323.802, 0.9118862
2325.731, 0.9132119
2327.659, 0.9126113
2329.588, 0.9121798
2331.516, 0.9120680
2333.445, 0.9131432
2335.373, 0.9160786
2337.302, 0.9180543
2339.230, 0.9186800
2341.159, 0.9185627
2343.087, 0.9181541
2345.016, 0.9186115
2346.944, 0.9187655
2348.873, 0.9180415
2350.801, 0.9189322
2352.729, 0.9215581
2354.658, 0.9222014
2356.586, 0.9231297
2358.515, 0.9240178
2360.443, 0.9262679
2362.372, 0.9269566
2364.300, 0.9267541
2366.229, 0.9276076
2368.157, 0.9282435
2370.086, 0.9282016
2372.014, 0.9283028
2373.942, 0.9282968
2375.871, 0.9275919
2377.799, 0.9286101
2379.728, 0.9308264
2381.656, 0.9307213
2383.585, 0.9299890
2385.513, 0.9331634
2387.442, 0.9355324
2389.370, 0.9337704
2391.299, 0.9317958
2393.227, 0.9326839
2395.156, 0.9333575
2397.084, 0.9338421
2399.012, 0.9369157
2400.941, 0.9389952
2402.869, 0.9381108
2404.798, 0.9368936
2406.726, 0.9378161
2408.655, 0.9391785
2410.583, 0.9412248
2412.512, 0.9432810
2414.440, 0.9431251
2416.369, 0.9424631
2418.297, 0.9433203
2420.226, 0.9441327
2422.154, 0.9431159
2424.083, 0.9449962
2426.011, 0.9480461
2427.939, 0.9473466
2429.868, 0.9465880
2431.796, 0.9481344
2433.725, 0.9504157
2435.653, 0.9508227
2437.582, 0.9513470
2439.510, 0.9515592
2441.439, 0.9517909
2443.367, 0.9529561
2445.296, 0.9531578
2447.224, 0.9542489
2449.153, 0.9572521
2451.081, 0.9576489
2453.010, 0.9572181
2454.938, 0.9587838
2456.866, 0.9586293
2458.795, 0.9594560
2460.723, 0.9603007
2462.652, 0.9612523
2464.580, 0.9627225
2466.509, 0.9620985
2468.437, 0.9614437
2470.366, 0.9634675
2472.294, 0.9642753
2474.223, 0.9646428
2476.151, 0.9677444
2478.080, 0.9686768
2480.008, 0.9693210
2481.937, 0.9692332
2483.865, 0.9676561
2485.793, 0.9687937
2487.722, 0.9713817
2489.650, 0.9723559
2491.579, 0.9725723
2493.507, 0.9727412
2495.436, 0.9731066
2497.364, 0.9749175
2499.293, 0.9775126
2501.221, 0.9767876
2503.150, 0.9761818
2505.078, 0.9782860
2507.007, 0.9803578
2508.935, 0.9808908
2510.864, 0.9828087
2512.792, 0.9838244
2514.720, 0.9821059
2516.649, 0.9815594
2518.577, 0.9839772
2520.506, 0.9859979
2522.434, 0.9865771
2524.363, 0.9876832
2526.291, 0.9868536
2528.220, 0.9855770
2530.148, 0.9869080
2532.077, 0.9872036
2534.005, 0.9871089
2535.934, 0.9863766
2537.862, 0.9878912
2539.791, 0.9883595
2541.719, 0.9883581
2543.647, 0.9932923
2545.576, 0.9925746
2547.504, 0.9909353
2549.433, 0.9913885
2551.361, 0.9937081
2553.290, 0.9958582
2555.218, 0.9961091
2557.147, 0.9956747
2559.075, 0.9974318
2561.004, 0.9960931
2562.932, 0.9938596
2564.861, 0.9959044
2566.789, 0.9983738
2568.718, 0.9990342
2570.646, 1.000697
2572.574, 1.001579
2574.503, 1.002802
2576.431, 1.002933
2578.360, 1.002086
2580.288, 1.002489
2582.217, 1.002916
2584.145, 1.003846
2586.074, 1.006005
2588.002, 1.005918
2589.931, 1.007390
2591.859, 1.009035
2593.788, 1.008455
2595.716, 1.008121
2597.645, 1.008087
2599.573, 1.008638
2601.501, 1.011209
2603.430, 1.012204
2605.358, 1.012345
2607.287, 1.012701
2609.215, 1.014173
2611.144, 1.013499
2613.072, 1.013977
2615.001, 1.014480
2616.929, 1.014495
2618.858, 1.015459
2620.786, 1.017007
2622.715, 1.018710
2624.643, 1.017305
2626.572, 1.017901
2628.500, 1.019518
2630.428, 1.020428
2632.357, 1.021428
2634.285, 1.023280
2636.214, 1.023994
2638.142, 1.024326
2640.071, 1.025720
2641.999, 1.026103
2643.928, 1.026024
2645.856, 1.025984
2647.785, 1.024816
2649.713, 1.025920
2651.642, 1.027253
2653.570, 1.027608
2655.499, 1.028800
2657.427, 1.031361
2659.355, 1.032227
2661.284, 1.031789
2663.212, 1.031463
2665.141, 1.031683
2667.069, 1.032022
2668.998, 1.031247
2670.926, 1.031870
2672.855, 1.032355
2674.783, 1.032052
2676.712, 1.032917
2678.640, 1.034483
2680.569, 1.035732
2682.497, 1.035733
2684.426, 1.036353
2686.354, 1.036841
2688.282, 1.035900
2690.211, 1.036944
2692.139, 1.038640
2694.068, 1.039647
2695.996, 1.038893
2697.925, 1.038218
2699.853, 1.038679
2701.782, 1.039211
2703.710, 1.040492
2705.639, 1.041016
2707.567, 1.041808
2709.496, 1.041154
2711.424, 1.040700
2713.353, 1.042504
2715.281, 1.044703
2717.209, 1.044125
2719.138, 1.043213
2721.066, 1.044680
2722.995, 1.045813
2724.923, 1.047131
2726.852, 1.047747
2728.780, 1.047636
2730.709, 1.046936
2732.637, 1.046079
2734.566, 1.046795
2736.494, 1.049157
2738.423, 1.049722
2740.351, 1.049651
2742.280, 1.049000
2744.208, 1.048401
2746.136, 1.048221
2748.065, 1.049146
2749.993, 1.051432
2751.922, 1.052462
2753.850, 1.052397
2755.779, 1.052561
2757.707, 1.052954
2759.636, 1.054259
2761.564, 1.054638
2763.493, 1.053510
2765.421, 1.054113
2767.350, 1.057241
2769.278, 1.057481
2771.207, 1.056237
2773.135, 1.056121
2775.063, 1.056761
2776.992, 1.058743
2778.920, 1.060286
2780.849, 1.061188
2782.777, 1.061606
2784.706, 1.061759
2786.634, 1.062186
2788.563, 1.061703
2790.491, 1.061828
2792.420, 1.063682
2794.348, 1.064144
2796.277, 1.064224
2798.205, 1.065626
2800.134, 1.066862
2802.062, 1.067526
2803.990, 1.068444
2805.919, 1.069626
2807.847, 1.071913
2809.776, 1.073646
2811.704, 1.071164
2813.633, 1.071756
2815.561, 1.074750
2817.490, 1.073833
2819.418, 1.072872
2821.347, 1.074572
2823.275, 1.077082
2825.204, 1.077257
2827.132, 1.075698
2829.061, 1.075569
2830.989, 1.077462
2832.917, 1.079018
2834.846, 1.079491
2836.774, 1.080345
2838.703, 1.083087
2840.631, 1.082325
2842.560, 1.082185
2844.488, 1.082365
2846.417, 1.081936
2848.345, 1.081945
2850.274, 1.082997
2852.202, 1.084536
2854.131, 1.083768
2856.059, 1.083943
2857.988, 1.083933
2859.916, 1.084437
2861.844, 1.084381
2863.773, 1.085194
2865.701, 1.085766
2867.630, 1.086697
2869.558, 1.087105
2871.487, 1.090078
2873.415, 1.091285
2875.344, 1.089534
2877.272, 1.090974
2879.201, 1.091984
2881.129, 1.092222
2883.058, 1.091503
2884.986, 1.092535
2886.915, 1.095096
2888.843, 1.098283
2890.771, 1.098234
2892.700, 1.096723
2894.628, 1.096458
2896.557, 1.098020
2898.485, 1.100769
2900.414, 1.103240
2902.342, 1.102615
2904.271, 1.100831
2906.199, 1.101618
2908.128, 1.105623
2910.056, 1.108721
2911.985, 1.105265
2913.913, 1.102638
2915.842, 1.103452
2917.770, 1.105050
2919.698, 1.106158
2921.627, 1.103583
2923.555, 1.103103
2925.484, 1.103727
2927.412, 1.101242
2929.341, 1.100068
2931.269, 1.098834
2933.198, 1.097266
2935.126, 1.097095
2937.055, 1.098111
2938.983, 1.097371
2940.912, 1.097688
2942.840, 1.099970
2944.769, 1.101968
2946.697, 1.100923
2948.625, 1.099525
2950.554, 1.101526
2952.482, 1.102239
2954.411, 1.102847
2956.339, 1.104802
2958.268, 1.105810
2960.196, 1.104910
2962.125, 1.103050
2964.053, 1.102773
2965.982, 1.101817
2967.910, 1.099689
2969.839, 1.101772
2971.767, 1.103921
2973.696, 1.104526
2975.624, 1.107887
2977.552, 1.108657
2979.481, 1.106547
2981.409, 1.105871
2983.338, 1.110149
2985.266, 1.113412
2987.195, 1.111545
2989.123, 1.111162
2991.052, 1.109590
2992.980, 1.108490
2994.909, 1.110724
2996.837, 1.115033
2998.766, 1.117724
3000.694, 1.115592
3002.623, 1.115850
3004.551, 1.117464
3006.479, 1.116690
3008.408, 1.116779
3010.336, 1.118330
3012.265, 1.118073
3014.193, 1.116684
3016.122, 1.115437
3018.050, 1.115821
3019.979, 1.120060
3021.907, 1.121629
3023.836, 1.122801
3025.764, 1.122747
3027.693, 1.120547
3029.621, 1.122840
3031.550, 1.122804
3033.478, 1.122297
3035.406, 1.124328
3037.335, 1.126256
3039.263, 1.126555
3041.192, 1.125937
3043.120, 1.128526
3045.049, 1.129788
3046.977, 1.125328
3048.906, 1.127128
3050.834, 1.131839
3052.763, 1.132197
3054.691, 1.130787
3056.620, 1.129783
3058.548, 1.129164
3060.477, 1.127732
3062.405, 1.129834
3064.333, 1.132520
3066.262, 1.133455
3068.190, 1.135076
3070.119, 1.133675
3072.047, 1.133967
3073.976, 1.135929
3075.904, 1.136088
3077.833, 1.136082
3079.761, 1.137246
3081.690, 1.139414
3083.618, 1.140249
3085.547, 1.140398
3087.475, 1.143179
3089.404, 1.143414
3091.332, 1.140638
3093.260, 1.142567
3095.189, 1.146502
3097.117, 1.145521
3099.046, 1.145036
3100.974, 1.146632
3102.903, 1.147322
3104.831, 1.147871
3106.760, 1.149829
3108.688, 1.151701
3110.617, 1.149982
3112.545, 1.149064
3114.474, 1.149106
3116.402, 1.149136
3118.331, 1.151174
3120.259, 1.150375
3122.188, 1.150445
3124.116, 1.149654
3126.044, 1.150356
3127.973, 1.153308
3129.901, 1.157317
3131.830, 1.158464
3133.758, 1.158393
3135.687, 1.157895
3137.615, 1.156121
3139.544, 1.155153
3141.472, 1.156192
3143.401, 1.161414
3145.329, 1.162596
3147.258, 1.161137
3149.186, 1.159760
3151.115, 1.161572
3153.043, 1.166032
3154.971, 1.166555
3156.900, 1.166042
3158.828, 1.164847
3160.757, 1.162621
3162.685, 1.161104
3164.614, 1.159449
3166.542, 1.160960
3168.471, 1.164271
3170.399, 1.168579
3172.328, 1.171573
3174.256, 1.172221
3176.185, 1.171752
3178.113, 1.169410
3180.042, 1.168783
3181.970, 1.168747
3183.898, 1.169165
3185.827, 1.169801
3187.755, 1.170430
3189.684, 1.171178
3191.612, 1.173700
3193.541, 1.173185
3195.469, 1.173670
3197.398, 1.175285
3199.326, 1.176471
3201.255, 1.178240
3203.183, 1.176832
3205.112, 1.178450
3207.040, 1.180316
3208.969, 1.181890
3210.897, 1.184239
3212.825, 1.183541
3214.754, 1.181286
3216.682, 1.182722
3218.611, 1.185505
3220.539, 1.184874
3222.468, 1.187895
3224.396, 1.191186
3226.325, 1.189704
3228.253, 1.190036
3230.182, 1.191422
3232.110, 1.189271
3234.039, 1.189740
3235.967, 1.190964
3237.896, 1.191218
3239.824, 1.193252
3241.752, 1.195599
3243.681, 1.196551
3245.609, 1.198210
3247.538, 1.199862
3249.466, 1.197684
3251.395, 1.195135
3253.323, 1.197279
3255.252, 1.200809
3257.180, 1.201167
3259.109, 1.200582
3261.037, 1.200982
3262.966, 1.201067
3264.894, 1.200608
3266.823, 1.203378
3268.751, 1.204018
3270.679, 1.203136
3272.608, 1.204401
3274.536, 1.205319
3276.465, 1.207281
3278.393, 1.208881
3280.322, 1.208925
3282.250, 1.208209
3284.179, 1.211748
3286.107, 1.215474
3288.036, 1.212963
3289.964, 1.213776
3291.893, 1.215858
3293.821, 1.215293
3295.750, 1.214091
3297.678, 1.214162
3299.606, 1.216932
3301.535, 1.221348
3303.463, 1.225235
3305.392, 1.225708
3307.320, 1.224251
3309.249, 1.222152
3311.177, 1.223825
3313.106, 1.228215
3315.034, 1.229563
3316.963, 1.231028
3318.891, 1.231554
3320.820, 1.233231
3322.748, 1.234579
3324.677, 1.235997
3326.605, 1.235556
3328.533, 1.239769
3330.462, 1.247155
3332.390, 1.248259
3334.319, 1.246473
3336.247, 1.250223
3338.176, 1.251879
3340.104, 1.254386
3342.033, 1.256092
3343.961, 1.254196
3345.890, 1.256947
3347.818, 1.261264
3349.747, 1.263286
3351.675, 1.262943
3353.604, 1.270244
3355.532, 1.274371
3357.460, 1.275969
3359.389, 1.279855
3361.317, 1.282584
3363.246, 1.286383
3365.174, 1.289446
3367.103, 1.291696
3369.031, 1.293861
3370.960, 1.293831
3372.888, 1.296585
3374.817, 1.301325
3376.745, 1.304856
3378.674, 1.306832
3380.602, 1.305462
3382.531, 1.302328
3384.459, 1.299187
3386.387, 1.298895
3388.316, 1.299056
3390.244, 1.294645
3392.173, 1.284628
3394.101, 1.273986
3396.030, 1.263829
3397.958, 1.254070
3399.887, 1.240325
3401.815, 1.228406
3403.744, 1.219868
3405.672, 1.209459
3407.601, 1.200645
3409.529, 1.193301
3411.458, 1.186300
3413.386, 1.181292
3415.314, 1.177928
3417.243, 1.177559
3419.171, 1.176349
3421.100, 1.173846
3423.028, 1.172385
3424.957, 1.170564
3426.885, 1.167912
3428.814, 1.168496
3430.742, 1.168841
3432.671, 1.169551
3434.599, 1.173144
3436.528, 1.168732
3438.456, 1.164922
3440.385, 1.166679
3442.313, 1.167019
3444.241, 1.169500
3446.170, 1.166953
3448.098, 1.163897
3450.027, 1.165255
3451.955, 1.164888
3453.884, 1.165702
3455.812, 1.167144
3457.741, 1.170192
3459.669, 1.167699
3461.598, 1.163221
3463.526, 1.167296
3465.455, 1.173096
3467.383, 1.172510
3469.312, 1.171936
3471.240, 1.173807
3473.168, 1.173286
3475.097, 1.173294
3477.025, 1.172740
3478.954, 1.174859
3480.882, 1.174809
3482.811, 1.171110
3484.739, 1.173046
3486.668, 1.176344
3488.596, 1.178197
3490.525, 1.182380
3492.453, 1.182510
3494.382, 1.181802
3496.310, 1.180822
3498.239, 1.179039
3500.167, 1.181110
3502.095, 1.184349
3504.024, 1.182847
3505.952, 1.181086
3507.881, 1.181007
3509.809, 1.179976
3511.738, 1.182440
3513.666, 1.186374
3515.595, 1.184978
3517.523, 1.183279
3519.452, 1.186789
3521.380, 1.188771
3523.309, 1.185695
3525.237, 1.183163
3527.166, 1.182758
3529.094, 1.183957
3531.022, 1.189812
3532.951, 1.194410
3534.879, 1.195110
3536.808, 1.194944
3538.736, 1.189299
3540.665, 1.188339
3542.593, 1.189934
3544.522, 1.191483
3546.450, 1.192733
3548.379, 1.190812
3550.307, 1.192717
3552.236, 1.197864
3554.164, 1.195990
3556.093, 1.194764
3558.021, 1.197190
3559.949, 1.200118
3561.878, 1.199736
3563.806, 1.200916
3565.735, 1.202700
3567.663, 1.200670
3569.592, 1.200692
3571.520, 1.201224
3573.449, 1.201948
3575.377, 1.196971
3577.306, 1.201210
3579.234, 1.204932
3581.163, 1.203269
3583.091, 1.205323
3585.020, 1.204315
3586.948, 1.197468
3588.876, 1.198342
3590.805, 1.205532
3592.733, 1.205941
3594.662, 1.207836
3596.590, 1.211958
3598.519, 1.209942
3600.447, 1.209925
3602.376, 1.213876
3604.304, 1.211530
3606.233, 1.208911
3608.161, 1.216574
3610.090, 1.218290
3612.018, 1.215857
3613.947, 1.213089
3615.875, 1.212230
3617.803, 1.213239
3619.732, 1.213976
3621.660, 1.214016
3623.589, 1.214451
3625.517, 1.216525
3627.446, 1.214114
3629.374, 1.214792
3631.303, 1.224045
3633.231, 1.222566
3635.160, 1.221090
3637.088, 1.225108
3639.017, 1.228089
3640.945, 1.226398
3642.874, 1.223604
3644.802, 1.224230
3646.730, 1.227225
3648.659, 1.228612
3650.587, 1.230728
3652.516, 1.234453
3654.444, 1.231817
3656.373, 1.232917
3658.301, 1.234933
3660.230, 1.234126
3662.158, 1.239980
3664.087, 1.240904
3666.015, 1.236490
3667.944, 1.237092
3669.872, 1.239061
3671.801, 1.236082
3673.729, 1.236660
3675.657, 1.238408
3677.586, 1.242136
3679.514, 1.242973
3681.443, 1.242140
3683.371, 1.241045
3685.300, 1.245021
3687.228, 1.248296
3689.157, 1.246182
3691.085, 1.244882
3693.014, 1.246402
3694.942, 1.248282
3696.871, 1.249851
3698.799, 1.248781
3700.728, 1.251070
3702.656, 1.253523
3704.584, 1.252072
3706.513, 1.251192
3708.441, 1.253062
3710.370, 1.251362
3712.298, 1.251171
3714.227, 1.258433
3716.155, 1.258246
3718.084, 1.253385
3720.012, 1.255048
3721.941, 1.261889
3723.869, 1.265217
3725.798, 1.262745
3727.726, 1.260906
3729.655, 1.266414
3731.583, 1.266806
3733.511, 1.267437
3735.440, 1.269871
3737.368, 1.271251
3739.297, 1.272574
3741.225, 1.275506
3743.154, 1.272514
3745.082, 1.268359
3747.011, 1.268147
3748.939, 1.271195
3750.868, 1.270063
3752.796, 1.275278
3754.725, 1.274114
3756.653, 1.272271
3758.582, 1.276761
3760.510, 1.277007
3762.438, 1.278411
3764.367, 1.279598
3766.295, 1.276211
3768.224, 1.274424
3770.152, 1.269753
3772.081, 1.271829
3774.009, 1.275665
3775.938, 1.279595
3777.866, 1.286142
3779.795, 1.287174
3781.723, 1.284133
3783.652, 1.285805
3785.580, 1.286261
3787.509, 1.282939
3789.437, 1.284507
3791.365, 1.289939
3793.294, 1.285717
3795.222, 1.285999
3797.151, 1.292545
3799.079, 1.297191
3801.008, 1.294558
3802.936, 1.290968
3804.865, 1.296712
3806.793, 1.297444
3808.722, 1.293793
3810.650, 1.295867
3812.579, 1.299361
3814.507, 1.298162
3816.436, 1.298736
3818.364, 1.301557
3820.292, 1.297895
3822.221, 1.292373
3824.149, 1.291005
3826.078, 1.298405
3828.006, 1.303324
3829.935, 1.307699
3831.863, 1.312119
3833.792, 1.314019
3835.720, 1.308921
3837.649, 1.304842
3839.577, 1.307704
3841.506, 1.311862
3843.434, 1.312231
3845.363, 1.314182
3847.291, 1.312986
3849.219, 1.308460
3851.148, 1.309797
3853.076, 1.312658
3855.005, 1.310490
3856.933, 1.312607
3858.862, 1.313978
3860.790, 1.313589
3862.719, 1.316081
3864.647, 1.320133
3866.576, 1.323467
3868.504, 1.319117
3870.433, 1.314128
3872.361, 1.315393
3874.290, 1.316864
3876.218, 1.316406
3878.146, 1.326950
3880.075, 1.329162
3882.003, 1.317989
3883.932, 1.314855
3885.860, 1.315078
3887.789, 1.315207
3889.717, 1.321917
3891.646, 1.324918
3893.574, 1.328053
3895.503, 1.327319
3897.431, 1.323658
3899.360, 1.322303
3901.288, 1.327009
3903.217, 1.334592
3905.145, 1.335600
3907.073, 1.337456
3909.002, 1.335505
3910.930, 1.332752
3912.859, 1.327550
3914.787, 1.332991
3916.716, 1.336120
3918.644, 1.332755
3920.573, 1.334096
3922.501, 1.337444
3924.430, 1.339211
3926.358, 1.342698
3928.287, 1.339048
3930.215, 1.340172
3932.144, 1.342977
3934.072, 1.341484
3936.000, 1.336133
3937.929, 1.334222
3939.857, 1.339653
3941.786, 1.344605
3943.714, 1.340266
3945.643, 1.340975
3947.571, 1.346010
3949.500, 1.344727
3951.428, 1.345924
3953.357, 1.353001
3955.285, 1.357096
3957.214, 1.354441
3959.142, 1.346856
3961.071, 1.353960
3962.999, 1.361315
3964.927, 1.359546
3966.856, 1.358376
3968.784, 1.351488
3970.713, 1.344819
3972.641, 1.353588
3974.570, 1.359664
3976.498, 1.358941
3978.427, 1.355822
3980.355, 1.353733
3982.284, 1.354068
3984.212, 1.356362
3986.141, 1.356195
3988.069, 1.350225
3989.998, 1.348598
3991.926, 1.349693
3993.854, 1.363215
3995.783, 1.370544
3997.711, 1.360508
3999.640, 1.361164
##END=



