##NAMES=Riebeckite
##RRUFFID=R050082
##IDEAL CHEMISTRY=[box]Na_2_(Fe^2+^_3_Fe^3+^_2_)Si_8_O_22_(OH)_2_
##LOCALITY=Mt. Malosa, Zomba, Chilwa, Alkaline Area, Malawi
##OWNER=RRUFF
##SOURCE=Rock Currier
##DESCRIPTION=Black elongated prisms
##STATUS=The identification of this mineral has been confirmed by X-ray diffraction and chemical analysis
##URL=rruff.info/R050082
##MEASURED CHEMISTRY=([box]_0.63_Na_0.19_K_0.18_)(Na_1.58_Ca_0.42_)_Σ=2_Fe^2+^_3.00_(Fe^3+^_1.30_Fe^2+^_0.45_Mn_0.15_Mg_0.05_Ti_0.05_)_Σ=2_(Si_0.98_Al_0.02_)_8_O_22_(OH)_2_
3.991926e+002, 0.000000e+000
4.011211e+002, 1.662526e-001
4.030496e+002, 1.670545e-001
4.049780e+002, 1.612178e-001
4.069065e+002, 1.634526e-001
4.088350e+002, 1.708530e-001
4.107634e+002, 1.768102e-001
4.126919e+002, 1.804958e-001
4.146204e+002, 1.848842e-001
4.165488e+002, 1.905603e-001
4.184773e+002, 1.976519e-001
4.204058e+002, 2.054080e-001
4.223342e+002, 2.110266e-001
4.242627e+002, 2.131464e-001
4.261912e+002, 2.169466e-001
4.281196e+002, 2.223933e-001
4.300481e+002, 2.272194e-001
4.319766e+002, 2.317263e-001
4.339050e+002, 2.390658e-001
4.358335e+002, 2.450527e-001
4.377620e+002, 2.471758e-001
4.396904e+002, 2.476478e-001
4.416189e+002, 2.495698e-001
4.435474e+002, 2.539618e-001
4.454758e+002, 2.545641e-001
4.474043e+002, 2.500743e-001
4.493328e+002, 2.442095e-001
4.512612e+002, 2.380181e-001
4.531897e+002, 2.302083e-001
4.551182e+002, 2.226005e-001
4.570466e+002, 2.162320e-001
4.589751e+002, 2.089353e-001
4.609036e+002, 2.031339e-001
4.628320e+002, 1.979619e-001
4.647605e+002, 1.932099e-001
4.666890e+002, 1.899254e-001
4.686174e+002, 1.876980e-001
4.705459e+002, 1.859043e-001
4.724744e+002, 1.846478e-001
4.744028e+002, 1.837207e-001
4.763313e+002, 1.833899e-001
4.782598e+002, 1.836345e-001
4.801882e+002, 1.836728e-001
4.821167e+002, 1.841498e-001
4.840452e+002, 1.856012e-001
4.859736e+002, 1.862109e-001
4.879021e+002, 1.851163e-001
4.898306e+002, 1.835658e-001
4.917590e+002, 1.803952e-001
4.936875e+002, 1.756993e-001
4.956160e+002, 1.704877e-001
4.975444e+002, 1.660129e-001
4.994729e+002, 1.613487e-001
5.014014e+002, 1.560754e-001
5.033298e+002, 1.509426e-001
5.052583e+002, 1.458847e-001
5.071868e+002, 1.411639e-001
5.091152e+002, 1.366055e-001
5.110437e+002, 1.319001e-001
5.129722e+002, 1.273578e-001
5.149006e+002, 1.233210e-001
5.168291e+002, 1.190092e-001
5.187576e+002, 1.145581e-001
5.206860e+002, 1.107363e-001
5.226145e+002, 1.073402e-001
5.245430e+002, 1.040941e-001
5.264714e+002, 1.016817e-001
5.283999e+002, 1.004771e-001
5.303284e+002, 1.002565e-001
5.322568e+002, 1.006714e-001
5.341853e+002, 1.006933e-001
5.361138e+002, 1.000225e-001
5.380422e+002, 9.876598e-002
5.399707e+002, 9.629305e-002
5.418992e+002, 9.229523e-002
5.438276e+002, 8.780074e-002
5.457561e+002, 8.251076e-002
5.476846e+002, 7.703633e-002
5.496130e+002, 7.139053e-002
5.515415e+002, 6.583750e-002
5.534700e+002, 6.042557e-002
5.553984e+002, 5.509152e-002
5.573269e+002, 5.014203e-002
5.592554e+002, 4.584493e-002
5.611838e+002, 4.239508e-002
5.631123e+002, 3.991603e-002
5.650408e+002, 3.821962e-002
5.669692e+002, 3.636629e-002
5.688977e+002, 3.485483e-002
5.708262e+002, 3.366503e-002
5.727546e+002, 3.264703e-002
5.746831e+002, 3.254253e-002
5.766116e+002, 3.250508e-002
5.785400e+002, 3.235301e-002
5.804685e+002, 3.243792e-002
5.823970e+002, 3.277488e-002
5.843254e+002, 3.307515e-002
5.862539e+002, 3.380441e-002
5.881824e+002, 3.504531e-002
5.901108e+002, 3.619425e-002
5.920393e+002, 3.785216e-002
5.939678e+002, 3.946806e-002
5.958962e+002, 4.083356e-002
5.978247e+002, 4.211503e-002
5.997532e+002, 4.370031e-002
6.016816e+002, 4.568896e-002
6.036101e+002, 4.737378e-002
6.055386e+002, 4.890083e-002
6.074670e+002, 5.080279e-002
6.093955e+002, 5.283655e-002
6.113240e+002, 5.500637e-002
6.132524e+002, 5.842623e-002
6.151809e+002, 6.245086e-002
6.171094e+002, 6.670416e-002
6.190378e+002, 7.175242e-002
6.209663e+002, 7.699761e-002
6.228948e+002, 8.176598e-002
6.248232e+002, 8.608515e-002
6.267517e+002, 8.951192e-002
6.286802e+002, 9.111996e-002
6.306086e+002, 9.040549e-002
6.325371e+002, 8.753524e-002
6.344656e+002, 8.291930e-002
6.363940e+002, 7.785133e-002
6.383225e+002, 7.338856e-002
6.402510e+002, 6.958782e-002
6.421794e+002, 6.643394e-002
6.441079e+002, 6.424258e-002
6.460364e+002, 6.269577e-002
6.479648e+002, 6.153893e-002
6.498933e+002, 6.100993e-002
6.518218e+002, 6.083923e-002
6.537502e+002, 6.060524e-002
6.556787e+002, 6.007281e-002
6.576072e+002, 5.926551e-002
6.595356e+002, 5.833150e-002
6.614641e+002, 5.691208e-002
6.633926e+002, 5.513307e-002
6.653210e+002, 5.306049e-002
6.672495e+002, 5.096244e-002
6.691780e+002, 4.959399e-002
6.711064e+002, 4.941126e-002
6.730349e+002, 5.038418e-002
6.749634e+002, 5.204606e-002
6.768918e+002, 5.372638e-002
6.788203e+002, 5.567840e-002
6.807488e+002, 5.824171e-002
6.826772e+002, 6.089883e-002
6.846057e+002, 6.327944e-002
6.865342e+002, 6.515134e-002
6.884626e+002, 6.609858e-002
6.903911e+002, 6.576187e-002
6.923196e+002, 6.375886e-002
6.942480e+002, 6.089823e-002
6.961765e+002, 5.785695e-002
6.981050e+002, 5.516694e-002
7.000334e+002, 5.292382e-002
7.019619e+002, 5.121169e-002
7.038904e+002, 5.005386e-002
7.058188e+002, 4.955982e-002
7.077473e+002, 4.958891e-002
7.096758e+002, 4.996356e-002
7.116042e+002, 5.034329e-002
7.135327e+002, 5.079088e-002
7.154612e+002, 5.190440e-002
7.173896e+002, 5.310946e-002
7.193181e+002, 5.459649e-002
7.212466e+002, 5.601045e-002
7.231750e+002, 5.655421e-002
7.251035e+002, 5.558732e-002
7.270320e+002, 5.408110e-002
7.289604e+002, 5.335847e-002
7.308889e+002, 5.346858e-002
7.328174e+002, 5.434693e-002
7.347458e+002, 5.589711e-002
7.366743e+002, 5.762898e-002
7.386028e+002, 5.956591e-002
7.405313e+002, 6.168507e-002
7.424597e+002, 6.370796e-002
7.443882e+002, 6.620929e-002
7.463167e+002, 6.885017e-002
7.482451e+002, 7.130749e-002
7.501736e+002, 7.347966e-002
7.521021e+002, 7.538206e-002
7.540305e+002, 7.686044e-002
7.559590e+002, 7.743926e-002
7.578875e+002, 7.777219e-002
7.598159e+002, 7.819390e-002
7.617444e+002, 7.927189e-002
7.636729e+002, 8.135583e-002
7.656013e+002, 8.419228e-002
7.675298e+002, 8.769741e-002
7.694583e+002, 9.116535e-002
7.713867e+002, 9.362757e-002
7.733152e+002, 9.436486e-002
7.752437e+002, 9.253360e-002
7.771721e+002, 8.778296e-002
7.791006e+002, 8.092953e-002
7.810291e+002, 7.388847e-002
7.829575e+002, 6.821384e-002
7.848860e+002, 6.424344e-002
7.868145e+002, 6.207346e-002
7.887429e+002, 6.074472e-002
7.906714e+002, 6.018053e-002
7.925999e+002, 6.015424e-002
7.945283e+002, 6.037884e-002
7.964568e+002, 6.125515e-002
7.983853e+002, 6.248562e-002
8.003137e+002, 6.376605e-002
8.022422e+002, 6.524640e-002
8.041707e+002, 6.704408e-002
8.060991e+002, 6.877572e-002
8.080276e+002, 7.075956e-002
8.099561e+002, 7.302624e-002
8.118845e+002, 7.523177e-002
8.138130e+002, 7.769207e-002
8.157415e+002, 8.031472e-002
8.176699e+002, 8.299968e-002
8.195984e+002, 8.587717e-002
8.215269e+002, 8.886674e-002
8.234553e+002, 9.225085e-002
8.253838e+002, 9.580532e-002
8.273123e+002, 9.901463e-002
8.292407e+002, 1.023742e-001
8.311692e+002, 1.060283e-001
8.330977e+002, 1.098009e-001
8.350261e+002, 1.140003e-001
8.369546e+002, 1.184123e-001
8.388831e+002, 1.229288e-001
8.408115e+002, 1.275987e-001
8.427400e+002, 1.324540e-001
8.446685e+002, 1.374059e-001
8.465969e+002, 1.427635e-001
8.485254e+002, 1.481538e-001
8.504539e+002, 1.535805e-001
8.523823e+002, 1.592506e-001
8.543108e+002, 1.647998e-001
8.562393e+002, 1.703893e-001
8.581677e+002, 1.762555e-001
8.600962e+002, 1.820019e-001
8.620247e+002, 1.879134e-001
8.639531e+002, 1.940329e-001
8.658816e+002, 2.000902e-001
8.678101e+002, 2.054360e-001
8.697385e+002, 2.100581e-001
8.716670e+002, 2.139115e-001
8.735955e+002, 2.168158e-001
8.755239e+002, 2.188553e-001
8.774524e+002, 2.203824e-001
8.793809e+002, 2.215239e-001
8.813093e+002, 2.231257e-001
8.832378e+002, 2.258753e-001
8.851663e+002, 2.287371e-001
8.870947e+002, 2.315314e-001
8.890232e+002, 2.346139e-001
8.909517e+002, 2.375582e-001
8.928801e+002, 2.405297e-001
8.948085e+002, 2.439231e-001
8.967370e+002, 2.478603e-001
8.986655e+002, 2.518971e-001
9.005939e+002, 2.561848e-001
9.025224e+002, 2.613433e-001
9.044509e+002, 2.671728e-001
9.063793e+002, 2.729490e-001
9.083078e+002, 2.784160e-001
9.102363e+002, 2.839228e-001
9.121647e+002, 2.893558e-001
9.140932e+002, 2.948606e-001
9.160217e+002, 3.003004e-001
9.179501e+002, 3.055915e-001
9.198786e+002, 3.106211e-001
9.218071e+002, 3.155057e-001
9.237355e+002, 3.208577e-001
9.256640e+002, 3.259586e-001
9.275925e+002, 3.306677e-001
9.295209e+002, 3.348136e-001
9.314494e+002, 3.386292e-001
9.333779e+002, 3.417597e-001
9.353063e+002, 3.445766e-001
9.372348e+002, 3.473125e-001
9.391633e+002, 3.496922e-001
9.410917e+002, 3.510194e-001
9.430202e+002, 3.511707e-001
9.449487e+002, 3.510284e-001
9.468771e+002, 3.506879e-001
9.488056e+002, 3.495807e-001
9.507341e+002, 3.476188e-001
9.526625e+002, 3.450530e-001
9.545910e+002, 3.412971e-001
9.565195e+002, 3.368754e-001
9.584479e+002, 3.325492e-001
9.603764e+002, 3.277482e-001
9.623049e+002, 3.223649e-001
9.642333e+002, 3.164616e-001
9.661618e+002, 3.100075e-001
9.680903e+002, 3.037609e-001
9.700187e+002, 2.973100e-001
9.719472e+002, 2.905267e-001
9.738757e+002, 2.838971e-001
9.758041e+002, 2.774211e-001
9.777326e+002, 2.713221e-001
9.796611e+002, 2.664685e-001
9.815895e+002, 2.628487e-001
9.835180e+002, 2.597371e-001
9.854465e+002, 2.568306e-001
9.873749e+002, 2.531835e-001
9.893034e+002, 2.484296e-001
9.912319e+002, 2.427086e-001
9.931603e+002, 2.360394e-001
9.950888e+002, 2.285424e-001
9.970173e+002, 2.208857e-001
9.989457e+002, 2.131292e-001
1.000874e+003, 2.055174e-001
1.002803e+003, 1.982319e-001
1.004731e+003, 1.913399e-001
1.006660e+003, 1.852211e-001
1.008588e+003, 1.798408e-001
1.010517e+003, 1.750286e-001
1.012445e+003, 1.709200e-001
1.014373e+003, 1.673994e-001
1.016302e+003, 1.640845e-001
1.018230e+003, 1.612084e-001
1.020159e+003, 1.589937e-001
1.022087e+003, 1.571851e-001
1.024016e+003, 1.553758e-001
1.025944e+003, 1.536501e-001
1.027873e+003, 1.520069e-001
1.029801e+003, 1.502209e-001
1.031730e+003, 1.482842e-001
1.033658e+003, 1.459773e-001
1.035587e+003, 1.434329e-001
1.037515e+003, 1.407751e-001
1.039444e+003, 1.381957e-001
1.041372e+003, 1.353206e-001
1.043301e+003, 1.320281e-001
1.045229e+003, 1.289000e-001
1.047157e+003, 1.254777e-001
1.049086e+003, 1.217393e-001
1.051014e+003, 1.183503e-001
1.052943e+003, 1.157057e-001
1.054871e+003, 1.139393e-001
1.056800e+003, 1.130816e-001
1.058728e+003, 1.123187e-001
1.060657e+003, 1.115260e-001
1.062585e+003, 1.111116e-001
1.064514e+003, 1.106226e-001
1.066442e+003, 1.099261e-001
1.068371e+003, 1.088001e-001
1.070299e+003, 1.072360e-001
1.072228e+003, 1.055089e-001
1.074156e+003, 1.035845e-001
1.076084e+003, 1.018875e-001
1.078013e+003, 1.004799e-001
1.079941e+003, 9.885131e-002
1.081870e+003, 9.724786e-002
1.083798e+003, 9.572724e-002
1.085727e+003, 9.439651e-002
1.087655e+003, 9.349375e-002
1.089584e+003, 9.272207e-002
1.091512e+003, 9.227974e-002
1.093441e+003, 9.226555e-002
1.095369e+003, 9.216597e-002
1.097298e+003, 9.189723e-002
1.099226e+003, 9.143138e-002
1.101155e+003, 9.093927e-002
1.103083e+003, 9.013975e-002
1.105011e+003, 8.887662e-002
1.106940e+003, 8.720899e-002
1.108868e+003, 8.529987e-002
1.110797e+003, 8.325904e-002
1.112725e+003, 8.091923e-002
1.114654e+003, 7.825936e-002
1.116582e+003, 7.534101e-002
1.118511e+003, 7.211705e-002
1.120439e+003, 6.831677e-002
1.122368e+003, 6.424592e-002
1.124296e+003, 6.009191e-002
1.126225e+003, 5.605701e-002
1.128153e+003, 5.208139e-002
1.130082e+003, 4.846450e-002
1.132010e+003, 4.551344e-002
1.133938e+003, 4.392450e-002
1.135867e+003, 4.338210e-002
1.137795e+003, 4.309786e-002
1.139724e+003, 4.201341e-002
1.141652e+003, 3.957448e-002
1.143581e+003, 3.644740e-002
1.145509e+003, 3.299908e-002
1.147438e+003, 2.949416e-002
1.149366e+003, 2.613381e-002
1.151295e+003, 2.303439e-002
1.153223e+003, 2.036339e-002
1.155152e+003, 1.820618e-002
1.157080e+003, 1.633596e-002
1.159009e+003, 1.452764e-002
1.160937e+003, 1.321673e-002
1.162865e+003, 1.218121e-002
1.164794e+003, 1.112346e-002
1.166722e+003, 1.024573e-002
1.168651e+003, 9.620392e-003
1.170579e+003, 9.134388e-003
1.172508e+003, 8.697294e-003
1.174436e+003, 8.305072e-003
1.176365e+003, 8.025783e-003
1.178293e+003, 7.680777e-003
1.180222e+003, 7.512679e-003
1.182150e+003, 7.359312e-003
1.184079e+003, 6.919192e-003
1.186007e+003, 6.693849e-003
1.187936e+003, 6.605730e-003
1.189864e+003, 6.288387e-003
1.191792e+003, 5.999712e-003
1.193721e+003, 6.035909e-003
1.195649e+003, 5.968230e-003
1.197578e+003, 5.781210e-003
1.199506e+003, 5.676275e-003
1.201435e+003, 5.602182e-003
1.203363e+003, 5.362484e-003
1.205292e+003, 5.076660e-003
1.207220e+003, 5.028885e-003
1.209149e+003, 5.015318e-003
1.211077e+003, 4.958865e-003
1.213006e+003, 4.830291e-003
1.214934e+003, 4.740679e-003
1.216863e+003, 4.532910e-003
1.218791e+003, 4.503721e-003
1.220719e+003, 4.706485e-003
1.222648e+003, 4.658663e-003
1.224576e+003, 4.526039e-003
1.226505e+003, 4.385800e-003
1.228433e+003, 4.281736e-003
1.230362e+003, 4.172499e-003
1.232290e+003, 4.033878e-003
1.234219e+003, 4.091532e-003
1.236147e+003, 4.170239e-003
1.238076e+003, 4.102954e-003
1.240004e+003, 3.833642e-003
1.241933e+003, 3.698090e-003
1.243861e+003, 3.829667e-003
1.245790e+003, 3.979878e-003
1.247718e+003, 4.024229e-003
1.249646e+003, 3.948152e-003
1.251575e+003, 3.817039e-003
1.253503e+003, 3.804098e-003
1.255432e+003, 3.868514e-003
1.257360e+003, 3.879869e-003
1.259289e+003, 3.938981e-003
1.261217e+003, 4.098288e-003
1.263146e+003, 4.030302e-003
1.265074e+003, 3.890498e-003
1.267003e+003, 3.813399e-003
1.268931e+003, 3.949532e-003
1.270860e+003, 3.974448e-003
1.272788e+003, 3.872512e-003
1.274717e+003, 3.875784e-003
1.276645e+003, 3.842630e-003
1.278573e+003, 3.816057e-003
1.280502e+003, 3.904483e-003
1.282430e+003, 4.084422e-003
1.284359e+003, 4.207223e-003
1.286287e+003, 4.176439e-003
1.288216e+003, 4.217448e-003
1.290144e+003, 4.209633e-003
1.292073e+003, 4.299138e-003
1.294001e+003, 4.180273e-003
1.295930e+003, 4.267923e-003
1.297858e+003, 4.471766e-003
1.299787e+003, 4.645173e-003
1.301715e+003, 4.855710e-003
1.303644e+003, 4.814153e-003
1.305572e+003, 4.684035e-003
1.307500e+003, 4.495074e-003
1.309429e+003, 4.464795e-003
1.311357e+003, 4.656513e-003
1.313286e+003, 4.783932e-003
1.315214e+003, 4.859471e-003
1.317143e+003, 4.770520e-003
1.319071e+003, 4.779708e-003
1.321000e+003, 4.931083e-003
1.322928e+003, 4.865115e-003
1.324857e+003, 4.632041e-003
1.326785e+003, 4.615562e-003
1.328714e+003, 4.813313e-003
1.330642e+003, 4.942705e-003
1.332571e+003, 5.071499e-003
1.334499e+003, 5.035571e-003
1.336427e+003, 5.018147e-003
1.338356e+003, 4.870865e-003
1.340284e+003, 4.955721e-003
1.342213e+003, 5.273677e-003
1.344141e+003, 5.303725e-003
1.346070e+003, 5.055971e-003
1.347998e+003, 4.892444e-003
1.349927e+003, 4.837067e-003
1.351855e+003, 5.011151e-003
1.353784e+003, 5.274327e-003
1.355712e+003, 5.286870e-003
1.357641e+003, 5.320990e-003
1.359569e+003, 5.363595e-003
1.361498e+003, 5.366559e-003
1.363426e+003, 5.224423e-003
1.365354e+003, 5.126438e-003
1.367283e+003, 5.260409e-003
1.369211e+003, 5.437938e-003
1.371140e+003, 5.386134e-003
1.373068e+003, 5.280003e-003
1.374997e+003, 5.371584e-003
1.376925e+003, 5.465718e-003
1.378854e+003, 5.512979e-003
1.380782e+003, 5.548625e-003
1.382711e+003, 5.561646e-003
1.384639e+003, 5.628861e-003
1.386568e+003, 5.550264e-003
1.388496e+003, 5.542055e-003
1.390424e+003, 5.577093e-003
1.392353e+003, 5.616397e-003
1.394281e+003, 5.633642e-003
1.396210e+003, 5.609028e-003
1.398138e+003, 5.675410e-003
1.400067e+003, 5.761908e-003
1.401995e+003, 5.689612e-003
1.403924e+003, 5.644570e-003
1.405852e+003, 5.738271e-003
1.407781e+003, 5.888500e-003
1.409709e+003, 5.800223e-003
1.411638e+003, 5.625637e-003
1.413566e+003, 5.653790e-003
1.415495e+003, 5.837614e-003
1.417423e+003, 5.839071e-003
1.419351e+003, 5.842930e-003
1.421280e+003, 5.738776e-003
1.423208e+003, 5.633960e-003
1.425137e+003, 5.747581e-003
1.427065e+003, 5.886237e-003
1.428994e+003, 5.994006e-003
1.430922e+003, 5.817094e-003
1.432851e+003, 5.673757e-003
1.434779e+003, 5.729514e-003
1.436708e+003, 5.889722e-003
1.438636e+003, 6.043929e-003
1.440565e+003, 6.009862e-003
1.442493e+003, 5.873634e-003
1.444422e+003, 5.838492e-003
1.446350e+003, 5.960357e-003
1.448278e+003, 6.116804e-003
1.450207e+003, 5.980422e-003
1.452135e+003, 5.847718e-003
1.454064e+003, 5.723182e-003
1.455992e+003, 5.608834e-003
1.457921e+003, 5.706672e-003
1.459849e+003, 5.824199e-003
1.461778e+003, 5.902532e-003
1.463706e+003, 5.908018e-003
1.465635e+003, 5.730056e-003
1.467563e+003, 5.632115e-003
1.469492e+003, 5.871218e-003
1.471420e+003, 5.986148e-003
1.473349e+003, 5.959545e-003
1.475277e+003, 6.052020e-003
1.477205e+003, 6.169581e-003
1.479134e+003, 6.279135e-003
1.481062e+003, 6.344807e-003
1.482991e+003, 6.475156e-003
1.484919e+003, 6.482334e-003
1.486848e+003, 6.268648e-003
1.488776e+003, 6.179106e-003
1.490705e+003, 6.265255e-003
1.492633e+003, 6.310266e-003
1.494562e+003, 6.045848e-003
1.496490e+003, 6.200457e-003
1.498419e+003, 6.511371e-003
1.500347e+003, 6.591759e-003
1.502276e+003, 6.413509e-003
1.504204e+003, 6.359181e-003
1.506132e+003, 6.441562e-003
1.508061e+003, 6.385369e-003
1.509989e+003, 6.549923e-003
1.511918e+003, 6.876734e-003
1.513846e+003, 6.898887e-003
1.515775e+003, 6.732853e-003
1.517703e+003, 6.701789e-003
1.519632e+003, 6.736503e-003
1.521560e+003, 6.810295e-003
1.523489e+003, 6.949506e-003
1.525417e+003, 7.040186e-003
1.527346e+003, 6.963214e-003
1.529274e+003, 6.856547e-003
1.531203e+003, 6.828492e-003
1.533131e+003, 6.944827e-003
1.535059e+003, 7.200152e-003
1.536988e+003, 7.183667e-003
1.538916e+003, 7.117584e-003
1.540845e+003, 7.151526e-003
1.542773e+003, 7.194682e-003
1.544702e+003, 7.358435e-003
1.546630e+003, 7.589929e-003
1.548559e+003, 7.696804e-003
1.550487e+003, 7.693136e-003
1.552416e+003, 7.767796e-003
1.554344e+003, 7.760460e-003
1.556273e+003, 7.813280e-003
1.558201e+003, 7.715791e-003
1.560130e+003, 7.891887e-003
1.562058e+003, 8.125593e-003
1.563986e+003, 8.168038e-003
1.565915e+003, 8.376689e-003
1.567843e+003, 8.630868e-003
1.569772e+003, 8.614406e-003
1.571700e+003, 8.445648e-003
1.573629e+003, 8.543490e-003
1.575557e+003, 8.596883e-003
1.577486e+003, 8.684313e-003
1.579414e+003, 8.987768e-003
1.581343e+003, 8.901279e-003
1.583271e+003, 8.709683e-003
1.585200e+003, 9.001689e-003
1.587128e+003, 9.218600e-003
1.589057e+003, 9.360866e-003
1.590985e+003, 9.280857e-003
1.592913e+003, 9.273596e-003
1.594842e+003, 9.400462e-003
1.596770e+003, 9.559330e-003
1.598699e+003, 9.628073e-003
1.600627e+003, 9.580751e-003
1.602556e+003, 9.648931e-003
1.604484e+003, 9.791598e-003
1.606413e+003, 9.826903e-003
1.608341e+003, 9.884910e-003
1.610270e+003, 9.789892e-003
1.612198e+003, 9.839050e-003
1.614127e+003, 9.986484e-003
1.616055e+003, 9.856938e-003
1.617984e+003, 9.849070e-003
1.619912e+003, 9.838442e-003
1.621840e+003, 9.949342e-003
1.623769e+003, 1.001787e-002
1.625697e+003, 1.010643e-002
1.627626e+003, 1.004784e-002
1.629554e+003, 9.803598e-003
1.631483e+003, 9.744496e-003
1.633411e+003, 9.783614e-003
1.635340e+003, 9.776977e-003
1.637268e+003, 9.821454e-003
1.639197e+003, 9.996761e-003
1.641125e+003, 1.011259e-002
1.643054e+003, 9.922677e-003
1.644982e+003, 9.592903e-003
1.646911e+003, 9.621290e-003
1.648839e+003, 9.867319e-003
1.650767e+003, 9.653804e-003
1.652696e+003, 9.308279e-003
1.654624e+003, 9.568613e-003
1.656553e+003, 9.776930e-003
1.658481e+003, 9.745757e-003
1.660410e+003, 9.556972e-003
1.662338e+003, 9.383571e-003
1.664267e+003, 9.504239e-003
1.666195e+003, 9.689188e-003
1.668124e+003, 9.485777e-003
1.670052e+003, 9.479024e-003
1.671981e+003, 9.517642e-003
1.673909e+003, 9.379439e-003
1.675838e+003, 9.225338e-003
1.677766e+003, 9.231454e-003
1.679694e+003, 9.215123e-003
1.681623e+003, 9.269716e-003
1.683551e+003, 9.346503e-003
1.685480e+003, 9.512322e-003
1.687408e+003, 9.452640e-003
1.689337e+003, 9.283382e-003
1.691265e+003, 9.200570e-003
1.693194e+003, 9.367078e-003
1.695122e+003, 9.507172e-003
1.697051e+003, 9.463701e-003
1.698979e+003, 9.224406e-003
1.700908e+003, 9.073728e-003
1.702836e+003, 9.176504e-003
1.704765e+003, 9.143376e-003
1.706693e+003, 9.139062e-003
1.708621e+003, 9.054423e-003
1.710550e+003, 9.162240e-003
1.712478e+003, 9.231224e-003
1.714407e+003, 9.236326e-003
1.716335e+003, 9.179292e-003
1.718264e+003, 9.292956e-003
1.720192e+003, 9.291385e-003
1.722121e+003, 9.201108e-003
1.724049e+003, 9.279771e-003
1.725978e+003, 9.441406e-003
1.727906e+003, 9.067657e-003
1.729835e+003, 8.604481e-003
1.731763e+003, 8.562068e-003
1.733692e+003, 8.549929e-003
1.735620e+003, 8.554609e-003
1.737548e+003, 8.435561e-003
1.739477e+003, 8.490561e-003
1.741405e+003, 8.626605e-003
1.743334e+003, 8.423926e-003
1.745262e+003, 8.345244e-003
1.747191e+003, 8.515740e-003
1.749119e+003, 8.668805e-003
1.751048e+003, 8.930162e-003
1.752976e+003, 8.816944e-003
1.754905e+003, 8.977191e-003
1.756833e+003, 9.093083e-003
1.758762e+003, 8.965197e-003
1.760690e+003, 9.083528e-003
1.762619e+003, 9.342445e-003
1.764547e+003, 9.297215e-003
1.766475e+003, 9.392515e-003
1.768404e+003, 9.472288e-003
1.770332e+003, 9.202723e-003
1.772261e+003, 9.202465e-003
1.774189e+003, 9.325285e-003
1.776118e+003, 8.988407e-003
1.778046e+003, 8.908347e-003
1.779975e+003, 9.134316e-003
1.781903e+003, 9.216324e-003
1.783832e+003, 9.446144e-003
1.785760e+003, 9.586219e-003
1.787689e+003, 9.392341e-003
1.789617e+003, 9.413757e-003
1.791546e+003, 9.486930e-003
1.793474e+003, 9.536723e-003
1.795402e+003, 9.569081e-003
1.797331e+003, 9.251640e-003
1.799259e+003, 9.221571e-003
1.801188e+003, 9.362811e-003
1.803116e+003, 9.334986e-003
1.805045e+003, 9.095220e-003
1.806973e+003, 8.889092e-003
1.808902e+003, 8.925796e-003
1.810830e+003, 9.079332e-003
1.812759e+003, 9.055704e-003
1.814687e+003, 8.842147e-003
1.816616e+003, 8.842717e-003
1.818544e+003, 9.046936e-003
1.820473e+003, 9.231356e-003
1.822401e+003, 9.253843e-003
1.824329e+003, 9.105616e-003
1.826258e+003, 8.892708e-003
1.828186e+003, 8.769426e-003
1.830115e+003, 8.879235e-003
1.832043e+003, 8.913268e-003
1.833972e+003, 8.857884e-003
1.835900e+003, 8.597332e-003
1.837829e+003, 8.420242e-003
1.839757e+003, 9.088525e-003
1.841686e+003, 9.459075e-003
1.843614e+003, 8.985313e-003
1.845543e+003, 8.821450e-003
1.847471e+003, 8.919180e-003
1.849400e+003, 9.146506e-003
1.851328e+003, 8.980229e-003
1.853256e+003, 8.374638e-003
1.855185e+003, 8.283231e-003
1.857113e+003, 8.609840e-003
1.859042e+003, 8.985005e-003
1.860970e+003, 8.669977e-003
1.862899e+003, 8.811115e-003
1.864827e+003, 8.683636e-003
1.866756e+003, 8.312270e-003
1.868684e+003, 8.100254e-003
1.870613e+003, 8.693030e-003
1.872541e+003, 8.851954e-003
1.874470e+003, 8.354838e-003
1.876398e+003, 8.465134e-003
1.878327e+003, 7.934572e-003
1.880255e+003, 7.802758e-003
1.882183e+003, 8.095277e-003
1.884112e+003, 8.370692e-003
1.886040e+003, 8.412847e-003
1.887969e+003, 8.297456e-003
1.889897e+003, 8.198780e-003
1.891826e+003, 7.952985e-003
1.893754e+003, 7.735251e-003
1.895683e+003, 7.988289e-003
1.897611e+003, 8.190331e-003
1.899540e+003, 7.584624e-003
1.901468e+003, 7.237723e-003
1.903397e+003, 6.953470e-003
1.905325e+003, 6.757259e-003
1.907254e+003, 7.163803e-003
1.909182e+003, 7.494426e-003
1.911110e+003, 7.696588e-003
1.913039e+003, 7.337270e-003
1.914967e+003, 7.264204e-003
1.916896e+003, 7.646167e-003
1.918824e+003, 7.977953e-003
1.920753e+003, 6.826215e-003
1.922681e+003, 5.942421e-003
1.924610e+003, 6.624885e-003
1.926538e+003, 7.191743e-003
1.928467e+003, 7.148995e-003
1.930395e+003, 6.500912e-003
1.932324e+003, 5.815607e-003
1.934252e+003, 6.160354e-003
1.936181e+003, 6.881947e-003
1.938109e+003, 6.711159e-003
1.940037e+003, 6.662114e-003
1.941966e+003, 6.719779e-003
1.943894e+003, 6.670943e-003
1.945823e+003, 6.845302e-003
1.947751e+003, 6.500045e-003
1.949680e+003, 5.650925e-003
1.951608e+003, 4.944906e-003
1.953537e+003, 4.451217e-003
1.955465e+003, 4.059757e-003
1.957394e+003, 5.010253e-003
1.959322e+003, 6.014339e-003
1.961251e+003, 4.761502e-003
1.963179e+003, 2.639329e-003
1.965108e+003, 2.895246e-003
1.967036e+003, 4.778365e-003
1.968964e+003, 4.671264e-003
1.970893e+003, 3.702045e-003
1.972821e+003, 3.638968e-003
1.974750e+003, 4.806051e-003
1.976678e+003, 6.846291e-003
1.978607e+003, 8.557252e-003
1.980535e+003, 6.519383e-003
1.982464e+003, 4.839355e-003
1.984392e+003, 5.581104e-003
1.986321e+003, 5.912965e-003
1.988249e+003, 5.741750e-003
1.990178e+003, 6.162376e-003
1.992106e+003, 7.442619e-003
1.994035e+003, 6.653361e-003
1.995963e+003, 5.080631e-003
1.997891e+003, 5.660245e-003
1.999820e+003, 5.064653e-003
2.001748e+003, 4.073337e-003
2.003677e+003, 3.393703e-003
2.005605e+003, 3.780189e-003
2.007534e+003, 6.690491e-003
2.009462e+003, 7.018427e-003
2.011391e+003, 5.273830e-003
2.013319e+003, 5.188825e-003
2.015248e+003, 5.519095e-003
2.017176e+003, 5.831337e-003
2.019105e+003, 5.909718e-003
2.021033e+003, 5.341082e-003
2.022962e+003, 5.845362e-003
2.024890e+003, 6.321007e-003
2.026818e+003, 7.286091e-003
2.028747e+003, 7.608388e-003
2.030675e+003, 6.017760e-003
2.032604e+003, 6.711942e-003
2.034532e+003, 7.112713e-003
2.036461e+003, 6.138719e-003
2.038389e+003, 5.199826e-003
2.040318e+003, 7.537774e-003
2.042246e+003, 8.717523e-003
2.044175e+003, 7.743039e-003
2.046103e+003, 8.523618e-003
2.048032e+003, 9.456998e-003
2.049960e+003, 9.578564e-003
2.051889e+003, 8.681924e-003
2.053817e+003, 7.676183e-003
2.055746e+003, 7.812701e-003
2.057674e+003, 7.378239e-003
2.059603e+003, 7.907496e-003
2.061531e+003, 8.494372e-003
2.063459e+003, 8.635333e-003
2.065388e+003, 8.998495e-003
2.067316e+003, 8.935706e-003
2.069245e+003, 8.380813e-003
2.071173e+003, 8.237006e-003
2.073102e+003, 8.531922e-003
2.075030e+003, 9.584302e-003
2.076959e+003, 1.072173e-002
2.078887e+003, 1.029808e-002
2.080816e+003, 9.950025e-003
2.082744e+003, 9.502202e-003
2.084673e+003, 9.245091e-003
2.086601e+003, 8.988472e-003
2.088530e+003, 8.953657e-003
2.090458e+003, 9.891648e-003
2.092386e+003, 9.826411e-003
2.094315e+003, 9.165386e-003
2.096243e+003, 9.688737e-003
2.098172e+003, 1.047701e-002
2.100100e+003, 1.057118e-002
2.102029e+003, 1.038376e-002
2.103957e+003, 1.049087e-002
2.105886e+003, 1.075293e-002
2.107814e+003, 1.099763e-002
2.109743e+003, 1.131175e-002
2.111671e+003, 1.104849e-002
2.113600e+003, 1.080939e-002
2.115528e+003, 1.117090e-002
2.117457e+003, 1.062802e-002
2.119385e+003, 1.041232e-002
2.121313e+003, 1.019256e-002
2.123242e+003, 9.559994e-003
2.125170e+003, 9.536305e-003
2.127099e+003, 9.322520e-003
2.129027e+003, 8.326272e-003
2.130956e+003, 6.972879e-003
2.132884e+003, 7.213128e-003
2.134813e+003, 7.641343e-003
2.136741e+003, 8.003452e-003
2.138670e+003, 8.618782e-003
2.140598e+003, 8.587325e-003
2.142527e+003, 6.456852e-003
2.144455e+003, 5.767323e-003
2.146384e+003, 6.424433e-003
2.148312e+003, 6.559659e-003
2.150240e+003, 6.789431e-003
2.152169e+003, 7.855546e-003
2.154097e+003, 6.896083e-003
2.156026e+003, 3.937980e-003
2.157954e+003, 5.612195e-003
2.159883e+003, 1.033417e-002
2.161811e+003, 1.111698e-002
2.163740e+003, 1.040482e-002
2.165668e+003, 1.041286e-002
2.167597e+003, 1.104266e-002
2.169525e+003, 1.043467e-002
2.171454e+003, 1.028711e-002
2.173382e+003, 1.072886e-002
2.175311e+003, 1.029532e-002
2.177239e+003, 9.545032e-003
2.179167e+003, 9.420387e-003
2.181096e+003, 9.541428e-003
2.183024e+003, 1.187244e-002
2.184953e+003, 1.177363e-002
2.186881e+003, 1.191109e-002
2.188810e+003, 1.218976e-002
2.190738e+003, 1.167818e-002
2.192667e+003, 1.083890e-002
2.194595e+003, 1.053304e-002
2.196524e+003, 1.029419e-002
2.198452e+003, 9.804632e-003
2.200381e+003, 1.059907e-002
2.202309e+003, 1.115611e-002
2.204238e+003, 1.091563e-002
2.206166e+003, 1.007246e-002
2.208094e+003, 1.025202e-002
2.210023e+003, 1.100405e-002
2.211951e+003, 1.151290e-002
2.213880e+003, 1.150302e-002
2.215808e+003, 1.142015e-002
2.217737e+003, 1.233162e-002
2.219665e+003, 1.343079e-002
2.221594e+003, 1.315140e-002
2.223522e+003, 1.257926e-002
2.225451e+003, 1.169270e-002
2.227379e+003, 1.176916e-002
2.229308e+003, 1.283110e-002
2.231236e+003, 1.261664e-002
2.233165e+003, 1.193835e-002
2.235093e+003, 1.131129e-002
2.237021e+003, 1.140556e-002
2.238950e+003, 1.300596e-002
2.240878e+003, 1.392667e-002
2.242807e+003, 1.350210e-002
2.244735e+003, 1.378771e-002
2.246664e+003, 1.363480e-002
2.248592e+003, 1.329105e-002
2.250521e+003, 1.290398e-002
2.252449e+003, 1.221981e-002
2.254378e+003, 1.318188e-002
2.256306e+003, 1.358355e-002
2.258235e+003, 1.359284e-002
2.260163e+003, 1.363955e-002
2.262092e+003, 1.332621e-002
2.264020e+003, 1.295770e-002
2.265948e+003, 1.360892e-002
2.267877e+003, 1.495030e-002
2.269805e+003, 1.483875e-002
2.271734e+003, 1.483378e-002
2.273662e+003, 1.489448e-002
2.275591e+003, 1.542501e-002
2.277519e+003, 1.587314e-002
2.279448e+003, 1.577362e-002
2.281376e+003, 1.583222e-002
2.283305e+003, 1.586429e-002
2.285233e+003, 1.651526e-002
2.287162e+003, 1.706036e-002
2.289090e+003, 1.648599e-002
2.291019e+003, 1.563206e-002
2.292947e+003, 1.538790e-002
2.294875e+003, 1.566853e-002
2.296804e+003, 1.624429e-002
2.298732e+003, 1.631301e-002
2.300661e+003, 1.551402e-002
2.302589e+003, 1.560573e-002
2.304518e+003, 1.537230e-002
2.306446e+003, 1.525099e-002
2.308375e+003, 1.611402e-002
2.310303e+003, 1.654192e-002
2.312232e+003, 1.618685e-002
2.314160e+003, 1.539805e-002
2.316089e+003, 1.537928e-002
2.318017e+003, 1.589664e-002
2.319946e+003, 1.631706e-002
2.321874e+003, 1.718770e-002
2.323802e+003, 1.750308e-002
2.325731e+003, 1.615777e-002
2.327659e+003, 1.522305e-002
2.329588e+003, 1.495538e-002
2.331516e+003, 1.480949e-002
2.333445e+003, 1.480726e-002
2.335373e+003, 1.540398e-002
2.337302e+003, 1.590089e-002
2.339230e+003, 1.543359e-002
2.341159e+003, 1.471313e-002
2.343087e+003, 1.493490e-002
2.345016e+003, 1.512410e-002
2.346944e+003, 1.485418e-002
2.348873e+003, 1.493862e-002
2.350801e+003, 1.500816e-002
2.352729e+003, 1.516679e-002
2.354658e+003, 1.545503e-002
2.356586e+003, 1.537190e-002
2.358515e+003, 1.469468e-002
2.360443e+003, 1.484836e-002
2.362372e+003, 1.513656e-002
2.364300e+003, 1.493775e-002
2.366229e+003, 1.492639e-002
2.368157e+003, 1.464023e-002
2.370086e+003, 1.461461e-002
2.372014e+003, 1.468925e-002
2.373942e+003, 1.478074e-002
2.375871e+003, 1.512786e-002
2.377799e+003, 1.527601e-002
2.379728e+003, 1.526008e-002
2.381656e+003, 1.536457e-002
2.383585e+003, 1.558779e-002
2.385513e+003, 1.518528e-002
2.387442e+003, 1.489214e-002
2.389370e+003, 1.490059e-002
2.391299e+003, 1.524252e-002
2.393227e+003, 1.591529e-002
2.395156e+003, 1.626408e-002
2.397084e+003, 1.626231e-002
2.399012e+003, 1.618150e-002
2.400941e+003, 1.566122e-002
2.402869e+003, 1.553956e-002
2.404798e+003, 1.529641e-002
2.406726e+003, 1.556013e-002
2.408655e+003, 1.611362e-002
2.410583e+003, 1.616772e-002
2.412512e+003, 1.615452e-002
2.414440e+003, 1.624518e-002
2.416369e+003, 1.620620e-002
2.418297e+003, 1.651391e-002
2.420226e+003, 1.636482e-002
2.422154e+003, 1.621916e-002
2.424083e+003, 1.651311e-002
2.426011e+003, 1.595572e-002
2.427939e+003, 1.523489e-002
2.429868e+003, 1.544681e-002
2.431796e+003, 1.572385e-002
2.433725e+003, 1.600335e-002
2.435653e+003, 1.633595e-002
2.437582e+003, 1.659588e-002
2.439510e+003, 1.665352e-002
2.441439e+003, 1.683902e-002
2.443367e+003, 1.705074e-002
2.445296e+003, 1.722896e-002
2.447224e+003, 1.718362e-002
2.449153e+003, 1.722776e-002
2.451081e+003, 1.765081e-002
2.453010e+003, 1.757123e-002
2.454938e+003, 1.690303e-002
2.456866e+003, 1.646524e-002
2.458795e+003, 1.657092e-002
2.460723e+003, 1.633850e-002
2.462652e+003, 1.610848e-002
2.464580e+003, 1.658975e-002
2.466509e+003, 1.717934e-002
2.468437e+003, 1.702374e-002
2.470366e+003, 1.673353e-002
2.472294e+003, 1.646698e-002
2.474223e+003, 1.615154e-002
2.476151e+003, 1.680089e-002
2.478080e+003, 1.703217e-002
2.480008e+003, 1.671714e-002
2.481937e+003, 1.707180e-002
2.483865e+003, 1.691634e-002
2.485793e+003, 1.665032e-002
2.487722e+003, 1.674444e-002
2.489650e+003, 1.701348e-002
2.491579e+003, 1.672697e-002
2.493507e+003, 1.651808e-002
2.495436e+003, 1.672607e-002
2.497364e+003, 1.624440e-002
2.499293e+003, 1.641078e-002
2.501221e+003, 1.732402e-002
2.503150e+003, 1.712831e-002
2.505078e+003, 1.664092e-002
2.507007e+003, 1.698603e-002
2.508935e+003, 1.735016e-002
2.510864e+003, 1.741083e-002
2.512792e+003, 1.722508e-002
2.514720e+003, 1.683510e-002
2.516649e+003, 1.681778e-002
2.518577e+003, 1.656130e-002
2.520506e+003, 1.650531e-002
2.522434e+003, 1.666125e-002
2.524363e+003, 1.713769e-002
2.526291e+003, 1.722765e-002
2.528220e+003, 1.696104e-002
2.530148e+003, 1.686960e-002
2.532077e+003, 1.680254e-002
2.534005e+003, 1.719257e-002
2.535934e+003, 1.790147e-002
2.537862e+003, 1.811321e-002
2.539791e+003, 1.803211e-002
2.541719e+003, 1.788393e-002
2.543647e+003, 1.692888e-002
2.545576e+003, 1.678499e-002
2.547504e+003, 1.793957e-002
2.549433e+003, 1.875772e-002
2.551361e+003, 1.837930e-002
2.553290e+003, 1.806191e-002
2.555218e+003, 1.816273e-002
2.557147e+003, 1.791318e-002
2.559075e+003, 1.757249e-002
2.561004e+003, 1.804420e-002
2.562932e+003, 1.819227e-002
2.564861e+003, 1.821736e-002
2.566789e+003, 1.870905e-002
2.568718e+003, 1.838950e-002
2.570646e+003, 1.824209e-002
2.572574e+003, 1.912411e-002
2.574503e+003, 1.935836e-002
2.576431e+003, 1.886719e-002
2.578360e+003, 1.888888e-002
2.580288e+003, 1.908579e-002
2.582217e+003, 1.904905e-002
2.584145e+003, 1.910639e-002
2.586074e+003, 1.909241e-002
2.588002e+003, 1.914511e-002
2.589931e+003, 1.941481e-002
2.591859e+003, 1.918482e-002
2.593788e+003, 1.908624e-002
2.595716e+003, 1.915555e-002
2.597645e+003, 1.878018e-002
2.599573e+003, 1.826640e-002
2.601501e+003, 1.780392e-002
2.603430e+003, 1.802649e-002
2.605358e+003, 1.843454e-002
2.607287e+003, 1.822614e-002
2.609215e+003, 1.829725e-002
2.611144e+003, 1.885983e-002
2.613072e+003, 1.931340e-002
2.615001e+003, 1.905332e-002
2.616929e+003, 1.899313e-002
2.618858e+003, 1.920877e-002
2.620786e+003, 1.906581e-002
2.622715e+003, 1.866961e-002
2.624643e+003, 1.872410e-002
2.626572e+003, 1.895064e-002
2.628500e+003, 1.899892e-002
2.630428e+003, 1.920402e-002
2.632357e+003, 1.906005e-002
2.634285e+003, 1.904890e-002
2.636214e+003, 1.940065e-002
2.638142e+003, 1.934106e-002
2.640071e+003, 1.914926e-002
2.641999e+003, 1.924399e-002
2.643928e+003, 1.908237e-002
2.645856e+003, 1.891188e-002
2.647785e+003, 1.909335e-002
2.649713e+003, 1.930982e-002
2.651642e+003, 1.929331e-002
2.653570e+003, 1.928159e-002
2.655499e+003, 1.934571e-002
2.657427e+003, 1.885844e-002
2.659355e+003, 1.861080e-002
2.661284e+003, 1.845503e-002
2.663212e+003, 1.839802e-002
2.665141e+003, 1.829695e-002
2.667069e+003, 1.829762e-002
2.668998e+003, 1.793672e-002
2.670926e+003, 1.733390e-002
2.672855e+003, 1.722767e-002
2.674783e+003, 1.762291e-002
2.676712e+003, 1.768388e-002
2.678640e+003, 1.736901e-002
2.680569e+003, 1.766932e-002
2.682497e+003, 1.798411e-002
2.684426e+003, 1.805530e-002
2.686354e+003, 1.818951e-002
2.688282e+003, 1.826906e-002
2.690211e+003, 1.802741e-002
2.692139e+003, 1.792339e-002
2.694068e+003, 1.800176e-002
2.695996e+003, 1.776748e-002
2.697925e+003, 1.822082e-002
2.699853e+003, 1.884376e-002
2.701782e+003, 1.861699e-002
2.703710e+003, 1.846682e-002
2.705639e+003, 1.845577e-002
2.707567e+003, 1.859542e-002
2.709496e+003, 1.893578e-002
2.711424e+003, 1.825541e-002
2.713353e+003, 1.765131e-002
2.715281e+003, 1.794910e-002
2.717209e+003, 1.843976e-002
2.719138e+003, 1.843574e-002
2.721066e+003, 1.834652e-002
2.722995e+003, 1.848672e-002
2.724923e+003, 1.824626e-002
2.726852e+003, 1.841627e-002
2.728780e+003, 1.871934e-002
2.730709e+003, 1.864378e-002
2.732637e+003, 1.873043e-002
2.734566e+003, 1.910343e-002
2.736494e+003, 1.903988e-002
2.738423e+003, 1.842088e-002
2.740351e+003, 1.845727e-002
2.742280e+003, 1.871788e-002
2.744208e+003, 1.875257e-002
2.746136e+003, 1.875077e-002
2.748065e+003, 1.867487e-002
2.749993e+003, 1.872462e-002
2.751922e+003, 1.868737e-002
2.753850e+003, 1.830134e-002
2.755779e+003, 1.840762e-002
2.757707e+003, 1.840018e-002
2.759636e+003, 1.862756e-002
2.761564e+003, 1.893921e-002
2.763493e+003, 1.874418e-002
2.765421e+003, 1.894332e-002
2.767350e+003, 1.925065e-002
2.769278e+003, 1.919964e-002
2.771207e+003, 1.928765e-002
2.773135e+003, 1.940453e-002
2.775063e+003, 1.951997e-002
2.776992e+003, 1.930688e-002
2.778920e+003, 1.905974e-002
2.780849e+003, 1.871001e-002
2.782777e+003, 1.877477e-002
2.784706e+003, 1.905986e-002
2.786634e+003, 1.942421e-002
2.788563e+003, 1.984905e-002
2.790491e+003, 1.946575e-002
2.792420e+003, 1.907817e-002
2.794348e+003, 1.911956e-002
2.796277e+003, 1.958124e-002
2.798205e+003, 1.943910e-002
2.800134e+003, 1.922343e-002
2.802062e+003, 1.942061e-002
2.803990e+003, 1.970145e-002
2.805919e+003, 1.938792e-002
2.807847e+003, 1.928177e-002
2.809776e+003, 1.961569e-002
2.811704e+003, 1.938360e-002
2.813633e+003, 1.922310e-002
2.815561e+003, 1.948402e-002
2.817490e+003, 1.984601e-002
2.819418e+003, 2.021569e-002
2.821347e+003, 2.008269e-002
2.823275e+003, 1.976165e-002
2.825204e+003, 1.941180e-002
2.827132e+003, 1.938203e-002
2.829061e+003, 1.975489e-002
2.830989e+003, 1.978094e-002
2.832917e+003, 1.999437e-002
2.834846e+003, 2.013954e-002
2.836774e+003, 2.006897e-002
2.838703e+003, 2.013979e-002
2.840631e+003, 1.997228e-002
2.842560e+003, 1.975938e-002
2.844488e+003, 1.960147e-002
2.846417e+003, 1.946815e-002
2.848345e+003, 1.881500e-002
2.850274e+003, 1.843935e-002
2.852202e+003, 1.882896e-002
2.854131e+003, 1.897699e-002
2.856059e+003, 1.871924e-002
2.857988e+003, 1.907783e-002
2.859916e+003, 1.964905e-002
2.861844e+003, 2.004125e-002
2.863773e+003, 1.979529e-002
2.865701e+003, 1.932209e-002
2.867630e+003, 1.954114e-002
2.869558e+003, 1.949817e-002
2.871487e+003, 1.931684e-002
2.873415e+003, 1.952718e-002
2.875344e+003, 2.002076e-002
2.877272e+003, 1.969023e-002
2.879201e+003, 1.969267e-002
2.881129e+003, 2.052541e-002
2.883058e+003, 2.063237e-002
2.884986e+003, 2.028423e-002
2.886915e+003, 1.983182e-002
2.888843e+003, 1.922820e-002
2.890771e+003, 1.915195e-002
2.892700e+003, 1.934497e-002
2.894628e+003, 1.932729e-002
2.896557e+003, 1.963541e-002
2.898485e+003, 2.009426e-002
2.900414e+003, 1.977294e-002
2.902342e+003, 1.962774e-002
2.904271e+003, 1.923347e-002
2.906199e+003, 1.915825e-002
2.908128e+003, 1.941703e-002
2.910056e+003, 1.971722e-002
2.911985e+003, 1.969060e-002
2.913913e+003, 1.903903e-002
2.915842e+003, 1.894659e-002
2.917770e+003, 1.958833e-002
2.919698e+003, 1.971082e-002
2.921627e+003, 1.891609e-002
2.923555e+003, 1.836894e-002
2.925484e+003, 1.800543e-002
2.927412e+003, 1.792935e-002
2.929341e+003, 1.800742e-002
2.931269e+003, 1.854788e-002
2.933198e+003, 1.872103e-002
2.935126e+003, 1.851742e-002
2.937055e+003, 1.885932e-002
2.938983e+003, 1.943972e-002
2.940912e+003, 1.966887e-002
2.942840e+003, 1.960048e-002
2.944769e+003, 1.956180e-002
2.946697e+003, 1.992502e-002
2.948625e+003, 2.000326e-002
2.950554e+003, 1.986312e-002
2.952482e+003, 1.955264e-002
2.954411e+003, 1.962565e-002
2.956339e+003, 1.964413e-002
2.958268e+003, 1.978704e-002
2.960196e+003, 2.010108e-002
2.962125e+003, 2.074549e-002
2.964053e+003, 2.093547e-002
2.965982e+003, 2.049109e-002
2.967910e+003, 1.989877e-002
2.969839e+003, 2.043416e-002
2.971767e+003, 2.059269e-002
2.973696e+003, 1.991715e-002
2.975624e+003, 2.003300e-002
2.977552e+003, 2.023427e-002
2.979481e+003, 1.952296e-002
2.981409e+003, 1.939660e-002
2.983338e+003, 1.985154e-002
2.985266e+003, 2.070493e-002
2.987195e+003, 2.070664e-002
2.989123e+003, 2.002440e-002
2.991052e+003, 2.003179e-002
2.992980e+003, 1.976757e-002
2.994909e+003, 1.982827e-002
2.996837e+003, 2.029119e-002
2.998766e+003, 2.028134e-002
3.000694e+003, 2.069434e-002
3.002623e+003, 2.126452e-002
3.004551e+003, 2.121787e-002
3.006479e+003, 2.068556e-002
3.008408e+003, 2.025543e-002
3.010336e+003, 2.021543e-002
3.012265e+003, 2.107322e-002
3.014193e+003, 2.115603e-002
3.016122e+003, 2.076378e-002
3.018050e+003, 2.046935e-002
3.019979e+003, 2.036728e-002
3.021907e+003, 2.080625e-002
3.023836e+003, 2.063815e-002
3.025764e+003, 2.064642e-002
3.027693e+003, 2.085200e-002
3.029621e+003, 2.081000e-002
3.031550e+003, 2.105319e-002
3.033478e+003, 2.137863e-002
3.035406e+003, 2.133119e-002
3.037335e+003, 2.121485e-002
3.039263e+003, 2.101814e-002
3.041192e+003, 2.126197e-002
3.043120e+003, 2.167216e-002
3.045049e+003, 2.179861e-002
3.046977e+003, 2.170486e-002
3.048906e+003, 2.123664e-002
3.050834e+003, 2.076543e-002
3.052763e+003, 2.044291e-002
3.054691e+003, 2.055358e-002
3.056620e+003, 2.118869e-002
3.058548e+003, 2.177430e-002
3.060477e+003, 2.225167e-002
3.062405e+003, 2.252068e-002
3.064333e+003, 2.221085e-002
3.066262e+003, 2.170085e-002
3.068190e+003, 2.154608e-002
3.070119e+003, 2.148622e-002
3.072047e+003, 2.183812e-002
3.073976e+003, 2.157832e-002
3.075904e+003, 2.109903e-002
3.077833e+003, 2.152632e-002
3.079761e+003, 2.217783e-002
3.081690e+003, 2.244848e-002
3.083618e+003, 2.166345e-002
3.085547e+003, 2.151669e-002
3.087475e+003, 2.276726e-002
3.089404e+003, 2.261283e-002
3.091332e+003, 2.220325e-002
3.093260e+003, 2.259655e-002
3.095189e+003, 2.258352e-002
3.097117e+003, 2.161635e-002
3.099046e+003, 2.164140e-002
3.100974e+003, 2.222967e-002
3.102903e+003, 2.205422e-002
3.104831e+003, 2.169664e-002
3.106760e+003, 2.214525e-002
3.108688e+003, 2.229576e-002
3.110617e+003, 2.191451e-002
3.112545e+003, 2.174268e-002
3.114474e+003, 2.176193e-002
3.116402e+003, 2.188831e-002
3.118331e+003, 2.269416e-002
3.120259e+003, 2.330328e-002
3.122188e+003, 2.243959e-002
3.124116e+003, 2.192766e-002
3.126044e+003, 2.192614e-002
3.127973e+003, 2.187205e-002
3.129901e+003, 2.223947e-002
3.131830e+003, 2.290848e-002
3.133758e+003, 2.281193e-002
3.135687e+003, 2.305039e-002
3.137615e+003, 2.336680e-002
3.139544e+003, 2.247327e-002
3.141472e+003, 2.213527e-002
3.143401e+003, 2.277737e-002
3.145329e+003, 2.302906e-002
3.147258e+003, 2.231022e-002
3.149186e+003, 2.230395e-002
3.151115e+003, 2.261787e-002
3.153043e+003, 2.196262e-002
3.154971e+003, 2.161769e-002
3.156900e+003, 2.193241e-002
3.158828e+003, 2.280626e-002
3.160757e+003, 2.317695e-002
3.162685e+003, 2.305010e-002
3.164614e+003, 2.360424e-002
3.166542e+003, 2.376155e-002
3.168471e+003, 2.341055e-002
3.170399e+003, 2.303496e-002
3.172328e+003, 2.288085e-002
3.174256e+003, 2.323561e-002
3.176185e+003, 2.356850e-002
3.178113e+003, 2.395327e-002
3.180042e+003, 2.385245e-002
3.181970e+003, 2.397483e-002
3.183898e+003, 2.447237e-002
3.185827e+003, 2.385546e-002
3.187755e+003, 2.317986e-002
3.189684e+003, 2.362362e-002
3.191612e+003, 2.383552e-002
3.193541e+003, 2.312272e-002
3.195469e+003, 2.271408e-002
3.197398e+003, 2.321173e-002
3.199326e+003, 2.396830e-002
3.201255e+003, 2.350929e-002
3.203183e+003, 2.289299e-002
3.205112e+003, 2.398992e-002
3.207040e+003, 2.431867e-002
3.208969e+003, 2.386044e-002
3.210897e+003, 2.367814e-002
3.212825e+003, 2.371651e-002
3.214754e+003, 2.395731e-002
3.216682e+003, 2.401668e-002
3.218611e+003, 2.299121e-002
3.220539e+003, 2.242778e-002
3.222468e+003, 2.294865e-002
3.224396e+003, 2.411557e-002
3.226325e+003, 2.377158e-002
3.228253e+003, 2.340386e-002
3.230182e+003, 2.407337e-002
3.232110e+003, 2.412849e-002
3.234039e+003, 2.370580e-002
3.235967e+003, 2.341911e-002
3.237896e+003, 2.338692e-002
3.239824e+003, 2.441652e-002
3.241752e+003, 2.512469e-002
3.243681e+003, 2.442733e-002
3.245609e+003, 2.435530e-002
3.247538e+003, 2.407027e-002
3.249466e+003, 2.396749e-002
3.251395e+003, 2.444584e-002
3.253323e+003, 2.436756e-002
3.255252e+003, 2.371826e-002
3.257180e+003, 2.254247e-002
3.259109e+003, 2.348854e-002
3.261037e+003, 2.451373e-002
3.262966e+003, 2.522119e-002
3.264894e+003, 2.427110e-002
3.266823e+003, 2.304590e-002
3.268751e+003, 2.360418e-002
3.270679e+003, 2.456404e-002
3.272608e+003, 2.521669e-002
3.274536e+003, 2.495856e-002
3.276465e+003, 2.469642e-002
3.278393e+003, 2.483431e-002
3.280322e+003, 2.434167e-002
3.282250e+003, 2.410786e-002
3.284179e+003, 2.450711e-002
3.286107e+003, 2.395946e-002
3.288036e+003, 2.357573e-002
3.289964e+003, 2.398426e-002
3.291893e+003, 2.441732e-002
3.293821e+003, 2.489587e-002
3.295750e+003, 2.545525e-002
3.297678e+003, 2.472924e-002
3.299606e+003, 2.459287e-002
3.301535e+003, 2.487013e-002
3.303463e+003, 2.446062e-002
3.305392e+003, 2.373080e-002
3.307320e+003, 2.434449e-002
3.309249e+003, 2.456435e-002
3.311177e+003, 2.303233e-002
3.313106e+003, 2.215709e-002
3.315034e+003, 2.268999e-002
3.316963e+003, 2.321509e-002
3.318891e+003, 2.384996e-002
3.320820e+003, 2.414989e-002
3.322748e+003, 2.345351e-002
3.324677e+003, 2.324097e-002
3.326605e+003, 2.384511e-002
3.328533e+003, 2.323476e-002
3.330462e+003, 2.280478e-002
3.332390e+003, 2.326157e-002
3.334319e+003, 2.325864e-002
3.336247e+003, 2.377813e-002
3.338176e+003, 2.364200e-002
3.340104e+003, 2.367467e-002
3.342033e+003, 2.449481e-002
3.343961e+003, 2.439931e-002
3.345890e+003, 2.383570e-002
3.347818e+003, 2.345944e-002
3.349747e+003, 2.389634e-002
3.351675e+003, 2.410116e-002
3.353604e+003, 2.408347e-002
3.355532e+003, 2.300525e-002
3.357460e+003, 2.222795e-002
3.359389e+003, 2.301660e-002
3.361317e+003, 2.429841e-002
3.363246e+003, 2.400823e-002
3.365174e+003, 2.347821e-002
3.367103e+003, 2.336857e-002
3.369031e+003, 2.315205e-002
3.370960e+003, 2.421363e-002
3.372888e+003, 2.525910e-002
3.374817e+003, 2.495619e-002
3.376745e+003, 2.536450e-002
3.378674e+003, 2.519981e-002
3.380602e+003, 2.402540e-002
3.382531e+003, 2.402901e-002
3.384459e+003, 2.425771e-002
3.386387e+003, 2.493026e-002
3.388316e+003, 2.525906e-002
3.390244e+003, 2.510432e-002
3.392173e+003, 2.439863e-002
3.394101e+003, 2.433747e-002
3.396030e+003, 2.438300e-002
3.397958e+003, 2.469062e-002
3.399887e+003, 2.501459e-002
3.401815e+003, 2.456790e-002
3.403744e+003, 2.460596e-002
3.405672e+003, 2.495594e-002
3.407601e+003, 2.561986e-002
3.409529e+003, 2.505615e-002
3.411458e+003, 2.421245e-002
3.413386e+003, 2.431775e-002
3.415314e+003, 2.485565e-002
3.417243e+003, 2.408525e-002
3.419171e+003, 2.382649e-002
3.421100e+003, 2.493742e-002
3.423028e+003, 2.454367e-002
3.424957e+003, 2.436358e-002
3.426885e+003, 2.396742e-002
3.428814e+003, 2.378581e-002
3.430742e+003, 2.388922e-002
3.432671e+003, 2.417770e-002
3.434599e+003, 2.450440e-002
3.436528e+003, 2.435102e-002
3.438456e+003, 2.374003e-002
3.440385e+003, 2.330897e-002
3.442313e+003, 2.359903e-002
3.444241e+003, 2.472363e-002
3.446170e+003, 2.425691e-002
3.448098e+003, 2.315342e-002
3.450027e+003, 2.354501e-002
3.451955e+003, 2.430624e-002
3.453884e+003, 2.409703e-002
3.455812e+003, 2.433399e-002
3.457741e+003, 2.466532e-002
3.459669e+003, 2.461054e-002
3.461598e+003, 2.464184e-002
3.463526e+003, 2.440339e-002
3.465455e+003, 2.376477e-002
3.467383e+003, 2.352830e-002
3.469312e+003, 2.395672e-002
3.471240e+003, 2.414283e-002
3.473168e+003, 2.419969e-002
3.475097e+003, 2.372526e-002
3.477025e+003, 2.407211e-002
3.478954e+003, 2.540600e-002
3.480882e+003, 2.543931e-002
3.482811e+003, 2.365116e-002
3.484739e+003, 2.365042e-002
3.486668e+003, 2.438929e-002
3.488596e+003, 2.430987e-002
3.490525e+003, 2.455630e-002
3.492453e+003, 2.484259e-002
3.494382e+003, 2.466785e-002
3.496310e+003, 2.405627e-002
3.498239e+003, 2.395763e-002
3.500167e+003, 2.422919e-002
3.502095e+003, 2.446458e-002
3.504024e+003, 2.388410e-002
3.505952e+003, 2.386799e-002
3.507881e+003, 2.516606e-002
3.509809e+003, 2.502264e-002
3.511738e+003, 2.442575e-002
3.513666e+003, 2.470892e-002
3.515595e+003, 2.496677e-002
3.517523e+003, 2.553134e-002
3.519452e+003, 2.575702e-002
3.521380e+003, 2.500105e-002
3.523309e+003, 2.451893e-002
3.525237e+003, 2.511285e-002
3.527166e+003, 2.434024e-002
3.529094e+003, 2.373685e-002
3.531022e+003, 2.337893e-002
3.532951e+003, 2.367287e-002
3.534879e+003, 2.511830e-002
3.536808e+003, 2.529833e-002
3.538736e+003, 2.474662e-002
3.540665e+003, 2.454365e-002
3.542593e+003, 2.493815e-002
3.544522e+003, 2.454000e-002
3.546450e+003, 2.409863e-002
3.548379e+003, 2.400931e-002
3.550307e+003, 2.318658e-002
3.552236e+003, 2.258534e-002
3.554164e+003, 2.333922e-002
3.556093e+003, 2.452215e-002
3.558021e+003, 2.498194e-002
3.559949e+003, 2.444528e-002
3.561878e+003, 2.538190e-002
3.563806e+003, 2.682894e-002
3.565735e+003, 2.571675e-002
3.567663e+003, 2.463039e-002
3.569592e+003, 2.496349e-002
3.571520e+003, 2.515885e-002
3.573449e+003, 2.417907e-002
3.575377e+003, 2.513541e-002
3.577306e+003, 2.677120e-002
3.579234e+003, 2.596821e-002
3.581163e+003, 2.495605e-002
3.583091e+003, 2.405290e-002
3.585020e+003, 2.377602e-002
3.586948e+003, 2.467507e-002
3.588876e+003, 2.537267e-002
3.590805e+003, 2.525459e-002
3.592733e+003, 2.566654e-002
3.594662e+003, 2.564543e-002
3.596590e+003, 2.552578e-002
3.598519e+003, 2.593023e-002
3.600447e+003, 2.602351e-002
3.602376e+003, 2.592955e-002
3.604304e+003, 2.525040e-002
3.606233e+003, 2.674117e-002
3.608161e+003, 2.782060e-002
3.610090e+003, 2.831178e-002
3.612018e+003, 2.991911e-002
3.613947e+003, 3.362308e-002
3.615875e+003, 4.046355e-002
3.617803e+003, 4.663083e-002
3.619732e+003, 4.472592e-002
3.621660e+003, 3.714548e-002
3.623589e+003, 3.012331e-002
3.625517e+003, 2.600859e-002
3.627446e+003, 2.367675e-002
3.629374e+003, 2.244296e-002
3.631303e+003, 2.338233e-002
3.633231e+003, 2.516572e-002
3.635160e+003, 2.652049e-002
3.637088e+003, 2.532683e-002
3.639017e+003, 2.426185e-002
3.640945e+003, 2.344543e-002
3.642874e+003, 2.358736e-002
3.644802e+003, 2.467078e-002
3.646730e+003, 2.327619e-002
3.648659e+003, 2.284770e-002
3.650587e+003, 2.372481e-002
3.652516e+003, 2.442211e-002
3.654444e+003, 2.502359e-002
3.656373e+003, 2.418634e-002
3.658301e+003, 2.316625e-002
3.660230e+003, 2.169871e-002
3.662158e+003, 2.119773e-002
3.664087e+003, 2.239551e-002
3.666015e+003, 2.366041e-002
3.667944e+003, 2.300397e-002
3.669872e+003, 2.203147e-002
3.671801e+003, 2.209689e-002
3.673729e+003, 2.171445e-002
3.675657e+003, 2.151081e-002
3.677586e+003, 2.242574e-002
3.679514e+003, 2.306756e-002
3.681443e+003, 2.377870e-002
3.683371e+003, 2.303252e-002
3.685300e+003, 2.227607e-002
3.687228e+003, 2.227416e-002
3.689157e+003, 2.295308e-002
3.691085e+003, 2.321303e-002
3.693014e+003, 2.281300e-002
3.694942e+003, 2.261267e-002
3.696871e+003, 2.316998e-002
3.698799e+003, 2.465597e-002
3.700728e+003, 2.513513e-002
3.702656e+003, 2.443417e-002
3.704584e+003, 2.369837e-002
3.706513e+003, 2.301954e-002
3.708441e+003, 2.309565e-002
3.710370e+003, 2.394253e-002
3.712298e+003, 2.291919e-002
3.714227e+003, 2.263254e-002
3.716155e+003, 2.293568e-002
3.718084e+003, 2.314127e-002
3.720012e+003, 2.335977e-002
3.721941e+003, 2.366438e-002
3.723869e+003, 2.415729e-002
3.725798e+003, 2.427630e-002
3.727726e+003, 2.352071e-002
3.729655e+003, 2.334405e-002
3.731583e+003, 2.382047e-002
3.733511e+003, 2.322790e-002
3.735440e+003, 2.218872e-002
3.737368e+003, 2.310648e-002
3.739297e+003, 2.324551e-002
3.741225e+003, 2.306728e-002
3.743154e+003, 2.263853e-002
3.745082e+003, 2.269669e-002
3.747011e+003, 2.258521e-002
3.748939e+003, 2.266556e-002
3.750868e+003, 2.305590e-002
3.752796e+003, 2.385958e-002
3.754725e+003, 2.435363e-002
3.756653e+003, 2.327218e-002
3.758582e+003, 2.234822e-002
3.760510e+003, 2.200752e-002
3.762438e+003, 2.117932e-002
3.764367e+003, 2.239040e-002
3.766295e+003, 2.426516e-002
3.768224e+003, 2.415908e-002
3.770152e+003, 2.373480e-002
3.772081e+003, 2.416537e-002
3.774009e+003, 2.472259e-002
3.775938e+003, 2.452256e-002
3.777866e+003, 2.391484e-002
3.779795e+003, 2.433512e-002
3.781723e+003, 2.409958e-002
3.783652e+003, 2.313603e-002
3.785580e+003, 2.282189e-002
3.787509e+003, 2.239342e-002
3.789437e+003, 2.196442e-002
3.791365e+003, 2.332966e-002
3.793294e+003, 2.390667e-002
3.795222e+003, 2.355881e-002
3.797151e+003, 2.292607e-002
3.799079e+003, 2.254629e-002
3.801008e+003, 2.404993e-002
3.802936e+003, 2.369593e-002
3.804865e+003, 2.337381e-002
3.806793e+003, 2.506904e-002
3.808722e+003, 2.654015e-002
3.810650e+003, 2.593333e-002
3.812579e+003, 2.458700e-002
3.814507e+003, 2.451029e-002
3.816436e+003, 2.328245e-002
3.818364e+003, 2.270986e-002
3.820292e+003, 2.352135e-002
3.822221e+003, 2.339465e-002
3.824149e+003, 2.422501e-002
3.826078e+003, 2.492717e-002
3.828006e+003, 2.407157e-002
3.829935e+003, 2.386064e-002
3.831863e+003, 2.380252e-002
3.833792e+003, 2.272081e-002
3.835720e+003, 2.242682e-002
3.837649e+003, 2.400787e-002
3.839577e+003, 2.357327e-002
3.841506e+003, 2.266884e-002
3.843434e+003, 2.300687e-002
3.845363e+003, 2.414137e-002
3.847291e+003, 2.352335e-002
3.849219e+003, 2.234721e-002
3.851148e+003, 2.210723e-002
3.853076e+003, 2.153628e-002
3.855005e+003, 2.102664e-002
3.856933e+003, 2.192298e-002
3.858862e+003, 2.236426e-002
3.860790e+003, 2.286392e-002
3.862719e+003, 2.305129e-002
3.864647e+003, 2.313892e-002
3.866576e+003, 2.394692e-002
3.868504e+003, 2.342466e-002
3.870433e+003, 2.384397e-002
3.872361e+003, 2.412273e-002
3.874290e+003, 2.355934e-002
3.876218e+003, 2.432035e-002
3.878146e+003, 2.509921e-002
3.880075e+003, 2.438633e-002
3.882003e+003, 2.352332e-002
3.883932e+003, 2.296199e-002
3.885860e+003, 2.249355e-002
3.887789e+003, 2.307537e-002
3.889717e+003, 2.346373e-002
3.891646e+003, 2.413263e-002
3.893574e+003, 2.428487e-002
3.895503e+003, 2.400275e-002
3.897431e+003, 2.529491e-002
3.899360e+003, 2.539491e-002
3.901288e+003, 2.401526e-002
3.903217e+003, 2.238081e-002
3.905145e+003, 2.261966e-002
3.907073e+003, 2.418941e-002
3.909002e+003, 2.513193e-002
3.910930e+003, 2.558085e-002
3.912859e+003, 2.500508e-002
3.914787e+003, 2.465309e-002
3.916716e+003, 2.377673e-002
3.918644e+003, 2.344099e-002
3.920573e+003, 2.398095e-002
3.922501e+003, 2.301841e-002
3.924430e+003, 2.368891e-002
3.926358e+003, 2.307641e-002
3.928287e+003, 2.249527e-002
3.930215e+003, 2.382213e-002
3.932144e+003, 2.339340e-002
3.934072e+003, 2.416152e-002
3.936000e+003, 2.636534e-002
3.937929e+003, 2.581263e-002
3.939857e+003, 2.503129e-002
3.941786e+003, 2.508183e-002
3.943714e+003, 2.275377e-002
3.945643e+003, 2.227462e-002
3.947571e+003, 2.364203e-002
3.949500e+003, 2.420792e-002
3.951428e+003, 2.295989e-002
3.953357e+003, 2.296407e-002
3.955285e+003, 2.475695e-002
3.957214e+003, 2.437623e-002
3.959142e+003, 2.359417e-002
3.961071e+003, 2.300887e-002
3.962999e+003, 2.323040e-002
3.964927e+003, 2.390687e-002
3.966856e+003, 2.564321e-002
3.968784e+003, 2.682281e-002
3.970713e+003, 2.562518e-002
3.972641e+003, 2.500330e-002
3.974570e+003, 2.557728e-002
3.976498e+003, 2.498685e-002
3.978427e+003, 2.367715e-002
3.980355e+003, 2.346201e-002
3.982284e+003, 2.516765e-002
3.984212e+003, 2.490437e-002
3.986141e+003, 2.382830e-002
3.988069e+003, 2.406195e-002
3.989998e+003, 2.423313e-002
3.991926e+003, 2.386562e-002
3.993854e+003, 2.412382e-002
3.995783e+003, 2.437548e-002
3.997711e+003, 2.386032e-002
3.999640e+003, 2.387195e-002
##END=



