##NAMES=Sanidine
##RRUFFID=R060313
##IDEAL CHEMISTRY=KAlSi_3_O_8_
##LOCALITY=Eifel Mountains, Rhineland-Palatinate, Germany
##OWNER=RRUFF
##SOURCE=Herb Obodda
##DESCRIPTION=Pale yellow transparent cleavage fragment. Crystal structure given below.
##STATUS=The identification of this mineral has been confirmed by X-ray diffraction and chemical analysis
##URL=rruff.info/R060313
##MEASURED CHEMISTRY=(K_0.85_Na_0.14_Ba_0.01_)_Î£=1_Al_1.04_Si_2.96_O_8_
3.991926e+002, 0.000000e+000
4.011211e+002, 2.603774e-001
4.030496e+002, 2.615968e-001
4.049780e+002, 2.594561e-001
4.069065e+002, 2.562617e-001
4.088350e+002, 2.593920e-001
4.107634e+002, 2.573764e-001
4.126919e+002, 2.561783e-001
4.146204e+002, 2.590654e-001
4.165488e+002, 2.627072e-001
4.184773e+002, 2.560709e-001
4.204058e+002, 2.477509e-001
4.223342e+002, 2.428969e-001
4.242627e+002, 2.364490e-001
4.261912e+002, 2.251567e-001
4.281196e+002, 2.155217e-001
4.300481e+002, 2.066860e-001
4.319766e+002, 1.922868e-001
4.339050e+002, 1.784174e-001
4.358335e+002, 1.680267e-001
4.377620e+002, 1.563756e-001
4.396904e+002, 1.463937e-001
4.416189e+002, 1.371057e-001
4.435474e+002, 1.259853e-001
4.454758e+002, 1.147182e-001
4.474043e+002, 1.053752e-001
4.493328e+002, 9.694709e-002
4.512612e+002, 8.998707e-002
4.531897e+002, 8.394630e-002
4.551182e+002, 7.964505e-002
4.570466e+002, 7.611746e-002
4.589751e+002, 7.283138e-002
4.609036e+002, 7.007241e-002
4.628320e+002, 6.766901e-002
4.647605e+002, 6.553956e-002
4.666890e+002, 6.351198e-002
4.686174e+002, 6.022155e-002
4.705459e+002, 5.694432e-002
4.724744e+002, 5.400638e-002
4.744028e+002, 5.069410e-002
4.763313e+002, 4.861616e-002
4.782598e+002, 4.706957e-002
4.801882e+002, 4.466886e-002
4.821167e+002, 4.261370e-002
4.840452e+002, 4.090715e-002
4.859736e+002, 3.989862e-002
4.879021e+002, 3.909428e-002
4.898306e+002, 3.735926e-002
4.917590e+002, 3.641381e-002
4.936875e+002, 3.649319e-002
4.956160e+002, 3.590573e-002
4.975444e+002, 3.531994e-002
4.994729e+002, 3.559243e-002
5.014014e+002, 3.653751e-002
5.033298e+002, 3.774856e-002
5.052583e+002, 3.986091e-002
5.071868e+002, 4.162358e-002
5.091152e+002, 4.282788e-002
5.110437e+002, 4.426699e-002
5.129722e+002, 4.501009e-002
5.149006e+002, 4.548672e-002
5.168291e+002, 4.611674e-002
5.187576e+002, 4.735790e-002
5.206860e+002, 4.894274e-002
5.226145e+002, 5.125562e-002
5.245430e+002, 5.557014e-002
5.264714e+002, 6.098742e-002
5.283999e+002, 6.682783e-002
5.303284e+002, 7.440122e-002
5.322568e+002, 8.390960e-002
5.341853e+002, 9.541065e-002
5.361138e+002, 1.091400e-001
5.380422e+002, 1.249061e-001
5.399707e+002, 1.407415e-001
5.418992e+002, 1.532709e-001
5.438276e+002, 1.587453e-001
5.457561e+002, 1.565664e-001
5.476846e+002, 1.478657e-001
5.496130e+002, 1.375415e-001
5.515415e+002, 1.294735e-001
5.534700e+002, 1.252659e-001
5.553984e+002, 1.254006e-001
5.573269e+002, 1.290425e-001
5.592554e+002, 1.350137e-001
5.611838e+002, 1.422763e-001
5.631123e+002, 1.503490e-001
5.650408e+002, 1.589950e-001
5.669692e+002, 1.679118e-001
5.688977e+002, 1.757594e-001
5.708262e+002, 1.818288e-001
5.727546e+002, 1.866584e-001
5.746831e+002, 1.904379e-001
5.766116e+002, 1.921664e-001
5.785400e+002, 1.918067e-001
5.804685e+002, 1.902546e-001
5.823970e+002, 1.875373e-001
5.843254e+002, 1.831119e-001
5.862539e+002, 1.777215e-001
5.881824e+002, 1.718486e-001
5.901108e+002, 1.644218e-001
5.920393e+002, 1.558955e-001
5.939678e+002, 1.474830e-001
5.958962e+002, 1.393054e-001
5.978247e+002, 1.314627e-001
5.997532e+002, 1.237909e-001
6.016816e+002, 1.163678e-001
6.036101e+002, 1.093831e-001
6.055386e+002, 1.022508e-001
6.074670e+002, 9.593494e-002
6.093955e+002, 9.040400e-002
6.113240e+002, 8.491352e-002
6.132524e+002, 7.969956e-002
6.151809e+002, 7.519959e-002
6.171094e+002, 7.175357e-002
6.190378e+002, 6.858464e-002
6.209663e+002, 6.570051e-002
6.228948e+002, 6.459995e-002
6.248232e+002, 6.469505e-002
6.267517e+002, 6.583191e-002
6.286802e+002, 6.826489e-002
6.306086e+002, 7.173898e-002
6.325371e+002, 7.586779e-002
6.344656e+002, 8.019300e-002
6.363940e+002, 8.381718e-002
6.383225e+002, 8.508424e-002
6.402510e+002, 8.263686e-002
6.421794e+002, 7.724746e-002
6.441079e+002, 6.984549e-002
6.460364e+002, 6.159826e-002
6.479648e+002, 5.426263e-002
6.498933e+002, 4.852659e-002
6.518218e+002, 4.423848e-002
6.537502e+002, 4.136098e-002
6.556787e+002, 3.903898e-002
6.576072e+002, 3.744803e-002
6.595356e+002, 3.646936e-002
6.614641e+002, 3.585128e-002
6.633926e+002, 3.567071e-002
6.653210e+002, 3.551332e-002
6.672495e+002, 3.541195e-002
6.691780e+002, 3.536186e-002
6.711064e+002, 3.536338e-002
6.730349e+002, 3.578575e-002
6.749634e+002, 3.669418e-002
6.768918e+002, 3.756030e-002
6.788203e+002, 3.827539e-002
6.807488e+002, 3.915225e-002
6.826772e+002, 4.037691e-002
6.846057e+002, 4.174681e-002
6.865342e+002, 4.346032e-002
6.884626e+002, 4.560094e-002
6.903911e+002, 4.799632e-002
6.923196e+002, 5.122902e-002
6.942480e+002, 5.499154e-002
6.961765e+002, 5.912168e-002
6.981050e+002, 6.345837e-002
7.000334e+002, 6.746487e-002
7.019619e+002, 7.105729e-002
7.038904e+002, 7.437073e-002
7.058188e+002, 7.738920e-002
7.077473e+002, 7.956061e-002
7.096758e+002, 8.119809e-002
7.116042e+002, 8.276115e-002
7.135327e+002, 8.388209e-002
7.154612e+002, 8.492028e-002
7.173896e+002, 8.565569e-002
7.193181e+002, 8.588499e-002
7.212466e+002, 8.607353e-002
7.231750e+002, 8.617812e-002
7.251035e+002, 8.564011e-002
7.270320e+002, 8.486359e-002
7.289604e+002, 8.404759e-002
7.308889e+002, 8.294769e-002
7.328174e+002, 8.139291e-002
7.347458e+002, 7.985345e-002
7.366743e+002, 7.873800e-002
7.386028e+002, 7.787124e-002
7.405313e+002, 7.659752e-002
7.424597e+002, 7.545400e-002
7.443882e+002, 7.477149e-002
7.463167e+002, 7.453468e-002
7.482451e+002, 7.411287e-002
7.501736e+002, 7.363683e-002
7.521021e+002, 7.332832e-002
7.540305e+002, 7.323015e-002
7.559590e+002, 7.308509e-002
7.578875e+002, 7.284393e-002
7.598159e+002, 7.258805e-002
7.617444e+002, 7.272986e-002
7.636729e+002, 7.316472e-002
7.656013e+002, 7.364658e-002
7.675298e+002, 7.396170e-002
7.694583e+002, 7.372122e-002
7.713867e+002, 7.327384e-002
7.733152e+002, 7.288198e-002
7.752437e+002, 7.202875e-002
7.771721e+002, 7.085610e-002
7.791006e+002, 6.951482e-002
7.810291e+002, 6.809478e-002
7.829575e+002, 6.657577e-002
7.848860e+002, 6.486689e-002
7.868145e+002, 6.292684e-002
7.887429e+002, 6.087116e-002
7.906714e+002, 5.820083e-002
7.925999e+002, 5.493793e-002
7.945283e+002, 5.162467e-002
7.964568e+002, 4.829974e-002
7.983853e+002, 4.458006e-002
8.003137e+002, 4.035300e-002
8.022422e+002, 3.659592e-002
8.041707e+002, 3.328984e-002
8.060991e+002, 3.023244e-002
8.080276e+002, 2.784081e-002
8.099561e+002, 2.597534e-002
8.118845e+002, 2.437750e-002
8.138130e+002, 2.322210e-002
8.157415e+002, 2.219223e-002
8.176699e+002, 2.128876e-002
8.195984e+002, 2.095701e-002
8.215269e+002, 2.096815e-002
8.234553e+002, 2.087575e-002
8.253838e+002, 2.072037e-002
8.273123e+002, 2.091033e-002
8.292407e+002, 2.150726e-002
8.311692e+002, 2.199334e-002
8.330977e+002, 2.216821e-002
8.350261e+002, 2.258997e-002
8.369546e+002, 2.324614e-002
8.388831e+002, 2.384992e-002
8.408115e+002, 2.443598e-002
8.427400e+002, 2.491422e-002
8.446685e+002, 2.544950e-002
8.465969e+002, 2.620584e-002
8.485254e+002, 2.702631e-002
8.504539e+002, 2.797369e-002
8.523823e+002, 2.866015e-002
8.543108e+002, 2.959297e-002
8.562393e+002, 3.059804e-002
8.581677e+002, 3.161345e-002
8.600962e+002, 3.294530e-002
8.620247e+002, 3.417113e-002
8.639531e+002, 3.543080e-002
8.658816e+002, 3.649686e-002
8.678101e+002, 3.762015e-002
8.697385e+002, 3.896746e-002
8.716670e+002, 4.036633e-002
8.735955e+002, 4.185082e-002
8.755239e+002, 4.355518e-002
8.774524e+002, 4.521478e-002
8.793809e+002, 4.668267e-002
8.813093e+002, 4.823187e-002
8.832378e+002, 5.000191e-002
8.851663e+002, 5.219128e-002
8.870947e+002, 5.396011e-002
8.890232e+002, 5.585579e-002
8.909517e+002, 5.841298e-002
8.928801e+002, 6.081986e-002
8.948085e+002, 6.327435e-002
8.967370e+002, 6.601763e-002
8.986655e+002, 6.901915e-002
9.005939e+002, 7.237896e-002
9.025224e+002, 7.577840e-002
9.044509e+002, 7.903265e-002
9.063793e+002, 8.284432e-002
9.083078e+002, 8.702223e-002
9.102363e+002, 9.123957e-002
9.121647e+002, 9.583932e-002
9.140932e+002, 1.010576e-001
9.160217e+002, 1.066644e-001
9.179501e+002, 1.125074e-001
9.198786e+002, 1.188984e-001
9.218071e+002, 1.256401e-001
9.237355e+002, 1.328467e-001
9.256640e+002, 1.407960e-001
9.275925e+002, 1.493011e-001
9.295209e+002, 1.582427e-001
9.314494e+002, 1.678922e-001
9.333779e+002, 1.780835e-001
9.353063e+002, 1.889473e-001
9.372348e+002, 2.002476e-001
9.391633e+002, 2.121906e-001
9.410917e+002, 2.251215e-001
9.430202e+002, 2.385423e-001
9.449487e+002, 2.524087e-001
9.468771e+002, 2.666184e-001
9.488056e+002, 2.809395e-001
9.507341e+002, 2.958627e-001
9.526625e+002, 3.106917e-001
9.545910e+002, 3.257527e-001
9.565195e+002, 3.409367e-001
9.584479e+002, 3.553385e-001
9.603764e+002, 3.692740e-001
9.623049e+002, 3.829796e-001
9.642333e+002, 3.957540e-001
9.661618e+002, 4.078205e-001
9.680903e+002, 4.192169e-001
9.700187e+002, 4.293056e-001
9.719472e+002, 4.380763e-001
9.738757e+002, 4.462733e-001
9.758041e+002, 4.529811e-001
9.777326e+002, 4.585922e-001
9.796611e+002, 4.639804e-001
9.815895e+002, 4.676385e-001
9.835180e+002, 4.704414e-001
9.854465e+002, 4.728881e-001
9.873749e+002, 4.745469e-001
9.893034e+002, 4.752901e-001
9.912319e+002, 4.756183e-001
9.931603e+002, 4.755447e-001
9.950888e+002, 4.747495e-001
9.970173e+002, 4.732972e-001
9.989457e+002, 4.710366e-001
1.000874e+003, 4.683265e-001
1.002803e+003, 4.650470e-001
1.004731e+003, 4.613856e-001
1.006660e+003, 4.569134e-001
1.008588e+003, 4.519785e-001
1.010517e+003, 4.467863e-001
1.012445e+003, 4.412814e-001
1.014373e+003, 4.352807e-001
1.016302e+003, 4.289676e-001
1.018230e+003, 4.227382e-001
1.020159e+003, 4.164224e-001
1.022087e+003, 4.102640e-001
1.024016e+003, 4.046125e-001
1.025944e+003, 3.986989e-001
1.027873e+003, 3.924911e-001
1.029801e+003, 3.859809e-001
1.031730e+003, 3.789907e-001
1.033658e+003, 3.717664e-001
1.035587e+003, 3.641127e-001
1.037515e+003, 3.561611e-001
1.039444e+003, 3.477811e-001
1.041372e+003, 3.392384e-001
1.043301e+003, 3.303167e-001
1.045229e+003, 3.209243e-001
1.047157e+003, 3.115326e-001
1.049086e+003, 3.016532e-001
1.051014e+003, 2.916311e-001
1.052943e+003, 2.812026e-001
1.054871e+003, 2.700556e-001
1.056800e+003, 2.584173e-001
1.058728e+003, 2.470966e-001
1.060657e+003, 2.364041e-001
1.062585e+003, 2.263757e-001
1.064514e+003, 2.176055e-001
1.066442e+003, 2.102172e-001
1.068371e+003, 2.040751e-001
1.070299e+003, 1.994801e-001
1.072228e+003, 1.957092e-001
1.074156e+003, 1.923877e-001
1.076084e+003, 1.900354e-001
1.078013e+003, 1.883722e-001
1.079941e+003, 1.871393e-001
1.081870e+003, 1.863666e-001
1.083798e+003, 1.858609e-001
1.085727e+003, 1.858427e-001
1.087655e+003, 1.863919e-001
1.089584e+003, 1.868840e-001
1.091512e+003, 1.869622e-001
1.093441e+003, 1.868016e-001
1.095369e+003, 1.866340e-001
1.097298e+003, 1.864608e-001
1.099226e+003, 1.859453e-001
1.101155e+003, 1.856515e-001
1.103083e+003, 1.855765e-001
1.105011e+003, 1.851734e-001
1.106940e+003, 1.847683e-001
1.108868e+003, 1.843590e-001
1.110797e+003, 1.837141e-001
1.112725e+003, 1.831990e-001
1.114654e+003, 1.828792e-001
1.116582e+003, 1.824202e-001
1.118511e+003, 1.815780e-001
1.120439e+003, 1.805877e-001
1.122368e+003, 1.795734e-001
1.124296e+003, 1.785310e-001
1.126225e+003, 1.770427e-001
1.128153e+003, 1.747001e-001
1.130082e+003, 1.719581e-001
1.132010e+003, 1.688457e-001
1.133938e+003, 1.651474e-001
1.135867e+003, 1.609914e-001
1.137795e+003, 1.562462e-001
1.139724e+003, 1.511197e-001
1.141652e+003, 1.459113e-001
1.143581e+003, 1.402815e-001
1.145509e+003, 1.346542e-001
1.147438e+003, 1.291080e-001
1.149366e+003, 1.236885e-001
1.151295e+003, 1.180734e-001
1.153223e+003, 1.126876e-001
1.155152e+003, 1.073808e-001
1.157080e+003, 1.019115e-001
1.159009e+003, 9.687799e-002
1.160937e+003, 9.204260e-002
1.162865e+003, 8.727779e-002
1.164794e+003, 8.283257e-002
1.166722e+003, 7.846253e-002
1.168651e+003, 7.409956e-002
1.170579e+003, 7.006540e-002
1.172508e+003, 6.630901e-002
1.174436e+003, 6.247129e-002
1.176365e+003, 5.879841e-002
1.178293e+003, 5.534056e-002
1.180222e+003, 5.197960e-002
1.182150e+003, 4.876861e-002
1.184079e+003, 4.550948e-002
1.186007e+003, 4.243545e-002
1.187936e+003, 3.960757e-002
1.189864e+003, 3.689020e-002
1.191792e+003, 3.420630e-002
1.193721e+003, 3.165032e-002
1.195649e+003, 2.927184e-002
1.197578e+003, 2.715933e-002
1.199506e+003, 2.513386e-002
1.201435e+003, 2.324075e-002
1.203363e+003, 2.149025e-002
1.205292e+003, 2.007895e-002
1.207220e+003, 1.884794e-002
1.209149e+003, 1.767604e-002
1.211077e+003, 1.659835e-002
1.213006e+003, 1.562395e-002
1.214934e+003, 1.496116e-002
1.216863e+003, 1.432175e-002
1.218791e+003, 1.346518e-002
1.220719e+003, 1.271750e-002
1.222648e+003, 1.212057e-002
1.224576e+003, 1.172866e-002
1.226505e+003, 1.135008e-002
1.228433e+003, 1.098029e-002
1.230362e+003, 1.054201e-002
1.232290e+003, 1.001857e-002
1.234219e+003, 9.734527e-003
1.236147e+003, 9.351876e-003
1.238076e+003, 8.885841e-003
1.240004e+003, 8.521303e-003
1.241933e+003, 8.265623e-003
1.243861e+003, 7.940237e-003
1.245790e+003, 7.755502e-003
1.247718e+003, 7.502300e-003
1.249646e+003, 7.182054e-003
1.251575e+003, 6.803675e-003
1.253503e+003, 6.546867e-003
1.255432e+003, 6.331585e-003
1.257360e+003, 6.118559e-003
1.259289e+003, 5.893871e-003
1.261217e+003, 5.601348e-003
1.263146e+003, 5.411936e-003
1.265074e+003, 5.098840e-003
1.267003e+003, 4.955018e-003
1.268931e+003, 5.127316e-003
1.270860e+003, 4.983890e-003
1.272788e+003, 4.734449e-003
1.274717e+003, 4.731379e-003
1.276645e+003, 4.678142e-003
1.278573e+003, 4.653024e-003
1.280502e+003, 4.584004e-003
1.282430e+003, 4.435356e-003
1.284359e+003, 4.073194e-003
1.286287e+003, 3.787737e-003
1.288216e+003, 3.763061e-003
1.290144e+003, 3.794194e-003
1.292073e+003, 3.807165e-003
1.294001e+003, 3.839001e-003
1.295930e+003, 3.693854e-003
1.297858e+003, 3.524507e-003
1.299787e+003, 3.437669e-003
1.301715e+003, 3.392128e-003
1.303644e+003, 3.352724e-003
1.305572e+003, 3.367957e-003
1.307500e+003, 3.258255e-003
1.309429e+003, 3.249090e-003
1.311357e+003, 3.287049e-003
1.313286e+003, 3.265087e-003
1.315214e+003, 3.403985e-003
1.317143e+003, 3.321053e-003
1.319071e+003, 3.031855e-003
1.321000e+003, 2.881457e-003
1.322928e+003, 2.986164e-003
1.324857e+003, 3.100584e-003
1.326785e+003, 2.939478e-003
1.328714e+003, 2.675279e-003
1.330642e+003, 2.666911e-003
1.332571e+003, 2.746557e-003
1.334499e+003, 2.627857e-003
1.336427e+003, 2.630506e-003
1.338356e+003, 2.627562e-003
1.340284e+003, 2.657160e-003
1.342213e+003, 2.674650e-003
1.344141e+003, 2.684377e-003
1.346070e+003, 2.697599e-003
1.347998e+003, 2.663197e-003
1.349927e+003, 2.758491e-003
1.351855e+003, 2.791383e-003
1.353784e+003, 2.648029e-003
1.355712e+003, 2.468381e-003
1.357641e+003, 2.447442e-003
1.359569e+003, 2.591068e-003
1.361498e+003, 2.428782e-003
1.363426e+003, 2.439764e-003
1.365354e+003, 2.739722e-003
1.367283e+003, 2.803404e-003
1.369211e+003, 2.602466e-003
1.371140e+003, 2.433058e-003
1.373068e+003, 2.433239e-003
1.374997e+003, 2.597741e-003
1.376925e+003, 2.555846e-003
1.378854e+003, 2.567419e-003
1.380782e+003, 2.685394e-003
1.382711e+003, 2.660747e-003
1.384639e+003, 2.526992e-003
1.386568e+003, 2.635871e-003
1.388496e+003, 2.812841e-003
1.390424e+003, 2.597746e-003
1.392353e+003, 2.565888e-003
1.394281e+003, 2.751149e-003
1.396210e+003, 2.977700e-003
1.398138e+003, 2.941069e-003
1.400067e+003, 2.929914e-003
1.401995e+003, 2.796223e-003
1.403924e+003, 2.771622e-003
1.405852e+003, 2.932936e-003
1.407781e+003, 2.863395e-003
1.409709e+003, 2.667559e-003
1.411638e+003, 2.697128e-003
1.413566e+003, 3.011979e-003
1.415495e+003, 2.999239e-003
1.417423e+003, 3.052966e-003
1.419351e+003, 3.285293e-003
1.421280e+003, 3.229734e-003
1.423208e+003, 3.142607e-003
1.425137e+003, 3.218235e-003
1.427065e+003, 3.196686e-003
1.428994e+003, 3.216215e-003
1.430922e+003, 3.254338e-003
1.432851e+003, 3.138375e-003
1.434779e+003, 3.275764e-003
1.436708e+003, 3.658099e-003
1.438636e+003, 3.451549e-003
1.440565e+003, 3.121689e-003
1.442493e+003, 3.077287e-003
1.444422e+003, 3.211259e-003
1.446350e+003, 3.235178e-003
1.448278e+003, 3.356654e-003
1.450207e+003, 3.398784e-003
1.452135e+003, 3.388341e-003
1.454064e+003, 3.278888e-003
1.455992e+003, 3.331802e-003
1.457921e+003, 3.750521e-003
1.459849e+003, 3.366399e-003
1.461778e+003, 3.236401e-003
1.463706e+003, 3.133962e-003
1.465635e+003, 3.287223e-003
1.467563e+003, 3.376117e-003
1.469492e+003, 3.443604e-003
1.471420e+003, 3.542522e-003
1.473349e+003, 3.666947e-003
1.475277e+003, 3.463563e-003
1.477205e+003, 3.522068e-003
1.479134e+003, 3.271452e-003
1.481062e+003, 3.350819e-003
1.482991e+003, 3.405009e-003
1.484919e+003, 3.430143e-003
1.486848e+003, 3.401600e-003
1.488776e+003, 3.207197e-003
1.490705e+003, 3.208955e-003
1.492633e+003, 3.128198e-003
1.494562e+003, 3.009360e-003
1.496490e+003, 3.246609e-003
1.498419e+003, 3.181949e-003
1.500347e+003, 3.246493e-003
1.502276e+003, 3.128979e-003
1.504204e+003, 2.860571e-003
1.506132e+003, 3.199080e-003
1.508061e+003, 3.230185e-003
1.509989e+003, 2.811509e-003
1.511918e+003, 2.914262e-003
1.513846e+003, 3.126331e-003
1.515775e+003, 3.058805e-003
1.517703e+003, 2.995977e-003
1.519632e+003, 2.749402e-003
1.521560e+003, 3.197517e-003
1.523489e+003, 3.059298e-003
1.525417e+003, 2.952197e-003
1.527346e+003, 2.890488e-003
1.529274e+003, 2.944989e-003
1.531203e+003, 2.781077e-003
1.533131e+003, 2.759938e-003
1.535059e+003, 3.032768e-003
1.536988e+003, 2.925031e-003
1.538916e+003, 3.057647e-003
1.540845e+003, 3.190331e-003
1.542773e+003, 3.044735e-003
1.544702e+003, 3.053251e-003
1.546630e+003, 3.255693e-003
1.548559e+003, 3.114291e-003
1.550487e+003, 3.180770e-003
1.552416e+003, 3.096156e-003
1.554344e+003, 3.299741e-003
1.556273e+003, 3.327231e-003
1.558201e+003, 3.759518e-003
1.560130e+003, 4.098610e-003
1.562058e+003, 3.721074e-003
1.563986e+003, 3.674036e-003
1.565915e+003, 3.796707e-003
1.567843e+003, 3.749233e-003
1.569772e+003, 3.823020e-003
1.571700e+003, 3.697187e-003
1.573629e+003, 3.710459e-003
1.575557e+003, 4.034318e-003
1.577486e+003, 4.455389e-003
1.579414e+003, 4.068431e-003
1.581343e+003, 4.083725e-003
1.583271e+003, 4.084811e-003
1.585200e+003, 4.080230e-003
1.587128e+003, 4.115528e-003
1.589057e+003, 4.403090e-003
1.590985e+003, 4.471115e-003
1.592913e+003, 4.388153e-003
1.594842e+003, 4.547096e-003
1.596770e+003, 4.449814e-003
1.598699e+003, 4.202959e-003
1.600627e+003, 4.134497e-003
1.602556e+003, 4.339076e-003
1.604484e+003, 4.541712e-003
1.606413e+003, 4.521438e-003
1.608341e+003, 4.702178e-003
1.610270e+003, 4.996480e-003
1.612198e+003, 4.817331e-003
1.614127e+003, 4.818631e-003
1.616055e+003, 5.020646e-003
1.617984e+003, 5.277875e-003
1.619912e+003, 4.689349e-003
1.621840e+003, 4.585087e-003
1.623769e+003, 4.775275e-003
1.625697e+003, 4.652881e-003
1.627626e+003, 4.758305e-003
1.629554e+003, 4.901276e-003
1.631483e+003, 4.808661e-003
1.633411e+003, 4.634933e-003
1.635340e+003, 4.929393e-003
1.637268e+003, 4.957099e-003
1.639197e+003, 4.704569e-003
1.641125e+003, 4.576244e-003
1.643054e+003, 4.628194e-003
1.644982e+003, 4.598207e-003
1.646911e+003, 4.985899e-003
1.648839e+003, 4.828620e-003
1.650767e+003, 4.351716e-003
1.652696e+003, 4.750024e-003
1.654624e+003, 5.006347e-003
1.656553e+003, 4.399951e-003
1.658481e+003, 4.303315e-003
1.660410e+003, 4.467987e-003
1.662338e+003, 4.910126e-003
1.664267e+003, 4.779736e-003
1.666195e+003, 4.321666e-003
1.668124e+003, 4.253420e-003
1.670052e+003, 4.538504e-003
1.671981e+003, 4.164751e-003
1.673909e+003, 4.146447e-003
1.675838e+003, 4.551056e-003
1.677766e+003, 4.213021e-003
1.679694e+003, 4.304618e-003
1.681623e+003, 4.232950e-003
1.683551e+003, 4.340130e-003
1.685480e+003, 4.869912e-003
1.687408e+003, 3.938176e-003
1.689337e+003, 3.702395e-003
1.691265e+003, 3.970214e-003
1.693194e+003, 4.207732e-003
1.695122e+003, 4.227524e-003
1.697051e+003, 4.219015e-003
1.698979e+003, 3.958939e-003
1.700908e+003, 5.094034e-003
1.702836e+003, 4.430144e-003
1.704765e+003, 4.078631e-003
1.706693e+003, 4.086705e-003
1.708621e+003, 4.025924e-003
1.710550e+003, 3.881976e-003
1.712478e+003, 3.910225e-003
1.714407e+003, 4.031787e-003
1.716335e+003, 3.824304e-003
1.718264e+003, 4.053774e-003
1.720192e+003, 4.207194e-003
1.722121e+003, 4.329295e-003
1.724049e+003, 4.507272e-003
1.725978e+003, 4.935971e-003
1.727906e+003, 5.029424e-003
1.729835e+003, 4.772125e-003
1.731763e+003, 4.584269e-003
1.733692e+003, 4.694125e-003
1.735620e+003, 4.510020e-003
1.737548e+003, 3.797129e-003
1.739477e+003, 3.800018e-003
1.741405e+003, 3.884946e-003
1.743334e+003, 3.846513e-003
1.745262e+003, 3.866625e-003
1.747191e+003, 3.754992e-003
1.749119e+003, 3.814534e-003
1.751048e+003, 3.722581e-003
1.752976e+003, 3.455900e-003
1.754905e+003, 3.473104e-003
1.756833e+003, 3.760729e-003
1.758762e+003, 3.768824e-003
1.760690e+003, 3.694476e-003
1.762619e+003, 3.847126e-003
1.764547e+003, 3.934466e-003
1.766475e+003, 3.950453e-003
1.768404e+003, 3.879986e-003
1.770332e+003, 3.689707e-003
1.772261e+003, 3.853546e-003
1.774189e+003, 3.729774e-003
1.776118e+003, 3.347094e-003
1.778046e+003, 3.333081e-003
1.779975e+003, 3.549451e-003
1.781903e+003, 3.865007e-003
1.783832e+003, 3.765860e-003
1.785760e+003, 3.868160e-003
1.787689e+003, 3.778534e-003
1.789617e+003, 3.621652e-003
1.791546e+003, 3.625014e-003
1.793474e+003, 3.756416e-003
1.795402e+003, 3.271557e-003
1.797331e+003, 3.320868e-003
1.799259e+003, 3.634334e-003
1.801188e+003, 3.848875e-003
1.803116e+003, 3.618349e-003
1.805045e+003, 3.208865e-003
1.806973e+003, 3.126398e-003
1.808902e+003, 2.919054e-003
1.810830e+003, 2.898634e-003
1.812759e+003, 2.809911e-003
1.814687e+003, 2.428566e-003
1.816616e+003, 2.528746e-003
1.818544e+003, 2.975876e-003
1.820473e+003, 3.301318e-003
1.822401e+003, 3.272736e-003
1.824329e+003, 2.817616e-003
1.826258e+003, 2.828543e-003
1.828186e+003, 2.512779e-003
1.830115e+003, 2.718742e-003
1.832043e+003, 2.916108e-003
1.833972e+003, 2.364774e-003
1.835900e+003, 2.149315e-003
1.837829e+003, 2.469022e-003
1.839757e+003, 2.350652e-003
1.841686e+003, 2.277259e-003
1.843614e+003, 1.966754e-003
1.845543e+003, 2.091230e-003
1.847471e+003, 1.662940e-003
1.849400e+003, 1.403544e-003
1.851328e+003, 1.343308e-003
1.853256e+003, 1.483639e-003
1.855185e+003, 1.818393e-003
1.857113e+003, 1.808701e-003
1.859042e+003, 1.520508e-003
1.860970e+003, 1.621396e-003
1.862899e+003, 1.360460e-003
1.864827e+003, 1.117236e-003
1.866756e+003, 1.246131e-003
1.868684e+003, 1.183454e-003
1.870613e+003, 1.505292e-003
1.872541e+003, 1.427103e-003
1.874470e+003, 1.221085e-003
1.876398e+003, 1.285350e-003
1.878327e+003, 1.343095e-003
1.880255e+003, 1.168540e-003
1.882183e+003, 1.193092e-003
1.884112e+003, 4.185345e-004
1.886040e+003, -4.541799e-004
1.887969e+003, -3.588082e-004
1.889897e+003, 1.196291e-004
1.891826e+003, 2.309023e-004
1.893754e+003, 3.503712e-004
1.895683e+003, -1.184999e-004
1.897611e+003, -6.501844e-004
1.899540e+003, -6.365867e-004
1.901468e+003, -4.892526e-004
1.903397e+003, -1.009066e-004
1.905325e+003, 1.921059e-004
1.907254e+003, -1.096821e-004
1.909182e+003, -6.466263e-004
1.911110e+003, -6.742183e-004
1.913039e+003, -6.206725e-004
1.914967e+003, -8.879318e-004
1.916896e+003, -1.619024e-003
1.918824e+003, -1.738847e-003
1.920753e+003, -1.607029e-003
1.922681e+003, -1.866612e-003
1.924610e+003, -2.294016e-003
1.926538e+003, -2.341340e-003
1.928467e+003, -2.912043e-003
1.930395e+003, -2.564305e-003
1.932324e+003, -2.783619e-003
1.934252e+003, -3.098399e-003
1.936181e+003, -3.201502e-003
1.938109e+003, -3.681543e-003
1.940037e+003, -4.198024e-003
1.941966e+003, -3.866928e-003
1.943894e+003, -3.714349e-003
1.945823e+003, -3.905771e-003
1.947751e+003, -3.731013e-003
1.949680e+003, -4.348662e-003
1.951608e+003, -4.243256e-003
1.953537e+003, -3.518358e-003
1.955465e+003, -3.873009e-003
1.957394e+003, -5.502563e-003
1.959322e+003, -6.640363e-003
1.961251e+003, -5.518695e-003
1.963179e+003, -5.158652e-003
1.965108e+003, -6.853885e-003
1.967036e+003, -8.201687e-003
1.968964e+003, -7.154434e-003
1.970893e+003, -7.009846e-003
1.972821e+003, -6.134396e-003
1.974750e+003, -7.546959e-003
1.976678e+003, -8.970489e-003
1.978607e+003, -5.464580e-003
1.980535e+003, -3.822515e-003
1.982464e+003, -5.111307e-003
1.984392e+003, -6.355717e-003
1.986321e+003, -7.113657e-003
1.988249e+003, -5.878385e-003
1.990178e+003, -4.985355e-003
1.992106e+003, -4.842211e-003
1.994035e+003, -5.405409e-003
1.995963e+003, -5.393362e-003
1.997891e+003, -5.331876e-003
1.999820e+003, -7.395717e-003
2.001748e+003, -8.405236e-003
2.003677e+003, -8.345422e-003
2.005605e+003, -9.023199e-003
2.007534e+003, -8.511564e-003
2.009462e+003, -8.078712e-003
2.011391e+003, -8.013676e-003
2.013319e+003, -9.505355e-003
2.015248e+003, -8.895147e-003
2.017176e+003, -7.459655e-003
2.019105e+003, -6.917375e-003
2.021033e+003, -8.340776e-003
2.022962e+003, -9.326441e-003
2.024890e+003, -9.109236e-003
2.026818e+003, -8.174466e-003
2.028747e+003, -9.311100e-003
2.030675e+003, -8.538882e-003
2.032604e+003, -6.723211e-003
2.034532e+003, -6.372421e-003
2.036461e+003, -7.922374e-003
2.038389e+003, -6.684219e-003
2.040318e+003, -5.914125e-003
2.042246e+003, -6.514432e-003
2.044175e+003, -6.718408e-003
2.046103e+003, -6.153122e-003
2.048032e+003, -5.514478e-003
2.049960e+003, -3.863441e-003
2.051889e+003, -3.636273e-003
2.053817e+003, -3.883597e-003
2.055746e+003, -4.398222e-003
2.057674e+003, -5.200251e-003
2.059603e+003, -4.328037e-003
2.061531e+003, -4.112067e-003
2.063459e+003, -4.192620e-003
2.065388e+003, -3.735945e-003
2.067316e+003, -3.879063e-003
2.069245e+003, -4.339061e-003
2.071173e+003, -4.095848e-003
2.073102e+003, -3.279549e-003
2.075030e+003, -2.363435e-003
2.076959e+003, -2.687089e-003
2.078887e+003, -3.059038e-003
2.080816e+003, -2.890707e-003
2.082744e+003, -2.741065e-003
2.084673e+003, -2.546503e-003
2.086601e+003, -2.355827e-003
2.088530e+003, -2.322674e-003
2.090458e+003, -2.895926e-003
2.092386e+003, -3.803632e-003
2.094315e+003, -3.771186e-003
2.096243e+003, -3.066691e-003
2.098172e+003, -2.231488e-003
2.100100e+003, -2.353467e-003
2.102029e+003, -2.491888e-003
2.103957e+003, -2.427701e-003
2.105886e+003, -3.175077e-003
2.107814e+003, -3.087844e-003
2.109743e+003, -2.142627e-003
2.111671e+003, -2.285761e-003
2.113600e+003, -3.338999e-003
2.115528e+003, -3.068036e-003
2.117457e+003, -2.800946e-003
2.119385e+003, -3.535046e-003
2.121313e+003, -3.621833e-003
2.123242e+003, -3.407973e-003
2.125170e+003, -4.256997e-003
2.127099e+003, -4.031712e-003
2.129027e+003, -4.282359e-003
2.130956e+003, -4.871990e-003
2.132884e+003, -4.989699e-003
2.134813e+003, -5.706512e-003
2.136741e+003, -5.655011e-003
2.138670e+003, -4.638082e-003
2.140598e+003, -5.938594e-003
2.142527e+003, -8.011268e-003
2.144455e+003, -8.003616e-003
2.146384e+003, -7.005491e-003
2.148312e+003, -7.004928e-003
2.150240e+003, -6.701670e-003
2.152169e+003, -9.510159e-003
2.154097e+003, -1.163326e-002
2.156026e+003, -1.226691e-002
2.157954e+003, -1.022594e-002
2.159883e+003, -5.440380e-003
2.161811e+003, -3.641960e-003
2.163740e+003, -3.698229e-003
2.165668e+003, -3.463567e-003
2.167597e+003, -2.883902e-003
2.169525e+003, -5.112591e-003
2.171454e+003, -5.195446e-003
2.173382e+003, -4.382787e-003
2.175311e+003, -2.787602e-003
2.177239e+003, -2.809190e-003
2.179167e+003, -4.730941e-003
2.181096e+003, -5.357597e-003
2.183024e+003, -5.086205e-003
2.184953e+003, -4.420714e-003
2.186881e+003, -3.066660e-003
2.188810e+003, -3.407488e-003
2.190738e+003, -4.304004e-003
2.192667e+003, -2.743052e-003
2.194595e+003, -3.011408e-003
2.196524e+003, -3.759829e-003
2.198452e+003, -1.967252e-003
2.200381e+003, -1.224221e-003
2.202309e+003, -2.617471e-003
2.204238e+003, -2.223549e-003
2.206166e+003, -2.353468e-003
2.208094e+003, -2.478786e-003
2.210023e+003, -2.209590e-003
2.211951e+003, -2.928524e-003
2.213880e+003, -5.608941e-003
2.215808e+003, -5.497554e-003
2.217737e+003, -4.347037e-003
2.219665e+003, -3.698633e-003
2.221594e+003, -3.012647e-003
2.223522e+003, -1.893766e-003
2.225451e+003, -1.572946e-003
2.227379e+003, -2.853755e-003
2.229308e+003, -3.163586e-003
2.231236e+003, -1.841031e-003
2.233165e+003, -7.340553e-004
2.235093e+003, -1.062618e-003
2.237021e+003, -2.557266e-003
2.238950e+003, -1.626305e-003
2.240878e+003, -1.381637e-003
2.242807e+003, -1.644398e-003
2.244735e+003, -1.618764e-003
2.246664e+003, -1.101753e-003
2.248592e+003, -1.100824e-003
2.250521e+003, -2.682324e-003
2.252449e+003, -2.716164e-003
2.254378e+003, -9.187544e-004
2.256306e+003, -6.562702e-004
2.258235e+003, -5.695599e-004
2.260163e+003, -4.478046e-004
2.262092e+003, -1.013528e-003
2.264020e+003, -1.211805e-003
2.265948e+003, -8.037983e-004
2.267877e+003, 1.815761e-004
2.269805e+003, 1.110963e-003
2.271734e+003, 1.685462e-003
2.273662e+003, 1.174658e-003
2.275591e+003, 1.199581e-003
2.277519e+003, 1.618570e-003
2.279448e+003, 1.187597e-003
2.281376e+003, 1.552690e-003
2.283305e+003, 2.263627e-003
2.285233e+003, 2.002307e-003
2.287162e+003, 1.289424e-003
2.289090e+003, 1.067655e-003
2.291019e+003, 1.268275e-003
2.292947e+003, 1.881547e-003
2.294875e+003, 1.782601e-003
2.296804e+003, 1.193399e-003
2.298732e+003, 1.817842e-003
2.300661e+003, 2.415959e-003
2.302589e+003, 2.538903e-003
2.304518e+003, 2.806852e-003
2.306446e+003, 3.393512e-003
2.308375e+003, 3.908625e-003
2.310303e+003, 3.936305e-003
2.312232e+003, 3.573779e-003
2.314160e+003, 3.220350e-003
2.316089e+003, 3.175166e-003
2.318017e+003, 2.937373e-003
2.319946e+003, 3.374686e-003
2.321874e+003, 4.470576e-003
2.323802e+003, 4.813495e-003
2.325731e+003, 3.902772e-003
2.327659e+003, 2.997234e-003
2.329588e+003, 2.847787e-003
2.331516e+003, 2.534040e-003
2.333445e+003, 2.502906e-003
2.335373e+003, 3.080760e-003
2.337302e+003, 2.932035e-003
2.339230e+003, 2.425790e-003
2.341159e+003, 1.974393e-003
2.343087e+003, 2.281937e-003
2.345016e+003, 2.930766e-003
2.346944e+003, 3.151470e-003
2.348873e+003, 2.726084e-003
2.350801e+003, 2.681766e-003
2.352729e+003, 3.111813e-003
2.354658e+003, 3.172814e-003
2.356586e+003, 3.215502e-003
2.358515e+003, 3.048971e-003
2.360443e+003, 3.019429e-003
2.362372e+003, 3.072259e-003
2.364300e+003, 2.478893e-003
2.366229e+003, 2.296327e-003
2.368157e+003, 2.598464e-003
2.370086e+003, 2.914065e-003
2.372014e+003, 2.966783e-003
2.373942e+003, 3.009972e-003
2.375871e+003, 3.148047e-003
2.377799e+003, 3.031952e-003
2.379728e+003, 2.326108e-003
2.381656e+003, 2.904583e-003
2.383585e+003, 3.392496e-003
2.385513e+003, 2.777445e-003
2.387442e+003, 2.138913e-003
2.389370e+003, 2.188425e-003
2.391299e+003, 2.639457e-003
2.393227e+003, 2.803674e-003
2.395156e+003, 2.453614e-003
2.397084e+003, 2.969305e-003
2.399012e+003, 3.212173e-003
2.400941e+003, 3.048611e-003
2.402869e+003, 2.387963e-003
2.404798e+003, 2.939953e-003
2.406726e+003, 3.359512e-003
2.408655e+003, 3.134301e-003
2.410583e+003, 3.425525e-003
2.412512e+003, 3.579360e-003
2.414440e+003, 3.644285e-003
2.416369e+003, 3.300669e-003
2.418297e+003, 3.354775e-003
2.420226e+003, 3.754148e-003
2.422154e+003, 3.850340e-003
2.424083e+003, 3.156751e-003
2.426011e+003, 2.385942e-003
2.427939e+003, 2.868411e-003
2.429868e+003, 3.751735e-003
2.431796e+003, 4.004804e-003
2.433725e+003, 4.214217e-003
2.435653e+003, 4.567441e-003
2.437582e+003, 4.696196e-003
2.439510e+003, 4.792899e-003
2.441439e+003, 4.567462e-003
2.443367e+003, 4.608141e-003
2.445296e+003, 4.461865e-003
2.447224e+003, 3.766723e-003
2.449153e+003, 3.712873e-003
2.451081e+003, 4.544886e-003
2.453010e+003, 4.619018e-003
2.454938e+003, 3.229421e-003
2.456866e+003, 3.141692e-003
2.458795e+003, 3.183014e-003
2.460723e+003, 3.059945e-003
2.462652e+003, 3.252537e-003
2.464580e+003, 3.992590e-003
2.466509e+003, 4.341454e-003
2.468437e+003, 4.010048e-003
2.470366e+003, 3.718143e-003
2.472294e+003, 3.207367e-003
2.474223e+003, 3.119186e-003
2.476151e+003, 2.788431e-003
2.478080e+003, 2.930888e-003
2.480008e+003, 3.784790e-003
2.481937e+003, 3.241804e-003
2.483865e+003, 3.391185e-003
2.485793e+003, 3.932046e-003
2.487722e+003, 3.568795e-003
2.489650e+003, 3.405513e-003
2.491579e+003, 3.721485e-003
2.493507e+003, 3.922426e-003
2.495436e+003, 3.218510e-003
2.497364e+003, 3.734156e-003
2.499293e+003, 4.734945e-003
2.501221e+003, 3.876071e-003
2.503150e+003, 3.269639e-003
2.505078e+003, 3.286440e-003
2.507007e+003, 3.631656e-003
2.508935e+003, 3.936506e-003
2.510864e+003, 3.287010e-003
2.512792e+003, 3.004589e-003
2.514720e+003, 3.143758e-003
2.516649e+003, 3.537489e-003
2.518577e+003, 3.586890e-003
2.520506e+003, 4.069820e-003
2.522434e+003, 4.006763e-003
2.524363e+003, 3.787135e-003
2.526291e+003, 3.417231e-003
2.528220e+003, 2.898439e-003
2.530148e+003, 2.858505e-003
2.532077e+003, 3.585942e-003
2.534005e+003, 4.033126e-003
2.535934e+003, 3.942137e-003
2.537862e+003, 3.803834e-003
2.539791e+003, 4.299016e-003
2.541719e+003, 4.193170e-003
2.543647e+003, 4.349706e-003
2.545576e+003, 4.926640e-003
2.547504e+003, 5.017804e-003
2.549433e+003, 3.981846e-003
2.551361e+003, 3.280247e-003
2.553290e+003, 3.675435e-003
2.555218e+003, 4.624010e-003
2.557147e+003, 4.676063e-003
2.559075e+003, 4.182846e-003
2.561004e+003, 4.629627e-003
2.562932e+003, 5.900071e-003
2.564861e+003, 5.233979e-003
2.566789e+003, 4.317686e-003
2.568718e+003, 4.859470e-003
2.570646e+003, 4.803583e-003
2.572574e+003, 4.352280e-003
2.574503e+003, 3.770219e-003
2.576431e+003, 3.538312e-003
2.578360e+003, 3.837643e-003
2.580288e+003, 4.367918e-003
2.582217e+003, 4.353343e-003
2.584145e+003, 4.371915e-003
2.586074e+003, 4.970741e-003
2.588002e+003, 4.925758e-003
2.589931e+003, 5.380463e-003
2.591859e+003, 5.603508e-003
2.593788e+003, 5.333791e-003
2.595716e+003, 4.297624e-003
2.597645e+003, 4.227811e-003
2.599573e+003, 5.031178e-003
2.601501e+003, 5.689873e-003
2.603430e+003, 6.017620e-003
2.605358e+003, 5.561882e-003
2.607287e+003, 4.719873e-003
2.609215e+003, 4.625456e-003
2.611144e+003, 4.871922e-003
2.613072e+003, 4.819507e-003
2.615001e+003, 4.895962e-003
2.616929e+003, 5.131188e-003
2.618858e+003, 5.210449e-003
2.620786e+003, 5.638799e-003
2.622715e+003, 4.775113e-003
2.624643e+003, 4.158501e-003
2.626572e+003, 4.961241e-003
2.628500e+003, 5.005025e-003
2.630428e+003, 4.764798e-003
2.632357e+003, 5.046506e-003
2.634285e+003, 5.192096e-003
2.636214e+003, 5.313845e-003
2.638142e+003, 5.644364e-003
2.640071e+003, 5.715089e-003
2.641999e+003, 5.458859e-003
2.643928e+003, 5.406240e-003
2.645856e+003, 5.310268e-003
2.647785e+003, 5.102269e-003
2.649713e+003, 5.172671e-003
2.651642e+003, 5.453545e-003
2.653570e+003, 5.264030e-003
2.655499e+003, 4.845109e-003
2.657427e+003, 4.841349e-003
2.659355e+003, 4.976656e-003
2.661284e+003, 5.019155e-003
2.663212e+003, 4.921399e-003
2.665141e+003, 4.401362e-003
2.667069e+003, 4.528512e-003
2.668998e+003, 4.465679e-003
2.670926e+003, 4.210831e-003
2.672855e+003, 3.896293e-003
2.674783e+003, 4.710851e-003
2.676712e+003, 4.608867e-003
2.678640e+003, 4.070397e-003
2.680569e+003, 4.073967e-003
2.682497e+003, 4.468381e-003
2.684426e+003, 4.421736e-003
2.686354e+003, 4.270466e-003
2.688282e+003, 4.307500e-003
2.690211e+003, 5.068919e-003
2.692139e+003, 5.213720e-003
2.694068e+003, 4.402093e-003
2.695996e+003, 4.035999e-003
2.697925e+003, 3.793088e-003
2.699853e+003, 4.000138e-003
2.701782e+003, 3.980857e-003
2.703710e+003, 3.855585e-003
2.705639e+003, 4.132473e-003
2.707567e+003, 4.295210e-003
2.709496e+003, 4.158904e-003
2.711424e+003, 4.292335e-003
2.713353e+003, 4.337249e-003
2.715281e+003, 4.627260e-003
2.717209e+003, 4.865185e-003
2.719138e+003, 4.697745e-003
2.721066e+003, 4.868833e-003
2.722995e+003, 4.852188e-003
2.724923e+003, 4.454886e-003
2.726852e+003, 4.328481e-003
2.728780e+003, 4.231126e-003
2.730709e+003, 3.884924e-003
2.732637e+003, 3.700957e-003
2.734566e+003, 4.217701e-003
2.736494e+003, 4.333916e-003
2.738423e+003, 4.568874e-003
2.740351e+003, 4.678007e-003
2.742280e+003, 4.133360e-003
2.744208e+003, 4.353367e-003
2.746136e+003, 5.236525e-003
2.748065e+003, 5.489191e-003
2.749993e+003, 5.219726e-003
2.751922e+003, 4.769621e-003
2.753850e+003, 4.133047e-003
2.755779e+003, 3.909830e-003
2.757707e+003, 3.965617e-003
2.759636e+003, 4.086039e-003
2.761564e+003, 3.947276e-003
2.763493e+003, 4.458103e-003
2.765421e+003, 4.506153e-003
2.767350e+003, 4.542299e-003
2.769278e+003, 4.508993e-003
2.771207e+003, 4.252702e-003
2.773135e+003, 3.712649e-003
2.775063e+003, 3.566575e-003
2.776992e+003, 4.199666e-003
2.778920e+003, 4.967869e-003
2.780849e+003, 5.236542e-003
2.782777e+003, 4.672534e-003
2.784706e+003, 4.314840e-003
2.786634e+003, 4.787161e-003
2.788563e+003, 4.597802e-003
2.790491e+003, 4.243204e-003
2.792420e+003, 4.829984e-003
2.794348e+003, 5.126260e-003
2.796277e+003, 5.172197e-003
2.798205e+003, 4.906271e-003
2.800134e+003, 4.484478e-003
2.802062e+003, 4.592037e-003
2.803990e+003, 4.862104e-003
2.805919e+003, 4.903840e-003
2.807847e+003, 4.873500e-003
2.809776e+003, 4.661465e-003
2.811704e+003, 4.238868e-003
2.813633e+003, 4.365042e-003
2.815561e+003, 4.535807e-003
2.817490e+003, 5.104147e-003
2.819418e+003, 5.152850e-003
2.821347e+003, 4.792606e-003
2.823275e+003, 4.853404e-003
2.825204e+003, 5.152662e-003
2.827132e+003, 5.219650e-003
2.829061e+003, 5.489942e-003
2.830989e+003, 5.313182e-003
2.832917e+003, 4.896120e-003
2.834846e+003, 4.655421e-003
2.836774e+003, 4.559398e-003
2.838703e+003, 4.425961e-003
2.840631e+003, 4.776136e-003
2.842560e+003, 4.823054e-003
2.844488e+003, 4.765660e-003
2.846417e+003, 4.574425e-003
2.848345e+003, 4.301724e-003
2.850274e+003, 3.945405e-003
2.852202e+003, 3.494967e-003
2.854131e+003, 3.133469e-003
2.856059e+003, 3.552926e-003
2.857988e+003, 3.252337e-003
2.859916e+003, 3.445486e-003
2.861844e+003, 4.376888e-003
2.863773e+003, 4.861500e-003
2.865701e+003, 4.731736e-003
2.867630e+003, 4.012285e-003
2.869558e+003, 4.067337e-003
2.871487e+003, 4.565030e-003
2.873415e+003, 5.654666e-003
2.875344e+003, 5.947695e-003
2.877272e+003, 4.900460e-003
2.879201e+003, 5.062731e-003
2.881129e+003, 5.594378e-003
2.883058e+003, 4.977552e-003
2.884986e+003, 4.642974e-003
2.886915e+003, 5.161925e-003
2.888843e+003, 5.382501e-003
2.890771e+003, 5.213374e-003
2.892700e+003, 5.196581e-003
2.894628e+003, 4.971403e-003
2.896557e+003, 4.917448e-003
2.898485e+003, 4.317280e-003
2.900414e+003, 3.747307e-003
2.902342e+003, 4.415306e-003
2.904271e+003, 4.509886e-003
2.906199e+003, 3.996764e-003
2.908128e+003, 4.498707e-003
2.910056e+003, 4.493976e-003
2.911985e+003, 3.830482e-003
2.913913e+003, 4.209255e-003
2.915842e+003, 3.734121e-003
2.917770e+003, 2.433706e-003
2.919698e+003, 2.366406e-003
2.921627e+003, 2.690950e-003
2.923555e+003, 3.103390e-003
2.925484e+003, 3.688500e-003
2.927412e+003, 3.358188e-003
2.929341e+003, 2.447320e-003
2.931269e+003, 2.931617e-003
2.933198e+003, 3.861497e-003
2.935126e+003, 3.487793e-003
2.937055e+003, 3.782267e-003
2.938983e+003, 3.965000e-003
2.940912e+003, 3.913457e-003
2.942840e+003, 4.926507e-003
2.944769e+003, 5.649305e-003
2.946697e+003, 4.718754e-003
2.948625e+003, 4.100155e-003
2.950554e+003, 4.568145e-003
2.952482e+003, 4.472215e-003
2.954411e+003, 4.548247e-003
2.956339e+003, 4.912942e-003
2.958268e+003, 4.812741e-003
2.960196e+003, 4.173390e-003
2.962125e+003, 4.226044e-003
2.964053e+003, 4.066210e-003
2.965982e+003, 4.318598e-003
2.967910e+003, 5.072053e-003
2.969839e+003, 5.628060e-003
2.971767e+003, 5.473429e-003
2.973696e+003, 4.948030e-003
2.975624e+003, 4.595599e-003
2.977552e+003, 4.594738e-003
2.979481e+003, 5.345842e-003
2.981409e+003, 5.815769e-003
2.983338e+003, 5.837906e-003
2.985266e+003, 5.830361e-003
2.987195e+003, 5.297658e-003
2.989123e+003, 5.652093e-003
2.991052e+003, 5.968293e-003
2.992980e+003, 5.652198e-003
2.994909e+003, 5.471677e-003
2.996837e+003, 6.030724e-003
2.998766e+003, 5.768163e-003
3.000694e+003, 5.683578e-003
3.002623e+003, 5.713560e-003
3.004551e+003, 5.255753e-003
3.006479e+003, 5.742291e-003
3.008408e+003, 6.730794e-003
3.010336e+003, 6.526055e-003
3.012265e+003, 5.575809e-003
3.014193e+003, 5.298001e-003
3.016122e+003, 5.451461e-003
3.018050e+003, 5.513906e-003
3.019979e+003, 5.384432e-003
3.021907e+003, 4.267297e-003
3.023836e+003, 4.376418e-003
3.025764e+003, 5.017338e-003
3.027693e+003, 5.662103e-003
3.029621e+003, 6.001831e-003
3.031550e+003, 6.036052e-003
3.033478e+003, 6.078084e-003
3.035406e+003, 5.743608e-003
3.037335e+003, 5.565649e-003
3.039263e+003, 5.380783e-003
3.041192e+003, 5.525022e-003
3.043120e+003, 6.034696e-003
3.045049e+003, 5.451228e-003
3.046977e+003, 5.261829e-003
3.048906e+003, 4.934264e-003
3.050834e+003, 4.670538e-003
3.052763e+003, 4.998240e-003
3.054691e+003, 5.819276e-003
3.056620e+003, 6.882642e-003
3.058548e+003, 6.667762e-003
3.060477e+003, 5.240004e-003
3.062405e+003, 4.078975e-003
3.064333e+003, 4.562411e-003
3.066262e+003, 5.917745e-003
3.068190e+003, 6.843605e-003
3.070119e+003, 6.347756e-003
3.072047e+003, 6.649123e-003
3.073976e+003, 6.088457e-003
3.075904e+003, 4.605392e-003
3.077833e+003, 4.585768e-003
3.079761e+003, 6.303822e-003
3.081690e+003, 7.007961e-003
3.083618e+003, 6.681315e-003
3.085547e+003, 6.115137e-003
3.087475e+003, 6.088068e-003
3.089404e+003, 7.179401e-003
3.091332e+003, 6.861839e-003
3.093260e+003, 6.104339e-003
3.095189e+003, 6.911964e-003
3.097117e+003, 7.087322e-003
3.099046e+003, 6.393194e-003
3.100974e+003, 5.739336e-003
3.102903e+003, 6.455980e-003
3.104831e+003, 7.129598e-003
3.106760e+003, 6.929632e-003
3.108688e+003, 6.187866e-003
3.110617e+003, 6.324810e-003
3.112545e+003, 6.621503e-003
3.114474e+003, 6.465700e-003
3.116402e+003, 5.968102e-003
3.118331e+003, 5.800829e-003
3.120259e+003, 6.142918e-003
3.122188e+003, 6.162939e-003
3.124116e+003, 5.989662e-003
3.126044e+003, 5.754588e-003
3.127973e+003, 5.777777e-003
3.129901e+003, 7.041599e-003
3.131830e+003, 7.191806e-003
3.133758e+003, 7.690602e-003
3.135687e+003, 8.183130e-003
3.137615e+003, 8.176410e-003
3.139544e+003, 7.911239e-003
3.141472e+003, 7.716957e-003
3.143401e+003, 6.906188e-003
3.145329e+003, 7.356778e-003
3.147258e+003, 8.211571e-003
3.149186e+003, 7.527406e-003
3.151115e+003, 6.769752e-003
3.153043e+003, 7.475213e-003
3.154971e+003, 8.515390e-003
3.156900e+003, 8.488355e-003
3.158828e+003, 7.461923e-003
3.160757e+003, 6.388013e-003
3.162685e+003, 6.153075e-003
3.164614e+003, 7.096361e-003
3.166542e+003, 7.165647e-003
3.168471e+003, 7.565523e-003
3.170399e+003, 7.809416e-003
3.172328e+003, 7.531523e-003
3.174256e+003, 7.899922e-003
3.176185e+003, 7.735836e-003
3.178113e+003, 6.900672e-003
3.180042e+003, 6.134160e-003
3.181970e+003, 7.028593e-003
3.183898e+003, 7.426765e-003
3.185827e+003, 7.669766e-003
3.187755e+003, 7.521749e-003
3.189684e+003, 7.486831e-003
3.191612e+003, 7.370550e-003
3.193541e+003, 7.887916e-003
3.195469e+003, 8.206920e-003
3.197398e+003, 7.413354e-003
3.199326e+003, 6.770961e-003
3.201255e+003, 7.204594e-003
3.203183e+003, 7.588638e-003
3.205112e+003, 8.422746e-003
3.207040e+003, 8.726032e-003
3.208969e+003, 7.543013e-003
3.210897e+003, 6.767377e-003
3.212825e+003, 7.762243e-003
3.214754e+003, 8.519427e-003
3.216682e+003, 7.466248e-003
3.218611e+003, 6.889319e-003
3.220539e+003, 7.948252e-003
3.222468e+003, 8.096058e-003
3.224396e+003, 7.136685e-003
3.226325e+003, 6.688612e-003
3.228253e+003, 7.343049e-003
3.230182e+003, 7.746207e-003
3.232110e+003, 8.026958e-003
3.234039e+003, 8.488026e-003
3.235967e+003, 8.804935e-003
3.237896e+003, 9.475869e-003
3.239824e+003, 9.260967e-003
3.241752e+003, 8.034378e-003
3.243681e+003, 7.271476e-003
3.245609e+003, 7.124929e-003
3.247538e+003, 7.210081e-003
3.249466e+003, 8.491181e-003
3.251395e+003, 8.479506e-003
3.253323e+003, 7.669875e-003
3.255252e+003, 8.322406e-003
3.257180e+003, 8.690893e-003
3.259109e+003, 8.666740e-003
3.261037e+003, 9.208971e-003
3.262966e+003, 8.715660e-003
3.264894e+003, 7.539752e-003
3.266823e+003, 7.574710e-003
3.268751e+003, 8.314814e-003
3.270679e+003, 7.774534e-003
3.272608e+003, 7.631825e-003
3.274536e+003, 8.519882e-003
3.276465e+003, 8.019357e-003
3.278393e+003, 8.001578e-003
3.280322e+003, 8.768684e-003
3.282250e+003, 9.011711e-003
3.284179e+003, 9.479753e-003
3.286107e+003, 9.568945e-003
3.288036e+003, 9.446634e-003
3.289964e+003, 9.153952e-003
3.291893e+003, 8.615817e-003
3.293821e+003, 8.400350e-003
3.295750e+003, 8.597266e-003
3.297678e+003, 9.128379e-003
3.299606e+003, 1.025875e-002
3.301535e+003, 9.393303e-003
3.303463e+003, 8.009083e-003
3.305392e+003, 7.624459e-003
3.307320e+003, 8.562289e-003
3.309249e+003, 8.802146e-003
3.311177e+003, 8.470108e-003
3.313106e+003, 8.105090e-003
3.315034e+003, 7.864913e-003
3.316963e+003, 7.927328e-003
3.318891e+003, 7.855416e-003
3.320820e+003, 7.982291e-003
3.322748e+003, 8.532598e-003
3.324677e+003, 8.632176e-003
3.326605e+003, 9.601122e-003
3.328533e+003, 8.576958e-003
3.330462e+003, 7.618724e-003
3.332390e+003, 8.263411e-003
3.334319e+003, 7.885925e-003
3.336247e+003, 7.764243e-003
3.338176e+003, 9.029155e-003
3.340104e+003, 9.456218e-003
3.342033e+003, 9.841066e-003
3.343961e+003, 9.362230e-003
3.345890e+003, 8.571814e-003
3.347818e+003, 7.642230e-003
3.349747e+003, 7.813102e-003
3.351675e+003, 9.118162e-003
3.353604e+003, 9.734845e-003
3.355532e+003, 8.855698e-003
3.357460e+003, 9.443588e-003
3.359389e+003, 9.796647e-003
3.361317e+003, 8.554140e-003
3.363246e+003, 8.066421e-003
3.365174e+003, 8.283020e-003
3.367103e+003, 9.121781e-003
3.369031e+003, 9.785076e-003
3.370960e+003, 9.137838e-003
3.372888e+003, 8.791559e-003
3.374817e+003, 9.224388e-003
3.376745e+003, 9.598522e-003
3.378674e+003, 1.023885e-002
3.380602e+003, 9.677911e-003
3.382531e+003, 8.381207e-003
3.384459e+003, 9.388338e-003
3.386387e+003, 9.127267e-003
3.388316e+003, 8.309701e-003
3.390244e+003, 9.072962e-003
3.392173e+003, 1.014386e-002
3.394101e+003, 9.102397e-003
3.396030e+003, 8.477313e-003
3.397958e+003, 9.375776e-003
3.399887e+003, 9.031281e-003
3.401815e+003, 8.709415e-003
3.403744e+003, 9.754160e-003
3.405672e+003, 9.373826e-003
3.407601e+003, 7.730829e-003
3.409529e+003, 8.659983e-003
3.411458e+003, 1.034369e-002
3.413386e+003, 9.953357e-003
3.415314e+003, 8.412876e-003
3.417243e+003, 7.308623e-003
3.419171e+003, 7.890380e-003
3.421100e+003, 8.962189e-003
3.423028e+003, 8.103488e-003
3.424957e+003, 8.432025e-003
3.426885e+003, 8.594792e-003
3.428814e+003, 7.557528e-003
3.430742e+003, 7.546817e-003
3.432671e+003, 8.848938e-003
3.434599e+003, 9.276793e-003
3.436528e+003, 8.854617e-003
3.438456e+003, 8.477714e-003
3.440385e+003, 8.129480e-003
3.442313e+003, 7.115559e-003
3.444241e+003, 7.553622e-003
3.446170e+003, 9.086149e-003
3.448098e+003, 8.859752e-003
3.450027e+003, 7.284882e-003
3.451955e+003, 8.250158e-003
3.453884e+003, 8.940374e-003
3.455812e+003, 8.286192e-003
3.457741e+003, 7.330867e-003
3.459669e+003, 6.651616e-003
3.461598e+003, 8.964450e-003
3.463526e+003, 1.021623e-002
3.465455e+003, 9.769376e-003
3.467383e+003, 1.038388e-002
3.469312e+003, 1.007947e-002
3.471240e+003, 9.811350e-003
3.473168e+003, 9.855699e-003
3.475097e+003, 9.011506e-003
3.477025e+003, 7.949175e-003
3.478954e+003, 7.402846e-003
3.480882e+003, 7.724568e-003
3.482811e+003, 7.599052e-003
3.484739e+003, 7.881637e-003
3.486668e+003, 8.376904e-003
3.488596e+003, 9.024626e-003
3.490525e+003, 9.343048e-003
3.492453e+003, 9.534386e-003
3.494382e+003, 7.870615e-003
3.496310e+003, 8.601674e-003
3.498239e+003, 1.040572e-002
3.500167e+003, 9.709817e-003
3.502095e+003, 7.989404e-003
3.504024e+003, 7.412601e-003
3.505952e+003, 7.628322e-003
3.507881e+003, 8.894774e-003
3.509809e+003, 9.544312e-003
3.511738e+003, 7.929618e-003
3.513666e+003, 6.794072e-003
3.515595e+003, 7.947115e-003
3.517523e+003, 9.208898e-003
3.519452e+003, 9.457881e-003
3.521380e+003, 8.976734e-003
3.523309e+003, 9.373558e-003
3.525237e+003, 8.433505e-003
3.527166e+003, 7.433340e-003
3.529094e+003, 8.634179e-003
3.531022e+003, 9.421824e-003
3.532951e+003, 8.747653e-003
3.534879e+003, 8.625241e-003
3.536808e+003, 8.694444e-003
3.538736e+003, 7.605751e-003
3.540665e+003, 8.489994e-003
3.542593e+003, 9.022927e-003
3.544522e+003, 7.901786e-003
3.546450e+003, 9.270373e-003
3.548379e+003, 9.008311e-003
3.550307e+003, 7.577587e-003
3.552236e+003, 6.734482e-003
3.554164e+003, 7.614817e-003
3.556093e+003, 7.381189e-003
3.558021e+003, 6.437933e-003
3.559949e+003, 7.067825e-003
3.561878e+003, 7.983441e-003
3.563806e+003, 9.622576e-003
3.565735e+003, 9.960116e-003
3.567663e+003, 7.666205e-003
3.569592e+003, 6.883656e-003
3.571520e+003, 8.084783e-003
3.573449e+003, 9.020425e-003
3.575377e+003, 8.883675e-003
3.577306e+003, 9.637673e-003
3.579234e+003, 9.576584e-003
3.581163e+003, 8.805513e-003
3.583091e+003, 8.011648e-003
3.585020e+003, 8.130310e-003
3.586948e+003, 7.640626e-003
3.588876e+003, 7.584142e-003
3.590805e+003, 8.438577e-003
3.592733e+003, 7.423504e-003
3.594662e+003, 7.275815e-003
3.596590e+003, 8.416176e-003
3.598519e+003, 8.640521e-003
3.600447e+003, 8.085985e-003
3.602376e+003, 6.771415e-003
3.604304e+003, 5.951171e-003
3.606233e+003, 6.375847e-003
3.608161e+003, 7.325577e-003
3.610090e+003, 7.592600e-003
3.612018e+003, 8.624718e-003
3.613947e+003, 6.957734e-003
3.615875e+003, 4.381123e-003
3.617803e+003, 5.139602e-003
3.619732e+003, 7.282679e-003
3.621660e+003, 6.656265e-003
3.623589e+003, 6.114468e-003
3.625517e+003, 4.791390e-003
3.627446e+003, 5.333717e-003
3.629374e+003, 6.812284e-003
3.631303e+003, 7.637751e-003
3.633231e+003, 5.916860e-003
3.635160e+003, 5.035090e-003
3.637088e+003, 6.506593e-003
3.639017e+003, 5.371721e-003
3.640945e+003, 3.507097e-003
3.642874e+003, 4.914193e-003
3.644802e+003, 6.567577e-003
3.646730e+003, 8.546448e-003
3.648659e+003, 7.868424e-003
3.650587e+003, 3.587165e-003
3.652516e+003, 3.528218e-003
3.654444e+003, 4.384744e-003
3.656373e+003, 3.677655e-003
3.658301e+003, 4.732316e-003
3.660230e+003, 5.458300e-003
3.662158e+003, 5.536683e-003
3.664087e+003, 5.679355e-003
3.666015e+003, 4.862138e-003
3.667944e+003, 4.203625e-003
3.669872e+003, 5.745083e-003
3.671801e+003, 7.282309e-003
3.673729e+003, 8.092260e-003
3.675657e+003, 7.273129e-003
3.677586e+003, 5.185167e-003
3.679514e+003, 4.999187e-003
3.681443e+003, 6.494740e-003
3.683371e+003, 6.112406e-003
3.685300e+003, 3.676051e-003
3.687228e+003, 3.422934e-003
3.689157e+003, 4.758942e-003
3.691085e+003, 4.375416e-003
3.693014e+003, 5.445562e-003
3.694942e+003, 6.021173e-003
3.696871e+003, 6.449306e-003
3.698799e+003, 7.753299e-003
3.700728e+003, 7.247873e-003
3.702656e+003, 4.452298e-003
3.704584e+003, 4.066520e-003
3.706513e+003, 3.602858e-003
3.708441e+003, 4.309597e-003
3.710370e+003, 5.260308e-003
3.712298e+003, 3.976036e-003
3.714227e+003, 4.760594e-003
3.716155e+003, 7.959560e-003
3.718084e+003, 7.456279e-003
3.720012e+003, 4.596316e-003
3.721941e+003, 3.236610e-003
3.723869e+003, 2.886305e-003
3.725798e+003, 3.408913e-003
3.727726e+003, 5.328781e-003
3.729655e+003, 6.164982e-003
3.731583e+003, 4.601459e-003
3.733511e+003, 3.622139e-003
3.735440e+003, 4.323292e-003
3.737368e+003, 1.958829e-003
3.739297e+003, 1.682632e-003
3.741225e+003, 4.524093e-003
3.743154e+003, 3.873689e-003
3.745082e+003, 2.664995e-003
3.747011e+003, 2.678463e-003
3.748939e+003, 3.869236e-003
3.750868e+003, 5.253069e-003
3.752796e+003, 4.374818e-003
3.754725e+003, 3.920771e-003
3.756653e+003, 4.051669e-003
3.758582e+003, 5.289671e-003
3.760510e+003, 4.865611e-003
3.762438e+003, 3.613420e-003
3.764367e+003, 3.637135e-003
3.766295e+003, 4.956321e-003
3.768224e+003, 4.227746e-003
3.770152e+003, 3.612862e-003
3.772081e+003, 5.414944e-003
3.774009e+003, 5.593806e-003
3.775938e+003, 6.356136e-003
3.777866e+003, 5.871082e-003
3.779795e+003, 5.926943e-003
3.781723e+003, 5.241861e-003
3.783652e+003, 3.223034e-003
3.785580e+003, 3.570952e-003
3.787509e+003, 5.570814e-003
3.789437e+003, 5.944751e-003
3.791365e+003, 6.489002e-003
3.793294e+003, 6.240038e-003
3.795222e+003, 3.014396e-003
3.797151e+003, 2.073233e-003
3.799079e+003, 3.727134e-003
3.801008e+003, 5.633811e-003
3.802936e+003, 5.606671e-003
3.804865e+003, 4.323732e-003
3.806793e+003, 3.338636e-003
3.808722e+003, 3.396695e-003
3.810650e+003, 5.400488e-003
3.812579e+003, 5.057642e-003
3.814507e+003, 3.036812e-003
3.816436e+003, 4.122974e-003
3.818364e+003, 6.083119e-003
3.820292e+003, 6.474387e-003
3.822221e+003, 7.030866e-003
3.824149e+003, 8.007749e-003
3.826078e+003, 7.801659e-003
3.828006e+003, 6.270770e-003
3.829935e+003, 5.589314e-003
3.831863e+003, 6.004156e-003
3.833792e+003, 5.620234e-003
3.835720e+003, 6.054358e-003
3.837649e+003, 7.349414e-003
3.839577e+003, 6.193119e-003
3.841506e+003, 4.566817e-003
3.843434e+003, 5.687256e-003
3.845363e+003, 6.497857e-003
3.847291e+003, 7.504563e-003
3.849219e+003, 7.568627e-003
3.851148e+003, 4.682236e-003
3.853076e+003, 2.749303e-003
3.855005e+003, 3.598412e-003
3.856933e+003, 4.544100e-003
3.858862e+003, 5.400161e-003
3.860790e+003, 5.576842e-003
3.862719e+003, 3.888807e-003
3.864647e+003, 5.189047e-003
3.866576e+003, 7.306667e-003
3.868504e+003, 6.182607e-003
3.870433e+003, 5.991676e-003
3.872361e+003, 5.889170e-003
3.874290e+003, 4.815549e-003
3.876218e+003, 3.631546e-003
3.878146e+003, 2.217804e-003
3.880075e+003, 3.129133e-003
3.882003e+003, 5.248660e-003
3.883932e+003, 5.291971e-003
3.885860e+003, 5.376345e-003
3.887789e+003, 4.937472e-003
3.889717e+003, 4.863236e-003
3.891646e+003, 4.911363e-003
3.893574e+003, 4.997347e-003
3.895503e+003, 5.008471e-003
3.897431e+003, 4.263160e-003
3.899360e+003, 2.201349e-003
3.901288e+003, 3.515663e-003
3.903217e+003, 6.510239e-003
3.905145e+003, 7.811410e-003
3.907073e+003, 7.513569e-003
3.909002e+003, 6.713945e-003
3.910930e+003, 5.944755e-003
3.912859e+003, 6.156224e-003
3.914787e+003, 6.111764e-003
3.916716e+003, 5.260468e-003
3.918644e+003, 4.704325e-003
3.920573e+003, 5.624626e-003
3.922501e+003, 5.256050e-003
3.924430e+003, 3.851942e-003
3.926358e+003, 3.926965e-003
3.928287e+003, 4.718823e-003
3.930215e+003, 6.419380e-003
3.932144e+003, 6.353297e-003
3.934072e+003, 4.865366e-003
3.936000e+003, 4.253889e-003
3.937929e+003, 5.920019e-003
3.939857e+003, 7.807434e-003
3.941786e+003, 6.168663e-003
3.943714e+003, 6.141019e-003
3.945643e+003, 6.566551e-003
3.947571e+003, 6.119194e-003
3.949500e+003, 4.646041e-003
3.951428e+003, 4.117203e-003
3.953357e+003, 5.846389e-003
3.955285e+003, 7.294061e-003
3.957214e+003, 8.181907e-003
3.959142e+003, 7.919529e-003
3.961071e+003, 5.151040e-003
3.962999e+003, 4.529239e-003
3.964927e+003, 5.945046e-003
3.966856e+003, 5.852801e-003
3.968784e+003, 4.280127e-003
3.970713e+003, 6.186268e-003
3.972641e+003, 7.055749e-003
3.974570e+003, 4.805657e-003
3.976498e+003, 6.064743e-003
3.978427e+003, 7.293719e-003
3.980355e+003, 5.616716e-003
3.982284e+003, 5.100610e-003
3.984212e+003, 6.113996e-003
3.986141e+003, 6.617332e-003
3.988069e+003, 5.724212e-003
3.989998e+003, 4.400007e-003
3.991926e+003, 4.675265e-003
3.993854e+003, 6.517939e-003
3.995783e+003, 7.968714e-003
3.997711e+003, 7.167920e-003
3.999640e+003, 7.171513e-003
##END=



