##NAMES=Schorl
##RRUFFID=R050304
##IDEAL CHEMISTRY=NaFe^2+^_3_Al_6_(Si_6_O_18_)(BO_3_)_3_(OH)_3_OH
##LOCALITY=Erongo Mountains, Namibia
##OWNER=RRUFF
##SOURCE=Eugene Schlepp
##DESCRIPTION=Black prismatic crystal associated with quartz and orthoclase
##STATUS=The identification of this mineral has been confirmed by X-ray diffraction and chemical analysis
##URL=rruff.info/R050304
##MEASURED CHEMISTRY=(Na_0.86_[box]_0.14_)_Σ=1_(Fe^2+^_2.68_Mg_0.22_Al_0.06_Ti_0.04_)_Σ=3_Al_6.00_(BO_3_)_3_Si_6.00_O_18_(OH)_4_
399.1926, 0.2552034
401.1211, 0.2436388
403.0496, 0.2448101
404.9780, 0.2389947
406.9065, 0.2426109
408.8350, 0.2533050
410.7634, 0.2608430
412.6919, 0.2576811
414.6204, 0.2538846
416.5488, 0.2517939
418.4773, 0.2528290
420.4058, 0.2533677
422.3342, 0.2518318
424.2627, 0.2463049
426.1912, 0.2394118
428.1196, 0.2341810
430.0481, 0.2347315
431.9766, 0.2380087
433.9050, 0.2382020
435.8335, 0.2360345
437.7620, 0.2385987
439.6904, 0.2433372
441.6189, 0.2445717
443.5474, 0.2422613
445.4758, 0.2431572
447.4043, 0.2430591
449.3328, 0.2426043
451.2612, 0.2402458
453.1897, 0.2404153
455.1182, 0.2418100
457.0466, 0.2430509
458.9751, 0.2439075
460.9036, 0.2462042
462.8320, 0.2496523
464.7605, 0.2523023
466.6890, 0.2547178
468.6174, 0.2577188
470.5459, 0.2603741
472.4744, 0.2623987
474.4028, 0.2643752
476.3313, 0.2645709
478.2598, 0.2635263
480.1882, 0.2622254
482.1167, 0.2595858
484.0452, 0.2560649
485.9736, 0.2544519
487.9021, 0.2534127
489.8306, 0.2511757
491.7590, 0.2497935
493.6875, 0.2474713
495.6160, 0.2443091
497.5444, 0.2423637
499.4729, 0.2387777
501.4014, 0.2359802
503.3298, 0.2332894
505.2583, 0.2285543
507.1868, 0.2243448
509.1152, 0.2199387
511.0437, 0.2137629
512.9722, 0.2081289
514.9006, 0.2032860
516.8291, 0.1979895
518.7576, 0.1933980
520.6860, 0.1874220
522.6145, 0.1812267
524.5430, 0.1760420
526.4714, 0.1697919
528.3999, 0.1633142
530.3284, 0.1581776
532.2568, 0.1533270
534.1853, 0.1487558
536.1138, 0.1452904
538.0422, 0.1429227
539.9707, 0.1419910
541.8992, 0.1416574
543.8276, 0.1417397
545.7561, 0.1411047
547.6846, 0.1418629
549.6130, 0.1419844
551.5415, 0.1414132
553.4700, 0.1396145
555.3984, 0.1366936
557.3269, 0.1344644
559.2554, 0.1330686
561.1838, 0.1312502
563.1123, 0.1295778
565.0408, 0.1280035
566.9692, 0.1255059
568.8977, 0.1235719
570.8262, 0.1221932
572.7546, 0.1200974
574.6831, 0.1175520
576.6116, 0.1143013
578.5400, 0.1112640
580.4685, 0.1092099
582.3970, 0.1072126
584.3254, 0.1053755
586.2539, 0.1052299
588.1824, 0.1061234
590.1108, 0.1068918
592.0393, 0.1081949
593.9678, 0.1102916
595.8962, 0.1131504
597.8247, 0.1170764
599.7532, 0.1212747
601.6816, 0.1252111
603.6101, 0.1291230
605.5386, 0.1317435
607.4670, 0.1319736
609.3955, 0.1300950
611.3240, 0.1255980
613.2524, 0.1200284
615.1809, 0.1137114
617.1094, 0.1078371
619.0378, 0.1025047
620.9663, 9.7941540E-02
622.8948, 9.4504572E-02
624.8232, 9.1641881E-02
626.7517, 8.9421786E-02
628.6802, 8.7361626E-02
630.6086, 8.5333452E-02
632.5371, 8.3831571E-02
634.4656, 8.2780793E-02
636.3940, 8.2456373E-02
638.3225, 8.2683772E-02
640.2510, 8.3221197E-02
642.1794, 8.3420239E-02
644.1079, 8.3862528E-02
646.0364, 8.5087180E-02
647.9648, 8.6554028E-02
649.8933, 8.7346353E-02
651.8218, 8.7464437E-02
653.7502, 8.7328687E-02
655.6787, 8.7710992E-02
657.6072, 8.8440359E-02
659.5356, 8.9330390E-02
661.4641, 9.0736568E-02
663.3926, 9.2497908E-02
665.3210, 9.4236188E-02
667.2495, 9.5590517E-02
669.1780, 9.6333392E-02
671.1064, 9.6180789E-02
673.0349, 9.5948212E-02
674.9634, 9.5000997E-02
676.8918, 9.3121476E-02
678.8203, 9.1782980E-02
680.7488, 9.0963610E-02
682.6772, 9.0743043E-02
684.6057, 9.1897503E-02
686.5342, 9.4131261E-02
688.4626, 9.6796207E-02
690.3911, 0.1007484
692.3196, 0.1058004
694.2480, 0.1110977
696.1765, 0.1157286
698.1050, 0.1192295
700.0334, 0.1216117
701.9619, 0.1233228
703.8904, 0.1240464
705.8188, 0.1228204
707.7473, 0.1201164
709.6758, 0.1162740
711.6042, 0.1112839
713.5327, 0.1047834
715.4612, 9.7111128E-02
717.3896, 8.8917904E-02
719.3181, 8.1146859E-02
721.2466, 7.4741490E-02
723.1750, 7.0364401E-02
725.1035, 6.7590408E-02
727.0320, 6.6385709E-02
728.9604, 6.6231377E-02
730.8889, 6.6115968E-02
732.8174, 6.5660149E-02
734.7458, 6.5152459E-02
736.6743, 6.4771637E-02
738.6028, 6.5153472E-02
740.5313, 6.7118347E-02
742.4597, 7.0684820E-02
744.3882, 7.4900471E-02
746.3167, 7.8298613E-02
748.2451, 8.0450788E-02
750.1736, 8.0837868E-02
752.1021, 7.9636022E-02
754.0305, 7.6998428E-02
755.9590, 7.3950790E-02
757.8875, 7.1117379E-02
759.8159, 6.9010846E-02
761.7444, 6.8853058E-02
763.6729, 7.1287557E-02
765.6013, 7.5633183E-02
767.5298, 8.0815412E-02
769.4583, 8.5942373E-02
771.3867, 9.0314537E-02
773.3152, 9.2507973E-02
775.2437, 9.2877768E-02
777.1721, 9.1506757E-02
779.1006, 8.7896369E-02
781.0291, 8.2481399E-02
782.9575, 7.6364227E-02
784.8860, 6.9860414E-02
786.8145, 6.2660553E-02
788.7429, 5.6359939E-02
790.6714, 5.1205032E-02
792.5999, 4.6522129E-02
794.5283, 4.3480132E-02
796.4568, 4.1871510E-02
798.3853, 4.0511031E-02
800.3137, 3.8627479E-02
802.2422, 3.6827911E-02
804.1707, 3.5564050E-02
806.0991, 3.4307610E-02
808.0276, 3.2943022E-02
809.9561, 3.1610612E-02
811.8845, 3.0882830E-02
813.8130, 3.0698620E-02
815.7415, 3.0625761E-02
817.6699, 3.0612830E-02
819.5984, 3.0659661E-02
821.5269, 3.0752370E-02
823.4553, 3.0981980E-02
825.3838, 3.1223400E-02
827.3123, 3.1808451E-02
829.2407, 3.2635551E-02
831.1692, 3.3108089E-02
833.0977, 3.3758089E-02
835.0261, 3.4376889E-02
836.9546, 3.4887291E-02
838.8831, 3.5888478E-02
840.8115, 3.7046470E-02
842.7400, 3.8410600E-02
844.6685, 3.9600629E-02
846.5969, 4.0261801E-02
848.5254, 4.1192479E-02
850.4539, 4.2189490E-02
852.3823, 4.2983130E-02
854.3108, 4.3874849E-02
856.2393, 4.4599000E-02
858.1677, 4.5388460E-02
860.0962, 4.6179101E-02
862.0247, 4.7325451E-02
863.9531, 4.8326962E-02
865.8816, 4.9019601E-02
867.8101, 5.0346471E-02
869.7385, 5.1936928E-02
871.6670, 5.3650979E-02
873.5955, 5.5496309E-02
875.5239, 5.7676628E-02
877.4524, 6.0070790E-02
879.3809, 6.2505811E-02
881.3093, 6.5154068E-02
883.2378, 6.8186440E-02
885.1663, 7.1077362E-02
887.0947, 7.3975652E-02
889.0232, 7.7012949E-02
890.9517, 8.0190390E-02
892.8801, 8.3431847E-02
894.8085, 8.6803980E-02
896.7370, 9.0528131E-02
898.6655, 9.4293542E-02
900.5939, 9.8338850E-02
902.5224, 0.1032221
904.4509, 0.1083619
906.3793, 0.1133279
908.3078, 0.1182726
910.2363, 0.1241406
912.1647, 0.1304642
914.0932, 0.1362586
916.0217, 0.1422508
917.9501, 0.1486732
919.8786, 0.1550142
921.8071, 0.1616731
923.7355, 0.1691998
925.6640, 0.1769043
927.5925, 0.1848395
929.5209, 0.1931499
931.4494, 0.2008860
933.3779, 0.2089083
935.3063, 0.2173577
937.2348, 0.2255904
939.1633, 0.2336196
941.0917, 0.2415349
943.0202, 0.2490882
944.9487, 0.2559068
946.8771, 0.2619340
948.8056, 0.2676668
950.7341, 0.2726689
952.6625, 0.2767392
954.5910, 0.2803069
956.5195, 0.2834026
958.4479, 0.2857431
960.3764, 0.2876346
962.3049, 0.2886642
964.2333, 0.2889134
966.1618, 0.2888286
968.0903, 0.2883333
970.0187, 0.2871108
971.9472, 0.2849967
973.8757, 0.2820080
975.8041, 0.2783806
977.7326, 0.2745593
979.6611, 0.2705346
981.5895, 0.2662286
983.5180, 0.2623593
985.4465, 0.2590229
987.3749, 0.2559155
989.3034, 0.2533908
991.2319, 0.2507895
993.1603, 0.2482529
995.0888, 0.2459208
997.0173, 0.2432581
998.9457, 0.2402819
1000.874, 0.2369166
1002.803, 0.2337072
1004.731, 0.2311052
1006.660, 0.2287950
1008.588, 0.2269352
1010.517, 0.2256807
1012.445, 0.2245984
1014.373, 0.2236046
1016.302, 0.2224144
1018.230, 0.2208466
1020.159, 0.2189015
1022.087, 0.2166919
1024.016, 0.2138644
1025.944, 0.2107966
1027.873, 0.2081675
1029.801, 0.2052298
1031.730, 0.2020656
1033.658, 0.1989885
1035.587, 0.1960102
1037.515, 0.1930322
1039.444, 0.1897663
1041.372, 0.1862117
1043.301, 0.1828467
1045.229, 0.1792061
1047.157, 0.1743655
1049.086, 0.1687686
1051.014, 0.1630533
1052.943, 0.1568417
1054.871, 0.1501195
1056.800, 0.1439115
1058.728, 0.1385465
1060.657, 0.1339978
1062.585, 0.1299601
1064.514, 0.1262165
1066.442, 0.1231242
1068.371, 0.1206581
1070.299, 0.1186861
1072.228, 0.1171300
1074.156, 0.1159384
1076.084, 0.1153780
1078.013, 0.1154377
1079.941, 0.1156074
1081.870, 0.1156849
1083.798, 0.1161103
1085.727, 0.1168978
1087.655, 0.1173149
1089.584, 0.1169378
1091.512, 0.1154195
1093.441, 0.1133754
1095.369, 0.1102570
1097.298, 0.1060129
1099.226, 0.1011964
1101.155, 9.6142597E-02
1103.083, 9.0687819E-02
1105.011, 8.5085273E-02
1106.940, 7.9579227E-02
1108.868, 7.4552476E-02
1110.797, 7.0171364E-02
1112.725, 6.5776967E-02
1114.654, 6.1643399E-02
1116.582, 5.7797719E-02
1118.511, 5.3980500E-02
1120.439, 5.0219651E-02
1122.368, 4.6743851E-02
1124.296, 4.3748781E-02
1126.225, 4.1303679E-02
1128.153, 3.9112501E-02
1130.082, 3.6798760E-02
1132.010, 3.4675159E-02
1133.938, 3.2813251E-02
1135.867, 3.0966209E-02
1137.795, 2.9354559E-02
1139.724, 2.7994640E-02
1141.652, 2.6688570E-02
1143.581, 2.5700660E-02
1145.509, 2.4775730E-02
1147.438, 2.4010090E-02
1149.366, 2.3195010E-02
1151.295, 2.2851400E-02
1153.223, 2.2607449E-02
1155.152, 2.2237550E-02
1157.080, 2.2140520E-02
1159.009, 2.2051100E-02
1160.937, 2.2256210E-02
1162.865, 2.2575511E-02
1164.794, 2.2501890E-02
1166.722, 2.2089390E-02
1168.651, 2.1902639E-02
1170.579, 2.1849129E-02
1172.508, 2.1886950E-02
1174.436, 2.1964669E-02
1176.365, 2.1776650E-02
1178.293, 2.1939270E-02
1180.222, 2.2165021E-02
1182.150, 2.2427591E-02
1184.079, 2.2864681E-02
1186.007, 2.3501599E-02
1187.936, 2.4209891E-02
1189.864, 2.4779091E-02
1191.792, 2.5539160E-02
1193.721, 2.6582010E-02
1195.649, 2.7393490E-02
1197.578, 2.8435240E-02
1199.506, 2.9855520E-02
1201.435, 3.1483911E-02
1203.363, 3.3539299E-02
1205.292, 3.5848550E-02
1207.220, 3.8495611E-02
1209.149, 4.1605160E-02
1211.077, 4.5151539E-02
1213.006, 4.9137712E-02
1214.934, 5.3534631E-02
1216.863, 5.7947628E-02
1218.791, 6.2295381E-02
1220.719, 6.6752419E-02
1222.648, 7.1171589E-02
1224.576, 7.5358100E-02
1226.505, 7.9095133E-02
1228.433, 8.2346752E-02
1230.362, 8.5293740E-02
1232.290, 8.8216133E-02
1234.219, 9.1247790E-02
1236.147, 9.4632223E-02
1238.076, 9.8032057E-02
1240.004, 0.1016170
1241.933, 0.1052014
1243.861, 0.1088273
1245.790, 0.1124707
1247.718, 0.1159405
1249.646, 0.1192624
1251.575, 0.1220991
1253.503, 0.1247994
1255.432, 0.1271143
1257.360, 0.1285000
1259.289, 0.1292796
1261.217, 0.1294334
1263.146, 0.1290675
1265.074, 0.1283566
1267.003, 0.1271590
1268.931, 0.1256353
1270.860, 0.1242018
1272.788, 0.1227619
1274.717, 0.1211333
1276.645, 0.1192649
1278.573, 0.1173351
1280.502, 0.1153949
1282.430, 0.1134792
1284.359, 0.1117161
1286.287, 0.1100598
1288.216, 0.1085755
1290.144, 0.1073392
1292.073, 0.1063362
1294.001, 0.1055482
1295.930, 0.1050858
1297.858, 0.1047767
1299.787, 0.1044123
1301.715, 0.1042402
1303.644, 0.1045493
1305.572, 0.1051596
1307.500, 0.1056070
1309.429, 0.1059658
1311.357, 0.1062430
1313.286, 0.1063739
1315.214, 0.1061413
1317.143, 0.1050275
1319.071, 0.1035358
1321.000, 0.1018557
1322.928, 0.1000682
1324.857, 9.8159038E-02
1326.785, 9.5831603E-02
1328.714, 9.3701497E-02
1330.642, 9.1630913E-02
1332.571, 8.9555100E-02
1334.499, 8.7292276E-02
1336.427, 8.4910221E-02
1338.356, 8.2419246E-02
1340.284, 7.9785101E-02
1342.213, 7.7038638E-02
1344.141, 7.3699526E-02
1346.070, 7.0316583E-02
1347.998, 6.7431547E-02
1349.927, 6.4583421E-02
1351.855, 6.1499771E-02
1353.784, 5.8271158E-02
1355.712, 5.5385292E-02
1357.641, 5.2881461E-02
1359.569, 5.0409779E-02
1361.498, 4.7891442E-02
1363.426, 4.5510732E-02
1365.354, 4.3702260E-02
1367.283, 4.1918579E-02
1369.211, 4.0112071E-02
1371.140, 3.8317341E-02
1373.068, 3.6574941E-02
1374.997, 3.4828521E-02
1376.925, 3.2992870E-02
1378.854, 3.1364039E-02
1380.782, 2.9955950E-02
1382.711, 2.8554341E-02
1384.639, 2.7411180E-02
1386.568, 2.6473390E-02
1388.496, 2.5193360E-02
1390.424, 2.3787640E-02
1392.353, 2.2675481E-02
1394.281, 2.1793829E-02
1396.210, 2.0607941E-02
1398.138, 1.9460820E-02
1400.067, 1.8716380E-02
1401.995, 1.7862471E-02
1403.924, 1.6852750E-02
1405.852, 1.6011810E-02
1407.781, 1.5184030E-02
1409.709, 1.4470820E-02
1411.638, 1.3736590E-02
1413.566, 1.2967500E-02
1415.495, 1.2320910E-02
1417.423, 1.1760580E-02
1419.351, 1.1241230E-02
1421.280, 1.0310270E-02
1423.208, 9.4230520E-03
1425.137, 8.4910002E-03
1427.065, 7.7466401E-03
1428.994, 7.1679181E-03
1430.922, 6.3343979E-03
1432.851, 5.5061202E-03
1434.779, 5.2890112E-03
1436.708, 5.2284780E-03
1438.636, 4.5568421E-03
1440.565, 3.9937370E-03
1442.493, 3.5862660E-03
1444.422, 3.4393121E-03
1446.350, 3.0431650E-03
1448.278, 2.9804411E-03
1450.207, 2.5551100E-03
1452.135, 2.0558410E-03
1454.064, 1.8908191E-03
1455.992, 1.8100090E-03
1457.921, 1.4417630E-03
1459.849, 8.7592099E-04
1461.778, 7.4380980E-04
1463.706, 4.3513189E-04
1465.635, 9.5189433E-05
1467.563, 5.6798039E-05
1469.492, 8.4387179E-04
1471.420, 2.2423270E-03
1473.349, 3.0603351E-03
1475.277, 3.3297220E-03
1477.205, 3.4293830E-03
1479.134, 3.3816330E-03
1481.062, 3.5656870E-03
1482.991, 3.3346850E-03
1484.919, 3.4598061E-03
1486.848, 3.7608561E-03
1488.776, 3.5483970E-03
1490.705, 3.2560150E-03
1492.633, 3.3198779E-03
1494.562, 3.3291441E-03
1496.490, 3.3061791E-03
1498.419, 3.4363039E-03
1500.347, 3.2881680E-03
1502.276, 3.0767580E-03
1504.204, 3.2974221E-03
1506.132, 3.7605960E-03
1508.061, 3.6692270E-03
1509.989, 3.2694759E-03
1511.918, 3.1762889E-03
1513.846, 3.0606941E-03
1515.775, 3.0429470E-03
1517.703, 3.1453411E-03
1519.632, 3.4007290E-03
1521.560, 3.5237379E-03
1523.489, 3.4309251E-03
1525.417, 3.1315680E-03
1527.346, 2.9001480E-03
1529.274, 2.8822820E-03
1531.203, 2.9237270E-03
1533.131, 3.2423439E-03
1535.059, 2.9422790E-03
1536.988, 2.9224979E-03
1538.916, 3.4966280E-03
1540.845, 3.5380649E-03
1542.773, 3.2414701E-03
1544.702, 2.9776751E-03
1546.630, 2.7731089E-03
1548.559, 2.7869740E-03
1550.487, 3.0177250E-03
1552.416, 3.0621949E-03
1554.344, 2.9875189E-03
1556.273, 3.1433110E-03
1558.201, 3.8993789E-03
1560.130, 3.8883991E-03
1562.058, 3.1000881E-03
1563.986, 2.8964940E-03
1565.915, 3.0473359E-03
1567.843, 3.2520720E-03
1569.772, 3.5616630E-03
1571.700, 3.3106729E-03
1573.629, 3.2240469E-03
1575.557, 3.4439219E-03
1577.486, 3.5183770E-03
1579.414, 3.3448541E-03
1581.343, 3.1681010E-03
1583.271, 3.3914009E-03
1585.200, 3.5783991E-03
1587.128, 3.5011920E-03
1589.057, 3.7333560E-03
1590.985, 3.7494421E-03
1592.913, 3.7936280E-03
1594.842, 4.0864800E-03
1596.770, 4.1261758E-03
1598.699, 4.1080872E-03
1600.627, 4.1538561E-03
1602.556, 3.8863779E-03
1604.484, 3.8928189E-03
1606.413, 3.9876942E-03
1608.341, 4.0109190E-03
1610.270, 4.0481398E-03
1612.198, 4.1495450E-03
1614.127, 4.3064039E-03
1616.055, 4.4180159E-03
1617.984, 4.3730638E-03
1619.912, 4.3949662E-03
1621.840, 4.5547071E-03
1623.769, 4.5739850E-03
1625.697, 4.3459460E-03
1627.626, 4.2856629E-03
1629.554, 4.4833929E-03
1631.483, 4.3940470E-03
1633.411, 4.3660230E-03
1635.340, 4.8908340E-03
1637.268, 4.8149428E-03
1639.197, 4.6842499E-03
1641.125, 4.9353489E-03
1643.054, 4.7390582E-03
1644.982, 4.9234028E-03
1646.911, 4.8369258E-03
1648.839, 4.5072031E-03
1650.767, 5.1059620E-03
1652.696, 5.9838011E-03
1654.624, 5.3512729E-03
1656.553, 5.0366288E-03
1658.481, 5.2488791E-03
1660.410, 4.9340702E-03
1662.338, 4.7703399E-03
1664.267, 4.5763450E-03
1666.195, 4.5126481E-03
1668.124, 4.5132539E-03
1670.052, 4.5267688E-03
1671.981, 4.3882960E-03
1673.909, 4.5436970E-03
1675.838, 4.6781269E-03
1677.766, 4.4392189E-03
1679.694, 4.2078919E-03
1681.623, 4.3848469E-03
1683.551, 4.9126958E-03
1685.480, 4.7663110E-03
1687.408, 4.2558401E-03
1689.337, 4.0516341E-03
1691.265, 3.8896550E-03
1693.194, 4.2595980E-03
1695.122, 4.7510099E-03
1697.051, 4.5101591E-03
1698.979, 4.0717041E-03
1700.908, 3.4949521E-03
1702.836, 3.1262180E-03
1704.765, 3.0564740E-03
1706.693, 2.6850270E-03
1708.621, 2.2691400E-03
1710.550, 1.9212400E-03
1712.478, 1.9746069E-03
1714.407, 1.9111061E-03
1716.335, 2.0653310E-03
1718.264, 2.0326560E-03
1720.192, 1.5462150E-03
1722.121, 1.4416610E-03
1724.049, 1.1756920E-03
1725.978, 5.1819353E-04
1727.906, 1.4978751E-04
1729.835, -6.1807508E-04
1731.763, -1.4156160E-03
1733.692, -1.0441280E-03
1735.620, -1.3528140E-03
1737.548, -2.4080749E-03
1739.477, -3.0422860E-03
1741.405, -3.9779032E-03
1743.334, -4.5751282E-03
1745.262, -4.3735802E-03
1747.191, -3.8815211E-03
1749.119, -2.5823291E-03
1751.048, -1.1422380E-03
1752.976, 6.4939770E-05
1754.905, 1.1136320E-03
1756.833, 1.8909380E-03
1758.762, 2.5760101E-03
1760.690, 3.3964899E-03
1762.619, 3.8718269E-03
1764.547, 4.0815258E-03
1766.475, 4.4214069E-03
1768.404, 4.6127788E-03
1770.332, 4.5213322E-03
1772.261, 4.4964282E-03
1774.189, 4.3068649E-03
1776.118, 4.1736099E-03
1778.046, 4.3900488E-03
1779.975, 4.5282198E-03
1781.903, 4.4555678E-03
1783.832, 4.6554599E-03
1785.760, 4.5607928E-03
1787.689, 4.5102490E-03
1789.617, 4.2203558E-03
1791.546, 4.3192711E-03
1793.474, 4.8916880E-03
1795.402, 4.9592080E-03
1797.331, 4.6790070E-03
1799.259, 4.8805322E-03
1801.188, 4.9414951E-03
1803.116, 4.7068712E-03
1805.045, 4.5391792E-03
1806.973, 4.9546561E-03
1808.902, 5.1182280E-03
1810.830, 5.0199381E-03
1812.759, 4.5016711E-03
1814.687, 4.0104371E-03
1816.616, 4.3949648E-03
1818.544, 4.1959458E-03
1820.473, 3.8058429E-03
1822.401, 3.7395549E-03
1824.329, 3.9678342E-03
1826.258, 4.3310402E-03
1828.186, 4.1216761E-03
1830.115, 3.9847442E-03
1832.043, 4.6790610E-03
1833.972, 4.8845629E-03
1835.900, 4.2237611E-03
1837.829, 4.1006301E-03
1839.757, 4.6229148E-03
1841.686, 4.5100488E-03
1843.614, 5.0356979E-03
1845.543, 4.6743560E-03
1847.471, 4.1736448E-03
1849.400, 4.1220118E-03
1851.328, 3.8008241E-03
1853.256, 3.7870151E-03
1855.185, 4.5070061E-03
1857.113, 4.7802902E-03
1859.042, 4.4183880E-03
1860.970, 4.0677912E-03
1862.899, 3.7251089E-03
1864.827, 3.6328789E-03
1866.756, 4.0678168E-03
1868.684, 4.7059399E-03
1870.613, 5.2283332E-03
1872.541, 5.1592910E-03
1874.470, 4.5492351E-03
1876.398, 3.4621540E-03
1878.327, 3.0664250E-03
1880.255, 3.5379711E-03
1882.183, 4.2688032E-03
1884.112, 4.6927398E-03
1886.040, 4.0291999E-03
1887.969, 3.7798900E-03
1889.897, 3.5769939E-03
1891.826, 3.7481920E-03
1893.754, 4.1952650E-03
1895.683, 4.2432258E-03
1897.611, 4.0230849E-03
1899.540, 4.2447099E-03
1901.468, 3.7241320E-03
1903.397, 3.4961989E-03
1905.325, 3.6140571E-03
1907.254, 3.5008709E-03
1909.182, 3.6355411E-03
1911.110, 3.0118991E-03
1913.039, 2.3774840E-03
1914.967, 2.8371420E-03
1916.896, 3.8376129E-03
1918.824, 4.3246150E-03
1920.753, 4.0644729E-03
1922.681, 2.9189540E-03
1924.610, 2.3724230E-03
1926.538, 2.4110980E-03
1928.467, 2.4493979E-03
1930.395, 1.7122769E-03
1932.324, 2.3392341E-03
1934.252, 3.6418911E-03
1936.181, 3.6585371E-03
1938.109, 3.5999441E-03
1940.037, 3.4540249E-03
1941.966, 3.8408739E-03
1943.894, 3.0128870E-03
1945.823, 3.0531459E-03
1947.751, 2.4369990E-03
1949.680, 2.0525909E-03
1951.608, 1.0041900E-03
1953.537, 7.2468678E-04
1955.465, 6.8072323E-04
1957.394, -3.4003871E-04
1959.322, -1.4104560E-03
1961.251, 5.9845438E-04
1963.179, 1.7150900E-03
1965.108, 4.8913091E-04
1967.036, 9.9836022E-04
1968.964, 9.4316911E-04
1970.893, 1.5877620E-03
1972.821, 2.8941280E-03
1974.750, 3.4740430E-03
1976.678, 4.1876212E-03
1978.607, 6.0795890E-03
1980.535, 5.1754871E-03
1982.464, 3.9951438E-03
1984.392, 3.9074812E-03
1986.321, 3.4504549E-03
1988.249, 3.8259381E-03
1990.178, 4.8520681E-03
1992.106, 6.2971120E-03
1994.035, 4.4104452E-03
1995.963, 3.6850220E-03
1997.891, 3.0585791E-03
1999.820, 1.8690770E-03
2001.748, -1.1864910E-04
2003.677, -5.3175341E-04
2005.605, -1.9196390E-04
2007.534, 7.5370522E-04
2009.462, 1.9494880E-03
2011.391, 1.9617120E-03
2013.319, 2.8625110E-03
2015.248, 1.7228430E-03
2017.176, 5.5144669E-04
2019.105, 2.7477141E-03
2021.033, 2.0344760E-03
2022.962, 1.2991160E-04
2024.890, 4.5473830E-04
2026.818, 8.4026239E-04
2028.747, -1.7409960E-05
2030.675, 8.6671341E-04
2032.604, 3.9299790E-04
2034.532, 2.6179210E-03
2036.461, 5.4558460E-03
2038.389, 2.1182250E-03
2040.318, 4.8302679E-04
2042.246, 4.9316501E-03
2044.175, 5.8902842E-03
2046.103, 2.2553711E-03
2048.032, 4.1037361E-04
2049.960, 1.0637729E-03
2051.889, 3.1432221E-03
2053.817, 4.3545282E-03
2055.746, 3.7244610E-03
2057.674, 2.0116360E-03
2059.603, 2.3388071E-03
2061.531, 2.4819509E-03
2063.459, 3.2047220E-03
2065.388, 4.5402711E-03
2067.316, 5.5014999E-03
2069.245, 5.5605778E-03
2071.173, 3.8282890E-03
2073.102, 2.3548929E-03
2075.030, 2.3056611E-03
2076.959, 3.7662110E-03
2078.887, 4.6230480E-03
2080.816, 4.2371252E-03
2082.744, 4.8067858E-03
2084.673, 4.3639350E-03
2086.601, 4.2793299E-03
2088.530, 4.7343620E-03
2090.458, 3.0475189E-03
2092.386, 1.6159751E-03
2094.315, 3.1978369E-03
2096.243, 5.9181079E-03
2098.172, 7.4333800E-03
2100.100, 7.6341410E-03
2102.029, 6.1161672E-03
2103.957, 5.2273348E-03
2105.886, 6.2284078E-03
2107.814, 7.3428480E-03
2109.743, 6.1943498E-03
2111.671, 4.6799192E-03
2113.600, 4.4657271E-03
2115.528, 5.6116739E-03
2117.457, 5.5297562E-03
2119.385, 5.6734141E-03
2121.313, 4.7224830E-03
2123.242, 3.0000941E-03
2125.170, 2.9328121E-03
2127.099, 4.8130779E-03
2129.027, 5.1388699E-03
2130.956, 1.8431990E-03
2132.884, 2.0229050E-03
2134.813, 3.4189050E-03
2136.741, 3.4560310E-03
2138.670, 4.1148900E-03
2140.598, 4.4829310E-03
2142.527, 4.9690250E-03
2144.455, 3.8019160E-03
2146.384, 3.3242321E-03
2148.312, 3.4914659E-03
2150.240, 4.3021911E-03
2152.169, 4.5305942E-03
2154.097, 3.8061109E-03
2156.026, 1.8273760E-03
2157.954, 1.9976699E-03
2159.883, 5.2436450E-03
2161.811, 5.8195619E-03
2163.740, 5.6050429E-03
2165.668, 7.0344931E-03
2167.597, 6.2143290E-03
2169.525, 4.4709202E-03
2171.454, 7.3012309E-03
2173.382, 9.5810294E-03
2175.311, 8.0926074E-03
2177.239, 9.2745870E-03
2179.167, 8.7126233E-03
2181.096, 7.4304482E-03
2183.024, 7.1412269E-03
2184.953, 7.0144231E-03
2186.881, 7.4332142E-03
2188.810, 7.8815054E-03
2190.738, 7.4045518E-03
2192.667, 6.1789230E-03
2194.595, 7.9005780E-03
2196.524, 8.8034635E-03
2198.452, 7.8413086E-03
2200.381, 7.8677414E-03
2202.309, 1.0178680E-02
2204.238, 1.1176660E-02
2206.166, 8.8330349E-03
2208.094, 7.0464830E-03
2210.023, 7.1364390E-03
2211.951, 7.9785064E-03
2213.880, 8.5400743E-03
2215.808, 8.3101373E-03
2217.737, 8.3494652E-03
2219.665, 1.0709010E-02
2221.594, 1.2626050E-02
2223.522, 1.0597110E-02
2225.451, 8.4363753E-03
2227.379, 8.3901593E-03
2229.308, 8.8342959E-03
2231.236, 7.1939901E-03
2233.165, 5.7696989E-03
2235.093, 7.4843122E-03
2237.021, 9.9575734E-03
2238.950, 8.7096877E-03
2240.878, 7.4215308E-03
2242.807, 6.8755201E-03
2244.735, 7.4353549E-03
2246.664, 9.3143862E-03
2248.592, 9.9031748E-03
2250.521, 8.9173047E-03
2252.449, 7.3291571E-03
2254.378, 7.0009660E-03
2256.306, 9.2048524E-03
2258.235, 1.1359910E-02
2260.163, 1.0327920E-02
2262.092, 7.8543033E-03
2264.020, 7.4172192E-03
2265.948, 8.3349189E-03
2267.877, 9.6896002E-03
2269.805, 1.0500970E-02
2271.734, 1.0761140E-02
2273.662, 1.1908250E-02
2275.591, 1.1003000E-02
2277.519, 1.0010140E-02
2279.448, 1.1652770E-02
2281.376, 1.1627900E-02
2283.305, 1.1203800E-02
2285.233, 1.2034530E-02
2287.162, 1.1447700E-02
2289.090, 1.0238620E-02
2291.019, 1.1290630E-02
2292.947, 1.1947970E-02
2294.875, 1.1625470E-02
2296.804, 1.0844500E-02
2298.732, 1.0913510E-02
2300.661, 1.0524000E-02
2302.589, 1.0253750E-02
2304.518, 1.1080250E-02
2306.446, 1.1634450E-02
2308.375, 1.1812640E-02
2310.303, 1.1518380E-02
2312.232, 1.0831840E-02
2314.160, 1.0416450E-02
2316.089, 1.0330610E-02
2318.017, 1.1065640E-02
2319.946, 1.2639140E-02
2321.874, 1.3087170E-02
2323.802, 1.2512180E-02
2325.731, 1.1814760E-02
2327.659, 1.1382830E-02
2329.588, 1.1298670E-02
2331.516, 1.0821370E-02
2333.445, 1.0913240E-02
2335.373, 1.1033260E-02
2337.302, 1.1328640E-02
2339.230, 1.1215810E-02
2341.159, 1.1215560E-02
2343.087, 1.0717680E-02
2345.016, 9.6567990E-03
2346.944, 9.6246246E-03
2348.873, 9.9680657E-03
2350.801, 9.8173758E-03
2352.729, 9.7938683E-03
2354.658, 9.9985274E-03
2356.586, 1.0734680E-02
2358.515, 1.1072360E-02
2360.443, 1.0404400E-02
2362.372, 9.6755661E-03
2364.300, 9.4089322E-03
2366.229, 9.1747511E-03
2368.157, 9.2507144E-03
2370.086, 9.2439037E-03
2372.014, 9.1499221E-03
2373.942, 9.2451358E-03
2375.871, 8.8487379E-03
2377.799, 8.2883006E-03
2379.728, 8.0196429E-03
2381.656, 8.2798693E-03
2383.585, 8.8203540E-03
2385.513, 9.2856521E-03
2387.442, 9.9660009E-03
2389.370, 1.0116260E-02
2391.299, 9.8161176E-03
2393.227, 8.6697079E-03
2395.156, 8.5757859E-03
2397.084, 9.2979139E-03
2399.012, 9.8050945E-03
2400.941, 9.5654232E-03
2402.869, 8.8141514E-03
2404.798, 9.3882130E-03
2406.726, 9.8211654E-03
2408.655, 9.7664408E-03
2410.583, 1.0067840E-02
2412.512, 9.6761445E-03
2414.440, 8.4419074E-03
2416.369, 8.1285983E-03
2418.297, 9.0284096E-03
2420.226, 9.7095910E-03
2422.154, 9.5582549E-03
2424.083, 9.0488736E-03
2426.011, 9.4575649E-03
2427.939, 1.0287680E-02
2429.868, 1.0737740E-02
2431.796, 1.0319410E-02
2433.725, 9.5461402E-03
2435.653, 9.2088822E-03
2437.582, 8.9440886E-03
2439.510, 9.2889424E-03
2441.439, 9.4891414E-03
2443.367, 8.6868610E-03
2445.296, 9.2631569E-03
2447.224, 8.5482784E-03
2449.153, 7.6417201E-03
2451.081, 7.6805400E-03
2453.010, 7.7390601E-03
2454.938, 8.0103194E-03
2456.866, 8.1243087E-03
2458.795, 8.7141125E-03
2460.723, 8.4966412E-03
2462.652, 7.7615082E-03
2464.580, 8.0449898E-03
2466.509, 7.7638682E-03
2468.437, 7.3832958E-03
2470.366, 7.1562561E-03
2472.294, 7.3831198E-03
2474.223, 7.9750372E-03
2476.151, 8.5050901E-03
2478.080, 8.4868027E-03
2480.008, 7.8363232E-03
2481.937, 7.6758438E-03
2483.865, 7.9483278E-03
2485.793, 9.0256371E-03
2487.722, 9.2274910E-03
2489.650, 8.5556153E-03
2491.579, 8.2331877E-03
2493.507, 6.6527110E-03
2495.436, 6.1357771E-03
2497.364, 7.3038591E-03
2499.293, 7.3627750E-03
2501.221, 6.9304849E-03
2503.150, 6.1829379E-03
2505.078, 5.8012721E-03
2507.007, 6.1755050E-03
2508.935, 6.9906800E-03
2510.864, 8.2234796E-03
2512.792, 7.8789443E-03
2514.720, 6.8593849E-03
2516.649, 6.5773688E-03
2518.577, 6.9826092E-03
2520.506, 6.5319142E-03
2522.434, 6.0978569E-03
2524.363, 6.5653850E-03
2526.291, 8.0125025E-03
2528.220, 7.1262801E-03
2530.148, 6.4946641E-03
2532.077, 7.0348950E-03
2534.005, 6.2019881E-03
2535.934, 6.3574668E-03
2537.862, 8.1172204E-03
2539.791, 8.0658281E-03
2541.719, 6.8127778E-03
2543.647, 5.7063992E-03
2545.576, 6.9639198E-03
2547.504, 8.4892660E-03
2549.433, 8.3376300E-03
2551.361, 8.7519186E-03
2553.290, 8.7054111E-03
2555.218, 7.5635002E-03
2557.147, 7.0007760E-03
2559.075, 7.4029900E-03
2561.004, 7.7791978E-03
2562.932, 7.5673521E-03
2564.861, 7.7877468E-03
2566.789, 8.0200704E-03
2568.718, 7.6977261E-03
2570.646, 7.2485250E-03
2572.574, 8.0106733E-03
2574.503, 7.9864357E-03
2576.431, 8.4251510E-03
2578.360, 8.7756468E-03
2580.288, 8.3260434E-03
2582.217, 8.2459860E-03
2584.145, 8.4296716E-03
2586.074, 8.8467244E-03
2588.002, 8.4694680E-03
2589.931, 8.4425779E-03
2591.859, 9.1604171E-03
2593.788, 9.2523219E-03
2595.716, 9.7690327E-03
2597.645, 9.8710144E-03
2599.573, 8.6298836E-03
2601.501, 8.2665840E-03
2603.430, 7.9573253E-03
2605.358, 7.9085380E-03
2607.287, 9.4532631E-03
2609.215, 1.0173430E-02
2611.144, 9.8902807E-03
2613.072, 9.7015230E-03
2615.001, 9.0687359E-03
2616.929, 9.0653729E-03
2618.858, 9.4558420E-03
2620.786, 9.4563244E-03
2622.715, 8.5016415E-03
2624.643, 8.1326924E-03
2626.572, 8.6326953E-03
2628.500, 9.6348664E-03
2630.428, 1.0193000E-02
2632.357, 1.0041460E-02
2634.285, 9.7075682E-03
2636.214, 9.4823092E-03
2638.142, 9.8120570E-03
2640.071, 1.0425960E-02
2641.999, 1.0196410E-02
2643.928, 9.7056404E-03
2645.856, 9.3275737E-03
2647.785, 9.0577425E-03
2649.713, 9.4561521E-03
2651.642, 9.2557650E-03
2653.570, 8.9676520E-03
2655.499, 9.7196326E-03
2657.427, 1.0062120E-02
2659.355, 9.7671626E-03
2661.284, 9.9384170E-03
2663.212, 9.2587937E-03
2665.141, 8.8870609E-03
2667.069, 9.4891349E-03
2668.998, 9.9099604E-03
2670.926, 8.9036766E-03
2672.855, 8.0336053E-03
2674.783, 8.1649721E-03
2676.712, 8.0750277E-03
2678.640, 8.3906520E-03
2680.569, 9.2885131E-03
2682.497, 9.6517447E-03
2684.426, 9.3182856E-03
2686.354, 9.0945018E-03
2688.282, 9.5461085E-03
2690.211, 9.3487911E-03
2692.139, 8.8003809E-03
2694.068, 8.1592072E-03
2695.996, 8.2290974E-03
2697.925, 9.0041282E-03
2699.853, 9.1715781E-03
2701.782, 9.1795726E-03
2703.710, 9.3854275E-03
2705.639, 1.1067500E-02
2707.567, 1.1151430E-02
2709.496, 1.0365010E-02
2711.424, 1.0453030E-02
2713.353, 1.2068890E-02
2715.281, 1.2914780E-02
2717.209, 1.1852990E-02
2719.138, 1.0787060E-02
2721.066, 1.0283810E-02
2722.995, 1.1303840E-02
2724.923, 1.1742900E-02
2726.852, 1.2005240E-02
2728.780, 1.1732230E-02
2730.709, 1.1355130E-02
2732.637, 1.1044820E-02
2734.566, 1.0375400E-02
2736.494, 1.1426000E-02
2738.423, 1.2252740E-02
2740.351, 1.1781310E-02
2742.280, 1.0311090E-02
2744.208, 9.4610034E-03
2746.136, 1.0290950E-02
2748.065, 1.1449560E-02
2749.993, 1.1714300E-02
2751.922, 1.1108260E-02
2753.850, 1.1345060E-02
2755.779, 1.1450760E-02
2757.707, 1.3160610E-02
2759.636, 1.1859810E-02
2761.564, 1.0430610E-02
2763.493, 1.2154040E-02
2765.421, 1.3616470E-02
2767.350, 1.2532500E-02
2769.278, 1.1166120E-02
2771.207, 1.1446910E-02
2773.135, 1.1809370E-02
2775.063, 1.2133270E-02
2776.992, 1.3086300E-02
2778.920, 1.3300150E-02
2780.849, 1.2940560E-02
2782.777, 1.2470230E-02
2784.706, 1.2135010E-02
2786.634, 1.2696730E-02
2788.563, 1.2305960E-02
2790.491, 1.2125190E-02
2792.420, 1.2395870E-02
2794.348, 1.1969260E-02
2796.277, 1.1482550E-02
2798.205, 1.1622800E-02
2800.134, 1.2668120E-02
2802.062, 1.3833720E-02
2803.990, 1.2784860E-02
2805.919, 1.2357940E-02
2807.847, 1.3567590E-02
2809.776, 1.4311830E-02
2811.704, 1.4003210E-02
2813.633, 1.2960810E-02
2815.561, 1.1876770E-02
2817.490, 1.2701630E-02
2819.418, 1.3078090E-02
2821.347, 1.2593670E-02
2823.275, 1.3868810E-02
2825.204, 1.4234710E-02
2827.132, 1.2700490E-02
2829.061, 1.1090700E-02
2830.989, 1.1875440E-02
2832.917, 1.3224670E-02
2834.846, 1.1910030E-02
2836.774, 1.1830110E-02
2838.703, 1.3602750E-02
2840.631, 1.2688550E-02
2842.560, 1.1329540E-02
2844.488, 1.1479480E-02
2846.417, 1.1304940E-02
2848.345, 1.1564740E-02
2850.274, 1.3246910E-02
2852.202, 1.4441880E-02
2854.131, 1.4030180E-02
2856.059, 1.3781740E-02
2857.988, 1.5178780E-02
2859.916, 1.6203560E-02
2861.844, 1.6706619E-02
2863.773, 1.6341539E-02
2865.701, 1.5165380E-02
2867.630, 1.3420340E-02
2869.558, 1.2362000E-02
2871.487, 1.3239340E-02
2873.415, 1.4479990E-02
2875.344, 1.4108360E-02
2877.272, 1.4126070E-02
2879.201, 1.5031010E-02
2881.129, 1.5320100E-02
2883.058, 1.4341680E-02
2884.986, 1.4670040E-02
2886.915, 1.4535120E-02
2888.843, 1.3760660E-02
2890.771, 1.4997380E-02
2892.700, 1.5144530E-02
2894.628, 1.4408250E-02
2896.557, 1.5231860E-02
2898.485, 1.6278120E-02
2900.414, 1.5823260E-02
2902.342, 1.2603210E-02
2904.271, 1.1517240E-02
2906.199, 1.3128670E-02
2908.128, 1.5830539E-02
2910.056, 1.5885700E-02
2911.985, 1.4788060E-02
2913.913, 1.4859260E-02
2915.842, 1.3281350E-02
2917.770, 1.3456960E-02
2919.698, 1.6630091E-02
2921.627, 1.6458239E-02
2923.555, 1.3823720E-02
2925.484, 1.4878060E-02
2927.412, 1.5178030E-02
2929.341, 1.5473110E-02
2931.269, 1.6778911E-02
2933.198, 1.8626779E-02
2935.126, 1.7843431E-02
2937.055, 1.5734909E-02
2938.983, 1.5036340E-02
2940.912, 1.5746569E-02
2942.840, 1.6222451E-02
2944.769, 1.4812240E-02
2946.697, 1.2973520E-02
2948.625, 1.5077190E-02
2950.554, 1.6783860E-02
2952.482, 1.5421340E-02
2954.411, 1.2620940E-02
2956.339, 1.4608210E-02
2958.268, 1.7112879E-02
2960.196, 1.5773321E-02
2962.125, 1.5745191E-02
2964.053, 1.8132150E-02
2965.982, 1.6962759E-02
2967.910, 1.5851481E-02
2969.839, 1.7478410E-02
2971.767, 1.8026881E-02
2973.696, 1.5785450E-02
2975.624, 1.5717970E-02
2977.552, 1.6260309E-02
2979.481, 1.6519399E-02
2981.409, 1.5351110E-02
2983.338, 1.6199110E-02
2985.266, 1.9016620E-02
2987.195, 2.0066639E-02
2989.123, 1.9870110E-02
2991.052, 1.8995499E-02
2992.980, 1.8359959E-02
2994.909, 1.6968960E-02
2996.837, 1.6330641E-02
2998.766, 1.7568210E-02
3000.694, 1.7566780E-02
3002.623, 1.7216049E-02
3004.551, 1.9347500E-02
3006.479, 2.0785831E-02
3008.408, 2.0059541E-02
3010.336, 1.7978380E-02
3012.265, 1.6831961E-02
3014.193, 1.6978011E-02
3016.122, 1.5269860E-02
3018.050, 1.5057090E-02
3019.979, 1.6329510E-02
3021.907, 1.8433120E-02
3023.836, 2.0547651E-02
3025.764, 2.0677179E-02
3027.693, 1.8356079E-02
3029.621, 1.7527610E-02
3031.550, 1.5524860E-02
3033.478, 1.4114510E-02
3035.406, 1.5795680E-02
3037.335, 1.5469430E-02
3039.263, 1.5613770E-02
3041.192, 1.6935600E-02
3043.120, 1.6874781E-02
3045.049, 1.5923999E-02
3046.977, 1.7788321E-02
3048.906, 1.6691720E-02
3050.834, 1.4957570E-02
3052.763, 1.5391960E-02
3054.691, 1.8380430E-02
3056.620, 2.0281751E-02
3058.548, 1.8151371E-02
3060.477, 1.6791189E-02
3062.405, 1.7252879E-02
3064.333, 1.6055200E-02
3066.262, 1.4928080E-02
3068.190, 1.5349330E-02
3070.119, 1.3692990E-02
3072.047, 1.3411400E-02
3073.976, 1.3972250E-02
3075.904, 1.4294680E-02
3077.833, 1.5376410E-02
3079.761, 1.5427520E-02
3081.690, 1.5513590E-02
3083.618, 1.5357890E-02
3085.547, 1.6274620E-02
3087.475, 1.7688420E-02
3089.404, 1.9461511E-02
3091.332, 1.8608710E-02
3093.260, 1.7906290E-02
3095.189, 1.6699400E-02
3097.117, 1.7010041E-02
3099.046, 1.7171940E-02
3100.974, 1.7448140E-02
3102.903, 1.9143920E-02
3104.831, 1.6779620E-02
3106.760, 1.6037920E-02
3108.688, 1.8318500E-02
3110.617, 1.8242771E-02
3112.545, 1.8302860E-02
3114.474, 1.7812019E-02
3116.402, 1.6787780E-02
3118.331, 1.5754251E-02
3120.259, 1.5481490E-02
3122.188, 1.5441200E-02
3124.116, 1.5867850E-02
3126.044, 1.9236419E-02
3127.973, 1.9214289E-02
3129.901, 1.8835681E-02
3131.830, 2.0841310E-02
3133.758, 1.9624859E-02
3135.687, 1.8442510E-02
3137.615, 1.8451450E-02
3139.544, 1.6509941E-02
3141.472, 1.5184420E-02
3143.401, 1.5897570E-02
3145.329, 1.6139990E-02
3147.258, 1.6949181E-02
3149.186, 1.6416060E-02
3151.115, 1.5051190E-02
3153.043, 1.3807590E-02
3154.971, 1.3746760E-02
3156.900, 1.6237039E-02
3158.828, 1.8800320E-02
3160.757, 1.8206419E-02
3162.685, 1.5788531E-02
3164.614, 1.5658470E-02
3166.542, 1.6313709E-02
3168.471, 1.5475820E-02
3170.399, 1.5075330E-02
3172.328, 1.6993141E-02
3174.256, 1.7450340E-02
3176.185, 1.7003780E-02
3178.113, 1.7988971E-02
3180.042, 1.7415879E-02
3181.970, 1.6778819E-02
3183.898, 1.8044479E-02
3185.827, 1.9149691E-02
3187.755, 1.8571630E-02
3189.684, 1.5892729E-02
3191.612, 1.5356790E-02
3193.541, 1.6901961E-02
3195.469, 1.7429709E-02
3197.398, 1.8777920E-02
3199.326, 1.8388741E-02
3201.255, 1.7186970E-02
3203.183, 1.7354861E-02
3205.112, 1.8266929E-02
3207.040, 1.9466409E-02
3208.969, 2.0055089E-02
3210.897, 1.9725030E-02
3212.825, 1.7210720E-02
3214.754, 1.5124280E-02
3216.682, 1.6064450E-02
3218.611, 1.7236739E-02
3220.539, 1.8484600E-02
3222.468, 1.7637961E-02
3224.396, 1.7280821E-02
3226.325, 1.7999901E-02
3228.253, 1.7397759E-02
3230.182, 1.6696701E-02
3232.110, 1.7012861E-02
3234.039, 1.6800350E-02
3235.967, 1.7336421E-02
3237.896, 1.7863430E-02
3239.824, 1.8750301E-02
3241.752, 1.9274149E-02
3243.681, 1.9388471E-02
3245.609, 1.9597691E-02
3247.538, 1.8963220E-02
3249.466, 1.7751710E-02
3251.395, 1.8476790E-02
3253.323, 1.8507620E-02
3255.252, 1.8659789E-02
3257.180, 1.8463960E-02
3259.109, 1.7761201E-02
3261.037, 1.9098550E-02
3262.966, 1.9803680E-02
3264.894, 1.9304590E-02
3266.823, 1.9768691E-02
3268.751, 1.9025180E-02
3270.679, 1.7840169E-02
3272.608, 1.6944200E-02
3274.536, 1.7217180E-02
3276.465, 1.8905040E-02
3278.393, 1.8594559E-02
3280.322, 1.7453890E-02
3282.250, 1.8881779E-02
3284.179, 1.8560341E-02
3286.107, 1.7369941E-02
3288.036, 1.7479720E-02
3289.964, 1.8984150E-02
3291.893, 1.8721620E-02
3293.821, 1.7478321E-02
3295.750, 1.6653750E-02
3297.678, 1.8459970E-02
3299.606, 1.9148920E-02
3301.535, 1.9109450E-02
3303.463, 1.8148459E-02
3305.392, 1.8403860E-02
3307.320, 1.9664990E-02
3309.249, 1.9884450E-02
3311.177, 2.0057350E-02
3313.106, 2.0322749E-02
3315.034, 2.0043179E-02
3316.963, 2.0248210E-02
3318.891, 1.9680049E-02
3320.820, 1.7808281E-02
3322.748, 1.8165870E-02
3324.677, 1.9230440E-02
3326.605, 2.0085299E-02
3328.533, 2.0480920E-02
3330.462, 1.9902039E-02
3332.390, 2.0569829E-02
3334.319, 2.0043161E-02
3336.247, 1.8651580E-02
3338.176, 1.7989490E-02
3340.104, 1.7650541E-02
3342.033, 1.7862851E-02
3343.961, 1.9748179E-02
3345.890, 1.9936800E-02
3347.818, 2.0246340E-02
3349.747, 2.0004800E-02
3351.675, 1.8524891E-02
3353.604, 1.8776299E-02
3355.532, 1.8843411E-02
3357.460, 1.8732309E-02
3359.389, 1.8022999E-02
3361.317, 1.8246811E-02
3363.246, 1.9220119E-02
3365.174, 2.0571800E-02
3367.103, 2.0096909E-02
3369.031, 1.8376181E-02
3370.960, 1.9223129E-02
3372.888, 2.1630540E-02
3374.817, 2.2265160E-02
3376.745, 2.0281971E-02
3378.674, 1.8361101E-02
3380.602, 1.9667560E-02
3382.531, 1.9246750E-02
3384.459, 1.6877949E-02
3386.387, 1.7548179E-02
3388.316, 1.8684311E-02
3390.244, 1.8142030E-02
3392.173, 1.8408850E-02
3394.101, 1.8911559E-02
3396.030, 1.9365519E-02
3397.958, 2.0987010E-02
3399.887, 2.1291470E-02
3401.815, 1.9776920E-02
3403.744, 1.9439790E-02
3405.672, 2.0454111E-02
3407.601, 2.0438790E-02
3409.529, 2.2278320E-02
3411.458, 2.2288170E-02
3413.386, 2.0479450E-02
3415.314, 2.0087089E-02
3417.243, 2.1266220E-02
3419.171, 2.1584081E-02
3421.100, 2.0653430E-02
3423.028, 2.1499099E-02
3424.957, 2.2503670E-02
3426.885, 1.9042360E-02
3428.814, 1.7335450E-02
3430.742, 2.0945530E-02
3432.671, 2.1618061E-02
3434.599, 2.1546600E-02
3436.528, 2.2451380E-02
3438.456, 2.3168730E-02
3440.385, 2.1616790E-02
3442.313, 2.1475580E-02
3444.241, 2.2228049E-02
3446.170, 2.3498720E-02
3448.098, 2.2375399E-02
3450.027, 2.0702301E-02
3451.955, 2.0202659E-02
3453.884, 2.1257089E-02
3455.812, 2.2115501E-02
3457.741, 2.2881810E-02
3459.669, 2.5007891E-02
3461.598, 2.6360661E-02
3463.526, 2.3381250E-02
3465.455, 2.1112630E-02
3467.383, 2.1149080E-02
3469.312, 2.1819770E-02
3471.240, 2.2683419E-02
3473.168, 2.4409531E-02
3475.097, 2.5340229E-02
3477.025, 2.6173810E-02
3478.954, 2.7318919E-02
3480.882, 2.6464559E-02
3482.811, 2.6556380E-02
3484.739, 2.6306590E-02
3486.668, 2.5423430E-02
3488.596, 2.5203349E-02
3490.525, 2.6599539E-02
3492.453, 2.6020100E-02
3494.382, 2.5321091E-02
3496.310, 2.5771910E-02
3498.239, 2.6210601E-02
3500.167, 2.6032969E-02
3502.095, 2.7478790E-02
3504.024, 2.7523831E-02
3505.952, 2.6839120E-02
3507.881, 3.0394251E-02
3509.809, 3.2833450E-02
3511.738, 3.1857520E-02
3513.666, 3.1109150E-02
3515.595, 2.8922729E-02
3517.523, 2.7381729E-02
3519.452, 2.9383080E-02
3521.380, 3.1817641E-02
3523.309, 3.1162230E-02
3525.237, 3.1596929E-02
3527.166, 3.2655999E-02
3529.094, 3.1607509E-02
3531.022, 3.2168191E-02
3532.951, 3.3045150E-02
3534.879, 3.5465982E-02
3536.808, 3.7245069E-02
3538.736, 3.4218650E-02
3540.665, 3.3323370E-02
3542.593, 3.8161300E-02
3544.522, 3.8706589E-02
3546.450, 3.6895450E-02
3548.379, 3.9341770E-02
3550.307, 4.1921470E-02
3552.236, 4.3811649E-02
3554.164, 4.1129980E-02
3556.093, 4.1086819E-02
3558.021, 4.3651730E-02
3559.949, 4.3331198E-02
3561.878, 4.2201441E-02
3563.806, 4.0763941E-02
3565.735, 4.1655481E-02
3567.663, 4.2956751E-02
3569.592, 4.2286031E-02
3571.520, 3.9687820E-02
3573.449, 3.4365822E-02
3575.377, 2.9526969E-02
3577.306, 2.9267000E-02
3579.234, 2.6595110E-02
3581.163, 2.4946760E-02
3583.091, 2.5695320E-02
3585.020, 2.5999490E-02
3586.948, 2.2547210E-02
3588.876, 1.8089470E-02
3590.805, 1.6553370E-02
3592.733, 1.8302940E-02
3594.662, 1.7016850E-02
3596.590, 1.6516689E-02
3598.519, 2.0666620E-02
3600.447, 2.0835700E-02
3602.376, 1.6315039E-02
3604.304, 1.2621560E-02
3606.233, 1.4344190E-02
3608.161, 1.6953491E-02
3610.090, 1.8187080E-02
3612.018, 1.9068191E-02
3613.947, 1.6084449E-02
3615.875, 1.3317440E-02
3617.803, 1.1617850E-02
3619.732, 1.2862760E-02
3621.660, 1.4483790E-02
3623.589, 1.4799200E-02
3625.517, 1.5352970E-02
3627.446, 1.5419640E-02
3629.374, 1.4475800E-02
3631.303, 1.5736779E-02
3633.231, 1.8785900E-02
3635.160, 1.8502509E-02
3637.088, 1.7366940E-02
3639.017, 1.4670880E-02
3640.945, 1.1408530E-02
3642.874, 1.2455740E-02
3644.802, 1.5889701E-02
3646.730, 1.6479420E-02
3648.659, 1.4395090E-02
3650.587, 1.7007209E-02
3652.516, 1.7184410E-02
3654.444, 1.4727210E-02
3656.373, 1.3959920E-02
3658.301, 1.6302921E-02
3660.230, 1.8230749E-02
3662.158, 1.6488200E-02
3664.087, 1.7526049E-02
3666.015, 1.9560680E-02
3667.944, 1.8114150E-02
3669.872, 1.7004140E-02
3671.801, 1.7098660E-02
3673.729, 1.8347239E-02
3675.657, 1.8408731E-02
3677.586, 1.4788000E-02
3679.514, 1.4174720E-02
3681.443, 1.6101560E-02
3683.371, 1.5484100E-02
3685.300, 1.4585120E-02
3687.228, 1.5217840E-02
3689.157, 1.5815280E-02
3691.085, 1.7438689E-02
3693.014, 1.8323859E-02
3694.942, 1.7695680E-02
3696.871, 1.7003950E-02
3698.799, 1.7949600E-02
3700.728, 1.7347891E-02
3702.656, 1.5342940E-02
3704.584, 1.7500609E-02
3706.513, 1.8214321E-02
3708.441, 1.4930060E-02
3710.370, 1.4142270E-02
3712.298, 1.5175280E-02
3714.227, 1.5763311E-02
3716.155, 1.6288200E-02
3718.084, 1.6002620E-02
3720.012, 1.7006250E-02
3721.941, 1.8925739E-02
3723.869, 2.0441821E-02
3725.798, 2.0000650E-02
3727.726, 1.8245621E-02
3729.655, 1.4933520E-02
3731.583, 1.4509530E-02
3733.511, 1.3065040E-02
3735.440, 1.4780560E-02
3737.368, 1.5560300E-02
3739.297, 1.4380390E-02
3741.225, 1.4704260E-02
3743.154, 1.8258041E-02
3745.082, 2.1082390E-02
3747.011, 2.0616760E-02
3748.939, 1.9534269E-02
3750.868, 1.7937381E-02
3752.796, 1.8929031E-02
3754.725, 1.9571600E-02
3756.653, 1.9595129E-02
3758.582, 1.7443240E-02
3760.510, 1.6886311E-02
3762.438, 1.6988190E-02
3764.367, 1.7111210E-02
3766.295, 1.9336769E-02
3768.224, 1.9601529E-02
3770.152, 1.7139900E-02
3772.081, 1.5157130E-02
3774.009, 1.3749910E-02
3775.938, 1.5261910E-02
3777.866, 1.4450420E-02
3779.795, 1.0872050E-02
3781.723, 1.1676740E-02
3783.652, 1.3744460E-02
3785.580, 1.4458040E-02
3787.509, 1.4849060E-02
3789.437, 1.5898529E-02
3791.365, 1.7860780E-02
3793.294, 1.7456090E-02
3795.222, 1.5168640E-02
3797.151, 1.7431499E-02
3799.079, 2.0102970E-02
3801.008, 1.6356731E-02
3802.936, 1.3410500E-02
3804.865, 1.5102080E-02
3806.793, 1.8575720E-02
3808.722, 1.9413240E-02
3810.650, 1.7706839E-02
3812.579, 1.6842790E-02
3814.507, 1.7509511E-02
3816.436, 1.3994900E-02
3818.364, 1.1173790E-02
3820.292, 1.4422950E-02
3822.221, 1.6089531E-02
3824.149, 1.6762709E-02
3826.078, 1.8696370E-02
3828.006, 1.6649701E-02
3829.935, 1.5780680E-02
3831.863, 1.7498210E-02
3833.792, 1.5741810E-02
3835.720, 1.6158929E-02
3837.649, 1.9009089E-02
3839.577, 1.9103831E-02
3841.506, 1.8627590E-02
3843.434, 1.4505820E-02
3845.363, 1.3573470E-02
3847.291, 1.9178830E-02
3849.219, 1.8395200E-02
3851.148, 1.5991500E-02
3853.076, 1.8295150E-02
3855.005, 1.8576801E-02
3856.933, 1.7819081E-02
3858.862, 2.1353390E-02
3860.790, 2.2964170E-02
3862.719, 2.2664521E-02
3864.647, 2.1172199E-02
3866.576, 1.9025641E-02
3868.504, 1.9170219E-02
3870.433, 2.1101169E-02
3872.361, 1.9203480E-02
3874.290, 1.6850229E-02
3876.218, 1.5957771E-02
3878.146, 1.7181519E-02
3880.075, 1.4439350E-02
3882.003, 1.5943799E-02
3883.932, 1.6979249E-02
3885.860, 1.9120140E-02
3887.789, 2.0934541E-02
3889.717, 2.0616380E-02
3891.646, 1.9598080E-02
3893.574, 1.7907260E-02
3895.503, 1.6387450E-02
3897.431, 1.7467750E-02
3899.360, 1.9479821E-02
3901.288, 1.8581040E-02
3903.217, 1.8762700E-02
3905.145, 1.8368790E-02
3907.073, 1.5940130E-02
3909.002, 1.7877560E-02
3910.930, 1.8001750E-02
3912.859, 1.5953129E-02
3914.787, 1.4431170E-02
3916.716, 1.3213000E-02
3918.644, 1.4324530E-02
3920.573, 1.5890559E-02
3922.501, 1.6304320E-02
3924.430, 1.5981670E-02
3926.358, 1.6178900E-02
3928.287, 1.3945170E-02
3930.215, 1.5324580E-02
3932.144, 2.0265659E-02
3934.072, 2.1137040E-02
3936.000, 1.8182660E-02
3937.929, 1.8721789E-02
3939.857, 2.2907021E-02
3941.786, 2.1942560E-02
3943.714, 1.8097190E-02
3945.643, 1.4989430E-02
3947.571, 1.6665660E-02
3949.500, 1.8018730E-02
3951.428, 1.6585570E-02
3953.357, 1.6341191E-02
3955.285, 1.8458251E-02
3957.214, 2.0445021E-02
3959.142, 2.1469910E-02
3961.071, 1.9304249E-02
3962.999, 1.6947061E-02
3964.927, 1.9321050E-02
3966.856, 1.9478001E-02
3968.784, 1.7369600E-02
3970.713, 1.7020039E-02
3972.641, 1.7056890E-02
3974.570, 1.6544020E-02
3976.498, 1.6562689E-02
3978.427, 1.8054530E-02
3980.355, 1.9766120E-02
3982.284, 1.8394470E-02
3984.212, 2.0972639E-02
3986.141, 2.4581790E-02
3988.069, 2.0620210E-02
3989.998, 1.8696951E-02
3991.926, 1.5671439E-02
3993.854, 1.5407960E-02
3995.783, 1.8085930E-02
3997.711, 1.6837349E-02
3999.640, 1.6845470E-02
##END=



