##NAMES=Schreibersite
##RRUFFID=R070239
##IDEAL CHEMISTRY=(Fe,Ni,Cr)_3_P
##LOCALITY=Sao Juliao de Moreira meteorite, Ponte de Lima, Viana do Castelo district, Portugal
##OWNER=RRUFF
##SOURCE=Michael Scott
##DESCRIPTION=Silvery fragments with slightly brassy luster, co-type specimen
##STATUS=The identification of this mineral has been confirmed by X-ray diffraction.
##URL=rruff.info/R070239
3.741225e+002, 1.026115e-001
3.760510e+002, 1.050300e-001
3.779795e+002, 1.068517e-001
3.799079e+002, 1.086194e-001
3.818364e+002, 1.094361e-001
3.837649e+002, 1.052693e-001
3.856933e+002, 1.001048e-001
3.876218e+002, 9.624249e-002
3.895503e+002, 9.936088e-002
3.914787e+002, 1.024401e-001
3.934072e+002, 1.058060e-001
3.953357e+002, 1.042458e-001
3.972641e+002, 1.031751e-001
3.991926e+002, 1.017901e-001
4.011211e+002, 1.027883e-001
4.030495e+002, 1.037631e-001
4.049780e+002, 1.038600e-001
4.069065e+002, 1.042140e-001
4.088349e+002, 1.041130e-001
4.107634e+002, 1.043725e-001
4.126919e+002, 1.064128e-001
4.146203e+002, 1.061608e-001
4.165488e+002, 1.052649e-001
4.184773e+002, 1.031793e-001
4.204057e+002, 1.014327e-001
4.223342e+002, 1.012618e-001
4.242627e+002, 1.020323e-001
4.261911e+002, 1.027345e-001
4.281196e+002, 1.033820e-001
4.300481e+002, 1.038877e-001
4.319765e+002, 1.034468e-001
4.339050e+002, 1.036988e-001
4.358335e+002, 1.037239e-001
4.377619e+002, 1.031438e-001
4.396904e+002, 1.021455e-001
4.416189e+002, 1.015446e-001
4.435473e+002, 1.030943e-001
4.454758e+002, 1.053566e-001
4.474043e+002, 1.055553e-001
4.493327e+002, 1.043975e-001
4.512612e+002, 1.036917e-001
4.531897e+002, 1.041003e-001
4.551181e+002, 1.052268e-001
4.570466e+002, 1.051387e-001
4.589751e+002, 1.044460e-001
4.609035e+002, 1.036229e-001
4.628320e+002, 1.045243e-001
4.647605e+002, 1.052881e-001
4.666889e+002, 1.052366e-001
4.686174e+002, 1.047801e-001
4.705459e+002, 1.033629e-001
4.724743e+002, 1.027268e-001
4.744028e+002, 1.030288e-001
4.763313e+002, 1.033757e-001
4.782597e+002, 1.039473e-001
4.801882e+002, 1.040189e-001
4.821167e+002, 1.037384e-001
4.840451e+002, 1.031214e-001
4.859736e+002, 1.033275e-001
4.879021e+002, 1.037666e-001
4.898305e+002, 1.036952e-001
4.917590e+002, 1.032303e-001
4.936875e+002, 1.032971e-001
4.956159e+002, 1.025819e-001
4.975444e+002, 1.028065e-001
4.994729e+002, 1.030537e-001
5.014013e+002, 1.032891e-001
5.033298e+002, 1.033624e-001
5.052583e+002, 1.034242e-001
5.071867e+002, 1.034559e-001
5.091152e+002, 1.024431e-001
5.110437e+002, 1.021127e-001
5.129721e+002, 1.025074e-001
5.149006e+002, 1.029539e-001
5.168290e+002, 1.034500e-001
5.187575e+002, 1.029719e-001
5.206860e+002, 1.026357e-001
5.226144e+002, 1.030511e-001
5.245429e+002, 1.036662e-001
5.264714e+002, 1.034454e-001
5.283998e+002, 1.032202e-001
5.303283e+002, 1.032767e-001
5.322568e+002, 1.032085e-001
5.341852e+002, 1.032729e-001
5.361137e+002, 1.033147e-001
5.380422e+002, 1.031200e-001
5.399706e+002, 1.039378e-001
5.418991e+002, 1.046119e-001
5.438276e+002, 1.043996e-001
5.457560e+002, 1.040314e-001
5.476845e+002, 1.040806e-001
5.496130e+002, 1.040487e-001
5.515414e+002, 1.043838e-001
5.534699e+002, 1.047072e-001
5.553984e+002, 1.043809e-001
5.573268e+002, 1.043411e-001
5.592553e+002, 1.043739e-001
5.611838e+002, 1.047955e-001
5.631122e+002, 1.049530e-001
5.650407e+002, 1.050707e-001
5.669692e+002, 1.053296e-001
5.688976e+002, 1.049638e-001
5.708261e+002, 1.051826e-001
5.727546e+002, 1.057505e-001
5.746830e+002, 1.058432e-001
5.766115e+002, 1.052204e-001
5.785400e+002, 1.053754e-001
5.804684e+002, 1.056955e-001
5.823969e+002, 1.056534e-001
5.843254e+002, 1.056269e-001
5.862538e+002, 1.059057e-001
5.881823e+002, 1.057027e-001
5.901108e+002, 1.056943e-001
5.920392e+002, 1.063638e-001
5.939677e+002, 1.067640e-001
5.958962e+002, 1.066589e-001
5.978246e+002, 1.062734e-001
5.997531e+002, 1.061398e-001
6.016816e+002, 1.063232e-001
6.036100e+002, 1.064403e-001
6.055385e+002, 1.063983e-001
6.074670e+002, 1.066364e-001
6.093954e+002, 1.067916e-001
6.113239e+002, 1.067801e-001
6.132524e+002, 1.066600e-001
6.151808e+002, 1.070277e-001
6.171093e+002, 1.071343e-001
6.190378e+002, 1.069149e-001
6.209662e+002, 1.068293e-001
6.228947e+002, 1.068842e-001
6.248232e+002, 1.068401e-001
6.267516e+002, 1.068711e-001
6.286801e+002, 1.067434e-001
6.306086e+002, 1.066936e-001
6.325370e+002, 1.067370e-001
6.344655e+002, 1.068471e-001
6.363940e+002, 1.066812e-001
6.383224e+002, 1.066304e-001
6.402509e+002, 1.066212e-001
6.421794e+002, 1.065569e-001
6.441078e+002, 1.067277e-001
6.460363e+002, 1.069934e-001
6.479648e+002, 1.071336e-001
6.498932e+002, 1.069993e-001
6.518217e+002, 1.069219e-001
6.537502e+002, 1.069766e-001
6.556786e+002, 1.069964e-001
6.576071e+002, 1.070108e-001
6.595356e+002, 1.070189e-001
6.614641e+002, 1.070868e-001
6.633925e+002, 1.070568e-001
6.653210e+002, 1.069380e-001
6.672495e+002, 1.070919e-001
6.691779e+002, 1.071508e-001
6.711064e+002, 1.068509e-001
6.730349e+002, 1.069756e-001
6.749633e+002, 1.072780e-001
6.768918e+002, 1.071143e-001
6.788203e+002, 1.069167e-001
6.807487e+002, 1.071830e-001
6.826772e+002, 1.073805e-001
6.846057e+002, 1.071528e-001
6.865341e+002, 1.067471e-001
6.884626e+002, 1.064514e-001
6.903911e+002, 1.064625e-001
6.923195e+002, 1.066436e-001
6.942480e+002, 1.066109e-001
6.961765e+002, 1.065668e-001
6.981049e+002, 1.066107e-001
7.000334e+002, 1.066445e-001
7.019619e+002, 1.064206e-001
7.038903e+002, 1.063500e-001
7.058188e+002, 1.063435e-001
7.077473e+002, 1.062321e-001
7.096757e+002, 1.061793e-001
7.116042e+002, 1.064545e-001
7.135327e+002, 1.065700e-001
7.154611e+002, 1.063401e-001
7.173896e+002, 1.062971e-001
7.193181e+002, 1.062278e-001
7.212465e+002, 1.060665e-001
7.231750e+002, 1.060488e-001
7.251035e+002, 1.061138e-001
7.270319e+002, 1.060031e-001
7.289604e+002, 1.059271e-001
7.308889e+002, 1.059247e-001
7.328173e+002, 1.057749e-001
7.347458e+002, 1.057944e-001
7.366743e+002, 1.059390e-001
7.386027e+002, 1.060749e-001
7.405312e+002, 1.061377e-001
7.424597e+002, 1.060730e-001
7.443881e+002, 1.059535e-001
7.463166e+002, 1.059663e-001
7.482451e+002, 1.060041e-001
7.501735e+002, 1.060399e-001
7.521020e+002, 1.059943e-001
7.540305e+002, 1.058081e-001
7.559589e+002, 1.057727e-001
7.578874e+002, 1.057891e-001
7.598159e+002, 1.058536e-001
7.617443e+002, 1.057433e-001
7.636728e+002, 1.058012e-001
7.656013e+002, 1.059705e-001
7.675297e+002, 1.059038e-001
7.694582e+002, 1.056941e-001
7.713867e+002, 1.057333e-001
7.733151e+002, 1.059054e-001
7.752436e+002, 1.058151e-001
7.771721e+002, 1.058987e-001
7.791005e+002, 1.060512e-001
7.810290e+002, 1.060112e-001
7.829575e+002, 1.061232e-001
7.848859e+002, 1.061181e-001
7.868144e+002, 1.060799e-001
7.887429e+002, 1.060465e-001
7.906713e+002, 1.062591e-001
7.925998e+002, 1.062212e-001
7.945283e+002, 1.058495e-001
7.964567e+002, 1.061124e-001
7.983852e+002, 1.063193e-001
8.003137e+002, 1.062805e-001
8.022421e+002, 1.062193e-001
8.041706e+002, 1.062397e-001
8.060991e+002, 1.063025e-001
8.080275e+002, 1.062390e-001
8.099560e+002, 1.063745e-001
8.118845e+002, 1.064914e-001
8.138129e+002, 1.062436e-001
8.157414e+002, 1.060994e-001
8.176699e+002, 1.063327e-001
8.195983e+002, 1.063630e-001
8.215268e+002, 1.063220e-001
8.234553e+002, 1.063254e-001
8.253837e+002, 1.063249e-001
8.273122e+002, 1.064199e-001
8.292407e+002, 1.064701e-001
8.311691e+002, 1.065672e-001
8.330976e+002, 1.064171e-001
8.350261e+002, 1.063991e-001
8.369545e+002, 1.064476e-001
8.388830e+002, 1.063403e-001
8.408115e+002, 1.063037e-001
8.427399e+002, 1.064619e-001
8.446684e+002, 1.065928e-001
8.465969e+002, 1.063434e-001
8.485253e+002, 1.061538e-001
8.504538e+002, 1.062782e-001
8.523823e+002, 1.064236e-001
8.543107e+002, 1.065994e-001
8.562392e+002, 1.065168e-001
8.581677e+002, 1.065779e-001
8.600961e+002, 1.066478e-001
8.620246e+002, 1.066546e-001
8.639531e+002, 1.065650e-001
8.658815e+002, 1.065667e-001
8.678100e+002, 1.066689e-001
8.697385e+002, 1.067042e-001
8.716669e+002, 1.066262e-001
8.735954e+002, 1.064832e-001
8.755239e+002, 1.065906e-001
8.774523e+002, 1.068047e-001
8.793808e+002, 1.067154e-001
8.813093e+002, 1.066179e-001
8.832377e+002, 1.067014e-001
8.851662e+002, 1.067571e-001
8.870947e+002, 1.068282e-001
8.890231e+002, 1.069923e-001
8.909516e+002, 1.069839e-001
8.928801e+002, 1.068729e-001
8.948085e+002, 1.068973e-001
8.967370e+002, 1.068803e-001
8.986655e+002, 1.069916e-001
9.005939e+002, 1.072190e-001
9.025224e+002, 1.073496e-001
9.044509e+002, 1.074803e-001
9.063793e+002, 1.074779e-001
9.083078e+002, 1.072308e-001
9.102363e+002, 1.071652e-001
9.121647e+002, 1.074047e-001
9.140932e+002, 1.074941e-001
9.160217e+002, 1.075391e-001
9.179501e+002, 1.075207e-001
9.198786e+002, 1.075364e-001
9.218071e+002, 1.075515e-001
9.237355e+002, 1.074998e-001
9.256640e+002, 1.075065e-001
9.275925e+002, 1.076468e-001
9.295209e+002, 1.077153e-001
9.314494e+002, 1.078064e-001
9.333779e+002, 1.077597e-001
9.353063e+002, 1.078027e-001
9.372348e+002, 1.078100e-001
9.391633e+002, 1.076894e-001
9.410917e+002, 1.078005e-001
9.430202e+002, 1.079994e-001
9.449487e+002, 1.080460e-001
9.468771e+002, 1.079657e-001
9.488056e+002, 1.079151e-001
9.507341e+002, 1.080113e-001
9.526625e+002, 1.080085e-001
9.545910e+002, 1.079460e-001
9.565195e+002, 1.080481e-001
9.584479e+002, 1.082193e-001
9.603764e+002, 1.080891e-001
9.623049e+002, 1.079402e-001
9.642333e+002, 1.081071e-001
9.661618e+002, 1.082822e-001
9.680903e+002, 1.083697e-001
9.700187e+002, 1.083222e-001
9.719472e+002, 1.082018e-001
9.738757e+002, 1.082674e-001
9.758041e+002, 1.083986e-001
9.777326e+002, 1.086127e-001
9.796611e+002, 1.086412e-001
9.815895e+002, 1.084953e-001
9.835180e+002, 1.085831e-001
9.854465e+002, 1.086973e-001
9.873749e+002, 1.086498e-001
9.893034e+002, 1.085721e-001
9.912319e+002, 1.085897e-001
9.931603e+002, 1.086473e-001
9.950888e+002, 1.086654e-001
9.970173e+002, 1.086144e-001
9.989457e+002, 1.085164e-001
1.000874e+003, 1.086161e-001
1.002803e+003, 1.087793e-001
1.004731e+003, 1.088351e-001
1.006660e+003, 1.086448e-001
1.008588e+003, 1.085246e-001
1.010517e+003, 1.085628e-001
1.012445e+003, 1.086500e-001
1.014373e+003, 1.085383e-001
1.016302e+003, 1.085066e-001
1.018230e+003, 1.085647e-001
1.020159e+003, 1.087263e-001
1.022087e+003, 1.087774e-001
1.024016e+003, 1.087817e-001
1.025944e+003, 1.086975e-001
1.027873e+003, 1.087399e-001
1.029801e+003, 1.088876e-001
1.031730e+003, 1.088274e-001
1.033658e+003, 1.087652e-001
1.035587e+003, 1.088440e-001
1.037515e+003, 1.088381e-001
1.039443e+003, 1.089250e-001
1.041372e+003, 1.088087e-001
1.043300e+003, 1.088026e-001
1.045229e+003, 1.088144e-001
1.047157e+003, 1.088518e-001
1.049086e+003, 1.087501e-001
1.051014e+003, 1.086182e-001
1.052943e+003, 1.086892e-001
1.054871e+003, 1.088651e-001
1.056800e+003, 1.089555e-001
1.058728e+003, 1.088764e-001
1.060657e+003, 1.087823e-001
1.062585e+003, 1.089291e-001
1.064514e+003, 1.090409e-001
1.066442e+003, 1.090502e-001
1.068370e+003, 1.088796e-001
1.070299e+003, 1.088223e-001
1.072227e+003, 1.089422e-001
1.074156e+003, 1.089114e-001
1.076084e+003, 1.088459e-001
1.078013e+003, 1.089385e-001
1.079941e+003, 1.089724e-001
1.081870e+003, 1.090172e-001
1.083798e+003, 1.090447e-001
1.085727e+003, 1.089223e-001
1.087655e+003, 1.089056e-001
1.089584e+003, 1.088268e-001
1.091512e+003, 1.086822e-001
1.093441e+003, 1.087377e-001
1.095369e+003, 1.088894e-001
1.097297e+003, 1.089893e-001
1.099226e+003, 1.088252e-001
1.101154e+003, 1.087745e-001
1.103083e+003, 1.088674e-001
1.105011e+003, 1.089056e-001
1.106940e+003, 1.089882e-001
1.108868e+003, 1.090478e-001
1.110797e+003, 1.089143e-001
1.112725e+003, 1.088461e-001
1.114654e+003, 1.088120e-001
1.116582e+003, 1.088449e-001
1.118511e+003, 1.090198e-001
1.120439e+003, 1.090452e-001
1.122368e+003, 1.090332e-001
1.124296e+003, 1.090124e-001
1.126224e+003, 1.088951e-001
1.128153e+003, 1.087698e-001
1.130081e+003, 1.087919e-001
1.132010e+003, 1.088582e-001
1.133938e+003, 1.088713e-001
1.135867e+003, 1.088714e-001
1.137795e+003, 1.090379e-001
1.139724e+003, 1.091727e-001
1.141652e+003, 1.093502e-001
1.143581e+003, 1.094206e-001
1.145509e+003, 1.093083e-001
1.147438e+003, 1.093866e-001
1.149366e+003, 1.094602e-001
1.151295e+003, 1.093729e-001
1.153223e+003, 1.092527e-001
1.155151e+003, 1.092985e-001
1.157080e+003, 1.092289e-001
1.159008e+003, 1.090379e-001
1.160937e+003, 1.089115e-001
1.162865e+003, 1.089463e-001
1.164794e+003, 1.090567e-001
1.166722e+003, 1.090719e-001
1.168651e+003, 1.090483e-001
1.170579e+003, 1.090290e-001
1.172508e+003, 1.089178e-001
1.174436e+003, 1.088768e-001
1.176365e+003, 1.088160e-001
1.178293e+003, 1.087625e-001
1.180222e+003, 1.088250e-001
1.182150e+003, 1.090526e-001
1.184078e+003, 1.092002e-001
1.186007e+003, 1.092026e-001
1.187935e+003, 1.092456e-001
1.189864e+003, 1.092872e-001
1.191792e+003, 1.093922e-001
1.193721e+003, 1.095330e-001
1.195649e+003, 1.095772e-001
1.197578e+003, 1.095524e-001
1.199506e+003, 1.095503e-001
1.201435e+003, 1.096001e-001
1.203363e+003, 1.095332e-001
1.205292e+003, 1.095396e-001
1.207220e+003, 1.096299e-001
1.209149e+003, 1.096141e-001
1.211077e+003, 1.096134e-001
1.213005e+003, 1.096210e-001
1.214934e+003, 1.095384e-001
1.216862e+003, 1.095860e-001
1.218791e+003, 1.097545e-001
1.220719e+003, 1.097826e-001
1.222648e+003, 1.097266e-001
1.224576e+003, 1.096725e-001
1.226505e+003, 1.097045e-001
1.228433e+003, 1.097033e-001
1.230362e+003, 1.096341e-001
1.232290e+003, 1.095138e-001
1.234219e+003, 1.095539e-001
1.236147e+003, 1.096985e-001
1.238076e+003, 1.097754e-001
1.240004e+003, 1.097260e-001
1.241932e+003, 1.098050e-001
1.243861e+003, 1.099187e-001
1.245789e+003, 1.098931e-001
1.247718e+003, 1.097946e-001
1.249646e+003, 1.098142e-001
1.251575e+003, 1.099810e-001
1.253503e+003, 1.098658e-001
1.255432e+003, 1.097581e-001
1.257360e+003, 1.096880e-001
1.259289e+003, 1.097027e-001
1.261217e+003, 1.097595e-001
1.263146e+003, 1.098217e-001
1.265074e+003, 1.099121e-001
1.267003e+003, 1.099981e-001
1.268931e+003, 1.099824e-001
1.270859e+003, 1.099467e-001
1.272788e+003, 1.100076e-001
1.274716e+003, 1.101811e-001
1.276645e+003, 1.101715e-001
1.278573e+003, 1.101129e-001
1.280502e+003, 1.101839e-001
1.282430e+003, 1.103019e-001
1.284359e+003, 1.102847e-001
1.286287e+003, 1.102977e-001
1.288216e+003, 1.103288e-001
1.290144e+003, 1.105043e-001
1.292073e+003, 1.105647e-001
1.294001e+003, 1.104710e-001
1.295930e+003, 1.104327e-001
1.297858e+003, 1.105001e-001
1.299786e+003, 1.105572e-001
1.301715e+003, 1.106580e-001
1.303643e+003, 1.105588e-001
1.305572e+003, 1.105063e-001
1.307500e+003, 1.107925e-001
1.309429e+003, 1.108636e-001
1.311357e+003, 1.107119e-001
1.313286e+003, 1.108166e-001
1.315214e+003, 1.108783e-001
1.317143e+003, 1.109436e-001
1.319071e+003, 1.109202e-001
1.321000e+003, 1.109708e-001
1.322928e+003, 1.111062e-001
1.324857e+003, 1.110422e-001
1.326785e+003, 1.109278e-001
1.328714e+003, 1.111279e-001
1.330642e+003, 1.112280e-001
1.332570e+003, 1.111644e-001
1.334499e+003, 1.111481e-001
1.336427e+003, 1.111710e-001
1.338356e+003, 1.113113e-001
1.340284e+003, 1.113976e-001
1.342213e+003, 1.113086e-001
1.344141e+003, 1.112789e-001
1.346070e+003, 1.111336e-001
1.347998e+003, 1.112060e-001
1.349927e+003, 1.112481e-001
1.351855e+003, 1.112409e-001
1.353784e+003, 1.113365e-001
1.355712e+003, 1.113641e-001
1.357641e+003, 1.113293e-001
1.359569e+003, 1.113194e-001
1.361497e+003, 1.114173e-001
1.363426e+003, 1.114536e-001
1.365354e+003, 1.113344e-001
1.367283e+003, 1.113358e-001
1.369211e+003, 1.114754e-001
1.371140e+003, 1.116206e-001
1.373068e+003, 1.116103e-001
1.374997e+003, 1.115750e-001
1.376925e+003, 1.117101e-001
1.378854e+003, 1.118940e-001
1.380782e+003, 1.118634e-001
1.382711e+003, 1.115659e-001
1.384639e+003, 1.114380e-001
1.386568e+003, 1.115902e-001
1.388496e+003, 1.116812e-001
1.390424e+003, 1.117705e-001
1.392353e+003, 1.118361e-001
1.394281e+003, 1.118668e-001
1.396210e+003, 1.118422e-001
1.398138e+003, 1.117569e-001
1.400067e+003, 1.118064e-001
1.401995e+003, 1.120047e-001
1.403924e+003, 1.120608e-001
1.405852e+003, 1.118850e-001
1.407781e+003, 1.118891e-001
1.409709e+003, 1.119714e-001
1.411638e+003, 1.121158e-001
1.413566e+003, 1.121388e-001
1.415495e+003, 1.121448e-001
1.417423e+003, 1.123450e-001
1.419351e+003, 1.124518e-001
1.421280e+003, 1.122708e-001
1.423208e+003, 1.122368e-001
1.425137e+003, 1.122369e-001
1.427065e+003, 1.122401e-001
1.428994e+003, 1.122882e-001
1.430922e+003, 1.123964e-001
1.432851e+003, 1.125117e-001
1.434779e+003, 1.126352e-001
1.436708e+003, 1.126946e-001
1.438636e+003, 1.125052e-001
1.440565e+003, 1.124060e-001
1.442493e+003, 1.124130e-001
1.444422e+003, 1.124659e-001
1.446350e+003, 1.124050e-001
1.448278e+003, 1.123052e-001
1.450207e+003, 1.123024e-001
1.452135e+003, 1.124387e-001
1.454064e+003, 1.125036e-001
1.455992e+003, 1.126568e-001
1.457921e+003, 1.125740e-001
1.459849e+003, 1.122475e-001
1.461778e+003, 1.121624e-001
1.463706e+003, 1.123103e-001
1.465635e+003, 1.124231e-001
1.467563e+003, 1.121847e-001
1.469492e+003, 1.122055e-001
1.471420e+003, 1.124898e-001
1.473349e+003, 1.126307e-001
1.475277e+003, 1.126795e-001
1.477205e+003, 1.126614e-001
1.479134e+003, 1.126541e-001
1.481062e+003, 1.126426e-001
1.482991e+003, 1.126877e-001
1.484919e+003, 1.126878e-001
1.486848e+003, 1.128008e-001
1.488776e+003, 1.128956e-001
1.490705e+003, 1.128920e-001
1.492633e+003, 1.128964e-001
1.494562e+003, 1.129990e-001
1.496490e+003, 1.131921e-001
1.498419e+003, 1.131801e-001
1.500347e+003, 1.130714e-001
1.502276e+003, 1.130738e-001
1.504204e+003, 1.133190e-001
1.506132e+003, 1.136197e-001
1.508061e+003, 1.134794e-001
1.509989e+003, 1.132521e-001
1.511918e+003, 1.132026e-001
1.513846e+003, 1.132013e-001
1.515775e+003, 1.133057e-001
1.517703e+003, 1.133414e-001
1.519632e+003, 1.134621e-001
1.521560e+003, 1.136725e-001
1.523489e+003, 1.136030e-001
1.525417e+003, 1.135304e-001
1.527346e+003, 1.135642e-001
1.529274e+003, 1.136589e-001
1.531203e+003, 1.135676e-001
1.533131e+003, 1.137298e-001
1.535059e+003, 1.138155e-001
1.536988e+003, 1.138140e-001
1.538916e+003, 1.140092e-001
1.540845e+003, 1.139930e-001
1.542773e+003, 1.137206e-001
1.544702e+003, 1.137277e-001
1.546630e+003, 1.136568e-001
1.548559e+003, 1.136361e-001
1.550487e+003, 1.137051e-001
1.552416e+003, 1.136881e-001
1.554344e+003, 1.138636e-001
1.556273e+003, 1.141234e-001
1.558201e+003, 1.144356e-001
1.560130e+003, 1.142811e-001
1.562058e+003, 1.139246e-001
1.563986e+003, 1.138286e-001
1.565915e+003, 1.138595e-001
1.567843e+003, 1.140184e-001
1.569772e+003, 1.140413e-001
1.571700e+003, 1.140060e-001
1.573629e+003, 1.140717e-001
1.575557e+003, 1.143484e-001
1.577486e+003, 1.143532e-001
1.579414e+003, 1.140515e-001
1.581343e+003, 1.139568e-001
1.583271e+003, 1.138919e-001
1.585200e+003, 1.138354e-001
1.587128e+003, 1.139508e-001
1.589057e+003, 1.141987e-001
1.590985e+003, 1.143202e-001
1.592913e+003, 1.143787e-001
1.594842e+003, 1.143300e-001
1.596770e+003, 1.141184e-001
1.598699e+003, 1.140319e-001
1.600627e+003, 1.140279e-001
1.602556e+003, 1.142446e-001
1.604484e+003, 1.144246e-001
1.606413e+003, 1.145223e-001
1.608341e+003, 1.144088e-001
1.610270e+003, 1.143457e-001
1.612198e+003, 1.143589e-001
1.614127e+003, 1.143910e-001
1.616055e+003, 1.146527e-001
1.617984e+003, 1.145780e-001
1.619912e+003, 1.143943e-001
1.621840e+003, 1.144697e-001
1.623769e+003, 1.145971e-001
1.625697e+003, 1.145728e-001
1.627626e+003, 1.146371e-001
1.629554e+003, 1.146817e-001
1.631483e+003, 1.144775e-001
1.633411e+003, 1.145262e-001
1.635340e+003, 1.147473e-001
1.637268e+003, 1.146273e-001
1.639197e+003, 1.145478e-001
1.641125e+003, 1.145476e-001
1.643054e+003, 1.145411e-001
1.644982e+003, 1.147334e-001
1.646911e+003, 1.148188e-001
1.648839e+003, 1.145606e-001
1.650767e+003, 1.147449e-001
1.652696e+003, 1.151604e-001
1.654624e+003, 1.149677e-001
1.656553e+003, 1.146425e-001
1.658481e+003, 1.147126e-001
1.660410e+003, 1.148600e-001
1.662338e+003, 1.146643e-001
1.664267e+003, 1.143407e-001
1.666195e+003, 1.143633e-001
1.668124e+003, 1.147016e-001
1.670052e+003, 1.147779e-001
1.671981e+003, 1.146723e-001
1.673909e+003, 1.146946e-001
1.675838e+003, 1.148082e-001
1.677766e+003, 1.146903e-001
1.679694e+003, 1.145777e-001
1.681623e+003, 1.145489e-001
1.683551e+003, 1.148050e-001
1.685480e+003, 1.148180e-001
1.687408e+003, 1.144700e-001
1.689337e+003, 1.143172e-001
1.691265e+003, 1.142764e-001
1.693194e+003, 1.144767e-001
1.695122e+003, 1.147645e-001
1.697051e+003, 1.146474e-001
1.698979e+003, 1.146655e-001
1.700908e+003, 1.145506e-001
1.702836e+003, 1.142652e-001
1.704765e+003, 1.144068e-001
1.706693e+003, 1.145899e-001
1.708621e+003, 1.143786e-001
1.710550e+003, 1.142347e-001
1.712478e+003, 1.144020e-001
1.714407e+003, 1.144973e-001
1.716335e+003, 1.144716e-001
1.718264e+003, 1.143577e-001
1.720192e+003, 1.141428e-001
1.722121e+003, 1.141121e-001
1.724049e+003, 1.141674e-001
1.725978e+003, 1.141722e-001
1.727906e+003, 1.141989e-001
1.729835e+003, 1.141487e-001
1.731763e+003, 1.140802e-001
1.733692e+003, 1.141429e-001
1.735620e+003, 1.138328e-001
1.737548e+003, 1.135689e-001
1.739477e+003, 1.133485e-001
1.741405e+003, 1.131908e-001
1.743334e+003, 1.132965e-001
1.745262e+003, 1.132990e-001
1.747191e+003, 1.132437e-001
1.749119e+003, 1.132679e-001
1.751048e+003, 1.134103e-001
1.752976e+003, 1.134273e-001
1.754905e+003, 1.133276e-001
1.756833e+003, 1.134142e-001
1.758762e+003, 1.133076e-001
1.760690e+003, 1.134037e-001
1.762619e+003, 1.136916e-001
1.764547e+003, 1.137452e-001
1.766475e+003, 1.136140e-001
1.768404e+003, 1.134359e-001
1.770332e+003, 1.134576e-001
1.772261e+003, 1.138466e-001
1.774189e+003, 1.141057e-001
1.776118e+003, 1.141250e-001
1.778046e+003, 1.139250e-001
1.779975e+003, 1.138994e-001
1.781903e+003, 1.140835e-001
1.783832e+003, 1.142899e-001
1.785760e+003, 1.141827e-001
1.787689e+003, 1.140607e-001
1.789617e+003, 1.141671e-001
1.791546e+003, 1.143632e-001
1.793474e+003, 1.143035e-001
1.795402e+003, 1.141222e-001
1.797331e+003, 1.140815e-001
1.799259e+003, 1.142817e-001
1.801188e+003, 1.142253e-001
1.803116e+003, 1.140622e-001
1.805045e+003, 1.142465e-001
1.806973e+003, 1.142800e-001
1.808902e+003, 1.143370e-001
1.810830e+003, 1.142962e-001
1.812759e+003, 1.141995e-001
1.814687e+003, 1.141770e-001
1.816616e+003, 1.139911e-001
1.818544e+003, 1.138714e-001
1.820473e+003, 1.141000e-001
1.822401e+003, 1.143310e-001
1.824329e+003, 1.140570e-001
1.826258e+003, 1.137477e-001
1.828186e+003, 1.139030e-001
1.830115e+003, 1.139325e-001
1.832043e+003, 1.139610e-001
1.833972e+003, 1.140882e-001
1.835900e+003, 1.140419e-001
1.837829e+003, 1.140116e-001
1.839757e+003, 1.142132e-001
1.841686e+003, 1.143867e-001
1.843614e+003, 1.144224e-001
1.845543e+003, 1.147476e-001
1.847471e+003, 1.146013e-001
1.849400e+003, 1.142654e-001
1.851328e+003, 1.139740e-001
1.853256e+003, 1.138671e-001
1.855185e+003, 1.140407e-001
1.857113e+003, 1.139495e-001
1.859042e+003, 1.139249e-001
1.860970e+003, 1.140734e-001
1.862899e+003, 1.144176e-001
1.864827e+003, 1.145581e-001
1.866756e+003, 1.143224e-001
1.868684e+003, 1.139842e-001
1.870613e+003, 1.135809e-001
1.872541e+003, 1.134221e-001
1.874470e+003, 1.136008e-001
1.876398e+003, 1.137222e-001
1.878327e+003, 1.135203e-001
1.880255e+003, 1.136283e-001
1.882183e+003, 1.136307e-001
1.884112e+003, 1.131182e-001
1.886040e+003, 1.132485e-001
1.887969e+003, 1.137380e-001
1.889897e+003, 1.139671e-001
1.891826e+003, 1.142260e-001
1.893754e+003, 1.145272e-001
1.895683e+003, 1.141340e-001
1.897611e+003, 1.136747e-001
1.899540e+003, 1.133867e-001
1.901468e+003, 1.133255e-001
1.903397e+003, 1.132412e-001
1.905325e+003, 1.134674e-001
1.907254e+003, 1.137571e-001
1.909182e+003, 1.138523e-001
1.911110e+003, 1.140835e-001
1.913039e+003, 1.143658e-001
1.914967e+003, 1.144199e-001
1.916896e+003, 1.146578e-001
1.918824e+003, 1.145469e-001
1.920753e+003, 1.141040e-001
1.922681e+003, 1.133721e-001
1.924610e+003, 1.133696e-001
1.926538e+003, 1.138339e-001
1.928467e+003, 1.139656e-001
1.930395e+003, 1.144972e-001
1.932324e+003, 1.151906e-001
1.934252e+003, 1.150524e-001
1.936181e+003, 1.143275e-001
1.938109e+003, 1.140417e-001
1.940037e+003, 1.139567e-001
1.941966e+003, 1.140516e-001
1.943894e+003, 1.136540e-001
1.945823e+003, 1.131951e-001
1.947751e+003, 1.130023e-001
1.949680e+003, 1.133916e-001
1.951608e+003, 1.133288e-001
1.953537e+003, 1.127918e-001
1.955465e+003, 1.124723e-001
1.957394e+003, 1.127961e-001
1.959322e+003, 1.135678e-001
1.961251e+003, 1.140046e-001
1.963179e+003, 1.137328e-001
1.965108e+003, 1.139289e-001
1.967036e+003, 1.141656e-001
1.968964e+003, 1.143374e-001
1.970893e+003, 1.151111e-001
1.972821e+003, 1.151379e-001
1.974750e+003, 1.151908e-001
1.976678e+003, 1.148309e-001
1.978607e+003, 1.150000e-001
1.980535e+003, 1.148448e-001
1.982464e+003, 1.148261e-001
1.984392e+003, 1.156490e-001
1.986321e+003, 1.153362e-001
1.988249e+003, 1.147293e-001
1.990178e+003, 1.153717e-001
1.992106e+003, 1.157512e-001
1.994035e+003, 1.154511e-001
1.995963e+003, 1.157551e-001
1.997891e+003, 1.159719e-001
1.999820e+003, 1.152340e-001
2.001748e+003, 1.144563e-001
2.003677e+003, 1.143679e-001
2.005605e+003, 1.142872e-001
2.007534e+003, 1.154025e-001
2.009462e+003, 1.160893e-001
2.011391e+003, 1.155113e-001
2.013319e+003, 1.146515e-001
2.015248e+003, 1.143136e-001
2.017176e+003, 1.144583e-001
2.019105e+003, 1.141555e-001
2.021033e+003, 1.145258e-001
2.022962e+003, 1.150631e-001
2.024890e+003, 1.145589e-001
2.026818e+003, 1.144499e-001
2.028747e+003, 1.158588e-001
2.030675e+003, 1.165396e-001
2.032604e+003, 1.163836e-001
2.034532e+003, 1.158065e-001
2.036461e+003, 1.148872e-001
2.038389e+003, 1.151937e-001
2.040318e+003, 1.156621e-001
2.042246e+003, 1.170079e-001
2.044175e+003, 1.172742e-001
2.046103e+003, 1.169561e-001
2.048031e+003, 1.168664e-001
2.049960e+003, 1.171929e-001
2.051888e+003, 1.166235e-001
2.053817e+003, 1.154824e-001
2.055745e+003, 1.155129e-001
2.057674e+003, 1.157878e-001
2.059602e+003, 1.157791e-001
2.061531e+003, 1.155609e-001
2.063459e+003, 1.149845e-001
2.065388e+003, 1.150371e-001
2.067316e+003, 1.155135e-001
2.069245e+003, 1.158567e-001
2.071173e+003, 1.165447e-001
2.073102e+003, 1.162447e-001
2.075030e+003, 1.155014e-001
2.076958e+003, 1.153537e-001
2.078887e+003, 1.155184e-001
2.080815e+003, 1.160779e-001
2.082744e+003, 1.161965e-001
2.084672e+003, 1.153365e-001
2.086601e+003, 1.149338e-001
2.088529e+003, 1.150722e-001
2.090458e+003, 1.150834e-001
2.092386e+003, 1.152339e-001
2.094315e+003, 1.152945e-001
2.096243e+003, 1.159637e-001
2.098172e+003, 1.159371e-001
2.100100e+003, 1.162021e-001
2.102029e+003, 1.162496e-001
2.103957e+003, 1.164458e-001
2.105885e+003, 1.169629e-001
2.107814e+003, 1.169293e-001
2.109742e+003, 1.166369e-001
2.111671e+003, 1.170020e-001
2.113599e+003, 1.163888e-001
2.115528e+003, 1.157142e-001
2.117456e+003, 1.159188e-001
2.119385e+003, 1.157568e-001
2.121313e+003, 1.154762e-001
2.123242e+003, 1.161072e-001
2.125170e+003, 1.164878e-001
2.127099e+003, 1.159635e-001
2.129027e+003, 1.158541e-001
2.130956e+003, 1.154651e-001
2.132884e+003, 1.146534e-001
2.134813e+003, 1.149785e-001
2.136741e+003, 1.152308e-001
2.138669e+003, 1.147807e-001
2.140598e+003, 1.153082e-001
2.142526e+003, 1.158518e-001
2.144455e+003, 1.159448e-001
2.146383e+003, 1.149255e-001
2.148312e+003, 1.148911e-001
2.150240e+003, 1.160341e-001
2.152169e+003, 1.154085e-001
2.154097e+003, 1.148204e-001
2.156026e+003, 1.153718e-001
2.157954e+003, 1.157075e-001
2.159883e+003, 1.182633e-001
2.161811e+003, 1.201802e-001
2.163740e+003, 1.197739e-001
2.165668e+003, 1.191996e-001
2.167596e+003, 1.181645e-001
2.169525e+003, 1.174974e-001
2.171453e+003, 1.180802e-001
2.173382e+003, 1.187255e-001
2.175310e+003, 1.183178e-001
2.177239e+003, 1.183102e-001
2.179167e+003, 1.185350e-001
2.181096e+003, 1.182262e-001
2.183024e+003, 1.178967e-001
2.184953e+003, 1.176039e-001
2.186881e+003, 1.170842e-001
2.188810e+003, 1.173395e-001
2.190738e+003, 1.180638e-001
2.192667e+003, 1.186461e-001
2.194595e+003, 1.182605e-001
2.196523e+003, 1.178348e-001
2.198452e+003, 1.175087e-001
2.200380e+003, 1.179081e-001
2.202309e+003, 1.185223e-001
2.204237e+003, 1.184889e-001
2.206166e+003, 1.191643e-001
2.208094e+003, 1.193433e-001
2.210023e+003, 1.195842e-001
2.211951e+003, 1.192082e-001
2.213880e+003, 1.183026e-001
2.215808e+003, 1.181061e-001
2.217737e+003, 1.183226e-001
2.219665e+003, 1.194996e-001
2.221594e+003, 1.195749e-001
2.223522e+003, 1.191376e-001
2.225450e+003, 1.189756e-001
2.227379e+003, 1.184824e-001
2.229307e+003, 1.181408e-001
2.231236e+003, 1.181017e-001
2.233164e+003, 1.186631e-001
2.235093e+003, 1.197670e-001
2.237021e+003, 1.198225e-001
2.238950e+003, 1.198274e-001
2.240878e+003, 1.197880e-001
2.242807e+003, 1.196441e-001
2.244735e+003, 1.191751e-001
2.246664e+003, 1.191275e-001
2.248592e+003, 1.197926e-001
2.250521e+003, 1.203520e-001
2.252449e+003, 1.195815e-001
2.254377e+003, 1.190729e-001
2.256306e+003, 1.191598e-001
2.258234e+003, 1.194213e-001
2.260163e+003, 1.190800e-001
2.262091e+003, 1.190495e-001
2.264020e+003, 1.193218e-001
2.265948e+003, 1.194280e-001
2.267877e+003, 1.195142e-001
2.269805e+003, 1.200357e-001
2.271734e+003, 1.200626e-001
2.273662e+003, 1.199094e-001
2.275591e+003, 1.200856e-001
2.277519e+003, 1.201968e-001
2.279448e+003, 1.198780e-001
2.281376e+003, 1.196788e-001
2.283304e+003, 1.201076e-001
2.285233e+003, 1.201356e-001
2.287161e+003, 1.197509e-001
2.289090e+003, 1.195440e-001
2.291018e+003, 1.199264e-001
2.292947e+003, 1.203004e-001
2.294875e+003, 1.198397e-001
2.296804e+003, 1.193857e-001
2.298732e+003, 1.191199e-001
2.300661e+003, 1.193553e-001
2.302589e+003, 1.196936e-001
2.304518e+003, 1.194872e-001
2.306446e+003, 1.189438e-001
2.308375e+003, 1.190738e-001
2.310303e+003, 1.194699e-001
2.312231e+003, 1.195930e-001
2.314160e+003, 1.194000e-001
2.316088e+003, 1.194991e-001
2.318017e+003, 1.197394e-001
2.319945e+003, 1.203865e-001
2.321874e+003, 1.206387e-001
2.323802e+003, 1.204562e-001
2.325731e+003, 1.196816e-001
2.327659e+003, 1.190396e-001
2.329588e+003, 1.190042e-001
2.331516e+003, 1.190751e-001
2.333445e+003, 1.192642e-001
2.335373e+003, 1.193848e-001
2.337302e+003, 1.195635e-001
2.339230e+003, 1.196046e-001
2.341158e+003, 1.193099e-001
2.343087e+003, 1.193012e-001
2.345015e+003, 1.191785e-001
2.346944e+003, 1.191058e-001
2.348872e+003, 1.189245e-001
2.350801e+003, 1.188931e-001
2.352729e+003, 1.188247e-001
2.354658e+003, 1.188581e-001
2.356586e+003, 1.189469e-001
2.358515e+003, 1.190837e-001
2.360443e+003, 1.190469e-001
2.362372e+003, 1.189341e-001
2.364300e+003, 1.191177e-001
2.366229e+003, 1.189274e-001
2.368157e+003, 1.187831e-001
2.370085e+003, 1.190651e-001
2.372014e+003, 1.192367e-001
2.373942e+003, 1.195530e-001
2.375871e+003, 1.195612e-001
2.377799e+003, 1.190669e-001
2.379728e+003, 1.190003e-001
2.381656e+003, 1.188195e-001
2.383585e+003, 1.185707e-001
2.385513e+003, 1.192708e-001
2.387442e+003, 1.195358e-001
2.389370e+003, 1.189158e-001
2.391299e+003, 1.189314e-001
2.393227e+003, 1.194040e-001
2.395156e+003, 1.195350e-001
2.397084e+003, 1.193553e-001
2.399012e+003, 1.192853e-001
2.400941e+003, 1.193020e-001
2.402869e+003, 1.190779e-001
2.404798e+003, 1.188306e-001
2.406726e+003, 1.193369e-001
2.408655e+003, 1.196988e-001
2.410583e+003, 1.198224e-001
2.412512e+003, 1.195017e-001
2.414440e+003, 1.191422e-001
2.416369e+003, 1.194496e-001
2.418297e+003, 1.196872e-001
2.420226e+003, 1.190887e-001
2.422154e+003, 1.187557e-001
2.424083e+003, 1.187538e-001
2.426011e+003, 1.190321e-001
2.427939e+003, 1.194043e-001
2.429868e+003, 1.192850e-001
2.431796e+003, 1.192920e-001
2.433725e+003, 1.194914e-001
2.435653e+003, 1.200412e-001
2.437582e+003, 1.196640e-001
2.439510e+003, 1.197308e-001
2.441439e+003, 1.202540e-001
2.443367e+003, 1.202337e-001
2.445296e+003, 1.199810e-001
2.447224e+003, 1.196960e-001
2.449153e+003, 1.196502e-001
2.451081e+003, 1.199485e-001
2.453010e+003, 1.198773e-001
2.454938e+003, 1.195256e-001
2.456866e+003, 1.195808e-001
2.458795e+003, 1.198848e-001
2.460723e+003, 1.195078e-001
2.462652e+003, 1.190722e-001
2.464580e+003, 1.191192e-001
2.466509e+003, 1.194916e-001
2.468437e+003, 1.198196e-001
2.470366e+003, 1.201114e-001
2.472294e+003, 1.199928e-001
2.474223e+003, 1.199272e-001
2.476151e+003, 1.196906e-001
2.478080e+003, 1.198196e-001
2.480008e+003, 1.197465e-001
2.481937e+003, 1.194611e-001
2.483865e+003, 1.196794e-001
2.485793e+003, 1.197078e-001
2.487722e+003, 1.196874e-001
2.489650e+003, 1.201780e-001
2.491579e+003, 1.199910e-001
2.493507e+003, 1.195669e-001
2.495436e+003, 1.195971e-001
2.497364e+003, 1.198821e-001
2.499293e+003, 1.198120e-001
2.501221e+003, 1.195884e-001
2.503150e+003, 1.190905e-001
2.505078e+003, 1.188429e-001
2.507007e+003, 1.190479e-001
2.508935e+003, 1.192025e-001
2.510864e+003, 1.193225e-001
2.512792e+003, 1.193159e-001
2.514720e+003, 1.193318e-001
2.516649e+003, 1.197736e-001
2.518577e+003, 1.198381e-001
2.520506e+003, 1.198146e-001
2.522434e+003, 1.197831e-001
2.524363e+003, 1.197841e-001
2.526291e+003, 1.193701e-001
2.528220e+003, 1.192962e-001
2.530148e+003, 1.192717e-001
2.532077e+003, 1.194104e-001
2.534005e+003, 1.195581e-001
2.535934e+003, 1.196004e-001
2.537862e+003, 1.197960e-001
2.539791e+003, 1.198876e-001
2.541719e+003, 1.200285e-001
2.543647e+003, 1.199095e-001
2.545576e+003, 1.201336e-001
2.547504e+003, 1.202231e-001
2.549433e+003, 1.198591e-001
2.551361e+003, 1.196908e-001
2.553290e+003, 1.202816e-001
2.555218e+003, 1.206870e-001
2.557147e+003, 1.203422e-001
2.559075e+003, 1.199357e-001
2.561004e+003, 1.197842e-001
2.562932e+003, 1.196494e-001
2.564861e+003, 1.200050e-001
2.566789e+003, 1.200470e-001
2.568718e+003, 1.198479e-001
2.570646e+003, 1.199915e-001
2.572574e+003, 1.201569e-001
2.574503e+003, 1.199923e-001
2.576431e+003, 1.199689e-001
2.578360e+003, 1.204682e-001
2.580288e+003, 1.204981e-001
2.582217e+003, 1.205053e-001
2.584145e+003, 1.206390e-001
2.586074e+003, 1.203153e-001
2.588002e+003, 1.203672e-001
2.589931e+003, 1.206690e-001
2.591859e+003, 1.207683e-001
2.593788e+003, 1.205208e-001
2.595716e+003, 1.204345e-001
2.597645e+003, 1.203539e-001
2.599573e+003, 1.205725e-001
2.601501e+003, 1.209812e-001
2.603430e+003, 1.213686e-001
2.605358e+003, 1.216086e-001
2.607287e+003, 1.217542e-001
2.609215e+003, 1.215725e-001
2.611144e+003, 1.211495e-001
2.613072e+003, 1.210294e-001
2.615001e+003, 1.213788e-001
2.616929e+003, 1.216700e-001
2.618858e+003, 1.216162e-001
2.620786e+003, 1.217883e-001
2.622715e+003, 1.217772e-001
2.624643e+003, 1.215198e-001
2.626572e+003, 1.212678e-001
2.628500e+003, 1.213852e-001
2.630428e+003, 1.214984e-001
2.632357e+003, 1.218014e-001
2.634285e+003, 1.219004e-001
2.636214e+003, 1.217836e-001
2.638142e+003, 1.218186e-001
2.640071e+003, 1.220090e-001
2.641999e+003, 1.217906e-001
2.643928e+003, 1.217797e-001
2.645856e+003, 1.221294e-001
2.647785e+003, 1.220308e-001
2.649713e+003, 1.221706e-001
2.651642e+003, 1.221030e-001
2.653570e+003, 1.220542e-001
2.655499e+003, 1.221582e-001
2.657427e+003, 1.220734e-001
2.659355e+003, 1.219991e-001
2.661284e+003, 1.220048e-001
2.663212e+003, 1.219255e-001
2.665141e+003, 1.217621e-001
2.667069e+003, 1.216679e-001
2.668998e+003, 1.216907e-001
2.670926e+003, 1.217025e-001
2.672855e+003, 1.220645e-001
2.674783e+003, 1.223505e-001
2.676712e+003, 1.223482e-001
2.678640e+003, 1.222433e-001
2.680569e+003, 1.219436e-001
2.682497e+003, 1.217201e-001
2.684426e+003, 1.217582e-001
2.686354e+003, 1.218943e-001
2.688282e+003, 1.221936e-001
2.690211e+003, 1.222240e-001
2.692139e+003, 1.219612e-001
2.694068e+003, 1.220409e-001
2.695996e+003, 1.222361e-001
2.697925e+003, 1.221715e-001
2.699853e+003, 1.219405e-001
2.701782e+003, 1.217009e-001
2.703710e+003, 1.217764e-001
2.705639e+003, 1.220459e-001
2.707567e+003, 1.218691e-001
2.709496e+003, 1.216483e-001
2.711424e+003, 1.219070e-001
2.713353e+003, 1.222301e-001
2.715281e+003, 1.224480e-001
2.717209e+003, 1.221103e-001
2.719138e+003, 1.218517e-001
2.721066e+003, 1.219943e-001
2.722995e+003, 1.224048e-001
2.724923e+003, 1.224191e-001
2.726852e+003, 1.221173e-001
2.728780e+003, 1.221804e-001
2.730709e+003, 1.223362e-001
2.732637e+003, 1.222313e-001
2.734566e+003, 1.220035e-001
2.736494e+003, 1.220017e-001
2.738423e+003, 1.219148e-001
2.740351e+003, 1.216249e-001
2.742280e+003, 1.217981e-001
2.744208e+003, 1.222420e-001
2.746136e+003, 1.223581e-001
2.748065e+003, 1.223876e-001
2.749993e+003, 1.225067e-001
2.751922e+003, 1.222950e-001
2.753850e+003, 1.223134e-001
2.755779e+003, 1.224882e-001
2.757707e+003, 1.223215e-001
2.759636e+003, 1.225342e-001
2.761564e+003, 1.227314e-001
2.763493e+003, 1.225993e-001
2.765421e+003, 1.225163e-001
2.767350e+003, 1.224606e-001
2.769278e+003, 1.225034e-001
2.771207e+003, 1.228523e-001
2.773135e+003, 1.227842e-001
2.775063e+003, 1.225810e-001
2.776992e+003, 1.224079e-001
2.778920e+003, 1.222086e-001
2.780849e+003, 1.221592e-001
2.782777e+003, 1.223023e-001
2.784706e+003, 1.224215e-001
2.786634e+003, 1.225342e-001
2.788563e+003, 1.228023e-001
2.790491e+003, 1.225175e-001
2.792420e+003, 1.222728e-001
2.794348e+003, 1.226615e-001
2.796277e+003, 1.225877e-001
2.798205e+003, 1.222173e-001
2.800134e+003, 1.224912e-001
2.802062e+003, 1.227312e-001
2.803990e+003, 1.226293e-001
2.805919e+003, 1.224491e-001
2.807847e+003, 1.223917e-001
2.809776e+003, 1.225337e-001
2.811704e+003, 1.226563e-001
2.813633e+003, 1.227488e-001
2.815561e+003, 1.227176e-001
2.817490e+003, 1.229289e-001
2.819418e+003, 1.229879e-001
2.821347e+003, 1.227133e-001
2.823275e+003, 1.225193e-001
2.825204e+003, 1.226149e-001
2.827132e+003, 1.227145e-001
2.829061e+003, 1.224203e-001
2.830989e+003, 1.225095e-001
2.832917e+003, 1.228567e-001
2.834846e+003, 1.227162e-001
2.836774e+003, 1.225651e-001
2.838703e+003, 1.223404e-001
2.840631e+003, 1.222703e-001
2.842560e+003, 1.223701e-001
2.844488e+003, 1.224138e-001
2.846417e+003, 1.224205e-001
2.848345e+003, 1.221229e-001
2.850274e+003, 1.219220e-001
2.852202e+003, 1.216924e-001
2.854131e+003, 1.214406e-001
2.856059e+003, 1.218703e-001
2.857988e+003, 1.221570e-001
2.859916e+003, 1.220076e-001
2.861844e+003, 1.216835e-001
2.863773e+003, 1.214299e-001
2.865701e+003, 1.212822e-001
2.867630e+003, 1.216895e-001
2.869558e+003, 1.218530e-001
2.871487e+003, 1.215528e-001
2.873415e+003, 1.216420e-001
2.875344e+003, 1.216994e-001
2.877272e+003, 1.214243e-001
2.879201e+003, 1.215582e-001
2.881129e+003, 1.220252e-001
2.883058e+003, 1.220565e-001
2.884986e+003, 1.221436e-001
2.886915e+003, 1.222947e-001
2.888843e+003, 1.220988e-001
2.890771e+003, 1.214392e-001
2.892700e+003, 1.211556e-001
2.894628e+003, 1.212482e-001
2.896557e+003, 1.216077e-001
2.898485e+003, 1.216244e-001
2.900414e+003, 1.215855e-001
2.902342e+003, 1.214859e-001
2.904271e+003, 1.215453e-001
2.906199e+003, 1.214180e-001
2.908128e+003, 1.215237e-001
2.910056e+003, 1.217739e-001
2.911985e+003, 1.217278e-001
2.913913e+003, 1.215659e-001
2.915842e+003, 1.213216e-001
2.917770e+003, 1.211785e-001
2.919698e+003, 1.211987e-001
2.921627e+003, 1.213046e-001
2.923555e+003, 1.212101e-001
2.925484e+003, 1.207097e-001
2.927412e+003, 1.203081e-001
2.929341e+003, 1.202229e-001
2.931269e+003, 1.203224e-001
2.933198e+003, 1.201405e-001
2.935126e+003, 1.201154e-001
2.937055e+003, 1.203976e-001
2.938983e+003, 1.202960e-001
2.940912e+003, 1.204130e-001
2.942840e+003, 1.204361e-001
2.944769e+003, 1.205276e-001
2.946697e+003, 1.208708e-001
2.948625e+003, 1.210263e-001
2.950554e+003, 1.208753e-001
2.952482e+003, 1.205987e-001
2.954411e+003, 1.203097e-001
2.956339e+003, 1.202343e-001
2.958268e+003, 1.200408e-001
2.960196e+003, 1.199788e-001
2.962125e+003, 1.200682e-001
2.964053e+003, 1.203122e-001
2.965982e+003, 1.203693e-001
2.967910e+003, 1.204835e-001
2.969839e+003, 1.207446e-001
2.971767e+003, 1.210316e-001
2.973696e+003, 1.211780e-001
2.975624e+003, 1.214032e-001
2.977552e+003, 1.211047e-001
2.979481e+003, 1.209653e-001
2.981409e+003, 1.211165e-001
2.983338e+003, 1.207301e-001
2.985266e+003, 1.209248e-001
2.987195e+003, 1.209313e-001
2.989123e+003, 1.208391e-001
2.991052e+003, 1.210965e-001
2.992980e+003, 1.212933e-001
2.994909e+003, 1.212581e-001
2.996837e+003, 1.208338e-001
2.998766e+003, 1.209123e-001
3.000694e+003, 1.210672e-001
3.002623e+003, 1.213952e-001
3.004551e+003, 1.215661e-001
3.006479e+003, 1.214357e-001
3.008408e+003, 1.214005e-001
3.010336e+003, 1.216859e-001
3.012265e+003, 1.214494e-001
3.014193e+003, 1.209731e-001
3.016122e+003, 1.203381e-001
3.018050e+003, 1.202573e-001
3.019979e+003, 1.210536e-001
3.021907e+003, 1.215063e-001
3.023836e+003, 1.219375e-001
3.025764e+003, 1.223916e-001
3.027693e+003, 1.220620e-001
3.029621e+003, 1.215694e-001
3.031550e+003, 1.213742e-001
3.033478e+003, 1.215590e-001
3.035406e+003, 1.218089e-001
3.037335e+003, 1.218747e-001
3.039263e+003, 1.218672e-001
3.041192e+003, 1.220411e-001
3.043120e+003, 1.221462e-001
3.045049e+003, 1.219908e-001
3.046977e+003, 1.219173e-001
3.048906e+003, 1.218565e-001
3.050834e+003, 1.217695e-001
3.052763e+003, 1.219839e-001
3.054691e+003, 1.218878e-001
3.056620e+003, 1.214532e-001
3.058548e+003, 1.214963e-001
3.060477e+003, 1.218505e-001
3.062405e+003, 1.223664e-001
3.064333e+003, 1.224040e-001
3.066262e+003, 1.220428e-001
3.068190e+003, 1.223113e-001
3.070119e+003, 1.223097e-001
3.072047e+003, 1.220616e-001
3.073976e+003, 1.222680e-001
3.075904e+003, 1.222077e-001
3.077833e+003, 1.217043e-001
3.079761e+003, 1.216589e-001
3.081690e+003, 1.219699e-001
3.083618e+003, 1.223281e-001
3.085547e+003, 1.220012e-001
3.087475e+003, 1.218594e-001
3.089404e+003, 1.215376e-001
3.091332e+003, 1.214256e-001
3.093260e+003, 1.219454e-001
3.095189e+003, 1.222181e-001
3.097117e+003, 1.226543e-001
3.099046e+003, 1.226542e-001
3.100974e+003, 1.223644e-001
3.102903e+003, 1.225352e-001
3.104831e+003, 1.226787e-001
3.106760e+003, 1.226579e-001
3.108688e+003, 1.226189e-001
3.110617e+003, 1.221666e-001
3.112545e+003, 1.219626e-001
3.114474e+003, 1.223706e-001
3.116402e+003, 1.226421e-001
3.118331e+003, 1.225233e-001
3.120259e+003, 1.220017e-001
3.122188e+003, 1.219373e-001
3.124116e+003, 1.224849e-001
3.126044e+003, 1.229990e-001
3.127973e+003, 1.229545e-001
3.129901e+003, 1.223986e-001
3.131830e+003, 1.223131e-001
3.133758e+003, 1.224816e-001
3.135687e+003, 1.228066e-001
3.137615e+003, 1.226761e-001
3.139544e+003, 1.223544e-001
3.141472e+003, 1.223473e-001
3.143401e+003, 1.224785e-001
3.145329e+003, 1.227886e-001
3.147258e+003, 1.230642e-001
3.149186e+003, 1.230321e-001
3.151115e+003, 1.227606e-001
3.153043e+003, 1.229090e-001
3.154971e+003, 1.232187e-001
3.156900e+003, 1.232320e-001
3.158828e+003, 1.235663e-001
3.160757e+003, 1.231823e-001
3.162685e+003, 1.228430e-001
3.164614e+003, 1.228469e-001
3.166542e+003, 1.229414e-001
3.168471e+003, 1.225178e-001
3.170399e+003, 1.223667e-001
3.172328e+003, 1.225938e-001
3.174256e+003, 1.222952e-001
3.176185e+003, 1.217005e-001
3.178113e+003, 1.222531e-001
3.180042e+003, 1.226566e-001
3.181970e+003, 1.226895e-001
3.183898e+003, 1.224308e-001
3.185827e+003, 1.223694e-001
3.187755e+003, 1.228409e-001
3.189684e+003, 1.226678e-001
3.191612e+003, 1.223469e-001
3.193541e+003, 1.223550e-001
3.195469e+003, 1.226445e-001
3.197398e+003, 1.228837e-001
3.199326e+003, 1.229995e-001
3.201255e+003, 1.233155e-001
3.203183e+003, 1.232169e-001
3.205112e+003, 1.228835e-001
3.207040e+003, 1.228686e-001
3.208969e+003, 1.225504e-001
3.210897e+003, 1.224034e-001
3.212825e+003, 1.232814e-001
3.214754e+003, 1.233684e-001
3.216682e+003, 1.232151e-001
3.218611e+003, 1.229044e-001
3.220539e+003, 1.227212e-001
3.222468e+003, 1.222199e-001
3.224396e+003, 1.218725e-001
3.226325e+003, 1.222832e-001
3.228253e+003, 1.228256e-001
3.230182e+003, 1.229772e-001
3.232110e+003, 1.233360e-001
3.234039e+003, 1.232672e-001
3.235967e+003, 1.226629e-001
3.237896e+003, 1.224914e-001
3.239824e+003, 1.225148e-001
3.241752e+003, 1.225908e-001
3.243681e+003, 1.222222e-001
3.245609e+003, 1.221606e-001
3.247538e+003, 1.223194e-001
3.249466e+003, 1.221841e-001
3.251395e+003, 1.223365e-001
3.253323e+003, 1.223469e-001
3.255252e+003, 1.214704e-001
3.257180e+003, 1.215233e-001
3.259109e+003, 1.219988e-001
3.261037e+003, 1.222181e-001
3.262966e+003, 1.227201e-001
3.264894e+003, 1.227998e-001
3.266823e+003, 1.226951e-001
3.268751e+003, 1.223086e-001
3.270679e+003, 1.223259e-001
3.272608e+003, 1.221715e-001
3.274536e+003, 1.215787e-001
3.276465e+003, 1.218926e-001
3.278393e+003, 1.223735e-001
3.280322e+003, 1.222778e-001
3.282250e+003, 1.225665e-001
3.284179e+003, 1.226102e-001
3.286107e+003, 1.223812e-001
3.288036e+003, 1.222009e-001
3.289964e+003, 1.220182e-001
3.291893e+003, 1.218512e-001
3.293821e+003, 1.216929e-001
3.295750e+003, 1.221820e-001
3.297678e+003, 1.223594e-001
3.299606e+003, 1.222435e-001
3.301535e+003, 1.225753e-001
3.303463e+003, 1.226275e-001
3.305392e+003, 1.224684e-001
3.307320e+003, 1.218064e-001
3.309249e+003, 1.215337e-001
3.311177e+003, 1.217642e-001
3.313106e+003, 1.220474e-001
3.315034e+003, 1.220093e-001
3.316963e+003, 1.218458e-001
3.318891e+003, 1.222103e-001
3.320820e+003, 1.221609e-001
3.322748e+003, 1.216317e-001
3.324677e+003, 1.208318e-001
3.326605e+003, 1.207698e-001
3.328533e+003, 1.211066e-001
3.330462e+003, 1.215111e-001
3.332390e+003, 1.221161e-001
3.334319e+003, 1.229309e-001
3.336247e+003, 1.229963e-001
3.338176e+003, 1.225320e-001
3.340104e+003, 1.220114e-001
3.342033e+003, 1.218174e-001
3.343961e+003, 1.214077e-001
3.345890e+003, 1.213711e-001
3.347818e+003, 1.214559e-001
3.349747e+003, 1.219022e-001
3.351675e+003, 1.221584e-001
3.353604e+003, 1.225904e-001
3.355532e+003, 1.224774e-001
3.357460e+003, 1.222697e-001
3.359389e+003, 1.218274e-001
3.361317e+003, 1.216154e-001
3.363246e+003, 1.218341e-001
3.365174e+003, 1.224199e-001
3.367103e+003, 1.221260e-001
3.369031e+003, 1.212545e-001
3.370960e+003, 1.212205e-001
3.372888e+003, 1.213997e-001
3.374817e+003, 1.218740e-001
3.376745e+003, 1.223660e-001
3.378674e+003, 1.220920e-001
3.380602e+003, 1.216647e-001
3.382531e+003, 1.216124e-001
3.384459e+003, 1.217516e-001
3.386387e+003, 1.215801e-001
3.388316e+003, 1.216730e-001
3.390244e+003, 1.225247e-001
3.392173e+003, 1.222704e-001
3.394101e+003, 1.215898e-001
3.396030e+003, 1.215331e-001
3.397958e+003, 1.213603e-001
3.399887e+003, 1.212545e-001
3.401815e+003, 1.215481e-001
3.403744e+003, 1.213550e-001
3.405672e+003, 1.209274e-001
3.407601e+003, 1.212247e-001
3.409529e+003, 1.217138e-001
3.411458e+003, 1.220684e-001
3.413386e+003, 1.217272e-001
3.415314e+003, 1.215318e-001
3.417243e+003, 1.216478e-001
3.419171e+003, 1.218183e-001
3.421100e+003, 1.221001e-001
3.423028e+003, 1.220616e-001
3.424957e+003, 1.223878e-001
3.426885e+003, 1.227445e-001
3.428814e+003, 1.225200e-001
3.430742e+003, 1.227537e-001
3.432671e+003, 1.219550e-001
3.434599e+003, 1.209292e-001
3.436528e+003, 1.211513e-001
3.438456e+003, 1.217663e-001
3.440385e+003, 1.218608e-001
3.442313e+003, 1.220242e-001
3.444241e+003, 1.220134e-001
3.446170e+003, 1.215580e-001
3.448098e+003, 1.203876e-001
3.450027e+003, 1.202964e-001
3.451955e+003, 1.206991e-001
3.453884e+003, 1.211642e-001
3.455812e+003, 1.214814e-001
3.457741e+003, 1.212419e-001
3.459669e+003, 1.210274e-001
3.461598e+003, 1.208309e-001
3.463526e+003, 1.211764e-001
3.465455e+003, 1.222801e-001
3.467383e+003, 1.232569e-001
3.469312e+003, 1.226514e-001
3.471240e+003, 1.217244e-001
3.473168e+003, 1.220044e-001
3.475097e+003, 1.224625e-001
3.477025e+003, 1.221036e-001
3.478954e+003, 1.220985e-001
3.480882e+003, 1.221818e-001
3.482811e+003, 1.216231e-001
3.484739e+003, 1.213468e-001
3.486668e+003, 1.209947e-001
3.488596e+003, 1.213375e-001
3.490525e+003, 1.218543e-001
3.492453e+003, 1.213327e-001
3.494382e+003, 1.215140e-001
3.496310e+003, 1.221923e-001
3.498239e+003, 1.218583e-001
3.500167e+003, 1.217455e-001
3.502095e+003, 1.218834e-001
3.504024e+003, 1.210482e-001
3.505952e+003, 1.204906e-001
3.507881e+003, 1.213178e-001
3.509809e+003, 1.220744e-001
3.511738e+003, 1.217557e-001
3.513666e+003, 1.216284e-001
3.515595e+003, 1.217613e-001
3.517523e+003, 1.217108e-001
3.519452e+003, 1.217832e-001
3.521380e+003, 1.217659e-001
3.523309e+003, 1.215421e-001
3.525237e+003, 1.215762e-001
3.527166e+003, 1.221942e-001
3.529094e+003, 1.223256e-001
3.531022e+003, 1.212260e-001
3.532951e+003, 1.208542e-001
3.534879e+003, 1.209239e-001
3.536808e+003, 1.209708e-001
3.538736e+003, 1.218732e-001
3.540665e+003, 1.228925e-001
3.542593e+003, 1.228317e-001
3.544522e+003, 1.220067e-001
3.546450e+003, 1.216597e-001
3.548379e+003, 1.208021e-001
3.550307e+003, 1.206591e-001
3.552236e+003, 1.214243e-001
3.554164e+003, 1.219751e-001
3.556093e+003, 1.216080e-001
3.558021e+003, 1.217939e-001
3.559949e+003, 1.227097e-001
3.561878e+003, 1.225235e-001
3.563806e+003, 1.214737e-001
3.565735e+003, 1.219275e-001
3.567663e+003, 1.227683e-001
3.569592e+003, 1.222583e-001
3.571520e+003, 1.218336e-001
3.573449e+003, 1.217901e-001
3.575377e+003, 1.212280e-001
3.577306e+003, 1.210795e-001
3.579234e+003, 1.217785e-001
3.581163e+003, 1.219881e-001
3.583091e+003, 1.217791e-001
3.585020e+003, 1.219996e-001
3.586948e+003, 1.223350e-001
3.588876e+003, 1.224393e-001
3.590805e+003, 1.219766e-001
3.592733e+003, 1.220360e-001
3.594662e+003, 1.220035e-001
3.596590e+003, 1.214797e-001
3.598519e+003, 1.213188e-001
3.600447e+003, 1.212756e-001
3.602376e+003, 1.208550e-001
3.604304e+003, 1.211989e-001
3.606233e+003, 1.217777e-001
3.608161e+003, 1.224000e-001
3.610090e+003, 1.218529e-001
3.612018e+003, 1.217540e-001
3.613947e+003, 1.215616e-001
3.615875e+003, 1.218241e-001
3.617803e+003, 1.231379e-001
3.619732e+003, 1.232435e-001
3.621660e+003, 1.230957e-001
3.623589e+003, 1.226400e-001
3.625517e+003, 1.215236e-001
3.627446e+003, 1.222709e-001
3.629374e+003, 1.229614e-001
3.631303e+003, 1.218483e-001
3.633231e+003, 1.219925e-001
3.635160e+003, 1.225089e-001
3.637088e+003, 1.221065e-001
3.639017e+003, 1.227360e-001
3.640945e+003, 1.235952e-001
3.642874e+003, 1.235751e-001
3.644802e+003, 1.231599e-001
3.646730e+003, 1.228132e-001
3.648659e+003, 1.231894e-001
3.650587e+003, 1.235601e-001
3.652516e+003, 1.229940e-001
3.654444e+003, 1.220385e-001
3.656373e+003, 1.213344e-001
3.658301e+003, 1.219301e-001
3.660230e+003, 1.222981e-001
3.662158e+003, 1.217391e-001
3.664087e+003, 1.221943e-001
3.666015e+003, 1.232315e-001
3.667944e+003, 1.235392e-001
3.669872e+003, 1.236806e-001
3.671801e+003, 1.240518e-001
3.673729e+003, 1.233677e-001
3.675657e+003, 1.231107e-001
3.677586e+003, 1.234627e-001
3.679514e+003, 1.229928e-001
3.681443e+003, 1.228513e-001
3.683371e+003, 1.227208e-001
3.685300e+003, 1.223500e-001
3.687228e+003, 1.228197e-001
3.689157e+003, 1.235886e-001
3.691085e+003, 1.241062e-001
3.693014e+003, 1.239940e-001
3.694942e+003, 1.232879e-001
3.696871e+003, 1.231222e-001
3.698799e+003, 1.231098e-001
3.700728e+003, 1.229052e-001
3.702656e+003, 1.229919e-001
3.704584e+003, 1.226572e-001
3.706513e+003, 1.229682e-001
3.708441e+003, 1.236186e-001
3.710370e+003, 1.238033e-001
3.712298e+003, 1.235441e-001
3.714227e+003, 1.227340e-001
3.716155e+003, 1.220627e-001
3.718084e+003, 1.230945e-001
3.720012e+003, 1.239278e-001
3.721941e+003, 1.238774e-001
3.723869e+003, 1.237885e-001
3.725798e+003, 1.236174e-001
3.727726e+003, 1.234843e-001
3.729655e+003, 1.230834e-001
3.731583e+003, 1.232396e-001
3.733511e+003, 1.234079e-001
3.735440e+003, 1.240712e-001
3.737368e+003, 1.244034e-001
3.739297e+003, 1.238623e-001
3.741225e+003, 1.235481e-001
3.743154e+003, 1.236220e-001
3.745082e+003, 1.245985e-001
3.747011e+003, 1.252648e-001
3.748939e+003, 1.252520e-001
3.750868e+003, 1.248981e-001
3.752796e+003, 1.242694e-001
3.754725e+003, 1.238494e-001
3.756653e+003, 1.237328e-001
3.758582e+003, 1.243030e-001
3.760510e+003, 1.243806e-001
3.762438e+003, 1.237169e-001
3.764367e+003, 1.242405e-001
3.766295e+003, 1.244422e-001
3.768224e+003, 1.246799e-001
3.770152e+003, 1.246899e-001
3.772081e+003, 1.237925e-001
3.774009e+003, 1.230917e-001
3.775938e+003, 1.233978e-001
3.777866e+003, 1.242181e-001
3.779795e+003, 1.244011e-001
3.781723e+003, 1.233762e-001
3.783652e+003, 1.230121e-001
3.785580e+003, 1.241412e-001
3.787509e+003, 1.245628e-001
3.789437e+003, 1.243620e-001
3.791365e+003, 1.239686e-001
3.793294e+003, 1.242647e-001
3.795222e+003, 1.251122e-001
3.797151e+003, 1.247480e-001
3.799079e+003, 1.243734e-001
3.801008e+003, 1.246014e-001
3.802936e+003, 1.245231e-001
3.804865e+003, 1.250958e-001
3.806793e+003, 1.251366e-001
3.808722e+003, 1.247153e-001
3.810650e+003, 1.249085e-001
3.812579e+003, 1.239250e-001
3.814507e+003, 1.243184e-001
3.816436e+003, 1.251498e-001
3.818364e+003, 1.258286e-001
3.820292e+003, 1.260756e-001
3.822221e+003, 1.255210e-001
3.824149e+003, 1.248779e-001
3.826078e+003, 1.237189e-001
3.828006e+003, 1.235257e-001
3.829935e+003, 1.243336e-001
3.831863e+003, 1.261888e-001
3.833792e+003, 1.267475e-001
3.835720e+003, 1.262152e-001
3.837649e+003, 1.259522e-001
3.839577e+003, 1.258585e-001
3.841506e+003, 1.249423e-001
3.843434e+003, 1.241784e-001
3.845363e+003, 1.237966e-001
3.847291e+003, 1.241165e-001
3.849219e+003, 1.247062e-001
3.851148e+003, 1.249126e-001
3.853076e+003, 1.254157e-001
3.855005e+003, 1.256037e-001
3.856933e+003, 1.249362e-001
3.858862e+003, 1.234024e-001
3.860790e+003, 1.234566e-001
3.862719e+003, 1.244269e-001
3.864647e+003, 1.246757e-001
3.866576e+003, 1.240862e-001
3.868504e+003, 1.243137e-001
3.870433e+003, 1.248827e-001
3.872361e+003, 1.252017e-001
3.874290e+003, 1.252157e-001
3.876218e+003, 1.246331e-001
3.878146e+003, 1.248076e-001
3.880075e+003, 1.248613e-001
3.882003e+003, 1.242793e-001
3.883932e+003, 1.242098e-001
3.885860e+003, 1.254691e-001
3.887789e+003, 1.258147e-001
3.889717e+003, 1.250282e-001
3.891646e+003, 1.248731e-001
3.893574e+003, 1.248528e-001
3.895503e+003, 1.242492e-001
3.897431e+003, 1.242370e-001
3.899360e+003, 1.247431e-001
3.901288e+003, 1.249879e-001
3.903217e+003, 1.247342e-001
3.905145e+003, 1.243552e-001
3.907073e+003, 1.249568e-001
3.909002e+003, 1.250607e-001
3.910930e+003, 1.245543e-001
3.912859e+003, 1.240686e-001
3.914787e+003, 1.246007e-001
3.916716e+003, 1.242207e-001
3.918644e+003, 1.236425e-001
3.920573e+003, 1.241871e-001
3.922501e+003, 1.250637e-001
3.924430e+003, 1.250783e-001
3.926358e+003, 1.250747e-001
3.928287e+003, 1.254797e-001
3.930215e+003, 1.255642e-001
3.932144e+003, 1.248152e-001
3.934072e+003, 1.240228e-001
3.936000e+003, 1.243022e-001
3.937929e+003, 1.247370e-001
3.939857e+003, 1.242945e-001
3.941786e+003, 1.234578e-001
3.943714e+003, 1.235811e-001
3.945643e+003, 1.250552e-001
3.947571e+003, 1.249540e-001
3.949500e+003, 1.244800e-001
3.951428e+003, 1.245329e-001
3.953357e+003, 1.250088e-001
3.955285e+003, 1.247499e-001
3.957214e+003, 1.243788e-001
3.959142e+003, 1.245182e-001
3.961071e+003, 1.248704e-001
3.962999e+003, 1.244250e-001
3.964927e+003, 1.237667e-001
3.966856e+003, 1.240172e-001
3.968784e+003, 1.241674e-001
3.970713e+003, 1.240629e-001
3.972641e+003, 1.243397e-001
3.974570e+003, 1.247315e-001
3.976498e+003, 1.251071e-001
3.978427e+003, 1.250028e-001
3.980355e+003, 1.248209e-001
3.982284e+003, 1.247694e-001
3.984212e+003, 1.246734e-001
3.986141e+003, 1.242008e-001
3.988069e+003, 1.245777e-001
3.989998e+003, 1.244546e-001
3.991926e+003, 1.231727e-001
3.993854e+003, 1.235269e-001
3.995783e+003, 1.242656e-001
3.997711e+003, 1.246596e-001
3.999640e+003, 1.252710e-001
4.001568e+003, 0.000000e+000
##END=



