##NAMES=Senegalite
##RRUFFID=R050239
##IDEAL CHEMISTRY=Al_2_PO_4_(OH)_3_&#183;H_2_O
##LOCALITY=Kourondicko iron ore (magnetite) deposit, Faleme River Basin, Senegal
##OWNER=RRUFF
##SOURCE=Marcus Origlieri
##DESCRIPTION=Colorless prismatic crystals
##STATUS=The identification of this mineral has been confirmed by X-ray diffraction and chemical analysis
##URL=rruff.info/R050239
##MEASURED CHEMISTRY=Al_2.00_P_1.00_O_4_(OH)_3_Â·H_2_O
3.991926e+002, 2.415025e-001
4.011211e+002, 2.557872e-001
4.030495e+002, 2.706262e-001
4.049780e+002, 2.892257e-001
4.069065e+002, 2.973507e-001
4.088349e+002, 3.067438e-001
4.107634e+002, 3.308893e-001
4.126919e+002, 3.556887e-001
4.146203e+002, 3.412920e-001
4.165488e+002, 3.139425e-001
4.184773e+002, 2.844928e-001
4.204057e+002, 2.587793e-001
4.223342e+002, 2.409108e-001
4.242627e+002, 2.332373e-001
4.261911e+002, 2.361941e-001
4.281196e+002, 2.416763e-001
4.300481e+002, 2.503972e-001
4.319765e+002, 2.636904e-001
4.339050e+002, 2.798316e-001
4.358335e+002, 2.938689e-001
4.377619e+002, 3.032276e-001
4.396904e+002, 3.091368e-001
4.416189e+002, 3.121428e-001
4.435473e+002, 3.149799e-001
4.454758e+002, 3.183675e-001
4.474043e+002, 3.243271e-001
4.493327e+002, 3.316042e-001
4.512612e+002, 3.416373e-001
4.531897e+002, 3.491284e-001
4.551181e+002, 3.510209e-001
4.570466e+002, 3.511409e-001
4.589751e+002, 3.513618e-001
4.609035e+002, 3.533925e-001
4.628320e+002, 3.550681e-001
4.647605e+002, 3.554944e-001
4.666889e+002, 3.548827e-001
4.686174e+002, 3.502750e-001
4.705459e+002, 3.432916e-001
4.724743e+002, 3.370006e-001
4.744028e+002, 3.351526e-001
4.763313e+002, 3.345137e-001
4.782597e+002, 3.303739e-001
4.801882e+002, 3.213384e-001
4.821167e+002, 3.078181e-001
4.840451e+002, 2.958164e-001
4.859736e+002, 2.876642e-001
4.879021e+002, 2.839857e-001
4.898305e+002, 2.819701e-001
4.917590e+002, 2.809337e-001
4.936875e+002, 2.812939e-001
4.956159e+002, 2.796901e-001
4.975444e+002, 2.753408e-001
4.994729e+002, 2.685299e-001
5.014013e+002, 2.617901e-001
5.033298e+002, 2.561421e-001
5.052583e+002, 2.504015e-001
5.071867e+002, 2.431228e-001
5.091152e+002, 2.333200e-001
5.110437e+002, 2.230050e-001
5.129721e+002, 2.114414e-001
5.149006e+002, 1.998671e-001
5.168290e+002, 1.901761e-001
5.187575e+002, 1.823140e-001
5.206860e+002, 1.767677e-001
5.226144e+002, 1.739102e-001
5.245429e+002, 1.751694e-001
5.264714e+002, 1.789782e-001
5.283998e+002, 1.849164e-001
5.303283e+002, 1.919703e-001
5.322568e+002, 1.980114e-001
5.341852e+002, 2.046126e-001
5.361137e+002, 2.129745e-001
5.380422e+002, 2.215266e-001
5.399706e+002, 2.321765e-001
5.418991e+002, 2.471482e-001
5.438276e+002, 2.642406e-001
5.457560e+002, 2.802591e-001
5.476845e+002, 2.939135e-001
5.496130e+002, 3.028930e-001
5.515414e+002, 3.042893e-001
5.534699e+002, 2.990814e-001
5.553984e+002, 2.880192e-001
5.573268e+002, 2.741256e-001
5.592553e+002, 2.601549e-001
5.611838e+002, 2.458149e-001
5.631122e+002, 2.322497e-001
5.650407e+002, 2.206516e-001
5.669692e+002, 2.106079e-001
5.688976e+002, 2.010312e-001
5.708261e+002, 1.925920e-001
5.727546e+002, 1.846918e-001
5.746830e+002, 1.773559e-001
5.766115e+002, 1.697071e-001
5.785400e+002, 1.630243e-001
5.804684e+002, 1.571716e-001
5.823969e+002, 1.518234e-001
5.843254e+002, 1.468206e-001
5.862538e+002, 1.425883e-001
5.881823e+002, 1.390380e-001
5.901108e+002, 1.358575e-001
5.920392e+002, 1.336278e-001
5.939677e+002, 1.316425e-001
5.958962e+002, 1.300498e-001
5.978246e+002, 1.295183e-001
5.997531e+002, 1.304232e-001
6.016816e+002, 1.335138e-001
6.036100e+002, 1.391627e-001
6.055385e+002, 1.472887e-001
6.074670e+002, 1.570354e-001
6.093954e+002, 1.645496e-001
6.113239e+002, 1.685896e-001
6.132524e+002, 1.690259e-001
6.151808e+002, 1.683605e-001
6.171093e+002, 1.688321e-001
6.190378e+002, 1.709688e-001
6.209662e+002, 1.749240e-001
6.228947e+002, 1.802441e-001
6.248232e+002, 1.851611e-001
6.267516e+002, 1.879983e-001
6.286801e+002, 1.875348e-001
6.306086e+002, 1.833712e-001
6.325370e+002, 1.758885e-001
6.344655e+002, 1.665835e-001
6.363940e+002, 1.568163e-001
6.383224e+002, 1.476088e-001
6.402509e+002, 1.390090e-001
6.421794e+002, 1.310854e-001
6.441078e+002, 1.240984e-001
6.460363e+002, 1.174345e-001
6.479648e+002, 1.110168e-001
6.498932e+002, 1.047608e-001
6.518217e+002, 9.894415e-002
6.537502e+002, 9.379090e-002
6.556786e+002, 8.944517e-002
6.576071e+002, 8.540598e-002
6.595356e+002, 8.253390e-002
6.614641e+002, 8.130889e-002
6.633925e+002, 8.115594e-002
6.653210e+002, 8.206765e-002
6.672495e+002, 8.446321e-002
6.691779e+002, 8.839702e-002
6.711064e+002, 9.310218e-002
6.730349e+002, 9.735505e-002
6.749633e+002, 9.927183e-002
6.768918e+002, 9.817405e-002
6.788203e+002, 9.570435e-002
6.807487e+002, 9.401420e-002
6.826772e+002, 9.368945e-002
6.846057e+002, 9.458118e-002
6.865341e+002, 9.708238e-002
6.884626e+002, 1.013352e-001
6.903911e+002, 1.072849e-001
6.923195e+002, 1.150689e-001
6.942480e+002, 1.242185e-001
6.961765e+002, 1.349379e-001
6.981049e+002, 1.465638e-001
7.000334e+002, 1.585713e-001
7.019619e+002, 1.692896e-001
7.038903e+002, 1.785895e-001
7.058188e+002, 1.849889e-001
7.077473e+002, 1.875264e-001
7.096757e+002, 1.867383e-001
7.116042e+002, 1.836624e-001
7.135327e+002, 1.787004e-001
7.154611e+002, 1.729061e-001
7.173896e+002, 1.668077e-001
7.193181e+002, 1.610699e-001
7.212465e+002, 1.559260e-001
7.231750e+002, 1.514646e-001
7.251035e+002, 1.472957e-001
7.270319e+002, 1.426128e-001
7.289604e+002, 1.375376e-001
7.308889e+002, 1.322802e-001
7.328173e+002, 1.269269e-001
7.347458e+002, 1.215555e-001
7.366743e+002, 1.163936e-001
7.386027e+002, 1.114345e-001
7.405312e+002, 1.063842e-001
7.424597e+002, 1.010796e-001
7.443881e+002, 9.581534e-002
7.463166e+002, 9.079261e-002
7.482451e+002, 8.576593e-002
7.501735e+002, 8.104178e-002
7.521020e+002, 7.635040e-002
7.540305e+002, 7.188696e-002
7.559589e+002, 6.797998e-002
7.578874e+002, 6.439574e-002
7.598159e+002, 6.140619e-002
7.617443e+002, 5.880335e-002
7.636728e+002, 5.654519e-002
7.656013e+002, 5.469673e-002
7.675297e+002, 5.346452e-002
7.694582e+002, 5.242933e-002
7.713867e+002, 5.144883e-002
7.733151e+002, 5.054548e-002
7.752436e+002, 5.017051e-002
7.771721e+002, 5.013460e-002
7.791005e+002, 5.006739e-002
7.810290e+002, 4.989934e-002
7.829575e+002, 4.999088e-002
7.848859e+002, 5.007980e-002
7.868144e+002, 5.012933e-002
7.887429e+002, 5.034982e-002
7.906713e+002, 5.107749e-002
7.925998e+002, 5.169383e-002
7.945283e+002, 5.199977e-002
7.964567e+002, 5.286882e-002
7.983852e+002, 5.384171e-002
8.003137e+002, 5.510664e-002
8.022421e+002, 5.681429e-002
8.041706e+002, 5.887650e-002
8.060991e+002, 6.121501e-002
8.080275e+002, 6.370454e-002
8.099560e+002, 6.643108e-002
8.118845e+002, 6.930213e-002
8.138129e+002, 7.183669e-002
8.157414e+002, 7.456069e-002
8.176699e+002, 7.736816e-002
8.195983e+002, 7.988043e-002
8.215268e+002, 8.203161e-002
8.234553e+002, 8.374941e-002
8.253837e+002, 8.501459e-002
8.273122e+002, 8.606953e-002
8.292407e+002, 8.636902e-002
8.311691e+002, 8.589995e-002
8.330976e+002, 8.524720e-002
8.350261e+002, 8.480800e-002
8.369545e+002, 8.416687e-002
8.388830e+002, 8.360980e-002
8.408115e+002, 8.335202e-002
8.427399e+002, 8.349064e-002
8.446684e+002, 8.392051e-002
8.465969e+002, 8.463278e-002
8.485253e+002, 8.550132e-002
8.504538e+002, 8.651931e-002
8.523823e+002, 8.754400e-002
8.543107e+002, 8.833920e-002
8.562392e+002, 8.849522e-002
8.581677e+002, 8.874951e-002
8.600961e+002, 8.864704e-002
8.620246e+002, 8.831627e-002
8.639531e+002, 8.823646e-002
8.658815e+002, 8.880544e-002
8.678100e+002, 8.996721e-002
8.697385e+002, 9.162012e-002
8.716669e+002, 9.372479e-002
8.735954e+002, 9.624595e-002
8.755239e+002, 9.864104e-002
8.774523e+002, 1.002539e-001
8.793808e+002, 1.007715e-001
8.813093e+002, 1.004185e-001
8.832377e+002, 9.937065e-002
8.851662e+002, 9.820575e-002
8.870947e+002, 9.733659e-002
8.890231e+002, 9.681807e-002
8.909516e+002, 9.691601e-002
8.928801e+002, 9.758186e-002
8.948085e+002, 9.853686e-002
8.967370e+002, 9.976580e-002
8.986655e+002, 1.010790e-001
9.005939e+002, 1.020470e-001
9.025224e+002, 1.028419e-001
9.044509e+002, 1.035701e-001
9.063793e+002, 1.044263e-001
9.083078e+002, 1.054995e-001
9.102363e+002, 1.069164e-001
9.121647e+002, 1.084455e-001
9.140932e+002, 1.098780e-001
9.160217e+002, 1.115150e-001
9.179501e+002, 1.130340e-001
9.198786e+002, 1.140252e-001
9.218071e+002, 1.143827e-001
9.237355e+002, 1.138740e-001
9.256640e+002, 1.124793e-001
9.275925e+002, 1.101189e-001
9.295209e+002, 1.068271e-001
9.314494e+002, 1.027135e-001
9.333779e+002, 9.821633e-002
9.353063e+002, 9.371845e-002
9.372348e+002, 8.948020e-002
9.391633e+002, 8.554807e-002
9.410917e+002, 8.187465e-002
9.430202e+002, 7.887769e-002
9.449487e+002, 7.665738e-002
9.468771e+002, 7.500912e-002
9.488056e+002, 7.391160e-002
9.507341e+002, 7.366488e-002
9.526625e+002, 7.392511e-002
9.545910e+002, 7.452683e-002
9.565195e+002, 7.588593e-002
9.584479e+002, 7.781772e-002
9.603764e+002, 8.021016e-002
9.623049e+002, 8.328187e-002
9.642333e+002, 8.708502e-002
9.661618e+002, 9.163565e-002
9.680903e+002, 9.690432e-002
9.700187e+002, 1.031218e-001
9.719472e+002, 1.102567e-001
9.738757e+002, 1.184191e-001
9.758041e+002, 1.277847e-001
9.777326e+002, 1.384777e-001
9.796611e+002, 1.506699e-001
9.815895e+002, 1.642531e-001
9.835180e+002, 1.792100e-001
9.854465e+002, 1.954190e-001
9.873749e+002, 2.127926e-001
9.893034e+002, 2.310986e-001
9.912319e+002, 2.495779e-001
9.931603e+002, 2.678251e-001
9.950888e+002, 2.853712e-001
9.970173e+002, 3.011187e-001
9.989457e+002, 3.134281e-001
1.000874e+003, 3.213593e-001
1.002803e+003, 3.246629e-001
1.004731e+003, 3.240303e-001
1.006660e+003, 3.207226e-001
1.008588e+003, 3.163019e-001
1.010517e+003, 3.108823e-001
1.012445e+003, 3.042309e-001
1.014373e+003, 2.962794e-001
1.016302e+003, 2.874679e-001
1.018230e+003, 2.794255e-001
1.020159e+003, 2.736708e-001
1.022087e+003, 2.707365e-001
1.024016e+003, 2.706270e-001
1.025944e+003, 2.715254e-001
1.027873e+003, 2.709551e-001
1.029801e+003, 2.664643e-001
1.031730e+003, 2.574173e-001
1.033658e+003, 2.449920e-001
1.035587e+003, 2.309578e-001
1.037515e+003, 2.165882e-001
1.039443e+003, 2.024384e-001
1.041372e+003, 1.893042e-001
1.043300e+003, 1.784451e-001
1.045229e+003, 1.713397e-001
1.047157e+003, 1.693838e-001
1.049086e+003, 1.739859e-001
1.051014e+003, 1.855329e-001
1.052943e+003, 2.038645e-001
1.054871e+003, 2.274603e-001
1.056800e+003, 2.513798e-001
1.058728e+003, 2.694004e-001
1.060657e+003, 2.784598e-001
1.062585e+003, 2.808100e-001
1.064514e+003, 2.797088e-001
1.066442e+003, 2.777434e-001
1.068370e+003, 2.765269e-001
1.070299e+003, 2.764824e-001
1.072227e+003, 2.769467e-001
1.074156e+003, 2.768951e-001
1.076084e+003, 2.755188e-001
1.078013e+003, 2.721706e-001
1.079941e+003, 2.666792e-001
1.081870e+003, 2.592850e-001
1.083798e+003, 2.507913e-001
1.085727e+003, 2.417580e-001
1.087655e+003, 2.326217e-001
1.089584e+003, 2.237110e-001
1.091512e+003, 2.150042e-001
1.093441e+003, 2.067950e-001
1.095369e+003, 1.990346e-001
1.097297e+003, 1.916759e-001
1.099226e+003, 1.842494e-001
1.101154e+003, 1.761656e-001
1.103083e+003, 1.674679e-001
1.105011e+003, 1.588021e-001
1.106940e+003, 1.501949e-001
1.108868e+003, 1.421880e-001
1.110797e+003, 1.350721e-001
1.112725e+003, 1.287879e-001
1.114654e+003, 1.234830e-001
1.116582e+003, 1.191937e-001
1.118511e+003, 1.159863e-001
1.120439e+003, 1.141608e-001
1.122368e+003, 1.141355e-001
1.124296e+003, 1.164998e-001
1.126224e+003, 1.210081e-001
1.128153e+003, 1.274045e-001
1.130081e+003, 1.353313e-001
1.132010e+003, 1.435190e-001
1.133938e+003, 1.503625e-001
1.135867e+003, 1.550779e-001
1.137795e+003, 1.569400e-001
1.139724e+003, 1.558916e-001
1.141652e+003, 1.526192e-001
1.143581e+003, 1.480430e-001
1.145509e+003, 1.435938e-001
1.147438e+003, 1.404633e-001
1.149366e+003, 1.384393e-001
1.151295e+003, 1.359559e-001
1.153223e+003, 1.325608e-001
1.155151e+003, 1.311059e-001
1.157080e+003, 1.341876e-001
1.159008e+003, 1.411872e-001
1.160937e+003, 1.481550e-001
1.162865e+003, 1.502535e-001
1.164794e+003, 1.453196e-001
1.166722e+003, 1.354725e-001
1.168651e+003, 1.243411e-001
1.170579e+003, 1.148768e-001
1.172508e+003, 1.090507e-001
1.174436e+003, 1.074890e-001
1.176365e+003, 1.094628e-001
1.178293e+003, 1.130779e-001
1.180222e+003, 1.157475e-001
1.182150e+003, 1.171800e-001
1.184078e+003, 1.189829e-001
1.186007e+003, 1.232305e-001
1.187935e+003, 1.310842e-001
1.189864e+003, 1.412852e-001
1.191792e+003, 1.510214e-001
1.193721e+003, 1.574659e-001
1.195649e+003, 1.581513e-001
1.197578e+003, 1.525565e-001
1.199506e+003, 1.420366e-001
1.201435e+003, 1.292255e-001
1.203363e+003, 1.162637e-001
1.205292e+003, 1.043217e-001
1.207220e+003, 9.336380e-002
1.209149e+003, 8.312275e-002
1.211077e+003, 7.349889e-002
1.213005e+003, 6.450134e-002
1.214934e+003, 5.642157e-002
1.216862e+003, 4.906601e-002
1.218791e+003, 4.251019e-002
1.220719e+003, 3.675646e-002
1.222648e+003, 3.179223e-002
1.224576e+003, 2.770908e-002
1.226505e+003, 2.445481e-002
1.228433e+003, 2.187069e-002
1.230362e+003, 1.974645e-002
1.232290e+003, 1.812381e-002
1.234219e+003, 1.678609e-002
1.236147e+003, 1.570597e-002
1.238076e+003, 1.480688e-002
1.240004e+003, 1.417952e-002
1.241932e+003, 1.351598e-002
1.243861e+003, 1.283212e-002
1.245789e+003, 1.225218e-002
1.247718e+003, 1.176834e-002
1.249646e+003, 1.128889e-002
1.251575e+003, 1.089408e-002
1.253503e+003, 1.066649e-002
1.255432e+003, 1.031325e-002
1.257360e+003, 9.953576e-003
1.259289e+003, 9.700296e-003
1.261217e+003, 9.565975e-003
1.263146e+003, 9.471334e-003
1.265074e+003, 9.351537e-003
1.267003e+003, 9.193505e-003
1.268931e+003, 9.103253e-003
1.270859e+003, 8.988773e-003
1.272788e+003, 8.933980e-003
1.274716e+003, 8.963879e-003
1.276645e+003, 8.956389e-003
1.278573e+003, 8.851202e-003
1.280502e+003, 8.868562e-003
1.282430e+003, 8.857844e-003
1.284359e+003, 8.602940e-003
1.286287e+003, 8.239318e-003
1.288216e+003, 8.135349e-003
1.290144e+003, 8.076642e-003
1.292073e+003, 8.020977e-003
1.294001e+003, 8.027270e-003
1.295930e+003, 7.855961e-003
1.297858e+003, 7.734569e-003
1.299786e+003, 7.769134e-003
1.301715e+003, 7.753356e-003
1.303643e+003, 7.689076e-003
1.305572e+003, 7.650875e-003
1.307500e+003, 7.709841e-003
1.309429e+003, 7.761860e-003
1.311357e+003, 7.823397e-003
1.313286e+003, 7.774280e-003
1.315214e+003, 7.612466e-003
1.317143e+003, 7.607029e-003
1.319071e+003, 7.629079e-003
1.321000e+003, 7.653658e-003
1.322928e+003, 7.686539e-003
1.324857e+003, 7.541157e-003
1.326785e+003, 7.503658e-003
1.328714e+003, 7.490259e-003
1.330642e+003, 7.460346e-003
1.332570e+003, 7.567209e-003
1.334499e+003, 7.551667e-003
1.336427e+003, 7.495111e-003
1.338356e+003, 7.503618e-003
1.340284e+003, 7.491079e-003
1.342213e+003, 7.421635e-003
1.344141e+003, 7.438912e-003
1.346070e+003, 7.441134e-003
1.347998e+003, 7.385261e-003
1.349927e+003, 7.436361e-003
1.351855e+003, 7.532842e-003
1.353784e+003, 7.572392e-003
1.355712e+003, 7.639042e-003
1.357641e+003, 7.614641e-003
1.359569e+003, 7.680992e-003
1.361497e+003, 7.717710e-003
1.363426e+003, 7.749788e-003
1.365354e+003, 7.643198e-003
1.367283e+003, 7.621098e-003
1.369211e+003, 7.672473e-003
1.371140e+003, 7.756536e-003
1.373068e+003, 7.759296e-003
1.374997e+003, 7.703517e-003
1.376925e+003, 7.629077e-003
1.378854e+003, 7.718052e-003
1.380782e+003, 7.850453e-003
1.382711e+003, 7.904131e-003
1.384639e+003, 8.043274e-003
1.386568e+003, 8.129590e-003
1.388496e+003, 8.140771e-003
1.390424e+003, 8.240193e-003
1.392353e+003, 8.245605e-003
1.394281e+003, 8.242431e-003
1.396210e+003, 8.319405e-003
1.398138e+003, 8.483828e-003
1.400067e+003, 8.532993e-003
1.401995e+003, 8.537181e-003
1.403924e+003, 8.594358e-003
1.405852e+003, 8.732796e-003
1.407781e+003, 8.795992e-003
1.409709e+003, 8.748316e-003
1.411638e+003, 8.741651e-003
1.413566e+003, 8.818465e-003
1.415495e+003, 9.010951e-003
1.417423e+003, 9.127471e-003
1.419351e+003, 9.090566e-003
1.421280e+003, 9.081536e-003
1.423208e+003, 9.226497e-003
1.425137e+003, 9.402131e-003
1.427065e+003, 9.416695e-003
1.428994e+003, 9.454735e-003
1.430922e+003, 9.539625e-003
1.432851e+003, 9.587560e-003
1.434779e+003, 9.796856e-003
1.436708e+003, 9.992233e-003
1.438636e+003, 1.011504e-002
1.440565e+003, 1.026228e-002
1.442493e+003, 1.036895e-002
1.444422e+003, 1.047135e-002
1.446350e+003, 1.071008e-002
1.448278e+003, 1.102454e-002
1.450207e+003, 1.126984e-002
1.452135e+003, 1.130715e-002
1.454064e+003, 1.130862e-002
1.455992e+003, 1.152436e-002
1.457921e+003, 1.142711e-002
1.459849e+003, 1.111535e-002
1.461778e+003, 1.095745e-002
1.463706e+003, 1.097214e-002
1.465635e+003, 1.113487e-002
1.467563e+003, 1.133365e-002
1.469492e+003, 1.153878e-002
1.471420e+003, 1.165086e-002
1.473349e+003, 1.148847e-002
1.475277e+003, 1.127375e-002
1.477205e+003, 1.112337e-002
1.479134e+003, 1.108174e-002
1.481062e+003, 1.111936e-002
1.482991e+003, 1.119803e-002
1.484919e+003, 1.111207e-002
1.486848e+003, 1.097942e-002
1.488776e+003, 1.081894e-002
1.490705e+003, 1.061256e-002
1.492633e+003, 1.051269e-002
1.494562e+003, 1.058033e-002
1.496490e+003, 1.068158e-002
1.498419e+003, 1.059270e-002
1.500347e+003, 1.045756e-002
1.502276e+003, 1.038174e-002
1.504204e+003, 1.036784e-002
1.506132e+003, 1.054917e-002
1.508061e+003, 1.059882e-002
1.509989e+003, 1.057074e-002
1.511918e+003, 1.061180e-002
1.513846e+003, 1.062279e-002
1.515775e+003, 1.053565e-002
1.517703e+003, 1.070426e-002
1.519632e+003, 1.102534e-002
1.521560e+003, 1.115667e-002
1.523489e+003, 1.126107e-002
1.525417e+003, 1.145838e-002
1.527346e+003, 1.143437e-002
1.529274e+003, 1.118165e-002
1.531203e+003, 1.089515e-002
1.533131e+003, 1.073547e-002
1.535059e+003, 1.058319e-002
1.536988e+003, 1.051755e-002
1.538916e+003, 1.055346e-002
1.540845e+003, 1.051479e-002
1.542773e+003, 1.048916e-002
1.544702e+003, 1.057619e-002
1.546630e+003, 1.049262e-002
1.548559e+003, 1.048663e-002
1.550487e+003, 1.061786e-002
1.552416e+003, 1.064885e-002
1.554344e+003, 1.068544e-002
1.556273e+003, 1.079941e-002
1.558201e+003, 1.093752e-002
1.560130e+003, 1.100502e-002
1.562058e+003, 1.094958e-002
1.563986e+003, 1.103001e-002
1.565915e+003, 1.115302e-002
1.567843e+003, 1.123231e-002
1.569772e+003, 1.129385e-002
1.571700e+003, 1.129357e-002
1.573629e+003, 1.132577e-002
1.575557e+003, 1.154888e-002
1.577486e+003, 1.165815e-002
1.579414e+003, 1.151697e-002
1.581343e+003, 1.171331e-002
1.583271e+003, 1.202048e-002
1.585200e+003, 1.214580e-002
1.587128e+003, 1.220508e-002
1.589057e+003, 1.231141e-002
1.590985e+003, 1.257693e-002
1.592913e+003, 1.288002e-002
1.594842e+003, 1.298804e-002
1.596770e+003, 1.300626e-002
1.598699e+003, 1.319209e-002
1.600627e+003, 1.352014e-002
1.602556e+003, 1.369456e-002
1.604484e+003, 1.381339e-002
1.606413e+003, 1.390469e-002
1.608341e+003, 1.397035e-002
1.610270e+003, 1.426327e-002
1.612198e+003, 1.465649e-002
1.614127e+003, 1.499471e-002
1.616055e+003, 1.520172e-002
1.617984e+003, 1.537490e-002
1.619912e+003, 1.554305e-002
1.621840e+003, 1.571873e-002
1.623769e+003, 1.593935e-002
1.625697e+003, 1.621252e-002
1.627626e+003, 1.649548e-002
1.629554e+003, 1.682081e-002
1.631483e+003, 1.708592e-002
1.633411e+003, 1.745353e-002
1.635340e+003, 1.805001e-002
1.637268e+003, 1.837033e-002
1.639197e+003, 1.876485e-002
1.641125e+003, 1.933964e-002
1.643054e+003, 2.006428e-002
1.644982e+003, 2.074837e-002
1.646911e+003, 2.128334e-002
1.648839e+003, 2.198129e-002
1.650767e+003, 2.293926e-002
1.652696e+003, 2.400480e-002
1.654624e+003, 2.478473e-002
1.656553e+003, 2.547192e-002
1.658481e+003, 2.638277e-002
1.660410e+003, 2.757826e-002
1.662338e+003, 2.852549e-002
1.664267e+003, 2.946855e-002
1.666195e+003, 3.058456e-002
1.668124e+003, 3.159025e-002
1.670052e+003, 3.226534e-002
1.671981e+003, 3.285870e-002
1.673909e+003, 3.323018e-002
1.675838e+003, 3.328237e-002
1.677766e+003, 3.304049e-002
1.679694e+003, 3.265006e-002
1.681623e+003, 3.188023e-002
1.683551e+003, 3.097118e-002
1.685480e+003, 2.989968e-002
1.687408e+003, 2.865243e-002
1.689337e+003, 2.730170e-002
1.691265e+003, 2.572824e-002
1.693194e+003, 2.421880e-002
1.695122e+003, 2.292449e-002
1.697051e+003, 2.161244e-002
1.698979e+003, 2.044288e-002
1.700908e+003, 1.938684e-002
1.702836e+003, 1.824389e-002
1.704765e+003, 1.737457e-002
1.706693e+003, 1.668421e-002
1.708621e+003, 1.590556e-002
1.710550e+003, 1.514260e-002
1.712478e+003, 1.456487e-002
1.714407e+003, 1.399084e-002
1.716335e+003, 1.358418e-002
1.718264e+003, 1.314615e-002
1.720192e+003, 1.261005e-002
1.722121e+003, 1.216693e-002
1.724049e+003, 1.178001e-002
1.725978e+003, 1.151023e-002
1.727906e+003, 1.123998e-002
1.729835e+003, 1.099259e-002
1.731763e+003, 1.078201e-002
1.733692e+003, 1.052103e-002
1.735620e+003, 1.022238e-002
1.737548e+003, 9.897333e-003
1.739477e+003, 9.558926e-003
1.741405e+003, 9.298702e-003
1.743334e+003, 9.051535e-003
1.745262e+003, 8.848000e-003
1.747191e+003, 8.611146e-003
1.749119e+003, 8.394080e-003
1.751048e+003, 8.438206e-003
1.752976e+003, 8.519647e-003
1.754905e+003, 8.327683e-003
1.756833e+003, 8.316675e-003
1.758762e+003, 8.163547e-003
1.760690e+003, 8.063980e-003
1.762619e+003, 8.144411e-003
1.764547e+003, 8.098339e-003
1.766475e+003, 8.004717e-003
1.768404e+003, 7.876194e-003
1.770332e+003, 7.742185e-003
1.772261e+003, 7.506606e-003
1.774189e+003, 7.395736e-003
1.776118e+003, 7.390414e-003
1.778046e+003, 7.312408e-003
1.779975e+003, 7.311320e-003
1.781903e+003, 7.198770e-003
1.783832e+003, 7.184461e-003
1.785760e+003, 7.093372e-003
1.787689e+003, 6.888806e-003
1.789617e+003, 6.824965e-003
1.791546e+003, 6.878345e-003
1.793474e+003, 6.800418e-003
1.795402e+003, 6.849353e-003
1.797331e+003, 6.642481e-003
1.799259e+003, 6.380212e-003
1.801188e+003, 6.522214e-003
1.803116e+003, 6.512667e-003
1.805045e+003, 6.180760e-003
1.806973e+003, 6.030521e-003
1.808902e+003, 5.965065e-003
1.810830e+003, 6.085975e-003
1.812759e+003, 6.008788e-003
1.814687e+003, 5.660781e-003
1.816616e+003, 5.476499e-003
1.818544e+003, 5.723509e-003
1.820473e+003, 5.954027e-003
1.822401e+003, 6.031499e-003
1.824329e+003, 5.934325e-003
1.826258e+003, 5.814270e-003
1.828186e+003, 5.648617e-003
1.830115e+003, 5.704210e-003
1.832043e+003, 5.774830e-003
1.833972e+003, 5.562141e-003
1.835900e+003, 5.198624e-003
1.837829e+003, 5.231896e-003
1.839757e+003, 5.473757e-003
1.841686e+003, 5.496230e-003
1.843614e+003, 5.309847e-003
1.845543e+003, 5.139602e-003
1.847471e+003, 5.074175e-003
1.849400e+003, 5.357124e-003
1.851328e+003, 5.548776e-003
1.853256e+003, 5.239704e-003
1.855185e+003, 5.129618e-003
1.857113e+003, 5.297261e-003
1.859042e+003, 5.333007e-003
1.860970e+003, 5.101769e-003
1.862899e+003, 5.174319e-003
1.864827e+003, 5.169404e-003
1.866756e+003, 5.127993e-003
1.868684e+003, 5.413759e-003
1.870613e+003, 5.536335e-003
1.872541e+003, 5.491311e-003
1.874470e+003, 5.281200e-003
1.876398e+003, 5.111161e-003
1.878327e+003, 5.132818e-003
1.880255e+003, 5.396829e-003
1.882183e+003, 5.023522e-003
1.884112e+003, 4.651044e-003
1.886040e+003, 4.843830e-003
1.887969e+003, 5.274599e-003
1.889897e+003, 5.716737e-003
1.891826e+003, 5.935607e-003
1.893754e+003, 6.009115e-003
1.895683e+003, 5.872176e-003
1.897611e+003, 6.010848e-003
1.899540e+003, 5.991884e-003
1.901468e+003, 6.029199e-003
1.903397e+003, 5.970071e-003
1.905325e+003, 6.018356e-003
1.907254e+003, 6.308130e-003
1.909182e+003, 5.915069e-003
1.911110e+003, 5.759443e-003
1.913039e+003, 6.518890e-003
1.914967e+003, 6.934457e-003
1.916896e+003, 6.587022e-003
1.918824e+003, 6.113999e-003
1.920753e+003, 5.953690e-003
1.922681e+003, 6.140195e-003
1.924610e+003, 5.625501e-003
1.926538e+003, 5.664579e-003
1.928467e+003, 6.206090e-003
1.930395e+003, 6.116187e-003
1.932324e+003, 6.344931e-003
1.934252e+003, 6.406006e-003
1.936181e+003, 6.402221e-003
1.938109e+003, 6.778657e-003
1.940037e+003, 7.094895e-003
1.941966e+003, 6.989631e-003
1.943894e+003, 6.641740e-003
1.945823e+003, 6.645026e-003
1.947751e+003, 6.805573e-003
1.949680e+003, 6.313544e-003
1.951608e+003, 6.281216e-003
1.953537e+003, 7.023484e-003
1.955465e+003, 6.598848e-003
1.957394e+003, 6.786244e-003
1.959322e+003, 8.138511e-003
1.961251e+003, 8.444806e-003
1.963179e+003, 7.993219e-003
1.965108e+003, 7.788706e-003
1.967036e+003, 7.245385e-003
1.968964e+003, 7.332414e-003
1.970893e+003, 8.097012e-003
1.972821e+003, 8.801762e-003
1.974750e+003, 9.660954e-003
1.976678e+003, 1.021673e-002
1.978607e+003, 1.085200e-002
1.980535e+003, 1.040892e-002
1.982464e+003, 9.149464e-003
1.984392e+003, 9.850661e-003
1.986321e+003, 9.780295e-003
1.988249e+003, 8.402690e-003
1.990178e+003, 7.198023e-003
1.992106e+003, 8.423692e-003
1.994035e+003, 9.258267e-003
1.995963e+003, 8.874450e-003
1.997891e+003, 8.650001e-003
1.999820e+003, 8.219588e-003
2.001748e+003, 7.508138e-003
2.003677e+003, 6.254035e-003
2.005605e+003, 6.408325e-003
2.007534e+003, 8.217418e-003
2.009462e+003, 8.447322e-003
2.011391e+003, 7.739618e-003
2.013319e+003, 8.505021e-003
2.015248e+003, 9.022407e-003
2.017176e+003, 8.852059e-003
2.019105e+003, 8.616435e-003
2.021033e+003, 8.439187e-003
2.022962e+003, 7.989460e-003
2.024890e+003, 7.739877e-003
2.026818e+003, 7.628886e-003
2.028747e+003, 9.406175e-003
2.030675e+003, 1.010101e-002
2.032604e+003, 1.013473e-002
2.034532e+003, 9.390112e-003
2.036461e+003, 8.077522e-003
2.038389e+003, 8.787910e-003
2.040318e+003, 1.001999e-002
2.042246e+003, 9.566500e-003
2.044175e+003, 8.586777e-003
2.046103e+003, 8.129679e-003
2.048031e+003, 8.231672e-003
2.049960e+003, 9.119659e-003
2.051888e+003, 9.233313e-003
2.053817e+003, 9.223477e-003
2.055745e+003, 9.107668e-003
2.057674e+003, 9.424300e-003
2.059602e+003, 8.658594e-003
2.061531e+003, 7.766124e-003
2.063459e+003, 7.430449e-003
2.065388e+003, 7.083234e-003
2.067316e+003, 6.578489e-003
2.069245e+003, 7.201376e-003
2.071173e+003, 8.434724e-003
2.073102e+003, 8.505682e-003
2.075030e+003, 8.853866e-003
2.076958e+003, 9.028211e-003
2.078887e+003, 8.603989e-003
2.080815e+003, 8.762208e-003
2.082744e+003, 8.921213e-003
2.084672e+003, 9.071556e-003
2.086601e+003, 8.575572e-003
2.088529e+003, 8.342728e-003
2.090458e+003, 8.285568e-003
2.092386e+003, 8.372129e-003
2.094315e+003, 8.332614e-003
2.096243e+003, 8.494514e-003
2.098172e+003, 8.763735e-003
2.100100e+003, 8.815584e-003
2.102029e+003, 8.444328e-003
2.103957e+003, 8.733165e-003
2.105885e+003, 9.659180e-003
2.107814e+003, 9.349665e-003
2.109742e+003, 7.414065e-003
2.111671e+003, 6.881882e-003
2.113599e+003, 7.505139e-003
2.115528e+003, 7.261383e-003
2.117456e+003, 6.538072e-003
2.119385e+003, 6.238773e-003
2.121313e+003, 6.330410e-003
2.123242e+003, 6.970809e-003
2.125170e+003, 6.599236e-003
2.127099e+003, 5.814273e-003
2.129027e+003, 6.389301e-003
2.130956e+003, 7.035376e-003
2.132884e+003, 6.805567e-003
2.134813e+003, 6.730814e-003
2.136741e+003, 7.171689e-003
2.138669e+003, 7.310895e-003
2.140598e+003, 7.738636e-003
2.142526e+003, 7.903789e-003
2.144455e+003, 6.864454e-003
2.146383e+003, 6.855153e-003
2.148312e+003, 7.381015e-003
2.150240e+003, 7.062624e-003
2.152169e+003, 7.213255e-003
2.154097e+003, 7.491524e-003
2.156026e+003, 7.194746e-003
2.157954e+003, 9.604480e-003
2.159883e+003, 1.208547e-002
2.161811e+003, 1.064360e-002
2.163740e+003, 9.991822e-003
2.165668e+003, 1.293093e-002
2.167596e+003, 1.301636e-002
2.169525e+003, 1.106521e-002
2.171453e+003, 9.583125e-003
2.173382e+003, 9.192184e-003
2.175310e+003, 9.563186e-003
2.177239e+003, 9.904233e-003
2.179167e+003, 1.028149e-002
2.181096e+003, 1.138672e-002
2.183024e+003, 1.195433e-002
2.184953e+003, 1.146051e-002
2.186881e+003, 1.094454e-002
2.188810e+003, 1.207164e-002
2.190738e+003, 1.099650e-002
2.192667e+003, 8.883987e-003
2.194595e+003, 8.889394e-003
2.196523e+003, 1.063182e-002
2.198452e+003, 1.082854e-002
2.200380e+003, 1.027458e-002
2.202309e+003, 1.017322e-002
2.204237e+003, 1.065619e-002
2.206166e+003, 1.091453e-002
2.208094e+003, 1.045795e-002
2.210023e+003, 1.085949e-002
2.211951e+003, 1.067703e-002
2.213880e+003, 9.766219e-003
2.215808e+003, 1.028897e-002
2.217737e+003, 1.125985e-002
2.219665e+003, 1.245529e-002
2.221594e+003, 1.196826e-002
2.223522e+003, 1.071784e-002
2.225450e+003, 1.075118e-002
2.227379e+003, 1.136987e-002
2.229307e+003, 1.140258e-002
2.231236e+003, 1.106232e-002
2.233164e+003, 1.104045e-002
2.235093e+003, 1.189539e-002
2.237021e+003, 1.285856e-002
2.238950e+003, 1.293809e-002
2.240878e+003, 1.177205e-002
2.242807e+003, 1.114409e-002
2.244735e+003, 1.104238e-002
2.246664e+003, 1.049415e-002
2.248592e+003, 1.100381e-002
2.250521e+003, 1.170442e-002
2.252449e+003, 1.111593e-002
2.254377e+003, 1.074031e-002
2.256306e+003, 1.065092e-002
2.258234e+003, 1.073832e-002
2.260163e+003, 1.057236e-002
2.262091e+003, 1.043693e-002
2.264020e+003, 1.043530e-002
2.265948e+003, 1.016917e-002
2.267877e+003, 1.035383e-002
2.269805e+003, 1.088502e-002
2.271734e+003, 1.114371e-002
2.273662e+003, 1.187668e-002
2.275591e+003, 1.197821e-002
2.277519e+003, 1.159539e-002
2.279448e+003, 1.106765e-002
2.281376e+003, 1.104641e-002
2.283304e+003, 1.099176e-002
2.285233e+003, 1.134429e-002
2.287161e+003, 1.154610e-002
2.289090e+003, 1.105915e-002
2.291018e+003, 1.096755e-002
2.292947e+003, 1.120529e-002
2.294875e+003, 1.091567e-002
2.296804e+003, 1.066651e-002
2.298732e+003, 1.075116e-002
2.300661e+003, 1.112785e-002
2.302589e+003, 1.154020e-002
2.304518e+003, 1.168664e-002
2.306446e+003, 1.137317e-002
2.308375e+003, 1.116741e-002
2.310303e+003, 1.122138e-002
2.312231e+003, 1.148172e-002
2.314160e+003, 1.165544e-002
2.316088e+003, 1.165705e-002
2.318017e+003, 1.157586e-002
2.319945e+003, 1.154480e-002
2.321874e+003, 1.171467e-002
2.323802e+003, 1.179761e-002
2.325731e+003, 1.115094e-002
2.327659e+003, 1.041362e-002
2.329588e+003, 1.002801e-002
2.331516e+003, 9.792963e-003
2.333445e+003, 9.882163e-003
2.335373e+003, 1.016859e-002
2.337302e+003, 1.029003e-002
2.339230e+003, 1.027276e-002
2.341158e+003, 1.032161e-002
2.343087e+003, 1.046502e-002
2.345015e+003, 1.065406e-002
2.346944e+003, 1.072316e-002
2.348872e+003, 1.021103e-002
2.350801e+003, 1.002011e-002
2.352729e+003, 9.809076e-003
2.354658e+003, 9.661829e-003
2.356586e+003, 9.520561e-003
2.358515e+003, 9.376777e-003
2.360443e+003, 9.611834e-003
2.362372e+003, 9.850244e-003
2.364300e+003, 1.012375e-002
2.366229e+003, 1.012133e-002
2.368157e+003, 1.021939e-002
2.370085e+003, 1.028976e-002
2.372014e+003, 9.999852e-003
2.373942e+003, 9.893049e-003
2.375871e+003, 9.682933e-003
2.377799e+003, 9.323084e-003
2.379728e+003, 9.419199e-003
2.381656e+003, 9.815198e-003
2.383585e+003, 9.789112e-003
2.385513e+003, 9.833400e-003
2.387442e+003, 9.880046e-003
2.389370e+003, 9.897123e-003
2.391299e+003, 9.842414e-003
2.393227e+003, 9.835628e-003
2.395156e+003, 9.785762e-003
2.397084e+003, 9.583921e-003
2.399012e+003, 9.520970e-003
2.400941e+003, 9.630743e-003
2.402869e+003, 9.407477e-003
2.404798e+003, 9.571461e-003
2.406726e+003, 9.931411e-003
2.408655e+003, 1.026595e-002
2.410583e+003, 1.077955e-002
2.412512e+003, 1.061507e-002
2.414440e+003, 1.085080e-002
2.416369e+003, 1.128194e-002
2.418297e+003, 1.097923e-002
2.420226e+003, 1.073804e-002
2.422154e+003, 1.107091e-002
2.424083e+003, 1.146069e-002
2.426011e+003, 1.155199e-002
2.427939e+003, 1.170967e-002
2.429868e+003, 1.227215e-002
2.431796e+003, 1.262705e-002
2.433725e+003, 1.191631e-002
2.435653e+003, 1.182654e-002
2.437582e+003, 1.196256e-002
2.439510e+003, 1.221790e-002
2.441439e+003, 1.224010e-002
2.443367e+003, 1.213828e-002
2.445296e+003, 1.237334e-002
2.447224e+003, 1.247437e-002
2.449153e+003, 1.248745e-002
2.451081e+003, 1.279643e-002
2.453010e+003, 1.272018e-002
2.454938e+003, 1.247317e-002
2.456866e+003, 1.265705e-002
2.458795e+003, 1.307580e-002
2.460723e+003, 1.294020e-002
2.462652e+003, 1.254500e-002
2.464580e+003, 1.253667e-002
2.466509e+003, 1.277881e-002
2.468437e+003, 1.303466e-002
2.470366e+003, 1.317480e-002
2.472294e+003, 1.245880e-002
2.474223e+003, 1.168258e-002
2.476151e+003, 1.178845e-002
2.478080e+003, 1.215630e-002
2.480008e+003, 1.234490e-002
2.481937e+003, 1.244819e-002
2.483865e+003, 1.245941e-002
2.485793e+003, 1.236473e-002
2.487722e+003, 1.270882e-002
2.489650e+003, 1.322456e-002
2.491579e+003, 1.318870e-002
2.493507e+003, 1.291392e-002
2.495436e+003, 1.282111e-002
2.497364e+003, 1.270632e-002
2.499293e+003, 1.284578e-002
2.501221e+003, 1.308570e-002
2.503150e+003, 1.335927e-002
2.505078e+003, 1.350538e-002
2.507007e+003, 1.310938e-002
2.508935e+003, 1.280716e-002
2.510864e+003, 1.310083e-002
2.512792e+003, 1.333533e-002
2.514720e+003, 1.357448e-002
2.516649e+003, 1.385891e-002
2.518577e+003, 1.368436e-002
2.520506e+003, 1.310432e-002
2.522434e+003, 1.298126e-002
2.524363e+003, 1.361566e-002
2.526291e+003, 1.361042e-002
2.528220e+003, 1.324531e-002
2.530148e+003, 1.358130e-002
2.532077e+003, 1.366161e-002
2.534005e+003, 1.335726e-002
2.535934e+003, 1.331651e-002
2.537862e+003, 1.377606e-002
2.539791e+003, 1.422548e-002
2.541719e+003, 1.421979e-002
2.543647e+003, 1.404180e-002
2.545576e+003, 1.402611e-002
2.547504e+003, 1.442699e-002
2.549433e+003, 1.460380e-002
2.551361e+003, 1.448181e-002
2.553290e+003, 1.441000e-002
2.555218e+003, 1.428879e-002
2.557147e+003, 1.424297e-002
2.559075e+003, 1.459451e-002
2.561004e+003, 1.459456e-002
2.562932e+003, 1.449117e-002
2.564861e+003, 1.443662e-002
2.566789e+003, 1.439214e-002
2.568718e+003, 1.452742e-002
2.570646e+003, 1.446287e-002
2.572574e+003, 1.448768e-002
2.574503e+003, 1.432758e-002
2.576431e+003, 1.408153e-002
2.578360e+003, 1.414715e-002
2.580288e+003, 1.477375e-002
2.582217e+003, 1.496795e-002
2.584145e+003, 1.492173e-002
2.586074e+003, 1.496592e-002
2.588002e+003, 1.481371e-002
2.589931e+003, 1.487411e-002
2.591859e+003, 1.474873e-002
2.593788e+003, 1.463254e-002
2.595716e+003, 1.472887e-002
2.597645e+003, 1.485897e-002
2.599573e+003, 1.471657e-002
2.601501e+003, 1.502001e-002
2.603430e+003, 1.540328e-002
2.605358e+003, 1.511151e-002
2.607287e+003, 1.434858e-002
2.609215e+003, 1.413734e-002
2.611144e+003, 1.475410e-002
2.613072e+003, 1.505814e-002
2.615001e+003, 1.494094e-002
2.616929e+003, 1.523547e-002
2.618858e+003, 1.533998e-002
2.620786e+003, 1.531497e-002
2.622715e+003, 1.541649e-002
2.624643e+003, 1.513475e-002
2.626572e+003, 1.486369e-002
2.628500e+003, 1.473139e-002
2.630428e+003, 1.498461e-002
2.632357e+003, 1.510665e-002
2.634285e+003, 1.519922e-002
2.636214e+003, 1.533318e-002
2.638142e+003, 1.532967e-002
2.640071e+003, 1.509285e-002
2.641999e+003, 1.498262e-002
2.643928e+003, 1.526387e-002
2.645856e+003, 1.553909e-002
2.647785e+003, 1.525638e-002
2.649713e+003, 1.519017e-002
2.651642e+003, 1.529270e-002
2.653570e+003, 1.525516e-002
2.655499e+003, 1.524516e-002
2.657427e+003, 1.512070e-002
2.659355e+003, 1.500802e-002
2.661284e+003, 1.496536e-002
2.663212e+003, 1.500696e-002
2.665141e+003, 1.498978e-002
2.667069e+003, 1.487172e-002
2.668998e+003, 1.462709e-002
2.670926e+003, 1.467555e-002
2.672855e+003, 1.494265e-002
2.674783e+003, 1.485582e-002
2.676712e+003, 1.468400e-002
2.678640e+003, 1.502146e-002
2.680569e+003, 1.517082e-002
2.682497e+003, 1.499757e-002
2.684426e+003, 1.501960e-002
2.686354e+003, 1.520790e-002
2.688282e+003, 1.538079e-002
2.690211e+003, 1.551400e-002
2.692139e+003, 1.556956e-002
2.694068e+003, 1.557680e-002
2.695996e+003, 1.567093e-002
2.697925e+003, 1.575396e-002
2.699853e+003, 1.566775e-002
2.701782e+003, 1.575764e-002
2.703710e+003, 1.597953e-002
2.705639e+003, 1.582997e-002
2.707567e+003, 1.577332e-002
2.709496e+003, 1.608798e-002
2.711424e+003, 1.641283e-002
2.713353e+003, 1.643534e-002
2.715281e+003, 1.619206e-002
2.717209e+003, 1.618109e-002
2.719138e+003, 1.640043e-002
2.721066e+003, 1.633471e-002
2.722995e+003, 1.629841e-002
2.724923e+003, 1.654704e-002
2.726852e+003, 1.673683e-002
2.728780e+003, 1.653429e-002
2.730709e+003, 1.664835e-002
2.732637e+003, 1.718924e-002
2.734566e+003, 1.729751e-002
2.736494e+003, 1.702342e-002
2.738423e+003, 1.715368e-002
2.740351e+003, 1.747243e-002
2.742280e+003, 1.753302e-002
2.744208e+003, 1.761104e-002
2.746136e+003, 1.788048e-002
2.748065e+003, 1.811023e-002
2.749993e+003, 1.801931e-002
2.751922e+003, 1.806599e-002
2.753850e+003, 1.813068e-002
2.755779e+003, 1.805623e-002
2.757707e+003, 1.803815e-002
2.759636e+003, 1.821856e-002
2.761564e+003, 1.841282e-002
2.763493e+003, 1.865559e-002
2.765421e+003, 1.872269e-002
2.767350e+003, 1.853942e-002
2.769278e+003, 1.856928e-002
2.771207e+003, 1.880731e-002
2.773135e+003, 1.907172e-002
2.775063e+003, 1.930311e-002
2.776992e+003, 1.934715e-002
2.778920e+003, 1.942963e-002
2.780849e+003, 1.933167e-002
2.782777e+003, 1.940943e-002
2.784706e+003, 1.964922e-002
2.786634e+003, 2.002713e-002
2.788563e+003, 2.016892e-002
2.790491e+003, 2.017910e-002
2.792420e+003, 2.033349e-002
2.794348e+003, 2.045992e-002
2.796277e+003, 2.046631e-002
2.798205e+003, 2.056827e-002
2.800134e+003, 2.070718e-002
2.802062e+003, 2.061010e-002
2.803990e+003, 2.071667e-002
2.805919e+003, 2.096109e-002
2.807847e+003, 2.115445e-002
2.809776e+003, 2.122173e-002
2.811704e+003, 2.127286e-002
2.813633e+003, 2.123375e-002
2.815561e+003, 2.166137e-002
2.817490e+003, 2.213246e-002
2.819418e+003, 2.214246e-002
2.821347e+003, 2.228485e-002
2.823275e+003, 2.239305e-002
2.825204e+003, 2.240557e-002
2.827132e+003, 2.245709e-002
2.829061e+003, 2.271833e-002
2.830989e+003, 2.295739e-002
2.832917e+003, 2.306330e-002
2.834846e+003, 2.323325e-002
2.836774e+003, 2.345442e-002
2.838703e+003, 2.353545e-002
2.840631e+003, 2.383558e-002
2.842560e+003, 2.408609e-002
2.844488e+003, 2.392530e-002
2.846417e+003, 2.404575e-002
2.848345e+003, 2.451021e-002
2.850274e+003, 2.474326e-002
2.852202e+003, 2.484204e-002
2.854131e+003, 2.496658e-002
2.856059e+003, 2.478409e-002
2.857988e+003, 2.465011e-002
2.859916e+003, 2.480931e-002
2.861844e+003, 2.509350e-002
2.863773e+003, 2.530387e-002
2.865701e+003, 2.521691e-002
2.867630e+003, 2.514277e-002
2.869558e+003, 2.519023e-002
2.871487e+003, 2.569963e-002
2.873415e+003, 2.615497e-002
2.875344e+003, 2.631191e-002
2.877272e+003, 2.638223e-002
2.879201e+003, 2.635419e-002
2.881129e+003, 2.650327e-002
2.883058e+003, 2.652091e-002
2.884986e+003, 2.660853e-002
2.886915e+003, 2.697281e-002
2.888843e+003, 2.726554e-002
2.890771e+003, 2.735187e-002
2.892700e+003, 2.744709e-002
2.894628e+003, 2.777588e-002
2.896557e+003, 2.824470e-002
2.898485e+003, 2.835335e-002
2.900414e+003, 2.850530e-002
2.902342e+003, 2.912901e-002
2.904271e+003, 2.988782e-002
2.906199e+003, 3.026225e-002
2.908128e+003, 3.036247e-002
2.910056e+003, 3.043327e-002
2.911985e+003, 3.064971e-002
2.913913e+003, 3.116575e-002
2.915842e+003, 3.164667e-002
2.917770e+003, 3.229519e-002
2.919698e+003, 3.247202e-002
2.921627e+003, 3.235147e-002
2.923555e+003, 3.260347e-002
2.925484e+003, 3.316816e-002
2.927412e+003, 3.364538e-002
2.929341e+003, 3.381662e-002
2.931269e+003, 3.391488e-002
2.933198e+003, 3.407551e-002
2.935126e+003, 3.396998e-002
2.937055e+003, 3.405274e-002
2.938983e+003, 3.422084e-002
2.940912e+003, 3.440516e-002
2.942840e+003, 3.449971e-002
2.944769e+003, 3.505519e-002
2.946697e+003, 3.560353e-002
2.948625e+003, 3.603101e-002
2.950554e+003, 3.664662e-002
2.952482e+003, 3.719088e-002
2.954411e+003, 3.747649e-002
2.956339e+003, 3.767664e-002
2.958268e+003, 3.802788e-002
2.960196e+003, 3.810558e-002
2.962125e+003, 3.832291e-002
2.964053e+003, 3.889936e-002
2.965982e+003, 3.937833e-002
2.967910e+003, 3.968166e-002
2.969839e+003, 3.954833e-002
2.971767e+003, 3.980115e-002
2.973696e+003, 4.054544e-002
2.975624e+003, 4.078642e-002
2.977552e+003, 4.110396e-002
2.979481e+003, 4.134043e-002
2.981409e+003, 4.177816e-002
2.983338e+003, 4.217651e-002
2.985266e+003, 4.238843e-002
2.987195e+003, 4.259558e-002
2.989123e+003, 4.347607e-002
2.991052e+003, 4.417880e-002
2.992980e+003, 4.431276e-002
2.994909e+003, 4.456742e-002
2.996837e+003, 4.504304e-002
2.998766e+003, 4.549072e-002
3.000694e+003, 4.593627e-002
3.002623e+003, 4.628736e-002
3.004551e+003, 4.674068e-002
3.006479e+003, 4.701320e-002
3.008408e+003, 4.740164e-002
3.010336e+003, 4.812505e-002
3.012265e+003, 4.880570e-002
3.014193e+003, 4.963112e-002
3.016122e+003, 5.030481e-002
3.018050e+003, 5.061349e-002
3.019979e+003, 5.103516e-002
3.021907e+003, 5.165267e-002
3.023836e+003, 5.253907e-002
3.025764e+003, 5.355336e-002
3.027693e+003, 5.433769e-002
3.029621e+003, 5.508230e-002
3.031550e+003, 5.573177e-002
3.033478e+003, 5.639282e-002
3.035406e+003, 5.730535e-002
3.037335e+003, 5.816381e-002
3.039263e+003, 5.889371e-002
3.041192e+003, 5.978560e-002
3.043120e+003, 6.061266e-002
3.045049e+003, 6.170539e-002
3.046977e+003, 6.301841e-002
3.048906e+003, 6.410525e-002
3.050834e+003, 6.484333e-002
3.052763e+003, 6.580885e-002
3.054691e+003, 6.712872e-002
3.056620e+003, 6.816262e-002
3.058548e+003, 6.937733e-002
3.060477e+003, 7.094739e-002
3.062405e+003, 7.263738e-002
3.064333e+003, 7.408542e-002
3.066262e+003, 7.581060e-002
3.068190e+003, 7.749747e-002
3.070119e+003, 7.886031e-002
3.072047e+003, 8.024899e-002
3.073976e+003, 8.183572e-002
3.075904e+003, 8.331638e-002
3.077833e+003, 8.472700e-002
3.079761e+003, 8.613507e-002
3.081690e+003, 8.758947e-002
3.083618e+003, 8.913413e-002
3.085547e+003, 9.012444e-002
3.087475e+003, 9.137806e-002
3.089404e+003, 9.251665e-002
3.091332e+003, 9.331985e-002
3.093260e+003, 9.335897e-002
3.095189e+003, 9.375800e-002
3.097117e+003, 9.459510e-002
3.099046e+003, 9.418040e-002
3.100974e+003, 9.317534e-002
3.102903e+003, 9.227217e-002
3.104831e+003, 9.124236e-002
3.106760e+003, 9.056946e-002
3.108688e+003, 8.998895e-002
3.110617e+003, 8.900391e-002
3.112545e+003, 8.782917e-002
3.114474e+003, 8.654458e-002
3.116402e+003, 8.527988e-002
3.118331e+003, 8.418902e-002
3.120259e+003, 8.313538e-002
3.122188e+003, 8.214039e-002
3.124116e+003, 8.125581e-002
3.126044e+003, 8.017512e-002
3.127973e+003, 7.874230e-002
3.129901e+003, 7.744832e-002
3.131830e+003, 7.679190e-002
3.133758e+003, 7.623929e-002
3.135687e+003, 7.474185e-002
3.137615e+003, 7.401744e-002
3.139544e+003, 7.448088e-002
3.141472e+003, 7.452380e-002
3.143401e+003, 7.367977e-002
3.145329e+003, 7.308445e-002
3.147258e+003, 7.305115e-002
3.149186e+003, 7.267366e-002
3.151115e+003, 7.230911e-002
3.153043e+003, 7.220899e-002
3.154971e+003, 7.255534e-002
3.156900e+003, 7.328781e-002
3.158828e+003, 7.345019e-002
3.160757e+003, 7.367159e-002
3.162685e+003, 7.388850e-002
3.164614e+003, 7.397839e-002
3.166542e+003, 7.436053e-002
3.168471e+003, 7.500061e-002
3.170399e+003, 7.569300e-002
3.172328e+003, 7.602803e-002
3.174256e+003, 7.651531e-002
3.176185e+003, 7.765374e-002
3.178113e+003, 7.851769e-002
3.180042e+003, 7.923847e-002
3.181970e+003, 8.016843e-002
3.183898e+003, 8.099294e-002
3.185827e+003, 8.211409e-002
3.187755e+003, 8.284460e-002
3.189684e+003, 8.302916e-002
3.191612e+003, 8.313114e-002
3.193541e+003, 8.359263e-002
3.195469e+003, 8.454396e-002
3.197398e+003, 8.462121e-002
3.199326e+003, 8.439527e-002
3.201255e+003, 8.488971e-002
3.203183e+003, 8.520500e-002
3.205112e+003, 8.544905e-002
3.207040e+003, 8.553142e-002
3.208969e+003, 8.524975e-002
3.210897e+003, 8.517488e-002
3.212825e+003, 8.558798e-002
3.214754e+003, 8.580869e-002
3.216682e+003, 8.597101e-002
3.218611e+003, 8.638361e-002
3.220539e+003, 8.652052e-002
3.222468e+003, 8.671718e-002
3.224396e+003, 8.722618e-002
3.226325e+003, 8.795022e-002
3.228253e+003, 8.953029e-002
3.230182e+003, 9.071469e-002
3.232110e+003, 9.190444e-002
3.234039e+003, 9.373465e-002
3.235967e+003, 9.604077e-002
3.237896e+003, 9.806568e-002
3.239824e+003, 1.002579e-001
3.241752e+003, 1.030087e-001
3.243681e+003, 1.062931e-001
3.245609e+003, 1.097283e-001
3.247538e+003, 1.133465e-001
3.249466e+003, 1.173571e-001
3.251395e+003, 1.213878e-001
3.253323e+003, 1.250550e-001
3.255252e+003, 1.287542e-001
3.257180e+003, 1.326961e-001
3.259109e+003, 1.365363e-001
3.261037e+003, 1.399508e-001
3.262966e+003, 1.428420e-001
3.264894e+003, 1.448586e-001
3.266823e+003, 1.463537e-001
3.268751e+003, 1.465003e-001
3.270679e+003, 1.452012e-001
3.272608e+003, 1.429577e-001
3.274536e+003, 1.398798e-001
3.276465e+003, 1.364939e-001
3.278393e+003, 1.324190e-001
3.280322e+003, 1.275257e-001
3.282250e+003, 1.233093e-001
3.284179e+003, 1.194198e-001
3.286107e+003, 1.155988e-001
3.288036e+003, 1.118044e-001
3.289964e+003, 1.087687e-001
3.291893e+003, 1.058717e-001
3.293821e+003, 1.033211e-001
3.295750e+003, 1.016894e-001
3.297678e+003, 1.006455e-001
3.299606e+003, 9.974822e-002
3.301535e+003, 9.873389e-002
3.303463e+003, 9.785306e-002
3.305392e+003, 9.785696e-002
3.307320e+003, 9.830243e-002
3.309249e+003, 9.845041e-002
3.311177e+003, 9.868029e-002
3.313106e+003, 9.916344e-002
3.315034e+003, 9.999085e-002
3.316963e+003, 1.012534e-001
3.318891e+003, 1.026523e-001
3.320820e+003, 1.037917e-001
3.322748e+003, 1.050241e-001
3.324677e+003, 1.056805e-001
3.326605e+003, 1.063553e-001
3.328533e+003, 1.073435e-001
3.330462e+003, 1.072392e-001
3.332390e+003, 1.074520e-001
3.334319e+003, 1.081168e-001
3.336247e+003, 1.081678e-001
3.338176e+003, 1.076137e-001
3.340104e+003, 1.068935e-001
3.342033e+003, 1.060585e-001
3.343961e+003, 1.057548e-001
3.345890e+003, 1.054784e-001
3.347818e+003, 1.047687e-001
3.349747e+003, 1.034898e-001
3.351675e+003, 1.021136e-001
3.353604e+003, 1.010265e-001
3.355532e+003, 9.963224e-002
3.357460e+003, 9.823101e-002
3.359389e+003, 9.674475e-002
3.361317e+003, 9.460931e-002
3.363246e+003, 9.251416e-002
3.365174e+003, 9.111531e-002
3.367103e+003, 8.949798e-002
3.369031e+003, 8.766956e-002
3.370960e+003, 8.573247e-002
3.372888e+003, 8.377684e-002
3.374817e+003, 8.183137e-002
3.376745e+003, 7.882363e-002
3.378674e+003, 7.606057e-002
3.380602e+003, 7.430680e-002
3.382531e+003, 7.226111e-002
3.384459e+003, 7.015317e-002
3.386387e+003, 6.838724e-002
3.388316e+003, 6.681248e-002
3.390244e+003, 6.471615e-002
3.392173e+003, 6.278036e-002
3.394101e+003, 6.163387e-002
3.396030e+003, 6.070308e-002
3.397958e+003, 5.897343e-002
3.399887e+003, 5.661483e-002
3.401815e+003, 5.563438e-002
3.403744e+003, 5.564825e-002
3.405672e+003, 5.476233e-002
3.407601e+003, 5.399406e-002
3.409529e+003, 5.353662e-002
3.411458e+003, 5.277926e-002
3.413386e+003, 5.157778e-002
3.415314e+003, 5.100942e-002
3.417243e+003, 5.040113e-002
3.419171e+003, 4.935738e-002
3.421100e+003, 4.864626e-002
3.423028e+003, 4.822003e-002
3.424957e+003, 4.771150e-002
3.426885e+003, 4.726775e-002
3.428814e+003, 4.680543e-002
3.430742e+003, 4.589626e-002
3.432671e+003, 4.477051e-002
3.434599e+003, 4.453395e-002
3.436528e+003, 4.471021e-002
3.438456e+003, 4.380811e-002
3.440385e+003, 4.312307e-002
3.442313e+003, 4.246855e-002
3.444241e+003, 4.136323e-002
3.446170e+003, 4.061404e-002
3.448098e+003, 4.042139e-002
3.450027e+003, 4.017841e-002
3.451955e+003, 3.967724e-002
3.453884e+003, 3.910711e-002
3.455812e+003, 3.942211e-002
3.457741e+003, 4.008701e-002
3.459669e+003, 4.013543e-002
3.461598e+003, 4.011093e-002
3.463526e+003, 4.032508e-002
3.465455e+003, 4.082198e-002
3.467383e+003, 4.125085e-002
3.469312e+003, 4.170581e-002
3.471240e+003, 4.240279e-002
3.473168e+003, 4.329479e-002
3.475097e+003, 4.472066e-002
3.477025e+003, 4.611557e-002
3.478954e+003, 4.698529e-002
3.480882e+003, 4.877297e-002
3.482811e+003, 5.170802e-002
3.484739e+003, 5.500412e-002
3.486668e+003, 5.841993e-002
3.488596e+003, 6.376013e-002
3.490525e+003, 7.149683e-002
3.492453e+003, 8.132839e-002
3.494382e+003, 9.385028e-002
3.496310e+003, 1.104094e-001
3.498239e+003, 1.326397e-001
3.500167e+003, 1.591679e-001
3.502095e+003, 1.814739e-001
3.504024e+003, 1.829867e-001
3.505952e+003, 1.595223e-001
3.507881e+003, 1.257078e-001
3.509809e+003, 9.388717e-002
3.511738e+003, 6.946328e-002
3.513666e+003, 5.347498e-002
3.515595e+003, 4.283328e-002
3.517523e+003, 3.588498e-002
3.519452e+003, 3.116736e-002
3.521380e+003, 2.761364e-002
3.523309e+003, 2.494280e-002
3.525237e+003, 2.288373e-002
3.527166e+003, 2.167269e-002
3.529094e+003, 2.120551e-002
3.531022e+003, 2.083250e-002
3.532951e+003, 1.967414e-002
3.534879e+003, 1.856509e-002
3.536808e+003, 1.821019e-002
3.538736e+003, 1.794137e-002
3.540665e+003, 1.763005e-002
3.542593e+003, 1.781183e-002
3.544522e+003, 1.771476e-002
3.546450e+003, 1.736288e-002
3.548379e+003, 1.715220e-002
3.550307e+003, 1.738232e-002
3.552236e+003, 1.759237e-002
3.554164e+003, 1.734495e-002
3.556093e+003, 1.736236e-002
3.558021e+003, 1.789683e-002
3.559949e+003, 1.844146e-002
3.561878e+003, 1.863697e-002
3.563806e+003, 1.895294e-002
3.565735e+003, 1.906274e-002
3.567663e+003, 1.922532e-002
3.569592e+003, 1.963394e-002
3.571520e+003, 2.061310e-002
3.573449e+003, 2.161408e-002
3.575377e+003, 2.198331e-002
3.577306e+003, 2.215966e-002
3.579234e+003, 2.253979e-002
3.581163e+003, 2.341960e-002
3.583091e+003, 2.424474e-002
3.585020e+003, 2.637819e-002
3.586948e+003, 2.868191e-002
3.588876e+003, 3.031709e-002
3.590805e+003, 3.243214e-002
3.592733e+003, 3.713953e-002
3.594662e+003, 4.376532e-002
3.596590e+003, 5.153289e-002
3.598519e+003, 6.212271e-002
3.600447e+003, 7.816937e-002
3.602376e+003, 1.030446e-001
3.604304e+003, 1.390672e-001
3.606233e+003, 1.878837e-001
3.608161e+003, 2.256706e-001
3.610090e+003, 2.073534e-001
3.612018e+003, 1.411630e-001
3.613947e+003, 7.753577e-002
3.615875e+003, 4.199569e-002
3.617803e+003, 2.678264e-002
3.619732e+003, 1.897859e-002
3.621660e+003, 1.392536e-002
3.623589e+003, 1.034382e-002
3.625517e+003, 8.176317e-003
3.627446e+003, 7.835440e-003
3.629374e+003, 6.896690e-003
3.631303e+003, 5.869802e-003
3.633231e+003, 5.508709e-003
3.635160e+003, 4.849456e-003
3.637088e+003, 4.992781e-003
3.639017e+003, 4.924959e-003
3.640945e+003, 4.686553e-003
3.642874e+003, 4.582795e-003
3.644802e+003, 4.543460e-003
3.646730e+003, 4.438431e-003
3.648659e+003, 4.228806e-003
3.650587e+003, 3.768358e-003
3.652516e+003, 3.612339e-003
3.654444e+003, 3.496920e-003
3.656373e+003, 3.406417e-003
3.658301e+003, 3.609525e-003
3.660230e+003, 3.244192e-003
3.662158e+003, 2.871363e-003
3.664087e+003, 2.845920e-003
3.666015e+003, 2.850749e-003
3.667944e+003, 2.534178e-003
3.669872e+003, 2.858080e-003
3.671801e+003, 3.928568e-003
3.673729e+003, 4.372966e-003
3.675657e+003, 3.787389e-003
3.677586e+003, 2.715210e-003
3.679514e+003, 2.700072e-003
3.681443e+003, 3.456658e-003
3.683371e+003, 3.849203e-003
3.685300e+003, 3.375917e-003
3.687228e+003, 3.344798e-003
3.689157e+003, 3.471145e-003
3.691085e+003, 2.720779e-003
3.693014e+003, 2.173727e-003
3.694942e+003, 2.442522e-003
3.696871e+003, 3.124341e-003
3.698799e+003, 3.284303e-003
3.700728e+003, 2.254314e-003
3.702656e+003, 2.152198e-003
3.704584e+003, 2.045457e-003
3.706513e+003, 1.622132e-003
3.708441e+003, 2.478190e-003
3.710370e+003, 2.989589e-003
3.712298e+003, 2.346078e-003
3.714227e+003, 1.886731e-003
3.716155e+003, 1.864561e-003
3.718084e+003, 2.232041e-003
3.720012e+003, 2.661713e-003
3.721941e+003, 1.965123e-003
3.723869e+003, 2.232324e-003
3.725798e+003, 2.695776e-003
3.727726e+003, 2.760687e-003
3.729655e+003, 2.031727e-003
3.731583e+003, 2.122455e-003
3.733511e+003, 2.863711e-003
3.735440e+003, 3.177835e-003
3.737368e+003, 2.973466e-003
3.739297e+003, 2.792964e-003
3.741225e+003, 3.158455e-003
3.743154e+003, 2.911368e-003
3.745082e+003, 2.648800e-003
3.747011e+003, 3.066840e-003
3.748939e+003, 3.216585e-003
3.750868e+003, 2.614854e-003
3.752796e+003, 2.315279e-003
3.754725e+003, 2.364378e-003
3.756653e+003, 1.669118e-003
3.758582e+003, 1.369267e-003
3.760510e+003, 1.577784e-003
3.762438e+003, 1.876672e-003
3.764367e+003, 2.204646e-003
3.766295e+003, 2.397273e-003
3.768224e+003, 2.580763e-003
3.770152e+003, 2.761561e-003
3.772081e+003, 3.125397e-003
3.774009e+003, 3.590917e-003
3.775938e+003, 3.273510e-003
3.777866e+003, 2.657293e-003
3.779795e+003, 2.379878e-003
3.781723e+003, 1.751998e-003
3.783652e+003, 1.776921e-003
3.785580e+003, 2.099785e-003
3.787509e+003, 1.507939e-003
3.789437e+003, 1.834188e-003
3.791365e+003, 1.805527e-003
3.793294e+003, 2.346502e-003
3.795222e+003, 2.699536e-003
3.797151e+003, 2.669847e-003
3.799079e+003, 2.973030e-003
3.801008e+003, 3.290056e-003
3.802936e+003, 3.439416e-003
3.804865e+003, 2.633814e-003
3.806793e+003, 2.332424e-003
3.808722e+003, 2.707557e-003
3.810650e+003, 2.898964e-003
3.812579e+003, 2.054531e-003
3.814507e+003, 1.304641e-003
3.816436e+003, 1.298057e-003
3.818364e+003, 1.928103e-003
3.820292e+003, 2.595998e-003
3.822221e+003, 2.599311e-003
3.824149e+003, 2.682810e-003
3.826078e+003, 2.981289e-003
3.828006e+003, 2.993545e-003
3.829935e+003, 3.261130e-003
3.831863e+003, 2.594379e-003
3.833792e+003, 2.120263e-003
3.835720e+003, 2.762534e-003
3.837649e+003, 3.083473e-003
3.839577e+003, 2.907084e-003
3.841506e+003, 2.426090e-003
3.843434e+003, 1.741940e-003
3.845363e+003, 2.167933e-003
3.847291e+003, 2.219421e-003
3.849219e+003, 2.433677e-003
3.851148e+003, 3.181081e-003
3.853076e+003, 3.975507e-003
3.855005e+003, 3.677501e-003
3.856933e+003, 3.724539e-003
3.858862e+003, 3.128938e-003
3.860790e+003, 2.500179e-003
3.862719e+003, 2.515260e-003
3.864647e+003, 2.626133e-003
3.866576e+003, 1.890038e-003
3.868504e+003, 2.197669e-003
3.870433e+003, 2.586730e-003
3.872361e+003, 2.359138e-003
3.874290e+003, 2.161835e-003
3.876218e+003, 2.044083e-003
3.878146e+003, 2.487703e-003
3.880075e+003, 3.354506e-003
3.882003e+003, 3.560955e-003
3.883932e+003, 3.625141e-003
3.885860e+003, 3.064842e-003
3.887789e+003, 2.643251e-003
3.889717e+003, 3.115140e-003
3.891646e+003, 3.328280e-003
3.893574e+003, 2.575322e-003
3.895503e+003, 2.553696e-003
3.897431e+003, 2.750009e-003
3.899360e+003, 2.491122e-003
3.901288e+003, 2.744688e-003
3.903217e+003, 3.285799e-003
3.905145e+003, 2.688810e-003
3.907073e+003, 2.773390e-003
3.909002e+003, 3.961316e-003
3.910930e+003, 3.921326e-003
3.912859e+003, 3.336364e-003
3.914787e+003, 3.223910e-003
3.916716e+003, 3.551251e-003
3.918644e+003, 3.272250e-003
3.920573e+003, 2.943829e-003
3.922501e+003, 3.012579e-003
3.924430e+003, 3.230586e-003
3.926358e+003, 2.901252e-003
3.928287e+003, 2.673103e-003
3.930215e+003, 3.078159e-003
3.932144e+003, 3.638793e-003
3.934072e+003, 3.333769e-003
3.936000e+003, 2.767199e-003
3.937929e+003, 2.890123e-003
3.939857e+003, 3.394275e-003
3.941786e+003, 3.487175e-003
3.943714e+003, 3.596800e-003
3.945643e+003, 3.716080e-003
3.947571e+003, 3.817154e-003
3.949500e+003, 4.136450e-003
3.951428e+003, 3.669117e-003
3.953357e+003, 3.298921e-003
3.955285e+003, 3.613889e-003
3.957214e+003, 3.194709e-003
3.959142e+003, 3.398312e-003
3.961071e+003, 3.626205e-003
3.962999e+003, 3.024874e-003
3.964927e+003, 2.815553e-003
3.966856e+003, 2.860903e-003
3.968784e+003, 2.991551e-003
3.970713e+003, 3.043624e-003
3.972641e+003, 3.158807e-003
3.974570e+003, 3.214205e-003
3.976498e+003, 3.569193e-003
3.978427e+003, 3.742166e-003
3.980355e+003, 3.178379e-003
3.982284e+003, 2.629317e-003
3.984212e+003, 3.303348e-003
3.986141e+003, 3.005938e-003
3.988069e+003, 3.237248e-003
3.989998e+003, 3.344003e-003
3.991926e+003, 2.776546e-003
3.993854e+003, 3.270128e-003
3.995783e+003, 4.093711e-003
3.997711e+003, 4.443750e-003
3.999640e+003, 4.566984e-003
4.001568e+003, 0.000000e+000
##END=



