##NAMES=Sillimanite
##RRUFFID=R060080
##IDEAL CHEMISTRY=Al_2_OSiO_4_
##LOCALITY=Pein Pyit, Mogok, Burma
##OWNER=RRUFF
##SOURCE=Marcus Origlieri
##DESCRIPTION=Light tan colored water-worn pebble
##STATUS=The identification of this mineral has been confirmed by X-ray diffraction and chemical analysis
##URL=rruff.info/R060080
##MEASURED CHEMISTRY=(Al_1.99_Fe^3+^_0.01_)_Î£=2_Si_1.00_O_5_
3.991926e+002, 3.101154e-001
4.011211e+002, 3.216419e-001
4.030495e+002, 3.304142e-001
4.049780e+002, 3.393013e-001
4.069065e+002, 3.464668e-001
4.088349e+002, 3.552588e-001
4.107634e+002, 3.720713e-001
4.126919e+002, 3.749510e-001
4.146203e+002, 3.728018e-001
4.165488e+002, 3.775780e-001
4.184773e+002, 3.742967e-001
4.204057e+002, 3.762504e-001
4.223342e+002, 3.815138e-001
4.242627e+002, 3.802637e-001
4.261911e+002, 3.818223e-001
4.281196e+002, 3.813828e-001
4.300481e+002, 3.760704e-001
4.319765e+002, 3.657327e-001
4.339050e+002, 3.564357e-001
4.358335e+002, 3.504877e-001
4.377619e+002, 3.409206e-001
4.396904e+002, 3.286744e-001
4.416189e+002, 3.169082e-001
4.435473e+002, 3.071940e-001
4.454758e+002, 2.971863e-001
4.474043e+002, 2.874238e-001
4.493327e+002, 2.796195e-001
4.512612e+002, 2.705007e-001
4.531897e+002, 2.611908e-001
4.551181e+002, 2.533215e-001
4.570466e+002, 2.471284e-001
4.589751e+002, 2.404110e-001
4.609035e+002, 2.347060e-001
4.628320e+002, 2.305318e-001
4.647605e+002, 2.273841e-001
4.666889e+002, 2.256247e-001
4.686174e+002, 2.252094e-001
4.705459e+002, 2.268918e-001
4.724743e+002, 2.309673e-001
4.744028e+002, 2.370836e-001
4.763313e+002, 2.433914e-001
4.782597e+002, 2.508500e-001
4.801882e+002, 2.586296e-001
4.821167e+002, 2.656953e-001
4.840451e+002, 2.726877e-001
4.859736e+002, 2.770304e-001
4.879021e+002, 2.772328e-001
4.898305e+002, 2.719910e-001
4.917590e+002, 2.614206e-001
4.936875e+002, 2.495651e-001
4.956159e+002, 2.419437e-001
4.975444e+002, 2.404056e-001
4.994729e+002, 2.454424e-001
5.014013e+002, 2.559296e-001
5.033298e+002, 2.660251e-001
5.052583e+002, 2.692177e-001
5.071867e+002, 2.639087e-001
5.091152e+002, 2.520147e-001
5.110437e+002, 2.364758e-001
5.129721e+002, 2.208667e-001
5.149006e+002, 2.079500e-001
5.168290e+002, 1.999306e-001
5.187575e+002, 1.975638e-001
5.206860e+002, 1.991614e-001
5.226144e+002, 1.992505e-001
5.245429e+002, 1.959136e-001
5.264714e+002, 1.911018e-001
5.283998e+002, 1.855251e-001
5.303283e+002, 1.800281e-001
5.322568e+002, 1.760655e-001
5.341852e+002, 1.730090e-001
5.361137e+002, 1.715208e-001
5.380422e+002, 1.727898e-001
5.399706e+002, 1.774190e-001
5.418991e+002, 1.806847e-001
5.438276e+002, 1.736401e-001
5.457560e+002, 1.563250e-001
5.476845e+002, 1.377160e-001
5.496130e+002, 1.232654e-001
5.515414e+002, 1.148173e-001
5.534699e+002, 1.134368e-001
5.553984e+002, 1.188880e-001
5.573268e+002, 1.281139e-001
5.592553e+002, 1.377964e-001
5.611838e+002, 1.467161e-001
5.631122e+002, 1.544826e-001
5.650407e+002, 1.612975e-001
5.669692e+002, 1.667762e-001
5.688976e+002, 1.716709e-001
5.708261e+002, 1.763315e-001
5.727546e+002, 1.803147e-001
5.746830e+002, 1.836417e-001
5.766115e+002, 1.863072e-001
5.785400e+002, 1.881477e-001
5.804684e+002, 1.899831e-001
5.823969e+002, 1.913444e-001
5.843254e+002, 1.926622e-001
5.862538e+002, 1.935094e-001
5.881823e+002, 1.940527e-001
5.901108e+002, 1.947430e-001
5.920392e+002, 1.956348e-001
5.939677e+002, 1.961198e-001
5.958962e+002, 1.960194e-001
5.978246e+002, 1.952447e-001
5.997531e+002, 1.937311e-001
6.016816e+002, 1.912157e-001
6.036100e+002, 1.870252e-001
6.055385e+002, 1.814513e-001
6.074670e+002, 1.753943e-001
6.093954e+002, 1.696872e-001
6.113239e+002, 1.645782e-001
6.132524e+002, 1.597945e-001
6.151808e+002, 1.545841e-001
6.171093e+002, 1.492639e-001
6.190378e+002, 1.441803e-001
6.209662e+002, 1.401237e-001
6.228947e+002, 1.367313e-001
6.248232e+002, 1.342829e-001
6.267516e+002, 1.329804e-001
6.286801e+002, 1.326451e-001
6.306086e+002, 1.334965e-001
6.325370e+002, 1.335411e-001
6.344655e+002, 1.296059e-001
6.363940e+002, 1.211195e-001
6.383224e+002, 1.103418e-001
6.402509e+002, 9.929481e-002
6.421794e+002, 8.823044e-002
6.441078e+002, 7.703055e-002
6.460363e+002, 6.648968e-002
6.479648e+002, 5.745053e-002
6.498932e+002, 5.068762e-002
6.518217e+002, 4.654141e-002
6.537502e+002, 4.467173e-002
6.556786e+002, 4.424498e-002
6.576071e+002, 4.503707e-002
6.595356e+002, 4.728283e-002
6.614641e+002, 5.086755e-002
6.633925e+002, 5.577456e-002
6.653210e+002, 6.208953e-002
6.672495e+002, 6.979553e-002
6.691779e+002, 7.899604e-002
6.711064e+002, 8.958656e-002
6.730349e+002, 1.021395e-001
6.749633e+002, 1.165897e-001
6.768918e+002, 1.328276e-001
6.788203e+002, 1.509893e-001
6.807487e+002, 1.705041e-001
6.826772e+002, 1.907032e-001
6.846057e+002, 2.101525e-001
6.865341e+002, 2.248426e-001
6.884626e+002, 2.329125e-001
6.903911e+002, 2.350935e-001
6.923195e+002, 2.331427e-001
6.942480e+002, 2.284548e-001
6.961765e+002, 2.224086e-001
6.981049e+002, 2.157910e-001
7.000334e+002, 2.091337e-001
7.019619e+002, 2.024953e-001
7.038903e+002, 1.958473e-001
7.058188e+002, 1.896484e-001
7.077473e+002, 1.839468e-001
7.096757e+002, 1.786957e-001
7.116042e+002, 1.739255e-001
7.135327e+002, 1.693656e-001
7.154611e+002, 1.650572e-001
7.173896e+002, 1.613970e-001
7.193181e+002, 1.587891e-001
7.212465e+002, 1.572799e-001
7.231750e+002, 1.568815e-001
7.251035e+002, 1.576317e-001
7.270319e+002, 1.590407e-001
7.289604e+002, 1.609118e-001
7.308889e+002, 1.632417e-001
7.328173e+002, 1.655656e-001
7.347458e+002, 1.674944e-001
7.366743e+002, 1.689710e-001
7.386027e+002, 1.697648e-001
7.405312e+002, 1.698000e-001
7.424597e+002, 1.691154e-001
7.443881e+002, 1.674052e-001
7.463166e+002, 1.647555e-001
7.482451e+002, 1.613314e-001
7.501735e+002, 1.569872e-001
7.521020e+002, 1.516974e-001
7.540305e+002, 1.454965e-001
7.559589e+002, 1.384813e-001
7.578874e+002, 1.309385e-001
7.598159e+002, 1.228876e-001
7.617443e+002, 1.147072e-001
7.636728e+002, 1.071964e-001
7.656013e+002, 1.011055e-001
7.675297e+002, 9.676049e-002
7.694582e+002, 9.438087e-002
7.713867e+002, 9.396831e-002
7.733151e+002, 9.518661e-002
7.752436e+002, 9.776652e-002
7.771721e+002, 1.016276e-001
7.791005e+002, 1.064363e-001
7.810290e+002, 1.120083e-001
7.829575e+002, 1.184228e-001
7.848859e+002, 1.255119e-001
7.868144e+002, 1.336194e-001
7.887429e+002, 1.428873e-001
7.906713e+002, 1.531064e-001
7.925998e+002, 1.643966e-001
7.945283e+002, 1.769326e-001
7.964567e+002, 1.908981e-001
7.983852e+002, 2.065352e-001
8.003137e+002, 2.236860e-001
8.022421e+002, 2.420956e-001
8.041706e+002, 2.611915e-001
8.060991e+002, 2.794203e-001
8.080275e+002, 2.950278e-001
8.099560e+002, 3.059979e-001
8.118845e+002, 3.107881e-001
8.138129e+002, 3.086750e-001
8.157414e+002, 3.002531e-001
8.176699e+002, 2.871841e-001
8.195983e+002, 2.713298e-001
8.215268e+002, 2.540424e-001
8.234553e+002, 2.370326e-001
8.253837e+002, 2.211900e-001
8.273122e+002, 2.062812e-001
8.292407e+002, 1.926143e-001
8.311691e+002, 1.805121e-001
8.330976e+002, 1.699642e-001
8.350261e+002, 1.606064e-001
8.369545e+002, 1.517041e-001
8.388830e+002, 1.429383e-001
8.408115e+002, 1.342990e-001
8.427399e+002, 1.257698e-001
8.446684e+002, 1.172606e-001
8.465969e+002, 1.088960e-001
8.485253e+002, 1.010161e-001
8.504538e+002, 9.398238e-002
8.523823e+002, 8.840454e-002
8.543107e+002, 8.449404e-002
8.562392e+002, 8.228111e-002
8.581677e+002, 8.202900e-002
8.600961e+002, 8.376991e-002
8.620246e+002, 8.766249e-002
8.639531e+002, 9.415186e-002
8.658815e+002, 1.036107e-001
8.678100e+002, 1.160373e-001
8.697385e+002, 1.315853e-001
8.716669e+002, 1.509061e-001
8.735954e+002, 1.740041e-001
8.755239e+002, 1.991288e-001
8.774523e+002, 2.246888e-001
8.793808e+002, 2.493567e-001
8.813093e+002, 2.715416e-001
8.832377e+002, 2.888041e-001
8.851662e+002, 2.987691e-001
8.870947e+002, 3.017607e-001
8.890231e+002, 3.005057e-001
8.909516e+002, 2.976598e-001
8.928801e+002, 2.951184e-001
8.948085e+002, 2.934135e-001
8.967370e+002, 2.917084e-001
8.986655e+002, 2.892288e-001
9.005939e+002, 2.852030e-001
9.025224e+002, 2.794290e-001
9.044509e+002, 2.721233e-001
9.063793e+002, 2.635626e-001
9.083078e+002, 2.542913e-001
9.102363e+002, 2.446139e-001
9.121647e+002, 2.346121e-001
9.140932e+002, 2.244736e-001
9.160217e+002, 2.152355e-001
9.179501e+002, 2.072983e-001
9.198786e+002, 2.006627e-001
9.218071e+002, 1.951259e-001
9.237355e+002, 1.907717e-001
9.256640e+002, 1.869792e-001
9.275925e+002, 1.837779e-001
9.295209e+002, 1.810025e-001
9.314494e+002, 1.786340e-001
9.333779e+002, 1.768940e-001
9.353063e+002, 1.758287e-001
9.372348e+002, 1.754434e-001
9.391633e+002, 1.759674e-001
9.410917e+002, 1.776749e-001
9.430202e+002, 1.808678e-001
9.449487e+002, 1.854018e-001
9.468771e+002, 1.917997e-001
9.488056e+002, 1.993380e-001
9.507341e+002, 2.066354e-001
9.526625e+002, 2.122722e-001
9.545910e+002, 2.147164e-001
9.565195e+002, 2.121374e-001
9.584479e+002, 2.037250e-001
9.603764e+002, 1.905321e-001
9.623049e+002, 1.749540e-001
9.642333e+002, 1.595237e-001
9.661618e+002, 1.458076e-001
9.680903e+002, 1.343511e-001
9.700187e+002, 1.251657e-001
9.719472e+002, 1.176970e-001
9.738757e+002, 1.113075e-001
9.758041e+002, 1.058153e-001
9.777326e+002, 1.009522e-001
9.796611e+002, 9.663339e-002
9.815895e+002, 9.267563e-002
9.835180e+002, 8.898110e-002
9.854465e+002, 8.549199e-002
9.873749e+002, 8.205795e-002
9.893034e+002, 7.869268e-002
9.912319e+002, 7.517231e-002
9.931603e+002, 7.171342e-002
9.950888e+002, 6.835307e-002
9.970173e+002, 6.508639e-002
9.989457e+002, 6.191989e-002
1.000874e+003, 5.873431e-002
1.002803e+003, 5.551739e-002
1.004731e+003, 5.243925e-002
1.006660e+003, 4.959280e-002
1.008588e+003, 4.672408e-002
1.010517e+003, 4.372901e-002
1.012445e+003, 4.085578e-002
1.014373e+003, 3.814657e-002
1.016302e+003, 3.562789e-002
1.018230e+003, 3.327956e-002
1.020159e+003, 3.099356e-002
1.022087e+003, 2.892883e-002
1.024016e+003, 2.703380e-002
1.025944e+003, 2.525218e-002
1.027873e+003, 2.374549e-002
1.029801e+003, 2.250727e-002
1.031730e+003, 2.139326e-002
1.033658e+003, 2.045061e-002
1.035587e+003, 1.976022e-002
1.037515e+003, 1.931546e-002
1.039443e+003, 1.887188e-002
1.041372e+003, 1.842101e-002
1.043300e+003, 1.812605e-002
1.045229e+003, 1.779613e-002
1.047157e+003, 1.746081e-002
1.049086e+003, 1.721243e-002
1.051014e+003, 1.718342e-002
1.052943e+003, 1.721184e-002
1.054871e+003, 1.702123e-002
1.056800e+003, 1.679458e-002
1.058728e+003, 1.669840e-002
1.060657e+003, 1.684887e-002
1.062585e+003, 1.690701e-002
1.064514e+003, 1.688161e-002
1.066442e+003, 1.694202e-002
1.068370e+003, 1.705440e-002
1.070299e+003, 1.724588e-002
1.072227e+003, 1.732345e-002
1.074156e+003, 1.738014e-002
1.076084e+003, 1.742044e-002
1.078013e+003, 1.763203e-002
1.079941e+003, 1.789798e-002
1.081870e+003, 1.823932e-002
1.083798e+003, 1.863955e-002
1.085727e+003, 1.895164e-002
1.087655e+003, 1.926788e-002
1.089584e+003, 1.973606e-002
1.091512e+003, 2.024101e-002
1.093441e+003, 2.073768e-002
1.095369e+003, 2.148803e-002
1.097297e+003, 2.239216e-002
1.099226e+003, 2.334363e-002
1.101154e+003, 2.418760e-002
1.103083e+003, 2.482050e-002
1.105011e+003, 2.532287e-002
1.106940e+003, 2.610163e-002
1.108868e+003, 2.712529e-002
1.110797e+003, 2.832894e-002
1.112725e+003, 2.966036e-002
1.114654e+003, 3.098014e-002
1.116582e+003, 3.220014e-002
1.118511e+003, 3.319998e-002
1.120439e+003, 3.434706e-002
1.122368e+003, 3.599564e-002
1.124296e+003, 3.797309e-002
1.126224e+003, 4.018933e-002
1.128153e+003, 4.250399e-002
1.130081e+003, 4.521190e-002
1.132010e+003, 4.818869e-002
1.133938e+003, 5.134181e-002
1.135867e+003, 5.460467e-002
1.137795e+003, 5.814140e-002
1.139724e+003, 6.240579e-002
1.141652e+003, 6.728220e-002
1.143581e+003, 7.251863e-002
1.145509e+003, 7.822340e-002
1.147438e+003, 8.486409e-002
1.149366e+003, 9.261857e-002
1.151295e+003, 1.016153e-001
1.153223e+003, 1.118734e-001
1.155151e+003, 1.235757e-001
1.157080e+003, 1.370344e-001
1.159008e+003, 1.526085e-001
1.160937e+003, 1.703847e-001
1.162865e+003, 1.903204e-001
1.164794e+003, 2.118765e-001
1.166722e+003, 2.339691e-001
1.168651e+003, 2.551207e-001
1.170579e+003, 2.734066e-001
1.172508e+003, 2.862346e-001
1.174436e+003, 2.909436e-001
1.176365e+003, 2.854539e-001
1.178293e+003, 2.707600e-001
1.180222e+003, 2.508056e-001
1.182150e+003, 2.294107e-001
1.184078e+003, 2.087534e-001
1.186007e+003, 1.900886e-001
1.187935e+003, 1.735382e-001
1.189864e+003, 1.588653e-001
1.191792e+003, 1.459080e-001
1.193721e+003, 1.345278e-001
1.195649e+003, 1.246834e-001
1.197578e+003, 1.161376e-001
1.199506e+003, 1.085648e-001
1.201435e+003, 1.016090e-001
1.203363e+003, 9.535556e-002
1.205292e+003, 8.944917e-002
1.207220e+003, 8.351236e-002
1.209149e+003, 7.752608e-002
1.211077e+003, 7.131927e-002
1.213005e+003, 6.503394e-002
1.214934e+003, 5.876991e-002
1.216862e+003, 5.262674e-002
1.218791e+003, 4.658004e-002
1.220719e+003, 4.073446e-002
1.222648e+003, 3.525874e-002
1.224576e+003, 3.024031e-002
1.226505e+003, 2.585146e-002
1.228433e+003, 2.221817e-002
1.230362e+003, 1.918496e-002
1.232290e+003, 1.684283e-002
1.234219e+003, 1.518358e-002
1.236147e+003, 1.380574e-002
1.238076e+003, 1.261776e-002
1.240004e+003, 1.170869e-002
1.241932e+003, 1.102332e-002
1.243861e+003, 1.039319e-002
1.245789e+003, 9.770782e-003
1.247718e+003, 9.277003e-003
1.249646e+003, 8.869539e-003
1.251575e+003, 8.407318e-003
1.253503e+003, 8.076689e-003
1.255432e+003, 7.859658e-003
1.257360e+003, 7.430143e-003
1.259289e+003, 7.031961e-003
1.261217e+003, 6.764692e-003
1.263146e+003, 6.546523e-003
1.265074e+003, 6.411120e-003
1.267003e+003, 6.402969e-003
1.268931e+003, 6.351636e-003
1.270859e+003, 6.317968e-003
1.272788e+003, 6.366249e-003
1.274716e+003, 6.394908e-003
1.276645e+003, 6.270404e-003
1.278573e+003, 6.058062e-003
1.280502e+003, 5.875198e-003
1.282430e+003, 5.752913e-003
1.284359e+003, 5.662377e-003
1.286287e+003, 5.458702e-003
1.288216e+003, 5.242235e-003
1.290144e+003, 5.163229e-003
1.292073e+003, 5.175743e-003
1.294001e+003, 5.167717e-003
1.295930e+003, 5.069558e-003
1.297858e+003, 5.027767e-003
1.299786e+003, 4.992525e-003
1.301715e+003, 4.848958e-003
1.303643e+003, 4.768666e-003
1.305572e+003, 4.835838e-003
1.307500e+003, 4.833500e-003
1.309429e+003, 4.804267e-003
1.311357e+003, 4.786892e-003
1.313286e+003, 4.770280e-003
1.315214e+003, 4.798071e-003
1.317143e+003, 4.700635e-003
1.319071e+003, 4.604719e-003
1.321000e+003, 4.542005e-003
1.322928e+003, 4.471720e-003
1.324857e+003, 4.459569e-003
1.326785e+003, 4.440453e-003
1.328714e+003, 4.435727e-003
1.330642e+003, 4.430213e-003
1.332570e+003, 4.400684e-003
1.334499e+003, 4.299241e-003
1.336427e+003, 4.166641e-003
1.338356e+003, 4.068058e-003
1.340284e+003, 4.090019e-003
1.342213e+003, 4.160759e-003
1.344141e+003, 4.046222e-003
1.346070e+003, 4.011608e-003
1.347998e+003, 4.018839e-003
1.349927e+003, 4.011393e-003
1.351855e+003, 4.014463e-003
1.353784e+003, 3.977918e-003
1.355712e+003, 3.948310e-003
1.357641e+003, 3.928385e-003
1.359569e+003, 3.760031e-003
1.361497e+003, 3.556379e-003
1.363426e+003, 3.596641e-003
1.365354e+003, 3.730323e-003
1.367283e+003, 3.661376e-003
1.369211e+003, 3.746110e-003
1.371140e+003, 3.809955e-003
1.373068e+003, 3.680164e-003
1.374997e+003, 3.705871e-003
1.376925e+003, 3.871673e-003
1.378854e+003, 3.859070e-003
1.380782e+003, 3.924699e-003
1.382711e+003, 3.969241e-003
1.384639e+003, 3.930952e-003
1.386568e+003, 3.658704e-003
1.388496e+003, 3.753225e-003
1.390424e+003, 4.121576e-003
1.392353e+003, 4.165384e-003
1.394281e+003, 3.912664e-003
1.396210e+003, 4.081716e-003
1.398138e+003, 4.167764e-003
1.400067e+003, 4.255120e-003
1.401995e+003, 4.423095e-003
1.403924e+003, 4.361288e-003
1.405852e+003, 4.354330e-003
1.407781e+003, 4.476212e-003
1.409709e+003, 4.446397e-003
1.411638e+003, 4.406733e-003
1.413566e+003, 4.474744e-003
1.415495e+003, 4.444992e-003
1.417423e+003, 4.041847e-003
1.419351e+003, 3.716632e-003
1.421280e+003, 4.202419e-003
1.423208e+003, 4.548543e-003
1.425137e+003, 4.574829e-003
1.427065e+003, 4.637660e-003
1.428994e+003, 4.562884e-003
1.430922e+003, 4.516409e-003
1.432851e+003, 4.585003e-003
1.434779e+003, 4.270192e-003
1.436708e+003, 3.838185e-003
1.438636e+003, 4.223983e-003
1.440565e+003, 4.429972e-003
1.442493e+003, 4.535454e-003
1.444422e+003, 4.584810e-003
1.446350e+003, 4.388788e-003
1.448278e+003, 4.215915e-003
1.450207e+003, 4.421250e-003
1.452135e+003, 4.342195e-003
1.454064e+003, 3.958337e-003
1.455992e+003, 2.954970e-003
1.457921e+003, 3.131345e-003
1.459849e+003, 4.012492e-003
1.461778e+003, 4.203478e-003
1.463706e+003, 3.820579e-003
1.465635e+003, 3.756926e-003
1.467563e+003, 4.162358e-003
1.469492e+003, 4.187333e-003
1.471420e+003, 3.618271e-003
1.473349e+003, 3.510055e-003
1.475277e+003, 4.049534e-003
1.477205e+003, 4.386013e-003
1.479134e+003, 4.615808e-003
1.481062e+003, 4.735322e-003
1.482991e+003, 4.878222e-003
1.484919e+003, 4.767232e-003
1.486848e+003, 4.600533e-003
1.488776e+003, 4.384808e-003
1.490705e+003, 4.310428e-003
1.492633e+003, 4.705308e-003
1.494562e+003, 4.447169e-003
1.496490e+003, 3.977839e-003
1.498419e+003, 4.332033e-003
1.500347e+003, 4.690919e-003
1.502276e+003, 4.762480e-003
1.504204e+003, 3.925484e-003
1.506132e+003, 2.817064e-003
1.508061e+003, 3.492777e-003
1.509989e+003, 4.419279e-003
1.511918e+003, 4.542900e-003
1.513846e+003, 4.596476e-003
1.515775e+003, 4.284134e-003
1.517703e+003, 4.212906e-003
1.519632e+003, 3.868799e-003
1.521560e+003, 3.448120e-003
1.523489e+003, 4.121779e-003
1.525417e+003, 4.356716e-003
1.527346e+003, 4.661214e-003
1.529274e+003, 5.064372e-003
1.531203e+003, 4.951600e-003
1.533131e+003, 4.496213e-003
1.535059e+003, 4.717281e-003
1.536988e+003, 4.381612e-003
1.538916e+003, 2.991876e-003
1.540845e+003, 2.926754e-003
1.542773e+003, 3.902468e-003
1.544702e+003, 4.458370e-003
1.546630e+003, 4.996328e-003
1.548559e+003, 5.287343e-003
1.550487e+003, 5.350524e-003
1.552416e+003, 5.175839e-003
1.554344e+003, 4.755641e-003
1.556273e+003, 4.295215e-003
1.558201e+003, 2.822629e-003
1.560130e+003, 3.125343e-003
1.562058e+003, 4.981094e-003
1.563986e+003, 5.586015e-003
1.565915e+003, 5.638313e-003
1.567843e+003, 5.398113e-003
1.569772e+003, 5.175634e-003
1.571700e+003, 5.613724e-003
1.573629e+003, 5.455873e-003
1.575557e+003, 4.475590e-003
1.577486e+003, 4.961738e-003
1.579414e+003, 5.867568e-003
1.581343e+003, 6.013627e-003
1.583271e+003, 6.096853e-003
1.585200e+003, 6.083560e-003
1.587128e+003, 6.073242e-003
1.589057e+003, 6.042218e-003
1.590985e+003, 6.051891e-003
1.592913e+003, 6.014183e-003
1.594842e+003, 6.033137e-003
1.596770e+003, 6.071923e-003
1.598699e+003, 6.065737e-003
1.600627e+003, 6.010781e-003
1.602556e+003, 6.081495e-003
1.604484e+003, 6.140889e-003
1.606413e+003, 6.098548e-003
1.608341e+003, 5.985997e-003
1.610270e+003, 6.061791e-003
1.612198e+003, 6.179089e-003
1.614127e+003, 5.755877e-003
1.616055e+003, 4.720752e-003
1.617984e+003, 5.130375e-003
1.619912e+003, 5.871435e-003
1.621840e+003, 5.593234e-003
1.623769e+003, 5.499077e-003
1.625697e+003, 5.768951e-003
1.627626e+003, 5.772696e-003
1.629554e+003, 5.948418e-003
1.631483e+003, 6.077197e-003
1.633411e+003, 5.470317e-003
1.635340e+003, 4.729736e-003
1.637268e+003, 5.284976e-003
1.639197e+003, 5.946755e-003
1.641125e+003, 6.015771e-003
1.643054e+003, 5.921497e-003
1.644982e+003, 5.152022e-003
1.646911e+003, 4.983958e-003
1.648839e+003, 5.785419e-003
1.650767e+003, 4.894897e-003
1.652696e+003, 2.905935e-003
1.654624e+003, 4.217547e-003
1.656553e+003, 6.026713e-003
1.658481e+003, 6.332198e-003
1.660410e+003, 6.121749e-003
1.662338e+003, 5.861048e-003
1.664267e+003, 6.148371e-003
1.666195e+003, 6.394510e-003
1.668124e+003, 5.910144e-003
1.670052e+003, 5.657103e-003
1.671981e+003, 6.045747e-003
1.673909e+003, 5.913307e-003
1.675838e+003, 5.858432e-003
1.677766e+003, 6.384461e-003
1.679694e+003, 6.531558e-003
1.681623e+003, 6.288695e-003
1.683551e+003, 4.797467e-003
1.685480e+003, 4.952227e-003
1.687408e+003, 6.337794e-003
1.689337e+003, 6.600568e-003
1.691265e+003, 6.660013e-003
1.693194e+003, 6.454431e-003
1.695122e+003, 5.210007e-003
1.697051e+003, 5.300713e-003
1.698979e+003, 5.032302e-003
1.700908e+003, 4.739943e-003
1.702836e+003, 6.004290e-003
1.704765e+003, 6.161215e-003
1.706693e+003, 6.408572e-003
1.708621e+003, 6.659351e-003
1.710550e+003, 6.855269e-003
1.712478e+003, 6.753624e-003
1.714407e+003, 6.249852e-003
1.716335e+003, 5.301151e-003
1.718264e+003, 5.444448e-003
1.720192e+003, 6.550162e-003
1.722121e+003, 6.899912e-003
1.724049e+003, 6.888325e-003
1.725978e+003, 7.158343e-003
1.727906e+003, 7.144434e-003
1.729835e+003, 6.882807e-003
1.731763e+003, 5.944157e-003
1.733692e+003, 4.570202e-003
1.735620e+003, 5.195954e-003
1.737548e+003, 5.958734e-003
1.739477e+003, 5.517527e-003
1.741405e+003, 5.565668e-003
1.743334e+003, 5.603022e-003
1.745262e+003, 5.569898e-003
1.747191e+003, 5.357098e-003
1.749119e+003, 5.174280e-003
1.751048e+003, 5.040675e-003
1.752976e+003, 5.644838e-003
1.754905e+003, 6.086186e-003
1.756833e+003, 6.020410e-003
1.758762e+003, 6.129581e-003
1.760690e+003, 5.968538e-003
1.762619e+003, 6.094218e-003
1.764547e+003, 6.624279e-003
1.766475e+003, 6.469061e-003
1.768404e+003, 6.300704e-003
1.770332e+003, 6.158080e-003
1.772261e+003, 5.826744e-003
1.774189e+003, 6.393393e-003
1.776118e+003, 6.953474e-003
1.778046e+003, 7.130051e-003
1.779975e+003, 7.061716e-003
1.781903e+003, 7.081223e-003
1.783832e+003, 7.161125e-003
1.785760e+003, 7.374387e-003
1.787689e+003, 7.558180e-003
1.789617e+003, 7.220978e-003
1.791546e+003, 6.733538e-003
1.793474e+003, 6.859000e-003
1.795402e+003, 7.413364e-003
1.797331e+003, 7.586799e-003
1.799259e+003, 7.518793e-003
1.801188e+003, 7.401947e-003
1.803116e+003, 7.420547e-003
1.805045e+003, 7.421661e-003
1.806973e+003, 7.431463e-003
1.808902e+003, 7.342227e-003
1.810830e+003, 7.372585e-003
1.812759e+003, 7.457986e-003
1.814687e+003, 7.263814e-003
1.816616e+003, 6.831042e-003
1.818544e+003, 6.924605e-003
1.820473e+003, 7.028769e-003
1.822401e+003, 6.848899e-003
1.824329e+003, 6.590960e-003
1.826258e+003, 6.680975e-003
1.828186e+003, 6.688946e-003
1.830115e+003, 6.528891e-003
1.832043e+003, 6.797888e-003
1.833972e+003, 6.740387e-003
1.835900e+003, 6.446376e-003
1.837829e+003, 6.673871e-003
1.839757e+003, 7.063005e-003
1.841686e+003, 6.827389e-003
1.843614e+003, 6.064905e-003
1.845543e+003, 6.187649e-003
1.847471e+003, 6.627841e-003
1.849400e+003, 6.703839e-003
1.851328e+003, 6.826324e-003
1.853256e+003, 6.917416e-003
1.855185e+003, 6.884934e-003
1.857113e+003, 6.965016e-003
1.859042e+003, 6.743947e-003
1.860970e+003, 6.649598e-003
1.862899e+003, 6.693395e-003
1.864827e+003, 6.730666e-003
1.866756e+003, 6.544990e-003
1.868684e+003, 6.241402e-003
1.870613e+003, 6.352907e-003
1.872541e+003, 6.419489e-003
1.874470e+003, 6.085935e-003
1.876398e+003, 6.372116e-003
1.878327e+003, 6.737343e-003
1.880255e+003, 6.742754e-003
1.882183e+003, 6.577329e-003
1.884112e+003, 6.514404e-003
1.886040e+003, 6.104111e-003
1.887969e+003, 5.747414e-003
1.889897e+003, 5.884019e-003
1.891826e+003, 6.069473e-003
1.893754e+003, 5.809008e-003
1.895683e+003, 5.547580e-003
1.897611e+003, 5.586646e-003
1.899540e+003, 5.736687e-003
1.901468e+003, 5.810272e-003
1.903397e+003, 5.736778e-003
1.905325e+003, 5.678831e-003
1.907254e+003, 5.700614e-003
1.909182e+003, 5.948712e-003
1.911110e+003, 6.097470e-003
1.913039e+003, 5.832287e-003
1.914967e+003, 5.676266e-003
1.916896e+003, 5.237780e-003
1.918824e+003, 5.206837e-003
1.920753e+003, 5.624213e-003
1.922681e+003, 5.664879e-003
1.924610e+003, 5.795897e-003
1.926538e+003, 5.698866e-003
1.928467e+003, 5.725158e-003
1.930395e+003, 5.741702e-003
1.932324e+003, 5.948596e-003
1.934252e+003, 6.271381e-003
1.936181e+003, 6.004469e-003
1.938109e+003, 5.752878e-003
1.940037e+003, 5.498460e-003
1.941966e+003, 5.182616e-003
1.943894e+003, 5.645612e-003
1.945823e+003, 6.050996e-003
1.947751e+003, 5.395869e-003
1.949680e+003, 4.383507e-003
1.951608e+003, 4.385308e-003
1.953537e+003, 4.758181e-003
1.955465e+003, 4.481512e-003
1.957394e+003, 4.950083e-003
1.959322e+003, 5.740744e-003
1.961251e+003, 6.143546e-003
1.963179e+003, 5.639215e-003
1.965108e+003, 4.911435e-003
1.967036e+003, 5.200339e-003
1.968964e+003, 5.195329e-003
1.970893e+003, 4.925895e-003
1.972821e+003, 5.244901e-003
1.974750e+003, 4.953041e-003
1.976678e+003, 5.967803e-003
1.978607e+003, 8.012257e-003
1.980535e+003, 8.016887e-003
1.982464e+003, 7.124913e-003
1.984392e+003, 7.191248e-003
1.986321e+003, 7.761140e-003
1.988249e+003, 7.426601e-003
1.990178e+003, 6.788876e-003
1.992106e+003, 6.503118e-003
1.994035e+003, 6.745433e-003
1.995963e+003, 7.027403e-003
1.997891e+003, 6.934894e-003
1.999820e+003, 6.866515e-003
2.001748e+003, 6.053044e-003
2.003677e+003, 5.601848e-003
2.005605e+003, 6.112621e-003
2.007534e+003, 6.927396e-003
2.009462e+003, 7.154611e-003
2.011391e+003, 7.393529e-003
2.013319e+003, 7.893422e-003
2.015248e+003, 8.108804e-003
2.017176e+003, 6.986876e-003
2.019105e+003, 6.791404e-003
2.021033e+003, 7.942382e-003
2.022962e+003, 8.373479e-003
2.024890e+003, 7.584984e-003
2.026818e+003, 7.674378e-003
2.028747e+003, 8.089104e-003
2.030675e+003, 8.326410e-003
2.032604e+003, 8.634941e-003
2.034532e+003, 9.554583e-003
2.036461e+003, 1.039619e-002
2.038389e+003, 1.052146e-002
2.040318e+003, 1.005089e-002
2.042246e+003, 1.035336e-002
2.044175e+003, 9.959326e-003
2.046103e+003, 9.955559e-003
2.048031e+003, 1.079293e-002
2.049960e+003, 1.129254e-002
2.051888e+003, 1.049944e-002
2.053817e+003, 9.804342e-003
2.055745e+003, 1.032662e-002
2.057674e+003, 1.029472e-002
2.059602e+003, 9.917384e-003
2.061531e+003, 1.003518e-002
2.063459e+003, 1.062665e-002
2.065388e+003, 1.086417e-002
2.067316e+003, 1.045529e-002
2.069245e+003, 1.032640e-002
2.071173e+003, 1.049875e-002
2.073102e+003, 1.049644e-002
2.075030e+003, 1.060672e-002
2.076958e+003, 1.087029e-002
2.078887e+003, 1.023935e-002
2.080815e+003, 9.900395e-003
2.082744e+003, 1.004137e-002
2.084672e+003, 1.017542e-002
2.086601e+003, 1.039161e-002
2.088529e+003, 9.950669e-003
2.090458e+003, 9.915951e-003
2.092386e+003, 9.959022e-003
2.094315e+003, 9.877351e-003
2.096243e+003, 1.021174e-002
2.098172e+003, 1.037392e-002
2.100100e+003, 1.034869e-002
2.102029e+003, 1.036805e-002
2.103957e+003, 1.039710e-002
2.105885e+003, 1.027029e-002
2.107814e+003, 1.048560e-002
2.109742e+003, 1.105708e-002
2.111671e+003, 1.119743e-002
2.113599e+003, 1.084008e-002
2.115528e+003, 1.065161e-002
2.117456e+003, 1.016581e-002
2.119385e+003, 9.301989e-003
2.121313e+003, 8.772488e-003
2.123242e+003, 8.539863e-003
2.125170e+003, 8.496025e-003
2.127099e+003, 8.482962e-003
2.129027e+003, 8.437046e-003
2.130956e+003, 7.940345e-003
2.132884e+003, 7.040438e-003
2.134813e+003, 7.230069e-003
2.136741e+003, 8.185511e-003
2.138669e+003, 8.604275e-003
2.140598e+003, 8.864770e-003
2.142526e+003, 8.374491e-003
2.144455e+003, 8.389557e-003
2.146383e+003, 8.690223e-003
2.148312e+003, 8.543855e-003
2.150240e+003, 8.429876e-003
2.152169e+003, 7.728356e-003
2.154097e+003, 6.837138e-003
2.156026e+003, 6.255444e-003
2.157954e+003, 6.406811e-003
2.159883e+003, 9.941725e-003
2.161811e+003, 1.345036e-002
2.163740e+003, 1.369860e-002
2.165668e+003, 1.233656e-002
2.167596e+003, 1.177095e-002
2.169525e+003, 1.172378e-002
2.171453e+003, 1.105425e-002
2.173382e+003, 1.042717e-002
2.175310e+003, 1.081503e-002
2.177239e+003, 1.096648e-002
2.179167e+003, 1.088810e-002
2.181096e+003, 1.152336e-002
2.183024e+003, 1.187949e-002
2.184953e+003, 1.141081e-002
2.186881e+003, 1.076240e-002
2.188810e+003, 1.122611e-002
2.190738e+003, 1.163000e-002
2.192667e+003, 1.199288e-002
2.194595e+003, 1.209857e-002
2.196523e+003, 1.235461e-002
2.198452e+003, 1.241261e-002
2.200380e+003, 1.168229e-002
2.202309e+003, 1.131122e-002
2.204237e+003, 1.179948e-002
2.206166e+003, 1.195634e-002
2.208094e+003, 1.193731e-002
2.210023e+003, 1.201944e-002
2.211951e+003, 1.196937e-002
2.213880e+003, 1.167110e-002
2.215808e+003, 1.120078e-002
2.217737e+003, 1.107910e-002
2.219665e+003, 1.164383e-002
2.221594e+003, 1.166549e-002
2.223522e+003, 1.132557e-002
2.225450e+003, 1.149216e-002
2.227379e+003, 1.183243e-002
2.229307e+003, 1.165247e-002
2.231236e+003, 1.136038e-002
2.233164e+003, 1.177448e-002
2.235093e+003, 1.240989e-002
2.237021e+003, 1.226280e-002
2.238950e+003, 1.218735e-002
2.240878e+003, 1.221447e-002
2.242807e+003, 1.239897e-002
2.244735e+003, 1.209421e-002
2.246664e+003, 1.196592e-002
2.248592e+003, 1.218356e-002
2.250521e+003, 1.194721e-002
2.252449e+003, 1.199145e-002
2.254377e+003, 1.248564e-002
2.256306e+003, 1.249533e-002
2.258234e+003, 1.225997e-002
2.260163e+003, 1.250388e-002
2.262091e+003, 1.245799e-002
2.264020e+003, 1.213279e-002
2.265948e+003, 1.253299e-002
2.267877e+003, 1.275975e-002
2.269805e+003, 1.260110e-002
2.271734e+003, 1.268492e-002
2.273662e+003, 1.256086e-002
2.275591e+003, 1.279796e-002
2.277519e+003, 1.286453e-002
2.279448e+003, 1.278851e-002
2.281376e+003, 1.286419e-002
2.283304e+003, 1.314412e-002
2.285233e+003, 1.315445e-002
2.287161e+003, 1.305743e-002
2.289090e+003, 1.281041e-002
2.291018e+003, 1.251798e-002
2.292947e+003, 1.233304e-002
2.294875e+003, 1.199319e-002
2.296804e+003, 1.200958e-002
2.298732e+003, 1.221410e-002
2.300661e+003, 1.217126e-002
2.302589e+003, 1.208902e-002
2.304518e+003, 1.192078e-002
2.306446e+003, 1.186007e-002
2.308375e+003, 1.207535e-002
2.310303e+003, 1.211495e-002
2.312231e+003, 1.209133e-002
2.314160e+003, 1.221947e-002
2.316088e+003, 1.244236e-002
2.318017e+003, 1.265406e-002
2.319945e+003, 1.257484e-002
2.321874e+003, 1.279791e-002
2.323802e+003, 1.304929e-002
2.325731e+003, 1.226067e-002
2.327659e+003, 1.136551e-002
2.329588e+003, 1.105930e-002
2.331516e+003, 1.100363e-002
2.333445e+003, 1.093426e-002
2.335373e+003, 1.055736e-002
2.337302e+003, 1.033040e-002
2.339230e+003, 1.047620e-002
2.341158e+003, 1.056776e-002
2.343087e+003, 1.049010e-002
2.345015e+003, 1.013948e-002
2.346944e+003, 9.950456e-003
2.348872e+003, 9.804371e-003
2.350801e+003, 9.884775e-003
2.352729e+003, 9.977033e-003
2.354658e+003, 9.829385e-003
2.356586e+003, 1.011632e-002
2.358515e+003, 1.037150e-002
2.360443e+003, 1.023344e-002
2.362372e+003, 1.010440e-002
2.364300e+003, 9.824238e-003
2.366229e+003, 9.695715e-003
2.368157e+003, 9.782196e-003
2.370085e+003, 9.724203e-003
2.372014e+003, 9.987226e-003
2.373942e+003, 1.005793e-002
2.375871e+003, 9.972784e-003
2.377799e+003, 9.838570e-003
2.379728e+003, 9.890255e-003
2.381656e+003, 1.002488e-002
2.383585e+003, 9.975019e-003
2.385513e+003, 9.960664e-003
2.387442e+003, 1.053731e-002
2.389370e+003, 1.075378e-002
2.391299e+003, 1.054544e-002
2.393227e+003, 1.060073e-002
2.395156e+003, 1.059180e-002
2.397084e+003, 1.043713e-002
2.399012e+003, 1.075317e-002
2.400941e+003, 1.081253e-002
2.402869e+003, 1.031501e-002
2.404798e+003, 1.026881e-002
2.406726e+003, 1.065424e-002
2.408655e+003, 1.132065e-002
2.410583e+003, 1.147514e-002
2.412512e+003, 1.098717e-002
2.414440e+003, 1.117286e-002
2.416369e+003, 1.159221e-002
2.418297e+003, 1.167868e-002
2.420226e+003, 1.142457e-002
2.422154e+003, 1.132747e-002
2.424083e+003, 1.158439e-002
2.426011e+003, 1.202404e-002
2.427939e+003, 1.209438e-002
2.429868e+003, 1.184952e-002
2.431796e+003, 1.192542e-002
2.433725e+003, 1.183750e-002
2.435653e+003, 1.176682e-002
2.437582e+003, 1.229920e-002
2.439510e+003, 1.293004e-002
2.441439e+003, 1.294804e-002
2.443367e+003, 1.274644e-002
2.445296e+003, 1.265629e-002
2.447224e+003, 1.274268e-002
2.449153e+003, 1.267872e-002
2.451081e+003, 1.269857e-002
2.453010e+003, 1.315118e-002
2.454938e+003, 1.328381e-002
2.456866e+003, 1.288145e-002
2.458795e+003, 1.267126e-002
2.460723e+003, 1.295359e-002
2.462652e+003, 1.314670e-002
2.464580e+003, 1.303696e-002
2.466509e+003, 1.318863e-002
2.468437e+003, 1.318536e-002
2.470366e+003, 1.312788e-002
2.472294e+003, 1.304957e-002
2.474223e+003, 1.314888e-002
2.476151e+003, 1.317582e-002
2.478080e+003, 1.328292e-002
2.480008e+003, 1.362209e-002
2.481937e+003, 1.351151e-002
2.483865e+003, 1.326327e-002
2.485793e+003, 1.345578e-002
2.487722e+003, 1.352581e-002
2.489650e+003, 1.343573e-002
2.491579e+003, 1.331875e-002
2.493507e+003, 1.347754e-002
2.495436e+003, 1.367442e-002
2.497364e+003, 1.342231e-002
2.499293e+003, 1.337500e-002
2.501221e+003, 1.341259e-002
2.503150e+003, 1.316173e-002
2.505078e+003, 1.300587e-002
2.507007e+003, 1.269732e-002
2.508935e+003, 1.306367e-002
2.510864e+003, 1.364388e-002
2.512792e+003, 1.347328e-002
2.514720e+003, 1.341960e-002
2.516649e+003, 1.341360e-002
2.518577e+003, 1.329201e-002
2.520506e+003, 1.344565e-002
2.522434e+003, 1.343597e-002
2.524363e+003, 1.359257e-002
2.526291e+003, 1.386419e-002
2.528220e+003, 1.395469e-002
2.530148e+003, 1.373170e-002
2.532077e+003, 1.346814e-002
2.534005e+003, 1.358397e-002
2.535934e+003, 1.352004e-002
2.537862e+003, 1.328799e-002
2.539791e+003, 1.312988e-002
2.541719e+003, 1.343792e-002
2.543647e+003, 1.357789e-002
2.545576e+003, 1.346011e-002
2.547504e+003, 1.364984e-002
2.549433e+003, 1.386219e-002
2.551361e+003, 1.405528e-002
2.553290e+003, 1.418526e-002
2.555218e+003, 1.405260e-002
2.557147e+003, 1.391091e-002
2.559075e+003, 1.398245e-002
2.561004e+003, 1.399617e-002
2.562932e+003, 1.429844e-002
2.564861e+003, 1.439253e-002
2.566789e+003, 1.418920e-002
2.568718e+003, 1.421641e-002
2.570646e+003, 1.405775e-002
2.572574e+003, 1.393235e-002
2.574503e+003, 1.441735e-002
2.576431e+003, 1.467134e-002
2.578360e+003, 1.439542e-002
2.580288e+003, 1.420754e-002
2.582217e+003, 1.437145e-002
2.584145e+003, 1.474797e-002
2.586074e+003, 1.471574e-002
2.588002e+003, 1.478050e-002
2.589931e+003, 1.497221e-002
2.591859e+003, 1.494524e-002
2.593788e+003, 1.474362e-002
2.595716e+003, 1.442445e-002
2.597645e+003, 1.447205e-002
2.599573e+003, 1.489659e-002
2.601501e+003, 1.505849e-002
2.603430e+003, 1.518759e-002
2.605358e+003, 1.537008e-002
2.607287e+003, 1.517043e-002
2.609215e+003, 1.517236e-002
2.611144e+003, 1.541710e-002
2.613072e+003, 1.544507e-002
2.615001e+003, 1.522260e-002
2.616929e+003, 1.516229e-002
2.618858e+003, 1.530108e-002
2.620786e+003, 1.513228e-002
2.622715e+003, 1.495911e-002
2.624643e+003, 1.505752e-002
2.626572e+003, 1.531827e-002
2.628500e+003, 1.529906e-002
2.630428e+003, 1.518751e-002
2.632357e+003, 1.535997e-002
2.634285e+003, 1.542218e-002
2.636214e+003, 1.541169e-002
2.638142e+003, 1.534385e-002
2.640071e+003, 1.547972e-002
2.641999e+003, 1.539219e-002
2.643928e+003, 1.538371e-002
2.645856e+003, 1.549214e-002
2.647785e+003, 1.555670e-002
2.649713e+003, 1.553875e-002
2.651642e+003, 1.530127e-002
2.653570e+003, 1.532309e-002
2.655499e+003, 1.541617e-002
2.657427e+003, 1.533465e-002
2.659355e+003, 1.529426e-002
2.661284e+003, 1.518374e-002
2.663212e+003, 1.477969e-002
2.665141e+003, 1.448418e-002
2.667069e+003, 1.460983e-002
2.668998e+003, 1.485757e-002
2.670926e+003, 1.482582e-002
2.672855e+003, 1.497135e-002
2.674783e+003, 1.503063e-002
2.676712e+003, 1.484158e-002
2.678640e+003, 1.487601e-002
2.680569e+003, 1.486801e-002
2.682497e+003, 1.505543e-002
2.684426e+003, 1.500616e-002
2.686354e+003, 1.470853e-002
2.688282e+003, 1.468527e-002
2.690211e+003, 1.488718e-002
2.692139e+003, 1.494881e-002
2.694068e+003, 1.487697e-002
2.695996e+003, 1.497783e-002
2.697925e+003, 1.513749e-002
2.699853e+003, 1.523450e-002
2.701782e+003, 1.523014e-002
2.703710e+003, 1.511714e-002
2.705639e+003, 1.502939e-002
2.707567e+003, 1.506255e-002
2.709496e+003, 1.497371e-002
2.711424e+003, 1.500994e-002
2.713353e+003, 1.523799e-002
2.715281e+003, 1.530132e-002
2.717209e+003, 1.512540e-002
2.719138e+003, 1.497499e-002
2.721066e+003, 1.504140e-002
2.722995e+003, 1.502081e-002
2.724923e+003, 1.514173e-002
2.726852e+003, 1.527335e-002
2.728780e+003, 1.537849e-002
2.730709e+003, 1.524362e-002
2.732637e+003, 1.511499e-002
2.734566e+003, 1.506105e-002
2.736494e+003, 1.507131e-002
2.738423e+003, 1.510601e-002
2.740351e+003, 1.501945e-002
2.742280e+003, 1.516566e-002
2.744208e+003, 1.544627e-002
2.746136e+003, 1.568806e-002
2.748065e+003, 1.562646e-002
2.749993e+003, 1.539309e-002
2.751922e+003, 1.542882e-002
2.753850e+003, 1.560325e-002
2.755779e+003, 1.560631e-002
2.757707e+003, 1.539915e-002
2.759636e+003, 1.530600e-002
2.761564e+003, 1.533236e-002
2.763493e+003, 1.526201e-002
2.765421e+003, 1.536287e-002
2.767350e+003, 1.558006e-002
2.769278e+003, 1.564223e-002
2.771207e+003, 1.537213e-002
2.773135e+003, 1.533993e-002
2.775063e+003, 1.531334e-002
2.776992e+003, 1.536984e-002
2.778920e+003, 1.550362e-002
2.780849e+003, 1.553257e-002
2.782777e+003, 1.539280e-002
2.784706e+003, 1.533254e-002
2.786634e+003, 1.544452e-002
2.788563e+003, 1.555629e-002
2.790491e+003, 1.565555e-002
2.792420e+003, 1.564406e-002
2.794348e+003, 1.547734e-002
2.796277e+003, 1.550679e-002
2.798205e+003, 1.565084e-002
2.800134e+003, 1.556276e-002
2.802062e+003, 1.552326e-002
2.803990e+003, 1.551616e-002
2.805919e+003, 1.543484e-002
2.807847e+003, 1.556209e-002
2.809776e+003, 1.557985e-002
2.811704e+003, 1.550374e-002
2.813633e+003, 1.568878e-002
2.815561e+003, 1.584695e-002
2.817490e+003, 1.576806e-002
2.819418e+003, 1.560068e-002
2.821347e+003, 1.545523e-002
2.823275e+003, 1.544391e-002
2.825204e+003, 1.554167e-002
2.827132e+003, 1.551955e-002
2.829061e+003, 1.561700e-002
2.830989e+003, 1.578441e-002
2.832917e+003, 1.578433e-002
2.834846e+003, 1.571544e-002
2.836774e+003, 1.558572e-002
2.838703e+003, 1.553678e-002
2.840631e+003, 1.529249e-002
2.842560e+003, 1.490385e-002
2.844488e+003, 1.440114e-002
2.846417e+003, 1.349178e-002
2.848345e+003, 1.257490e-002
2.850274e+003, 1.220090e-002
2.852202e+003, 1.258754e-002
2.854131e+003, 1.309752e-002
2.856059e+003, 1.357480e-002
2.857988e+003, 1.367779e-002
2.859916e+003, 1.386275e-002
2.861844e+003, 1.443682e-002
2.863773e+003, 1.502276e-002
2.865701e+003, 1.511159e-002
2.867630e+003, 1.472442e-002
2.869558e+003, 1.451969e-002
2.871487e+003, 1.457585e-002
2.873415e+003, 1.490857e-002
2.875344e+003, 1.514941e-002
2.877272e+003, 1.512686e-002
2.879201e+003, 1.511363e-002
2.881129e+003, 1.527266e-002
2.883058e+003, 1.509849e-002
2.884986e+003, 1.495922e-002
2.886915e+003, 1.497696e-002
2.888843e+003, 1.502872e-002
2.890771e+003, 1.494967e-002
2.892700e+003, 1.472144e-002
2.894628e+003, 1.438429e-002
2.896557e+003, 1.413722e-002
2.898485e+003, 1.421190e-002
2.900414e+003, 1.455020e-002
2.902342e+003, 1.464442e-002
2.904271e+003, 1.434538e-002
2.906199e+003, 1.414153e-002
2.908128e+003, 1.379033e-002
2.910056e+003, 1.323324e-002
2.911985e+003, 1.237785e-002
2.913913e+003, 1.160649e-002
2.915842e+003, 1.111593e-002
2.917770e+003, 1.065552e-002
2.919698e+003, 1.063651e-002
2.921627e+003, 1.113222e-002
2.923555e+003, 1.149054e-002
2.925484e+003, 1.188885e-002
2.927412e+003, 1.237438e-002
2.929341e+003, 1.290219e-002
2.931269e+003, 1.333706e-002
2.933198e+003, 1.344651e-002
2.935126e+003, 1.334979e-002
2.937055e+003, 1.353628e-002
2.938983e+003, 1.408049e-002
2.940912e+003, 1.443077e-002
2.942840e+003, 1.438707e-002
2.944769e+003, 1.416907e-002
2.946697e+003, 1.422920e-002
2.948625e+003, 1.443324e-002
2.950554e+003, 1.442765e-002
2.952482e+003, 1.459005e-002
2.954411e+003, 1.505699e-002
2.956339e+003, 1.530184e-002
2.958268e+003, 1.499930e-002
2.960196e+003, 1.484455e-002
2.962125e+003, 1.512481e-002
2.964053e+003, 1.546362e-002
2.965982e+003, 1.556161e-002
2.967910e+003, 1.549121e-002
2.969839e+003, 1.562487e-002
2.971767e+003, 1.568077e-002
2.973696e+003, 1.582460e-002
2.975624e+003, 1.591181e-002
2.977552e+003, 1.607105e-002
2.979481e+003, 1.582660e-002
2.981409e+003, 1.597825e-002
2.983338e+003, 1.635292e-002
2.985266e+003, 1.656545e-002
2.987195e+003, 1.659620e-002
2.989123e+003, 1.642435e-002
2.991052e+003, 1.640725e-002
2.992980e+003, 1.635546e-002
2.994909e+003, 1.622733e-002
2.996837e+003, 1.603681e-002
2.998766e+003, 1.603465e-002
3.000694e+003, 1.631123e-002
3.002623e+003, 1.613616e-002
3.004551e+003, 1.607990e-002
3.006479e+003, 1.641622e-002
3.008408e+003, 1.679312e-002
3.010336e+003, 1.674275e-002
3.012265e+003, 1.683315e-002
3.014193e+003, 1.708290e-002
3.016122e+003, 1.695816e-002
3.018050e+003, 1.680895e-002
3.019979e+003, 1.658852e-002
3.021907e+003, 1.649934e-002
3.023836e+003, 1.640466e-002
3.025764e+003, 1.631391e-002
3.027693e+003, 1.602704e-002
3.029621e+003, 1.617312e-002
3.031550e+003, 1.631531e-002
3.033478e+003, 1.640842e-002
3.035406e+003, 1.657386e-002
3.037335e+003, 1.671872e-002
3.039263e+003, 1.674881e-002
3.041192e+003, 1.670015e-002
3.043120e+003, 1.668807e-002
3.045049e+003, 1.683853e-002
3.046977e+003, 1.721347e-002
3.048906e+003, 1.716398e-002
3.050834e+003, 1.666874e-002
3.052763e+003, 1.678653e-002
3.054691e+003, 1.697274e-002
3.056620e+003, 1.693329e-002
3.058548e+003, 1.701675e-002
3.060477e+003, 1.724710e-002
3.062405e+003, 1.725313e-002
3.064333e+003, 1.708473e-002
3.066262e+003, 1.709856e-002
3.068190e+003, 1.750243e-002
3.070119e+003, 1.743490e-002
3.072047e+003, 1.734118e-002
3.073976e+003, 1.743936e-002
3.075904e+003, 1.790812e-002
3.077833e+003, 1.796710e-002
3.079761e+003, 1.724516e-002
3.081690e+003, 1.712771e-002
3.083618e+003, 1.732513e-002
3.085547e+003, 1.740391e-002
3.087475e+003, 1.760436e-002
3.089404e+003, 1.767479e-002
3.091332e+003, 1.763839e-002
3.093260e+003, 1.784807e-002
3.095189e+003, 1.799005e-002
3.097117e+003, 1.783403e-002
3.099046e+003, 1.783098e-002
3.100974e+003, 1.793110e-002
3.102903e+003, 1.775660e-002
3.104831e+003, 1.757845e-002
3.106760e+003, 1.766477e-002
3.108688e+003, 1.767303e-002
3.110617e+003, 1.794497e-002
3.112545e+003, 1.786194e-002
3.114474e+003, 1.765197e-002
3.116402e+003, 1.804951e-002
3.118331e+003, 1.804602e-002
3.120259e+003, 1.802365e-002
3.122188e+003, 1.805586e-002
3.124116e+003, 1.784684e-002
3.126044e+003, 1.799913e-002
3.127973e+003, 1.797652e-002
3.129901e+003, 1.772281e-002
3.131830e+003, 1.764910e-002
3.133758e+003, 1.750966e-002
3.135687e+003, 1.745297e-002
3.137615e+003, 1.812454e-002
3.139544e+003, 1.852620e-002
3.141472e+003, 1.831022e-002
3.143401e+003, 1.823839e-002
3.145329e+003, 1.849168e-002
3.147258e+003, 1.838009e-002
3.149186e+003, 1.778391e-002
3.151115e+003, 1.845595e-002
3.153043e+003, 1.893462e-002
3.154971e+003, 1.862773e-002
3.156900e+003, 1.874028e-002
3.158828e+003, 1.884033e-002
3.160757e+003, 1.873249e-002
3.162685e+003, 1.840019e-002
3.164614e+003, 1.838814e-002
3.166542e+003, 1.850547e-002
3.168471e+003, 1.823852e-002
3.170399e+003, 1.829528e-002
3.172328e+003, 1.844681e-002
3.174256e+003, 1.864500e-002
3.176185e+003, 1.871020e-002
3.178113e+003, 1.879799e-002
3.180042e+003, 1.876763e-002
3.181970e+003, 1.905232e-002
3.183898e+003, 1.942833e-002
3.185827e+003, 1.961835e-002
3.187755e+003, 1.967693e-002
3.189684e+003, 1.925678e-002
3.191612e+003, 1.857953e-002
3.193541e+003, 1.819541e-002
3.195469e+003, 1.798842e-002
3.197398e+003, 1.840009e-002
3.199326e+003, 1.927555e-002
3.201255e+003, 1.919833e-002
3.203183e+003, 1.869777e-002
3.205112e+003, 1.851346e-002
3.207040e+003, 1.836965e-002
3.208969e+003, 1.864608e-002
3.210897e+003, 1.895556e-002
3.212825e+003, 1.867885e-002
3.214754e+003, 1.818817e-002
3.216682e+003, 1.836073e-002
3.218611e+003, 1.873302e-002
3.220539e+003, 1.856419e-002
3.222468e+003, 1.839592e-002
3.224396e+003, 1.855405e-002
3.226325e+003, 1.874487e-002
3.228253e+003, 1.906854e-002
3.230182e+003, 1.915805e-002
3.232110e+003, 1.915961e-002
3.234039e+003, 1.934529e-002
3.235967e+003, 1.906345e-002
3.237896e+003, 1.894693e-002
3.239824e+003, 1.865632e-002
3.241752e+003, 1.861507e-002
3.243681e+003, 1.893895e-002
3.245609e+003, 1.919787e-002
3.247538e+003, 1.931280e-002
3.249466e+003, 1.945264e-002
3.251395e+003, 1.898072e-002
3.253323e+003, 1.894500e-002
3.255252e+003, 1.923632e-002
3.257180e+003, 1.933634e-002
3.259109e+003, 1.943066e-002
3.261037e+003, 1.906625e-002
3.262966e+003, 1.907511e-002
3.264894e+003, 1.906676e-002
3.266823e+003, 1.943166e-002
3.268751e+003, 1.993501e-002
3.270679e+003, 2.011196e-002
3.272608e+003, 1.943254e-002
3.274536e+003, 1.889469e-002
3.276465e+003, 1.899559e-002
3.278393e+003, 1.941293e-002
3.280322e+003, 1.954688e-002
3.282250e+003, 1.916040e-002
3.284179e+003, 1.876011e-002
3.286107e+003, 1.902832e-002
3.288036e+003, 1.929035e-002
3.289964e+003, 1.908225e-002
3.291893e+003, 1.915932e-002
3.293821e+003, 1.999405e-002
3.295750e+003, 1.987918e-002
3.297678e+003, 1.946842e-002
3.299606e+003, 1.949821e-002
3.301535e+003, 1.940049e-002
3.303463e+003, 1.965515e-002
3.305392e+003, 1.979265e-002
3.307320e+003, 1.944226e-002
3.309249e+003, 1.938413e-002
3.311177e+003, 1.979793e-002
3.313106e+003, 1.982649e-002
3.315034e+003, 1.932128e-002
3.316963e+003, 1.869039e-002
3.318891e+003, 1.894637e-002
3.320820e+003, 1.917725e-002
3.322748e+003, 1.947727e-002
3.324677e+003, 1.994063e-002
3.326605e+003, 1.985732e-002
3.328533e+003, 1.945886e-002
3.330462e+003, 1.889815e-002
3.332390e+003, 1.897476e-002
3.334319e+003, 1.920695e-002
3.336247e+003, 1.943640e-002
3.338176e+003, 1.945324e-002
3.340104e+003, 1.931104e-002
3.342033e+003, 1.929459e-002
3.343961e+003, 1.924588e-002
3.345890e+003, 1.946842e-002
3.347818e+003, 1.942545e-002
3.349747e+003, 1.931730e-002
3.351675e+003, 1.897239e-002
3.353604e+003, 1.886353e-002
3.355532e+003, 1.937714e-002
3.357460e+003, 1.939110e-002
3.359389e+003, 1.982304e-002
3.361317e+003, 1.984526e-002
3.363246e+003, 1.948019e-002
3.365174e+003, 1.904960e-002
3.367103e+003, 1.884860e-002
3.369031e+003, 1.940170e-002
3.370960e+003, 1.957082e-002
3.372888e+003, 1.934215e-002
3.374817e+003, 1.924920e-002
3.376745e+003, 1.950463e-002
3.378674e+003, 1.952280e-002
3.380602e+003, 1.942157e-002
3.382531e+003, 1.970218e-002
3.384459e+003, 1.908049e-002
3.386387e+003, 1.888677e-002
3.388316e+003, 1.918185e-002
3.390244e+003, 1.977159e-002
3.392173e+003, 1.979741e-002
3.394101e+003, 1.966335e-002
3.396030e+003, 1.961648e-002
3.397958e+003, 1.971228e-002
3.399887e+003, 2.008976e-002
3.401815e+003, 1.995514e-002
3.403744e+003, 1.978470e-002
3.405672e+003, 1.993933e-002
3.407601e+003, 1.984797e-002
3.409529e+003, 1.960035e-002
3.411458e+003, 1.938638e-002
3.413386e+003, 1.955158e-002
3.415314e+003, 1.941208e-002
3.417243e+003, 1.933953e-002
3.419171e+003, 1.972983e-002
3.421100e+003, 2.000587e-002
3.423028e+003, 2.000324e-002
3.424957e+003, 1.975988e-002
3.426885e+003, 1.971083e-002
3.428814e+003, 1.964099e-002
3.430742e+003, 1.968452e-002
3.432671e+003, 1.978260e-002
3.434599e+003, 1.942542e-002
3.436528e+003, 1.919432e-002
3.438456e+003, 1.924329e-002
3.440385e+003, 1.904625e-002
3.442313e+003, 1.888839e-002
3.444241e+003, 1.905385e-002
3.446170e+003, 1.933100e-002
3.448098e+003, 1.934575e-002
3.450027e+003, 1.942582e-002
3.451955e+003, 1.964004e-002
3.453884e+003, 1.948661e-002
3.455812e+003, 1.962892e-002
3.457741e+003, 1.993323e-002
3.459669e+003, 1.978138e-002
3.461598e+003, 1.997476e-002
3.463526e+003, 2.022734e-002
3.465455e+003, 1.971161e-002
3.467383e+003, 1.934397e-002
3.469312e+003, 1.942529e-002
3.471240e+003, 1.925481e-002
3.473168e+003, 1.922588e-002
3.475097e+003, 1.943447e-002
3.477025e+003, 1.973237e-002
3.478954e+003, 1.968259e-002
3.480882e+003, 1.986270e-002
3.482811e+003, 1.994270e-002
3.484739e+003, 1.953355e-002
3.486668e+003, 1.881533e-002
3.488596e+003, 1.903267e-002
3.490525e+003, 1.968537e-002
3.492453e+003, 1.943554e-002
3.494382e+003, 1.894816e-002
3.496310e+003, 1.909693e-002
3.498239e+003, 1.983279e-002
3.500167e+003, 1.985442e-002
3.502095e+003, 1.955925e-002
3.504024e+003, 1.949923e-002
3.505952e+003, 1.920994e-002
3.507881e+003, 1.900218e-002
3.509809e+003, 1.961953e-002
3.511738e+003, 1.953579e-002
3.513666e+003, 1.942624e-002
3.515595e+003, 1.956279e-002
3.517523e+003, 1.914599e-002
3.519452e+003, 1.903168e-002
3.521380e+003, 1.954570e-002
3.523309e+003, 1.934879e-002
3.525237e+003, 1.918420e-002
3.527166e+003, 1.928593e-002
3.529094e+003, 1.942023e-002
3.531022e+003, 1.945620e-002
3.532951e+003, 1.959831e-002
3.534879e+003, 1.906174e-002
3.536808e+003, 1.896334e-002
3.538736e+003, 1.928437e-002
3.540665e+003, 1.943198e-002
3.542593e+003, 1.951306e-002
3.544522e+003, 1.941283e-002
3.546450e+003, 1.937996e-002
3.548379e+003, 1.928037e-002
3.550307e+003, 1.939198e-002
3.552236e+003, 1.971077e-002
3.554164e+003, 1.968103e-002
3.556093e+003, 1.992671e-002
3.558021e+003, 1.961021e-002
3.559949e+003, 1.974497e-002
3.561878e+003, 1.972291e-002
3.563806e+003, 1.881929e-002
3.565735e+003, 1.837294e-002
3.567663e+003, 1.858254e-002
3.569592e+003, 1.930713e-002
3.571520e+003, 1.985050e-002
3.573449e+003, 2.028666e-002
3.575377e+003, 2.061859e-002
3.577306e+003, 1.973607e-002
3.579234e+003, 1.886139e-002
3.581163e+003, 1.869524e-002
3.583091e+003, 1.929215e-002
3.585020e+003, 1.907464e-002
3.586948e+003, 1.787837e-002
3.588876e+003, 1.842010e-002
3.590805e+003, 1.940705e-002
3.592733e+003, 1.884818e-002
3.594662e+003, 1.897475e-002
3.596590e+003, 1.972817e-002
3.598519e+003, 1.986627e-002
3.600447e+003, 1.951581e-002
3.602376e+003, 1.946523e-002
3.604304e+003, 1.941495e-002
3.606233e+003, 1.920178e-002
3.608161e+003, 1.802449e-002
3.610090e+003, 1.741376e-002
3.612018e+003, 1.791168e-002
3.613947e+003, 1.819367e-002
3.615875e+003, 1.880552e-002
3.617803e+003, 1.840798e-002
3.619732e+003, 1.807514e-002
3.621660e+003, 1.911836e-002
3.623589e+003, 1.951677e-002
3.625517e+003, 1.939860e-002
3.627446e+003, 1.795767e-002
3.629374e+003, 1.759178e-002
3.631303e+003, 1.893398e-002
3.633231e+003, 1.930959e-002
3.635160e+003, 1.932069e-002
3.637088e+003, 1.942293e-002
3.639017e+003, 1.998348e-002
3.640945e+003, 2.030540e-002
3.642874e+003, 2.059910e-002
3.644802e+003, 2.032887e-002
3.646730e+003, 1.841751e-002
3.648659e+003, 1.659478e-002
3.650587e+003, 1.661749e-002
3.652516e+003, 1.814287e-002
3.654444e+003, 1.843454e-002
3.656373e+003, 1.785631e-002
3.658301e+003, 1.846516e-002
3.660230e+003, 1.899251e-002
3.662158e+003, 1.918046e-002
3.664087e+003, 1.981934e-002
3.666015e+003, 1.977098e-002
3.667944e+003, 1.894570e-002
3.669872e+003, 1.751500e-002
3.671801e+003, 1.796561e-002
3.673729e+003, 1.807981e-002
3.675657e+003, 1.679462e-002
3.677586e+003, 1.826826e-002
3.679514e+003, 1.904260e-002
3.681443e+003, 1.945741e-002
3.683371e+003, 2.027798e-002
3.685300e+003, 1.994261e-002
3.687228e+003, 1.699775e-002
3.689157e+003, 1.606208e-002
3.691085e+003, 1.747912e-002
3.693014e+003, 1.895942e-002
3.694942e+003, 2.002231e-002
3.696871e+003, 1.949171e-002
3.698799e+003, 1.921186e-002
3.700728e+003, 1.897780e-002
3.702656e+003, 1.891110e-002
3.704584e+003, 1.866201e-002
3.706513e+003, 1.880554e-002
3.708441e+003, 1.893878e-002
3.710370e+003, 1.780598e-002
3.712298e+003, 1.737441e-002
3.714227e+003, 1.914977e-002
3.716155e+003, 1.954902e-002
3.718084e+003, 1.971816e-002
3.720012e+003, 1.981810e-002
3.721941e+003, 1.926118e-002
3.723869e+003, 1.927503e-002
3.725798e+003, 1.873565e-002
3.727726e+003, 1.899978e-002
3.729655e+003, 1.937325e-002
3.731583e+003, 1.805781e-002
3.733511e+003, 1.739266e-002
3.735440e+003, 1.723339e-002
3.737368e+003, 1.836307e-002
3.739297e+003, 1.914224e-002
3.741225e+003, 1.865247e-002
3.743154e+003, 1.577786e-002
3.745082e+003, 1.555233e-002
3.747011e+003, 1.781098e-002
3.748939e+003, 1.602051e-002
3.750868e+003, 1.465600e-002
3.752796e+003, 1.662693e-002
3.754725e+003, 1.940175e-002
3.756653e+003, 1.958606e-002
3.758582e+003, 1.940996e-002
3.760510e+003, 1.923369e-002
3.762438e+003, 1.986732e-002
3.764367e+003, 1.987056e-002
3.766295e+003, 1.949538e-002
3.768224e+003, 1.879731e-002
3.770152e+003, 1.877458e-002
3.772081e+003, 1.942099e-002
3.774009e+003, 2.030680e-002
3.775938e+003, 2.036607e-002
3.777866e+003, 1.967968e-002
3.779795e+003, 1.945082e-002
3.781723e+003, 2.052809e-002
3.783652e+003, 2.073901e-002
3.785580e+003, 2.000323e-002
3.787509e+003, 1.965053e-002
3.789437e+003, 1.992727e-002
3.791365e+003, 2.035313e-002
3.793294e+003, 2.060413e-002
3.795222e+003, 1.988515e-002
3.797151e+003, 1.980242e-002
3.799079e+003, 1.890590e-002
3.801008e+003, 1.698991e-002
3.802936e+003, 1.825964e-002
3.804865e+003, 1.914665e-002
3.806793e+003, 1.832853e-002
3.808722e+003, 1.954259e-002
3.810650e+003, 2.023833e-002
3.812579e+003, 2.028336e-002
3.814507e+003, 1.870118e-002
3.816436e+003, 1.777935e-002
3.818364e+003, 1.896744e-002
3.820292e+003, 1.792488e-002
3.822221e+003, 1.825504e-002
3.824149e+003, 1.957278e-002
3.826078e+003, 1.940948e-002
3.828006e+003, 1.964244e-002
3.829935e+003, 1.972566e-002
3.831863e+003, 1.897632e-002
3.833792e+003, 1.888450e-002
3.835720e+003, 1.776000e-002
3.837649e+003, 1.654304e-002
3.839577e+003, 1.824777e-002
3.841506e+003, 1.965208e-002
3.843434e+003, 1.981026e-002
3.845363e+003, 1.981414e-002
3.847291e+003, 1.971018e-002
3.849219e+003, 1.925347e-002
3.851148e+003, 1.665304e-002
3.853076e+003, 1.388658e-002
3.855005e+003, 1.544303e-002
3.856933e+003, 1.852265e-002
3.858862e+003, 1.965095e-002
3.860790e+003, 1.912398e-002
3.862719e+003, 1.816043e-002
3.864647e+003, 1.810737e-002
3.866576e+003, 1.876574e-002
3.868504e+003, 1.796828e-002
3.870433e+003, 1.771322e-002
3.872361e+003, 1.879459e-002
3.874290e+003, 1.912709e-002
3.876218e+003, 1.948206e-002
3.878146e+003, 1.918382e-002
3.880075e+003, 1.932392e-002
3.882003e+003, 1.977596e-002
3.883932e+003, 1.909751e-002
3.885860e+003, 1.888199e-002
3.887789e+003, 1.972541e-002
3.889717e+003, 1.883661e-002
3.891646e+003, 1.862690e-002
3.893574e+003, 1.967892e-002
3.895503e+003, 1.967705e-002
3.897431e+003, 1.915762e-002
3.899360e+003, 1.899841e-002
3.901288e+003, 1.873135e-002
3.903217e+003, 1.883881e-002
3.905145e+003, 1.916374e-002
3.907073e+003, 1.988638e-002
3.909002e+003, 2.032137e-002
3.910930e+003, 2.044996e-002
3.912859e+003, 1.985667e-002
3.914787e+003, 1.935077e-002
3.916716e+003, 1.956154e-002
3.918644e+003, 1.980485e-002
3.920573e+003, 1.967384e-002
3.922501e+003, 2.033815e-002
3.924430e+003, 2.008406e-002
3.926358e+003, 1.974446e-002
3.928287e+003, 1.974126e-002
3.930215e+003, 2.004304e-002
3.932144e+003, 2.031615e-002
3.934072e+003, 2.016123e-002
3.936000e+003, 1.967276e-002
3.937929e+003, 1.943388e-002
3.939857e+003, 2.015178e-002
3.941786e+003, 2.057323e-002
3.943714e+003, 2.019981e-002
3.945643e+003, 1.984832e-002
3.947571e+003, 1.980945e-002
3.949500e+003, 1.982072e-002
3.951428e+003, 2.037233e-002
3.953357e+003, 2.096654e-002
3.955285e+003, 2.133394e-002
3.957214e+003, 2.119805e-002
3.959142e+003, 2.108301e-002
3.961071e+003, 2.054158e-002
3.962999e+003, 2.032662e-002
3.964927e+003, 2.083642e-002
3.966856e+003, 2.094115e-002
3.968784e+003, 2.014992e-002
3.970713e+003, 2.013496e-002
3.972641e+003, 2.036462e-002
3.974570e+003, 2.054042e-002
3.976498e+003, 2.096297e-002
3.978427e+003, 2.095793e-002
3.980355e+003, 2.007297e-002
3.982284e+003, 1.942485e-002
3.984212e+003, 2.043916e-002
3.986141e+003, 2.128669e-002
3.988069e+003, 2.123612e-002
3.989998e+003, 2.108860e-002
3.991926e+003, 2.067737e-002
3.993854e+003, 2.087954e-002
3.995783e+003, 2.098410e-002
3.997711e+003, 2.064648e-002
3.999640e+003, 2.100153e-002
4.001568e+003, 0.000000e+000
##END=



