##NAMES=Sklodowskite
##RRUFFID=R050445
##IDEAL CHEMISTRY=Mg(U^6+^O_2_)_2_(SiO_3_OH)_2_&#183;6H_2_O
##LOCALITY=Mina las Animas, Santa Eulalia, Chihuahua, Mexico
##OWNER=RRUFF
##SOURCE=Peter Megaw
##DESCRIPTION=Mass of transparent yellow flat fibers
##STATUS=The identification of this mineral has been confirmed by single-crystal X-ray diffraction.
##URL=rruff.info/R050445
3.991926e+002, 1.223844e-001
4.011211e+002, 1.239611e-001
4.030495e+002, 1.169308e-001
4.049780e+002, 1.122699e-001
4.069065e+002, 1.148910e-001
4.088349e+002, 1.178966e-001
4.107634e+002, 1.165421e-001
4.126919e+002, 1.170703e-001
4.146203e+002, 1.182019e-001
4.165488e+002, 1.183223e-001
4.184773e+002, 1.191429e-001
4.204057e+002, 1.194832e-001
4.223342e+002, 1.186965e-001
4.242627e+002, 1.184560e-001
4.261911e+002, 1.170742e-001
4.281196e+002, 1.165478e-001
4.300481e+002, 1.182235e-001
4.319765e+002, 1.202460e-001
4.339050e+002, 1.213497e-001
4.358335e+002, 1.236418e-001
4.377619e+002, 1.273912e-001
4.396904e+002, 1.316304e-001
4.416189e+002, 1.311049e-001
4.435473e+002, 1.271994e-001
4.454758e+002, 1.231774e-001
4.474043e+002, 1.203619e-001
4.493327e+002, 1.176257e-001
4.512612e+002, 1.147935e-001
4.531897e+002, 1.125540e-001
4.551181e+002, 1.117407e-001
4.570466e+002, 1.115436e-001
4.589751e+002, 1.115796e-001
4.609035e+002, 1.116518e-001
4.628320e+002, 1.124774e-001
4.647605e+002, 1.128790e-001
4.666889e+002, 1.136949e-001
4.686174e+002, 1.140373e-001
4.705459e+002, 1.144198e-001
4.724743e+002, 1.154405e-001
4.744028e+002, 1.171907e-001
4.763313e+002, 1.188361e-001
4.782597e+002, 1.201369e-001
4.801882e+002, 1.220033e-001
4.821167e+002, 1.240371e-001
4.840451e+002, 1.254829e-001
4.859736e+002, 1.270839e-001
4.879021e+002, 1.283665e-001
4.898305e+002, 1.287876e-001
4.917590e+002, 1.288586e-001
4.936875e+002, 1.292683e-001
4.956159e+002, 1.284750e-001
4.975444e+002, 1.275535e-001
4.994729e+002, 1.260941e-001
5.014013e+002, 1.243071e-001
5.033298e+002, 1.223474e-001
5.052583e+002, 1.204253e-001
5.071867e+002, 1.190318e-001
5.091152e+002, 1.179467e-001
5.110437e+002, 1.166664e-001
5.129721e+002, 1.157232e-001
5.149006e+002, 1.154173e-001
5.168290e+002, 1.155520e-001
5.187575e+002, 1.152622e-001
5.206860e+002, 1.157378e-001
5.226144e+002, 1.167143e-001
5.245429e+002, 1.180569e-001
5.264714e+002, 1.191112e-001
5.283998e+002, 1.201342e-001
5.303283e+002, 1.212515e-001
5.322568e+002, 1.227831e-001
5.341852e+002, 1.246123e-001
5.361137e+002, 1.258443e-001
5.380422e+002, 1.273076e-001
5.399706e+002, 1.291886e-001
5.418991e+002, 1.311390e-001
5.438276e+002, 1.326308e-001
5.457560e+002, 1.334108e-001
5.476845e+002, 1.349665e-001
5.496130e+002, 1.370818e-001
5.515414e+002, 1.382961e-001
5.534699e+002, 1.393995e-001
5.553984e+002, 1.409874e-001
5.573268e+002, 1.421509e-001
5.592553e+002, 1.422260e-001
5.611838e+002, 1.422190e-001
5.631122e+002, 1.428625e-001
5.650407e+002, 1.432111e-001
5.669692e+002, 1.429221e-001
5.688976e+002, 1.415557e-001
5.708261e+002, 1.398048e-001
5.727546e+002, 1.379542e-001
5.746830e+002, 1.360471e-001
5.766115e+002, 1.331605e-001
5.785400e+002, 1.295963e-001
5.804684e+002, 1.263513e-001
5.823969e+002, 1.232191e-001
5.843254e+002, 1.200559e-001
5.862538e+002, 1.170527e-001
5.881823e+002, 1.142012e-001
5.901108e+002, 1.114175e-001
5.920392e+002, 1.093290e-001
5.939677e+002, 1.075757e-001
5.958962e+002, 1.061457e-001
5.978246e+002, 1.049891e-001
5.997531e+002, 1.041051e-001
6.016816e+002, 1.032867e-001
6.036100e+002, 1.023867e-001
6.055385e+002, 1.016846e-001
6.074670e+002, 1.012446e-001
6.093954e+002, 1.007353e-001
6.113239e+002, 1.000480e-001
6.132524e+002, 9.932495e-002
6.151808e+002, 9.877375e-002
6.171093e+002, 9.825484e-002
6.190378e+002, 9.782741e-002
6.209662e+002, 9.722127e-002
6.228947e+002, 9.659001e-002
6.248232e+002, 9.617237e-002
6.267516e+002, 9.572854e-002
6.286801e+002, 9.523716e-002
6.306086e+002, 9.481516e-002
6.325370e+002, 9.451770e-002
6.344655e+002, 9.451675e-002
6.363940e+002, 9.439661e-002
6.383224e+002, 9.398493e-002
6.402509e+002, 9.379204e-002
6.421794e+002, 9.393067e-002
6.441078e+002, 9.402771e-002
6.460363e+002, 9.405356e-002
6.479648e+002, 9.423485e-002
6.498932e+002, 9.455655e-002
6.518217e+002, 9.477206e-002
6.537502e+002, 9.509547e-002
6.556786e+002, 9.562395e-002
6.576071e+002, 9.607807e-002
6.595356e+002, 9.674231e-002
6.614641e+002, 9.750824e-002
6.633925e+002, 9.818155e-002
6.653210e+002, 9.914172e-002
6.672495e+002, 1.001030e-001
6.691779e+002, 1.006403e-001
6.711064e+002, 1.008354e-001
6.730349e+002, 1.012196e-001
6.749633e+002, 1.018298e-001
6.768918e+002, 1.024472e-001
6.788203e+002, 1.028318e-001
6.807487e+002, 1.033430e-001
6.826772e+002, 1.038359e-001
6.846057e+002, 1.042276e-001
6.865341e+002, 1.046745e-001
6.884626e+002, 1.049077e-001
6.903911e+002, 1.050266e-001
6.923195e+002, 1.051429e-001
6.942480e+002, 1.053762e-001
6.961765e+002, 1.054858e-001
6.981049e+002, 1.053380e-001
7.000334e+002, 1.052638e-001
7.019619e+002, 1.049323e-001
7.038903e+002, 1.045942e-001
7.058188e+002, 1.043096e-001
7.077473e+002, 1.038858e-001
7.096757e+002, 1.035658e-001
7.116042e+002, 1.033565e-001
7.135327e+002, 1.031466e-001
7.154611e+002, 1.031384e-001
7.173896e+002, 1.033702e-001
7.193181e+002, 1.036765e-001
7.212465e+002, 1.041879e-001
7.231750e+002, 1.054071e-001
7.251035e+002, 1.073281e-001
7.270319e+002, 1.093285e-001
7.289604e+002, 1.107184e-001
7.308889e+002, 1.107677e-001
7.328173e+002, 1.102366e-001
7.347458e+002, 1.107603e-001
7.366743e+002, 1.120686e-001
7.386027e+002, 1.139737e-001
7.405312e+002, 1.164344e-001
7.424597e+002, 1.191704e-001
7.443881e+002, 1.223162e-001
7.463166e+002, 1.257343e-001
7.482451e+002, 1.288258e-001
7.501735e+002, 1.318776e-001
7.521020e+002, 1.348261e-001
7.540305e+002, 1.374137e-001
7.559589e+002, 1.393177e-001
7.578874e+002, 1.408006e-001
7.598159e+002, 1.417936e-001
7.617443e+002, 1.421801e-001
7.636728e+002, 1.417283e-001
7.656013e+002, 1.402768e-001
7.675297e+002, 1.386390e-001
7.694582e+002, 1.373433e-001
7.713867e+002, 1.365197e-001
7.733151e+002, 1.361318e-001
7.752436e+002, 1.366774e-001
7.771721e+002, 1.385839e-001
7.791005e+002, 1.417424e-001
7.810290e+002, 1.457630e-001
7.829575e+002, 1.502137e-001
7.848859e+002, 1.549094e-001
7.868144e+002, 1.597745e-001
7.887429e+002, 1.641852e-001
7.906713e+002, 1.674517e-001
7.925998e+002, 1.688894e-001
7.945283e+002, 1.682354e-001
7.964567e+002, 1.663910e-001
7.983852e+002, 1.646504e-001
8.003137e+002, 1.642764e-001
8.022421e+002, 1.655440e-001
8.041706e+002, 1.690326e-001
8.060991e+002, 1.750863e-001
8.080275e+002, 1.835836e-001
8.099560e+002, 1.939035e-001
8.118845e+002, 2.053148e-001
8.138129e+002, 2.168637e-001
8.157414e+002, 2.283525e-001
8.176699e+002, 2.395653e-001
8.195983e+002, 2.498204e-001
8.215268e+002, 2.582356e-001
8.234553e+002, 2.640038e-001
8.253837e+002, 2.670489e-001
8.273122e+002, 2.679411e-001
8.292407e+002, 2.669453e-001
8.311691e+002, 2.653623e-001
8.330976e+002, 2.646639e-001
8.350261e+002, 2.655318e-001
8.369545e+002, 2.680356e-001
8.388830e+002, 2.723213e-001
8.408115e+002, 2.780372e-001
8.427399e+002, 2.846862e-001
8.446684e+002, 2.915570e-001
8.465969e+002, 2.982341e-001
8.485253e+002, 3.044074e-001
8.504538e+002, 3.095644e-001
8.523823e+002, 3.118780e-001
8.543107e+002, 3.101523e-001
8.562392e+002, 3.051921e-001
8.581677e+002, 2.976535e-001
8.600961e+002, 2.879709e-001
8.620246e+002, 2.770981e-001
8.639531e+002, 2.659703e-001
8.658815e+002, 2.549173e-001
8.678100e+002, 2.437276e-001
8.697385e+002, 2.331551e-001
8.716669e+002, 2.228930e-001
8.735954e+002, 2.125185e-001
8.755239e+002, 2.019550e-001
8.774523e+002, 1.914362e-001
8.793808e+002, 1.812639e-001
8.813093e+002, 1.721521e-001
8.832377e+002, 1.639725e-001
8.851662e+002, 1.566874e-001
8.870947e+002, 1.500764e-001
8.890231e+002, 1.439500e-001
8.909516e+002, 1.379148e-001
8.928801e+002, 1.321234e-001
8.948085e+002, 1.267815e-001
8.967370e+002, 1.221641e-001
8.986655e+002, 1.186078e-001
9.005939e+002, 1.161658e-001
9.025224e+002, 1.146461e-001
9.044509e+002, 1.141737e-001
9.063793e+002, 1.151336e-001
9.083078e+002, 1.174679e-001
9.102363e+002, 1.212540e-001
9.121647e+002, 1.266747e-001
9.140932e+002, 1.334937e-001
9.160217e+002, 1.414784e-001
9.179501e+002, 1.501872e-001
9.198786e+002, 1.589998e-001
9.218071e+002, 1.670068e-001
9.237355e+002, 1.731177e-001
9.256640e+002, 1.762123e-001
9.275925e+002, 1.759403e-001
9.295209e+002, 1.724287e-001
9.314494e+002, 1.663267e-001
9.333779e+002, 1.583172e-001
9.353063e+002, 1.492643e-001
9.372348e+002, 1.397953e-001
9.391633e+002, 1.302114e-001
9.410917e+002, 1.207670e-001
9.430202e+002, 1.120151e-001
9.449487e+002, 1.044154e-001
9.468771e+002, 9.858735e-002
9.488056e+002, 9.489689e-002
9.507341e+002, 9.361353e-002
9.526625e+002, 9.444581e-002
9.545910e+002, 9.667353e-002
9.565195e+002, 9.979399e-002
9.584479e+002, 1.036552e-001
9.603764e+002, 1.079403e-001
9.623049e+002, 1.125200e-001
9.642333e+002, 1.175266e-001
9.661618e+002, 1.227695e-001
9.680903e+002, 1.279410e-001
9.700187e+002, 1.330170e-001
9.719472e+002, 1.378616e-001
9.738757e+002, 1.423183e-001
9.758041e+002, 1.460571e-001
9.777326e+002, 1.487868e-001
9.796611e+002, 1.500667e-001
9.815895e+002, 1.501574e-001
9.835180e+002, 1.493179e-001
9.854465e+002, 1.476114e-001
9.873749e+002, 1.454443e-001
9.893034e+002, 1.430413e-001
9.912319e+002, 1.405627e-001
9.931603e+002, 1.377961e-001
9.950888e+002, 1.345261e-001
9.970173e+002, 1.313188e-001
9.989457e+002, 1.282211e-001
1.000874e+003, 1.250753e-001
1.002803e+003, 1.218509e-001
1.004731e+003, 1.183636e-001
1.006660e+003, 1.144131e-001
1.008588e+003, 1.103811e-001
1.010517e+003, 1.064841e-001
1.012445e+003, 1.026825e-001
1.014373e+003, 9.824507e-002
1.016302e+003, 9.299939e-002
1.018230e+003, 8.758929e-002
1.020159e+003, 8.263782e-002
1.022087e+003, 7.809968e-002
1.024016e+003, 7.383093e-002
1.025944e+003, 6.986588e-002
1.027873e+003, 6.618713e-002
1.029801e+003, 6.280887e-002
1.031730e+003, 5.995490e-002
1.033658e+003, 5.730393e-002
1.035587e+003, 5.487645e-002
1.037515e+003, 5.262878e-002
1.039443e+003, 5.072811e-002
1.041372e+003, 4.909478e-002
1.043300e+003, 4.781061e-002
1.045229e+003, 4.668339e-002
1.047157e+003, 4.570632e-002
1.049086e+003, 4.476511e-002
1.051014e+003, 4.410663e-002
1.052943e+003, 4.358203e-002
1.054871e+003, 4.319867e-002
1.056800e+003, 4.285056e-002
1.058728e+003, 4.263462e-002
1.060657e+003, 4.253943e-002
1.062585e+003, 4.249172e-002
1.064514e+003, 4.224813e-002
1.066442e+003, 4.212387e-002
1.068370e+003, 4.205534e-002
1.070299e+003, 4.202608e-002
1.072227e+003, 4.208038e-002
1.074156e+003, 4.227976e-002
1.076084e+003, 4.259239e-002
1.078013e+003, 4.302223e-002
1.079941e+003, 4.301307e-002
1.081870e+003, 4.253645e-002
1.083798e+003, 4.205683e-002
1.085727e+003, 4.178715e-002
1.087655e+003, 4.162987e-002
1.089584e+003, 4.162925e-002
1.091512e+003, 4.188071e-002
1.093441e+003, 4.243312e-002
1.095369e+003, 4.298358e-002
1.097297e+003, 4.367064e-002
1.099226e+003, 4.451017e-002
1.101154e+003, 4.537724e-002
1.103083e+003, 4.606831e-002
1.105011e+003, 4.676381e-002
1.106940e+003, 4.744440e-002
1.108868e+003, 4.815161e-002
1.110797e+003, 4.878956e-002
1.112725e+003, 4.955576e-002
1.114654e+003, 5.043793e-002
1.116582e+003, 5.136131e-002
1.118511e+003, 5.243556e-002
1.120439e+003, 5.379248e-002
1.122368e+003, 5.521979e-002
1.124296e+003, 5.677409e-002
1.126224e+003, 5.843852e-002
1.128153e+003, 6.033059e-002
1.130081e+003, 6.245119e-002
1.132010e+003, 6.475939e-002
1.133938e+003, 6.728499e-002
1.135867e+003, 7.006368e-002
1.137795e+003, 7.286628e-002
1.139724e+003, 7.594316e-002
1.141652e+003, 7.918017e-002
1.143581e+003, 8.247007e-002
1.145509e+003, 8.579378e-002
1.147438e+003, 8.898622e-002
1.149366e+003, 9.195209e-002
1.151295e+003, 9.462498e-002
1.153223e+003, 9.695870e-002
1.155151e+003, 9.879810e-002
1.157080e+003, 9.989738e-002
1.159008e+003, 1.000127e-001
1.160937e+003, 9.917498e-002
1.162865e+003, 9.737039e-002
1.164794e+003, 9.453464e-002
1.166722e+003, 9.090489e-002
1.168651e+003, 8.671927e-002
1.170579e+003, 8.231350e-002
1.172508e+003, 7.793344e-002
1.174436e+003, 7.385111e-002
1.176365e+003, 6.999620e-002
1.178293e+003, 6.634446e-002
1.180222e+003, 6.314347e-002
1.182150e+003, 6.019972e-002
1.184078e+003, 5.715980e-002
1.186007e+003, 5.417980e-002
1.187935e+003, 5.132226e-002
1.189864e+003, 4.866267e-002
1.191792e+003, 4.606796e-002
1.193721e+003, 4.373502e-002
1.195649e+003, 4.169371e-002
1.197578e+003, 3.992589e-002
1.199506e+003, 3.827311e-002
1.201435e+003, 3.686455e-002
1.203363e+003, 3.577804e-002
1.205292e+003, 3.495590e-002
1.207220e+003, 3.452593e-002
1.209149e+003, 3.459283e-002
1.211077e+003, 3.487711e-002
1.213005e+003, 3.517537e-002
1.214934e+003, 3.541063e-002
1.216862e+003, 3.543116e-002
1.218791e+003, 3.547447e-002
1.220719e+003, 3.556207e-002
1.222648e+003, 3.548179e-002
1.224576e+003, 3.539943e-002
1.226505e+003, 3.526226e-002
1.228433e+003, 3.513595e-002
1.230362e+003, 3.512134e-002
1.232290e+003, 3.526861e-002
1.234219e+003, 3.528412e-002
1.236147e+003, 3.505359e-002
1.238076e+003, 3.476866e-002
1.240004e+003, 3.464025e-002
1.241932e+003, 3.464742e-002
1.243861e+003, 3.460581e-002
1.245789e+003, 3.448437e-002
1.247718e+003, 3.432008e-002
1.249646e+003, 3.395972e-002
1.251575e+003, 3.357265e-002
1.253503e+003, 3.305786e-002
1.255432e+003, 3.221418e-002
1.257360e+003, 3.105519e-002
1.259289e+003, 3.006062e-002
1.261217e+003, 2.925925e-002
1.263146e+003, 2.856906e-002
1.265074e+003, 2.798707e-002
1.267003e+003, 2.771349e-002
1.268931e+003, 2.751704e-002
1.270859e+003, 2.734687e-002
1.272788e+003, 2.722270e-002
1.274716e+003, 2.715161e-002
1.276645e+003, 2.718206e-002
1.278573e+003, 2.723588e-002
1.280502e+003, 2.739910e-002
1.282430e+003, 2.774959e-002
1.284359e+003, 2.788888e-002
1.286287e+003, 2.800965e-002
1.288216e+003, 2.835944e-002
1.290144e+003, 2.864202e-002
1.292073e+003, 2.870172e-002
1.294001e+003, 2.880317e-002
1.295930e+003, 2.893554e-002
1.297858e+003, 2.889326e-002
1.299786e+003, 2.878603e-002
1.301715e+003, 2.871614e-002
1.303643e+003, 2.875991e-002
1.305572e+003, 2.883672e-002
1.307500e+003, 2.882056e-002
1.309429e+003, 2.880801e-002
1.311357e+003, 2.886905e-002
1.313286e+003, 2.896748e-002
1.315214e+003, 2.895629e-002
1.317143e+003, 2.903074e-002
1.319071e+003, 2.910957e-002
1.321000e+003, 2.927983e-002
1.322928e+003, 2.957753e-002
1.324857e+003, 2.990734e-002
1.326785e+003, 3.001857e-002
1.328714e+003, 3.006239e-002
1.330642e+003, 3.021277e-002
1.332570e+003, 3.035681e-002
1.334499e+003, 3.046915e-002
1.336427e+003, 3.065619e-002
1.338356e+003, 3.088235e-002
1.340284e+003, 3.108718e-002
1.342213e+003, 3.124305e-002
1.344141e+003, 3.149133e-002
1.346070e+003, 3.175662e-002
1.347998e+003, 3.196473e-002
1.349927e+003, 3.227524e-002
1.351855e+003, 3.263871e-002
1.353784e+003, 3.303110e-002
1.355712e+003, 3.344461e-002
1.357641e+003, 3.405089e-002
1.359569e+003, 3.491950e-002
1.361497e+003, 3.586467e-002
1.363426e+003, 3.642318e-002
1.365354e+003, 3.667549e-002
1.367283e+003, 3.690096e-002
1.369211e+003, 3.695606e-002
1.371140e+003, 3.712956e-002
1.373068e+003, 3.765621e-002
1.374997e+003, 3.828647e-002
1.376925e+003, 3.874321e-002
1.378854e+003, 3.918560e-002
1.380782e+003, 3.962185e-002
1.382711e+003, 4.011862e-002
1.384639e+003, 4.057489e-002
1.386568e+003, 4.107868e-002
1.388496e+003, 4.133996e-002
1.390424e+003, 4.160434e-002
1.392353e+003, 4.206093e-002
1.394281e+003, 4.265013e-002
1.396210e+003, 4.323601e-002
1.398138e+003, 4.389310e-002
1.400067e+003, 4.446555e-002
1.401995e+003, 4.504093e-002
1.403924e+003, 4.564593e-002
1.405852e+003, 4.610492e-002
1.407781e+003, 4.665257e-002
1.409709e+003, 4.723459e-002
1.411638e+003, 4.761517e-002
1.413566e+003, 4.792238e-002
1.415495e+003, 4.822447e-002
1.417423e+003, 4.866710e-002
1.419351e+003, 4.906654e-002
1.421280e+003, 4.922572e-002
1.423208e+003, 4.948694e-002
1.425137e+003, 4.977795e-002
1.427065e+003, 4.986890e-002
1.428994e+003, 4.995924e-002
1.430922e+003, 4.997283e-002
1.432851e+003, 4.999342e-002
1.434779e+003, 4.999840e-002
1.436708e+003, 4.992074e-002
1.438636e+003, 4.956470e-002
1.440565e+003, 4.932399e-002
1.442493e+003, 4.921103e-002
1.444422e+003, 4.926974e-002
1.446350e+003, 4.918424e-002
1.448278e+003, 4.901455e-002
1.450207e+003, 4.875198e-002
1.452135e+003, 4.855561e-002
1.454064e+003, 4.833492e-002
1.455992e+003, 4.841847e-002
1.457921e+003, 4.800531e-002
1.459849e+003, 4.725808e-002
1.461778e+003, 4.674893e-002
1.463706e+003, 4.633669e-002
1.465635e+003, 4.571434e-002
1.467563e+003, 4.493067e-002
1.469492e+003, 4.415128e-002
1.471420e+003, 4.356382e-002
1.473349e+003, 4.290713e-002
1.475277e+003, 4.210117e-002
1.477205e+003, 4.136087e-002
1.479134e+003, 4.068495e-002
1.481062e+003, 4.027263e-002
1.482991e+003, 3.993439e-002
1.484919e+003, 3.955572e-002
1.486848e+003, 3.940134e-002
1.488776e+003, 3.942934e-002
1.490705e+003, 3.951078e-002
1.492633e+003, 3.954751e-002
1.494562e+003, 3.998045e-002
1.496490e+003, 4.049306e-002
1.498419e+003, 4.093634e-002
1.500347e+003, 4.161816e-002
1.502276e+003, 4.232265e-002
1.504204e+003, 4.331800e-002
1.506132e+003, 4.446613e-002
1.508061e+003, 4.458694e-002
1.509989e+003, 4.383205e-002
1.511918e+003, 4.232069e-002
1.513846e+003, 4.005799e-002
1.515775e+003, 3.775567e-002
1.517703e+003, 3.584479e-002
1.519632e+003, 3.466765e-002
1.521560e+003, 3.375404e-002
1.523489e+003, 3.276324e-002
1.525417e+003, 3.227642e-002
1.527346e+003, 3.184947e-002
1.529274e+003, 3.142874e-002
1.531203e+003, 3.117383e-002
1.533131e+003, 3.113019e-002
1.535059e+003, 3.071352e-002
1.536988e+003, 3.050895e-002
1.538916e+003, 3.092344e-002
1.540845e+003, 3.069684e-002
1.542773e+003, 3.004072e-002
1.544702e+003, 2.966782e-002
1.546630e+003, 2.926662e-002
1.548559e+003, 2.913283e-002
1.550487e+003, 2.903154e-002
1.552416e+003, 2.887561e-002
1.554344e+003, 2.878117e-002
1.556273e+003, 2.889731e-002
1.558201e+003, 2.943331e-002
1.560130e+003, 2.925281e-002
1.562058e+003, 2.839188e-002
1.563986e+003, 2.811893e-002
1.565915e+003, 2.812665e-002
1.567843e+003, 2.824155e-002
1.569772e+003, 2.832663e-002
1.571700e+003, 2.825280e-002
1.573629e+003, 2.836998e-002
1.575557e+003, 2.887505e-002
1.577486e+003, 2.906407e-002
1.579414e+003, 2.919110e-002
1.581343e+003, 2.962031e-002
1.583271e+003, 2.996654e-002
1.585200e+003, 3.033830e-002
1.587128e+003, 3.080008e-002
1.589057e+003, 3.120210e-002
1.590985e+003, 3.180582e-002
1.592913e+003, 3.268721e-002
1.594842e+003, 3.348898e-002
1.596770e+003, 3.441468e-002
1.598699e+003, 3.574696e-002
1.600627e+003, 3.720097e-002
1.602556e+003, 3.860657e-002
1.604484e+003, 4.001925e-002
1.606413e+003, 4.148247e-002
1.608341e+003, 4.307059e-002
1.610270e+003, 4.473171e-002
1.612198e+003, 4.643020e-002
1.614127e+003, 4.843295e-002
1.616055e+003, 5.108189e-002
1.617984e+003, 5.383258e-002
1.619912e+003, 5.674110e-002
1.621840e+003, 6.027234e-002
1.623769e+003, 6.402825e-002
1.625697e+003, 6.788117e-002
1.627626e+003, 7.177293e-002
1.629554e+003, 7.556812e-002
1.631483e+003, 7.897960e-002
1.633411e+003, 8.243947e-002
1.635340e+003, 8.548631e-002
1.637268e+003, 8.726458e-002
1.639197e+003, 8.832202e-002
1.641125e+003, 8.911896e-002
1.643054e+003, 8.974884e-002
1.644982e+003, 9.074911e-002
1.646911e+003, 9.172922e-002
1.648839e+003, 9.196574e-002
1.650767e+003, 9.235253e-002
1.652696e+003, 9.277365e-002
1.654624e+003, 9.090926e-002
1.656553e+003, 8.785778e-002
1.658481e+003, 8.461884e-002
1.660410e+003, 8.086575e-002
1.662338e+003, 7.667393e-002
1.664267e+003, 7.244348e-002
1.666195e+003, 6.876367e-002
1.668124e+003, 6.619409e-002
1.670052e+003, 6.408374e-002
1.671981e+003, 6.214533e-002
1.673909e+003, 6.077100e-002
1.675838e+003, 5.961662e-002
1.677766e+003, 5.801439e-002
1.679694e+003, 5.635273e-002
1.681623e+003, 5.456521e-002
1.683551e+003, 5.275237e-002
1.685480e+003, 5.003049e-002
1.687408e+003, 4.691131e-002
1.689337e+003, 4.413882e-002
1.691265e+003, 4.141930e-002
1.693194e+003, 3.894571e-002
1.695122e+003, 3.708721e-002
1.697051e+003, 3.475777e-002
1.698979e+003, 3.267147e-002
1.700908e+003, 3.070155e-002
1.702836e+003, 2.830667e-002
1.704765e+003, 2.665356e-002
1.706693e+003, 2.524979e-002
1.708621e+003, 2.414218e-002
1.710550e+003, 2.336594e-002
1.712478e+003, 2.284693e-002
1.714407e+003, 2.277295e-002
1.716335e+003, 2.304040e-002
1.718264e+003, 2.285210e-002
1.720192e+003, 2.256175e-002
1.722121e+003, 2.272088e-002
1.724049e+003, 2.311485e-002
1.725978e+003, 2.361830e-002
1.727906e+003, 2.413831e-002
1.729835e+003, 2.452727e-002
1.731763e+003, 2.497036e-002
1.733692e+003, 2.537069e-002
1.735620e+003, 2.462684e-002
1.737548e+003, 2.365291e-002
1.739477e+003, 2.276523e-002
1.741405e+003, 2.135427e-002
1.743334e+003, 1.986974e-002
1.745262e+003, 1.868839e-002
1.747191e+003, 1.787730e-002
1.749119e+003, 1.739792e-002
1.751048e+003, 1.728158e-002
1.752976e+003, 1.716627e-002
1.754905e+003, 1.716641e-002
1.756833e+003, 1.733989e-002
1.758762e+003, 1.766951e-002
1.760690e+003, 1.853982e-002
1.762619e+003, 1.937904e-002
1.764547e+003, 1.979826e-002
1.766475e+003, 2.004918e-002
1.768404e+003, 2.013379e-002
1.770332e+003, 2.016748e-002
1.772261e+003, 2.013483e-002
1.774189e+003, 1.971049e-002
1.776118e+003, 1.918372e-002
1.778046e+003, 1.875912e-002
1.779975e+003, 1.857252e-002
1.781903e+003, 1.822502e-002
1.783832e+003, 1.786856e-002
1.785760e+003, 1.740622e-002
1.787689e+003, 1.696039e-002
1.789617e+003, 1.670642e-002
1.791546e+003, 1.661392e-002
1.793474e+003, 1.640327e-002
1.795402e+003, 1.614379e-002
1.797331e+003, 1.587645e-002
1.799259e+003, 1.559317e-002
1.801188e+003, 1.533971e-002
1.803116e+003, 1.515905e-002
1.805045e+003, 1.504106e-002
1.806973e+003, 1.507201e-002
1.808902e+003, 1.512481e-002
1.810830e+003, 1.520051e-002
1.812759e+003, 1.511847e-002
1.814687e+003, 1.507815e-002
1.816616e+003, 1.511215e-002
1.818544e+003, 1.525970e-002
1.820473e+003, 1.541591e-002
1.822401e+003, 1.538452e-002
1.824329e+003, 1.541571e-002
1.826258e+003, 1.525364e-002
1.828186e+003, 1.508204e-002
1.830115e+003, 1.493505e-002
1.832043e+003, 1.469951e-002
1.833972e+003, 1.448895e-002
1.835900e+003, 1.411518e-002
1.837829e+003, 1.409802e-002
1.839757e+003, 1.418658e-002
1.841686e+003, 1.433028e-002
1.843614e+003, 1.431518e-002
1.845543e+003, 1.402772e-002
1.847471e+003, 1.376452e-002
1.849400e+003, 1.381922e-002
1.851328e+003, 1.396469e-002
1.853256e+003, 1.411402e-002
1.855185e+003, 1.405281e-002
1.857113e+003, 1.395428e-002
1.859042e+003, 1.396601e-002
1.860970e+003, 1.422464e-002
1.862899e+003, 1.427418e-002
1.864827e+003, 1.424971e-002
1.866756e+003, 1.439747e-002
1.868684e+003, 1.451198e-002
1.870613e+003, 1.443503e-002
1.872541e+003, 1.448281e-002
1.874470e+003, 1.448685e-002
1.876398e+003, 1.443221e-002
1.878327e+003, 1.433763e-002
1.880255e+003, 1.425001e-002
1.882183e+003, 1.431268e-002
1.884112e+003, 1.453519e-002
1.886040e+003, 1.484573e-002
1.887969e+003, 1.476764e-002
1.889897e+003, 1.469706e-002
1.891826e+003, 1.505261e-002
1.893754e+003, 1.542043e-002
1.895683e+003, 1.556548e-002
1.897611e+003, 1.567336e-002
1.899540e+003, 1.578420e-002
1.901468e+003, 1.545258e-002
1.903397e+003, 1.538165e-002
1.905325e+003, 1.497819e-002
1.907254e+003, 1.480136e-002
1.909182e+003, 1.506583e-002
1.911110e+003, 1.556880e-002
1.913039e+003, 1.558317e-002
1.914967e+003, 1.528439e-002
1.916896e+003, 1.523362e-002
1.918824e+003, 1.566600e-002
1.920753e+003, 1.518032e-002
1.922681e+003, 1.504372e-002
1.924610e+003, 1.480126e-002
1.926538e+003, 1.447779e-002
1.928467e+003, 1.455941e-002
1.930395e+003, 1.456137e-002
1.932324e+003, 1.443218e-002
1.934252e+003, 1.400512e-002
1.936181e+003, 1.376353e-002
1.938109e+003, 1.385408e-002
1.940037e+003, 1.405271e-002
1.941966e+003, 1.440861e-002
1.943894e+003, 1.450121e-002
1.945823e+003, 1.413954e-002
1.947751e+003, 1.439612e-002
1.949680e+003, 1.472511e-002
1.951608e+003, 1.421798e-002
1.953537e+003, 1.383813e-002
1.955465e+003, 1.351801e-002
1.957394e+003, 1.362487e-002
1.959322e+003, 1.385358e-002
1.961251e+003, 1.415841e-002
1.963179e+003, 1.426166e-002
1.965108e+003, 1.425006e-002
1.967036e+003, 1.378752e-002
1.968964e+003, 1.368686e-002
1.970893e+003, 1.388480e-002
1.972821e+003, 1.403505e-002
1.974750e+003, 1.393680e-002
1.976678e+003, 1.446013e-002
1.978607e+003, 1.563961e-002
1.980535e+003, 1.536454e-002
1.982464e+003, 1.495367e-002
1.984392e+003, 1.548375e-002
1.986321e+003, 1.509097e-002
1.988249e+003, 1.451287e-002
1.990178e+003, 1.459307e-002
1.992106e+003, 1.500581e-002
1.994035e+003, 1.539544e-002
1.995963e+003, 1.534973e-002
1.997891e+003, 1.535603e-002
1.999820e+003, 1.551561e-002
2.001748e+003, 1.484109e-002
2.003677e+003, 1.397340e-002
2.005605e+003, 1.334168e-002
2.007534e+003, 1.418694e-002
2.009462e+003, 1.433920e-002
2.011391e+003, 1.427549e-002
2.013319e+003, 1.510391e-002
2.015248e+003, 1.535925e-002
2.017176e+003, 1.562261e-002
2.019105e+003, 1.567207e-002
2.021033e+003, 1.557835e-002
2.022962e+003, 1.580799e-002
2.024890e+003, 1.591264e-002
2.026818e+003, 1.639920e-002
2.028747e+003, 1.719664e-002
2.030675e+003, 1.680599e-002
2.032604e+003, 1.664174e-002
2.034532e+003, 1.699312e-002
2.036461e+003, 1.664840e-002
2.038389e+003, 1.744712e-002
2.040318e+003, 1.868469e-002
2.042246e+003, 1.844803e-002
2.044175e+003, 1.747171e-002
2.046103e+003, 1.702629e-002
2.048031e+003, 1.722202e-002
2.049960e+003, 1.805125e-002
2.051888e+003, 1.788068e-002
2.053817e+003, 1.757818e-002
2.055745e+003, 1.795149e-002
2.057674e+003, 1.787049e-002
2.059602e+003, 1.721697e-002
2.061531e+003, 1.737853e-002
2.063459e+003, 1.800792e-002
2.065388e+003, 1.851751e-002
2.067316e+003, 1.883427e-002
2.069245e+003, 1.863117e-002
2.071173e+003, 1.867618e-002
2.073102e+003, 1.922183e-002
2.075030e+003, 1.938250e-002
2.076958e+003, 1.901874e-002
2.078887e+003, 1.918423e-002
2.080815e+003, 1.947639e-002
2.082744e+003, 1.936952e-002
2.084672e+003, 1.931316e-002
2.086601e+003, 1.892491e-002
2.088529e+003, 1.928912e-002
2.090458e+003, 1.937724e-002
2.092386e+003, 1.913359e-002
2.094315e+003, 1.939197e-002
2.096243e+003, 1.941821e-002
2.098172e+003, 2.008519e-002
2.100100e+003, 2.019337e-002
2.102029e+003, 2.020520e-002
2.103957e+003, 2.096923e-002
2.105885e+003, 2.118055e-002
2.107814e+003, 2.105022e-002
2.109742e+003, 2.092175e-002
2.111671e+003, 2.059870e-002
2.113599e+003, 2.058295e-002
2.115528e+003, 2.106846e-002
2.117456e+003, 2.076165e-002
2.119385e+003, 2.036423e-002
2.121313e+003, 1.994641e-002
2.123242e+003, 2.035212e-002
2.125170e+003, 2.048576e-002
2.127099e+003, 2.029585e-002
2.129027e+003, 2.055788e-002
2.130956e+003, 2.074285e-002
2.132884e+003, 2.077746e-002
2.134813e+003, 2.050687e-002
2.136741e+003, 2.073736e-002
2.138669e+003, 2.101295e-002
2.140598e+003, 2.062576e-002
2.142526e+003, 1.997669e-002
2.144455e+003, 1.932346e-002
2.146383e+003, 1.946658e-002
2.148312e+003, 2.064862e-002
2.150240e+003, 2.145930e-002
2.152169e+003, 2.105162e-002
2.154097e+003, 2.120742e-002
2.156026e+003, 2.097922e-002
2.157954e+003, 2.168352e-002
2.159883e+003, 2.356795e-002
2.161811e+003, 2.429279e-002
2.163740e+003, 2.412909e-002
2.165668e+003, 2.447213e-002
2.167596e+003, 2.403770e-002
2.169525e+003, 2.399111e-002
2.171453e+003, 2.331305e-002
2.173382e+003, 2.329317e-002
2.175310e+003, 2.320609e-002
2.177239e+003, 2.277127e-002
2.179167e+003, 2.253810e-002
2.181096e+003, 2.321572e-002
2.183024e+003, 2.364834e-002
2.184953e+003, 2.398151e-002
2.186881e+003, 2.424448e-002
2.188810e+003, 2.406220e-002
2.190738e+003, 2.384813e-002
2.192667e+003, 2.371234e-002
2.194595e+003, 2.359973e-002
2.196523e+003, 2.383399e-002
2.198452e+003, 2.467918e-002
2.200380e+003, 2.579671e-002
2.202309e+003, 2.497507e-002
2.204237e+003, 2.384752e-002
2.206166e+003, 2.411215e-002
2.208094e+003, 2.439315e-002
2.210023e+003, 2.432675e-002
2.211951e+003, 2.415992e-002
2.213880e+003, 2.379586e-002
2.215808e+003, 2.328622e-002
2.217737e+003, 2.288113e-002
2.219665e+003, 2.314127e-002
2.221594e+003, 2.369314e-002
2.223522e+003, 2.390593e-002
2.225450e+003, 2.360816e-002
2.227379e+003, 2.393703e-002
2.229307e+003, 2.459648e-002
2.231236e+003, 2.427756e-002
2.233164e+003, 2.404507e-002
2.235093e+003, 2.489066e-002
2.237021e+003, 2.521640e-002
2.238950e+003, 2.505949e-002
2.240878e+003, 2.495629e-002
2.242807e+003, 2.512140e-002
2.244735e+003, 2.536168e-002
2.246664e+003, 2.498646e-002
2.248592e+003, 2.476999e-002
2.250521e+003, 2.446786e-002
2.252449e+003, 2.385553e-002
2.254377e+003, 2.413169e-002
2.256306e+003, 2.464364e-002
2.258234e+003, 2.446528e-002
2.260163e+003, 2.441877e-002
2.262091e+003, 2.445578e-002
2.264020e+003, 2.446156e-002
2.265948e+003, 2.450845e-002
2.267877e+003, 2.484373e-002
2.269805e+003, 2.516519e-002
2.271734e+003, 2.492283e-002
2.273662e+003, 2.554863e-002
2.275591e+003, 2.641824e-002
2.277519e+003, 2.605100e-002
2.279448e+003, 2.564378e-002
2.281376e+003, 2.538689e-002
2.283304e+003, 2.570960e-002
2.285233e+003, 2.627083e-002
2.287161e+003, 2.630532e-002
2.289090e+003, 2.621737e-002
2.291018e+003, 2.570476e-002
2.292947e+003, 2.577724e-002
2.294875e+003, 2.600139e-002
2.296804e+003, 2.563539e-002
2.298732e+003, 2.556069e-002
2.300661e+003, 2.558324e-002
2.302589e+003, 2.576445e-002
2.304518e+003, 2.609449e-002
2.306446e+003, 2.613575e-002
2.308375e+003, 2.591654e-002
2.310303e+003, 2.601206e-002
2.312231e+003, 2.618357e-002
2.314160e+003, 2.626069e-002
2.316088e+003, 2.630738e-002
2.318017e+003, 2.631789e-002
2.319945e+003, 2.682296e-002
2.321874e+003, 2.730480e-002
2.323802e+003, 2.760986e-002
2.325731e+003, 2.725254e-002
2.327659e+003, 2.682436e-002
2.329588e+003, 2.676212e-002
2.331516e+003, 2.664753e-002
2.333445e+003, 2.665532e-002
2.335373e+003, 2.681240e-002
2.337302e+003, 2.652208e-002
2.339230e+003, 2.646720e-002
2.341158e+003, 2.655231e-002
2.343087e+003, 2.643488e-002
2.345015e+003, 2.616885e-002
2.346944e+003, 2.588806e-002
2.348872e+003, 2.553244e-002
2.350801e+003, 2.551827e-002
2.352729e+003, 2.582873e-002
2.354658e+003, 2.610451e-002
2.356586e+003, 2.632864e-002
2.358515e+003, 2.678755e-002
2.360443e+003, 2.693594e-002
2.362372e+003, 2.671620e-002
2.364300e+003, 2.654889e-002
2.366229e+003, 2.612172e-002
2.368157e+003, 2.578835e-002
2.370085e+003, 2.564017e-002
2.372014e+003, 2.543311e-002
2.373942e+003, 2.485962e-002
2.375871e+003, 2.434139e-002
2.377799e+003, 2.415735e-002
2.379728e+003, 2.375457e-002
2.381656e+003, 2.358379e-002
2.383585e+003, 2.357653e-002
2.385513e+003, 2.344694e-002
2.387442e+003, 2.344174e-002
2.389370e+003, 2.354814e-002
2.391299e+003, 2.354703e-002
2.393227e+003, 2.357315e-002
2.395156e+003, 2.355162e-002
2.397084e+003, 2.349511e-002
2.399012e+003, 2.347253e-002
2.400941e+003, 2.371326e-002
2.402869e+003, 2.354012e-002
2.404798e+003, 2.318191e-002
2.406726e+003, 2.325457e-002
2.408655e+003, 2.355894e-002
2.410583e+003, 2.365435e-002
2.412512e+003, 2.339689e-002
2.414440e+003, 2.360906e-002
2.416369e+003, 2.381498e-002
2.418297e+003, 2.369775e-002
2.420226e+003, 2.363629e-002
2.422154e+003, 2.335715e-002
2.424083e+003, 2.323005e-002
2.426011e+003, 2.312396e-002
2.427939e+003, 2.320865e-002
2.429868e+003, 2.337587e-002
2.431796e+003, 2.338795e-002
2.433725e+003, 2.323753e-002
2.435653e+003, 2.355853e-002
2.437582e+003, 2.395892e-002
2.439510e+003, 2.396519e-002
2.441439e+003, 2.368568e-002
2.443367e+003, 2.323456e-002
2.445296e+003, 2.317443e-002
2.447224e+003, 2.358912e-002
2.449153e+003, 2.400608e-002
2.451081e+003, 2.402917e-002
2.453010e+003, 2.400040e-002
2.454938e+003, 2.410666e-002
2.456866e+003, 2.421649e-002
2.458795e+003, 2.411370e-002
2.460723e+003, 2.383915e-002
2.462652e+003, 2.391246e-002
2.464580e+003, 2.368365e-002
2.466509e+003, 2.351693e-002
2.468437e+003, 2.397619e-002
2.470366e+003, 2.410187e-002
2.472294e+003, 2.383742e-002
2.474223e+003, 2.378490e-002
2.476151e+003, 2.369244e-002
2.478080e+003, 2.364252e-002
2.480008e+003, 2.392365e-002
2.481937e+003, 2.413906e-002
2.483865e+003, 2.420617e-002
2.485793e+003, 2.425903e-002
2.487722e+003, 2.405393e-002
2.489650e+003, 2.418482e-002
2.491579e+003, 2.446043e-002
2.493507e+003, 2.473896e-002
2.495436e+003, 2.474426e-002
2.497364e+003, 2.481464e-002
2.499293e+003, 2.464069e-002
2.501221e+003, 2.466873e-002
2.503150e+003, 2.495873e-002
2.505078e+003, 2.508043e-002
2.507007e+003, 2.521531e-002
2.508935e+003, 2.488879e-002
2.510864e+003, 2.498722e-002
2.512792e+003, 2.528223e-002
2.514720e+003, 2.530578e-002
2.516649e+003, 2.531917e-002
2.518577e+003, 2.542983e-002
2.520506e+003, 2.550431e-002
2.522434e+003, 2.561104e-002
2.524363e+003, 2.575028e-002
2.526291e+003, 2.581439e-002
2.528220e+003, 2.599898e-002
2.530148e+003, 2.603294e-002
2.532077e+003, 2.594020e-002
2.534005e+003, 2.612232e-002
2.535934e+003, 2.637355e-002
2.537862e+003, 2.627394e-002
2.539791e+003, 2.566958e-002
2.541719e+003, 2.581109e-002
2.543647e+003, 2.627891e-002
2.545576e+003, 2.625172e-002
2.547504e+003, 2.612784e-002
2.549433e+003, 2.617127e-002
2.551361e+003, 2.645229e-002
2.553290e+003, 2.666651e-002
2.555218e+003, 2.630587e-002
2.557147e+003, 2.609137e-002
2.559075e+003, 2.636799e-002
2.561004e+003, 2.639590e-002
2.562932e+003, 2.648921e-002
2.564861e+003, 2.650815e-002
2.566789e+003, 2.631276e-002
2.568718e+003, 2.659692e-002
2.570646e+003, 2.676732e-002
2.572574e+003, 2.658544e-002
2.574503e+003, 2.664376e-002
2.576431e+003, 2.685769e-002
2.578360e+003, 2.675929e-002
2.580288e+003, 2.683906e-002
2.582217e+003, 2.695636e-002
2.584145e+003, 2.696916e-002
2.586074e+003, 2.711214e-002
2.588002e+003, 2.707329e-002
2.589931e+003, 2.720674e-002
2.591859e+003, 2.733720e-002
2.593788e+003, 2.730925e-002
2.595716e+003, 2.717198e-002
2.597645e+003, 2.743663e-002
2.599573e+003, 2.780112e-002
2.601501e+003, 2.758990e-002
2.603430e+003, 2.728093e-002
2.605358e+003, 2.764072e-002
2.607287e+003, 2.807578e-002
2.609215e+003, 2.822448e-002
2.611144e+003, 2.826331e-002
2.613072e+003, 2.830137e-002
2.615001e+003, 2.855657e-002
2.616929e+003, 2.878052e-002
2.618858e+003, 2.894667e-002
2.620786e+003, 2.905096e-002
2.622715e+003, 2.885035e-002
2.624643e+003, 2.881408e-002
2.626572e+003, 2.873749e-002
2.628500e+003, 2.876596e-002
2.630428e+003, 2.945792e-002
2.632357e+003, 2.984092e-002
2.634285e+003, 2.952019e-002
2.636214e+003, 2.960469e-002
2.638142e+003, 2.993097e-002
2.640071e+003, 2.999250e-002
2.641999e+003, 2.995489e-002
2.643928e+003, 3.012392e-002
2.645856e+003, 3.012200e-002
2.647785e+003, 3.032495e-002
2.649713e+003, 3.062872e-002
2.651642e+003, 3.058907e-002
2.653570e+003, 3.044643e-002
2.655499e+003, 3.047529e-002
2.657427e+003, 3.053120e-002
2.659355e+003, 3.059846e-002
2.661284e+003, 3.039717e-002
2.663212e+003, 3.054954e-002
2.665141e+003, 3.096037e-002
2.667069e+003, 3.099753e-002
2.668998e+003, 3.082554e-002
2.670926e+003, 3.083506e-002
2.672855e+003, 3.087784e-002
2.674783e+003, 3.105080e-002
2.676712e+003, 3.132869e-002
2.678640e+003, 3.146036e-002
2.680569e+003, 3.152988e-002
2.682497e+003, 3.159808e-002
2.684426e+003, 3.164562e-002
2.686354e+003, 3.179865e-002
2.688282e+003, 3.194502e-002
2.690211e+003, 3.206025e-002
2.692139e+003, 3.224171e-002
2.694068e+003, 3.235488e-002
2.695996e+003, 3.252191e-002
2.697925e+003, 3.274156e-002
2.699853e+003, 3.291387e-002
2.701782e+003, 3.303972e-002
2.703710e+003, 3.320776e-002
2.705639e+003, 3.354120e-002
2.707567e+003, 3.360698e-002
2.709496e+003, 3.372002e-002
2.711424e+003, 3.392067e-002
2.713353e+003, 3.406246e-002
2.715281e+003, 3.426556e-002
2.717209e+003, 3.433890e-002
2.719138e+003, 3.420091e-002
2.721066e+003, 3.438088e-002
2.722995e+003, 3.464069e-002
2.724923e+003, 3.473203e-002
2.726852e+003, 3.497951e-002
2.728780e+003, 3.545548e-002
2.730709e+003, 3.583043e-002
2.732637e+003, 3.571041e-002
2.734566e+003, 3.561671e-002
2.736494e+003, 3.573653e-002
2.738423e+003, 3.575915e-002
2.740351e+003, 3.601703e-002
2.742280e+003, 3.637017e-002
2.744208e+003, 3.663778e-002
2.746136e+003, 3.682544e-002
2.748065e+003, 3.708447e-002
2.749993e+003, 3.749682e-002
2.751922e+003, 3.783625e-002
2.753850e+003, 3.807304e-002
2.755779e+003, 3.831243e-002
2.757707e+003, 3.844582e-002
2.759636e+003, 3.853083e-002
2.761564e+003, 3.846616e-002
2.763493e+003, 3.836422e-002
2.765421e+003, 3.875940e-002
2.767350e+003, 3.926765e-002
2.769278e+003, 3.934333e-002
2.771207e+003, 3.973003e-002
2.773135e+003, 4.040206e-002
2.775063e+003, 4.060613e-002
2.776992e+003, 4.037720e-002
2.778920e+003, 4.059993e-002
2.780849e+003, 4.115352e-002
2.782777e+003, 4.121055e-002
2.784706e+003, 4.122934e-002
2.786634e+003, 4.173034e-002
2.788563e+003, 4.196740e-002
2.790491e+003, 4.224385e-002
2.792420e+003, 4.263971e-002
2.794348e+003, 4.261953e-002
2.796277e+003, 4.254499e-002
2.798205e+003, 4.285758e-002
2.800134e+003, 4.343656e-002
2.802062e+003, 4.398429e-002
2.803990e+003, 4.435258e-002
2.805919e+003, 4.461852e-002
2.807847e+003, 4.463921e-002
2.809776e+003, 4.501849e-002
2.811704e+003, 4.555278e-002
2.813633e+003, 4.580395e-002
2.815561e+003, 4.597043e-002
2.817490e+003, 4.626905e-002
2.819418e+003, 4.647154e-002
2.821347e+003, 4.684308e-002
2.823275e+003, 4.720681e-002
2.825204e+003, 4.767045e-002
2.827132e+003, 4.812830e-002
2.829061e+003, 4.854836e-002
2.830989e+003, 4.877610e-002
2.832917e+003, 4.918710e-002
2.834846e+003, 4.971913e-002
2.836774e+003, 5.005633e-002
2.838703e+003, 5.046399e-002
2.840631e+003, 5.098653e-002
2.842560e+003, 5.177234e-002
2.844488e+003, 5.221941e-002
2.846417e+003, 5.223401e-002
2.848345e+003, 5.240415e-002
2.850274e+003, 5.270091e-002
2.852202e+003, 5.329412e-002
2.854131e+003, 5.394809e-002
2.856059e+003, 5.473077e-002
2.857988e+003, 5.552897e-002
2.859916e+003, 5.596919e-002
2.861844e+003, 5.648996e-002
2.863773e+003, 5.720340e-002
2.865701e+003, 5.786281e-002
2.867630e+003, 5.870583e-002
2.869558e+003, 5.981047e-002
2.871487e+003, 6.044370e-002
2.873415e+003, 6.069144e-002
2.875344e+003, 6.092808e-002
2.877272e+003, 6.071038e-002
2.879201e+003, 6.067061e-002
2.881129e+003, 6.097700e-002
2.883058e+003, 6.140217e-002
2.884986e+003, 6.184876e-002
2.886915e+003, 6.221500e-002
2.888843e+003, 6.241163e-002
2.890771e+003, 6.274292e-002
2.892700e+003, 6.350565e-002
2.894628e+003, 6.431127e-002
2.896557e+003, 6.515513e-002
2.898485e+003, 6.590160e-002
2.900414e+003, 6.634112e-002
2.902342e+003, 6.677693e-002
2.904271e+003, 6.751963e-002
2.906199e+003, 6.814940e-002
2.908128e+003, 6.849922e-002
2.910056e+003, 6.886449e-002
2.911985e+003, 6.906435e-002
2.913913e+003, 6.929097e-002
2.915842e+003, 6.995708e-002
2.917770e+003, 7.061207e-002
2.919698e+003, 7.106309e-002
2.921627e+003, 7.241452e-002
2.923555e+003, 7.386439e-002
2.925484e+003, 7.447373e-002
2.927412e+003, 7.451209e-002
2.929341e+003, 7.513842e-002
2.931269e+003, 7.613219e-002
2.933198e+003, 7.663154e-002
2.935126e+003, 7.690727e-002
2.937055e+003, 7.700831e-002
2.938983e+003, 7.696762e-002
2.940912e+003, 7.738806e-002
2.942840e+003, 7.804214e-002
2.944769e+003, 7.870666e-002
2.946697e+003, 7.968219e-002
2.948625e+003, 8.058925e-002
2.950554e+003, 8.159511e-002
2.952482e+003, 8.265258e-002
2.954411e+003, 8.375627e-002
2.956339e+003, 8.468363e-002
2.958268e+003, 8.544137e-002
2.960196e+003, 8.570428e-002
2.962125e+003, 8.586563e-002
2.964053e+003, 8.602303e-002
2.965982e+003, 8.568314e-002
2.967910e+003, 8.536167e-002
2.969839e+003, 8.500671e-002
2.971767e+003, 8.475081e-002
2.973696e+003, 8.450141e-002
2.975624e+003, 8.434821e-002
2.977552e+003, 8.447602e-002
2.979481e+003, 8.443397e-002
2.981409e+003, 8.448374e-002
2.983338e+003, 8.441892e-002
2.985266e+003, 8.412394e-002
2.987195e+003, 8.400326e-002
2.989123e+003, 8.435388e-002
2.991052e+003, 8.460933e-002
2.992980e+003, 8.506282e-002
2.994909e+003, 8.579963e-002
2.996837e+003, 8.635673e-002
2.998766e+003, 8.677364e-002
3.000694e+003, 8.671984e-002
3.002623e+003, 8.691496e-002
3.004551e+003, 8.800293e-002
3.006479e+003, 8.864848e-002
3.008408e+003, 8.872484e-002
3.010336e+003, 8.922412e-002
3.012265e+003, 9.023818e-002
3.014193e+003, 9.110305e-002
3.016122e+003, 9.188598e-002
3.018050e+003, 9.220558e-002
3.019979e+003, 9.224214e-002
3.021907e+003, 9.268327e-002
3.023836e+003, 9.305381e-002
3.025764e+003, 9.329339e-002
3.027693e+003, 9.387364e-002
3.029621e+003, 9.485701e-002
3.031550e+003, 9.585214e-002
3.033478e+003, 9.668795e-002
3.035406e+003, 9.708040e-002
3.037335e+003, 9.750207e-002
3.039263e+003, 9.792408e-002
3.041192e+003, 9.838051e-002
3.043120e+003, 9.913966e-002
3.045049e+003, 9.989440e-002
3.046977e+003, 1.004404e-001
3.048906e+003, 1.007528e-001
3.050834e+003, 1.012188e-001
3.052763e+003, 1.021206e-001
3.054691e+003, 1.026045e-001
3.056620e+003, 1.033336e-001
3.058548e+003, 1.040698e-001
3.060477e+003, 1.044384e-001
3.062405e+003, 1.054217e-001
3.064333e+003, 1.064612e-001
3.066262e+003, 1.066362e-001
3.068190e+003, 1.069901e-001
3.070119e+003, 1.073661e-001
3.072047e+003, 1.080012e-001
3.073976e+003, 1.090920e-001
3.075904e+003, 1.100191e-001
3.077833e+003, 1.101389e-001
3.079761e+003, 1.108224e-001
3.081690e+003, 1.116121e-001
3.083618e+003, 1.120597e-001
3.085547e+003, 1.127436e-001
3.087475e+003, 1.135250e-001
3.089404e+003, 1.140951e-001
3.091332e+003, 1.145789e-001
3.093260e+003, 1.151737e-001
3.095189e+003, 1.159926e-001
3.097117e+003, 1.168681e-001
3.099046e+003, 1.176902e-001
3.100974e+003, 1.188332e-001
3.102903e+003, 1.195990e-001
3.104831e+003, 1.198568e-001
3.106760e+003, 1.206470e-001
3.108688e+003, 1.213355e-001
3.110617e+003, 1.218643e-001
3.112545e+003, 1.229233e-001
3.114474e+003, 1.234142e-001
3.116402e+003, 1.238751e-001
3.118331e+003, 1.247116e-001
3.120259e+003, 1.252975e-001
3.122188e+003, 1.260345e-001
3.124116e+003, 1.266059e-001
3.126044e+003, 1.273627e-001
3.127973e+003, 1.280789e-001
3.129901e+003, 1.284757e-001
3.131830e+003, 1.291191e-001
3.133758e+003, 1.298595e-001
3.135687e+003, 1.305411e-001
3.137615e+003, 1.315685e-001
3.139544e+003, 1.320181e-001
3.141472e+003, 1.326963e-001
3.143401e+003, 1.335474e-001
3.145329e+003, 1.340151e-001
3.147258e+003, 1.349500e-001
3.149186e+003, 1.358609e-001
3.151115e+003, 1.360591e-001
3.153043e+003, 1.363941e-001
3.154971e+003, 1.374578e-001
3.156900e+003, 1.387882e-001
3.158828e+003, 1.394033e-001
3.160757e+003, 1.401537e-001
3.162685e+003, 1.412420e-001
3.164614e+003, 1.419888e-001
3.166542e+003, 1.422456e-001
3.168471e+003, 1.430254e-001
3.170399e+003, 1.438494e-001
3.172328e+003, 1.450399e-001
3.174256e+003, 1.462025e-001
3.176185e+003, 1.470381e-001
3.178113e+003, 1.481497e-001
3.180042e+003, 1.488938e-001
3.181970e+003, 1.494857e-001
3.183898e+003, 1.508791e-001
3.185827e+003, 1.520968e-001
3.187755e+003, 1.530266e-001
3.189684e+003, 1.541012e-001
3.191612e+003, 1.548469e-001
3.193541e+003, 1.557297e-001
3.195469e+003, 1.571983e-001
3.197398e+003, 1.588513e-001
3.199326e+003, 1.597460e-001
3.201255e+003, 1.604877e-001
3.203183e+003, 1.618101e-001
3.205112e+003, 1.630101e-001
3.207040e+003, 1.639272e-001
3.208969e+003, 1.647507e-001
3.210897e+003, 1.654267e-001
3.212825e+003, 1.662273e-001
3.214754e+003, 1.677366e-001
3.216682e+003, 1.690002e-001
3.218611e+003, 1.697264e-001
3.220539e+003, 1.699152e-001
3.222468e+003, 1.703270e-001
3.224396e+003, 1.714296e-001
3.226325e+003, 1.726571e-001
3.228253e+003, 1.734531e-001
3.230182e+003, 1.737115e-001
3.232110e+003, 1.745591e-001
3.234039e+003, 1.756650e-001
3.235967e+003, 1.763588e-001
3.237896e+003, 1.769814e-001
3.239824e+003, 1.776190e-001
3.241752e+003, 1.777460e-001
3.243681e+003, 1.781866e-001
3.245609e+003, 1.789296e-001
3.247538e+003, 1.793879e-001
3.249466e+003, 1.800689e-001
3.251395e+003, 1.807443e-001
3.253323e+003, 1.812801e-001
3.255252e+003, 1.814370e-001
3.257180e+003, 1.819883e-001
3.259109e+003, 1.827159e-001
3.261037e+003, 1.832335e-001
3.262966e+003, 1.833816e-001
3.264894e+003, 1.833252e-001
3.266823e+003, 1.833068e-001
3.268751e+003, 1.841941e-001
3.270679e+003, 1.849055e-001
3.272608e+003, 1.853728e-001
3.274536e+003, 1.855205e-001
3.276465e+003, 1.858842e-001
3.278393e+003, 1.862991e-001
3.280322e+003, 1.866901e-001
3.282250e+003, 1.873311e-001
3.284179e+003, 1.880313e-001
3.286107e+003, 1.882761e-001
3.288036e+003, 1.882922e-001
3.289964e+003, 1.882586e-001
3.291893e+003, 1.887656e-001
3.293821e+003, 1.896360e-001
3.295750e+003, 1.901917e-001
3.297678e+003, 1.902502e-001
3.299606e+003, 1.901811e-001
3.301535e+003, 1.904342e-001
3.303463e+003, 1.912484e-001
3.305392e+003, 1.915014e-001
3.307320e+003, 1.912500e-001
3.309249e+003, 1.909082e-001
3.311177e+003, 1.911021e-001
3.313106e+003, 1.911812e-001
3.315034e+003, 1.905208e-001
3.316963e+003, 1.895985e-001
3.318891e+003, 1.888102e-001
3.320820e+003, 1.884863e-001
3.322748e+003, 1.876892e-001
3.324677e+003, 1.869078e-001
3.326605e+003, 1.862642e-001
3.328533e+003, 1.850343e-001
3.330462e+003, 1.839577e-001
3.332390e+003, 1.826521e-001
3.334319e+003, 1.816415e-001
3.336247e+003, 1.808739e-001
3.338176e+003, 1.798580e-001
3.340104e+003, 1.788663e-001
3.342033e+003, 1.775416e-001
3.343961e+003, 1.758961e-001
3.345890e+003, 1.744775e-001
3.347818e+003, 1.738718e-001
3.349747e+003, 1.739658e-001
3.351675e+003, 1.731797e-001
3.353604e+003, 1.715442e-001
3.355532e+003, 1.708816e-001
3.357460e+003, 1.705624e-001
3.359389e+003, 1.697738e-001
3.361317e+003, 1.690422e-001
3.363246e+003, 1.683839e-001
3.365174e+003, 1.679021e-001
3.367103e+003, 1.670660e-001
3.369031e+003, 1.667994e-001
3.370960e+003, 1.666990e-001
3.372888e+003, 1.658237e-001
3.374817e+003, 1.650524e-001
3.376745e+003, 1.650434e-001
3.378674e+003, 1.645502e-001
3.380602e+003, 1.639672e-001
3.382531e+003, 1.638273e-001
3.384459e+003, 1.633838e-001
3.386387e+003, 1.630083e-001
3.388316e+003, 1.629675e-001
3.390244e+003, 1.625066e-001
3.392173e+003, 1.621109e-001
3.394101e+003, 1.617752e-001
3.396030e+003, 1.610324e-001
3.397958e+003, 1.606760e-001
3.399887e+003, 1.607201e-001
3.401815e+003, 1.606416e-001
3.403744e+003, 1.604191e-001
3.405672e+003, 1.598695e-001
3.407601e+003, 1.597625e-001
3.409529e+003, 1.597393e-001
3.411458e+003, 1.596480e-001
3.413386e+003, 1.598006e-001
3.415314e+003, 1.600823e-001
3.417243e+003, 1.599087e-001
3.419171e+003, 1.599442e-001
3.421100e+003, 1.600963e-001
3.423028e+003, 1.602280e-001
3.424957e+003, 1.606669e-001
3.426885e+003, 1.610867e-001
3.428814e+003, 1.615940e-001
3.430742e+003, 1.623349e-001
3.432671e+003, 1.628933e-001
3.434599e+003, 1.636295e-001
3.436528e+003, 1.640589e-001
3.438456e+003, 1.645951e-001
3.440385e+003, 1.654341e-001
3.442313e+003, 1.663013e-001
3.444241e+003, 1.678806e-001
3.446170e+003, 1.693982e-001
3.448098e+003, 1.703583e-001
3.450027e+003, 1.714586e-001
3.451955e+003, 1.726099e-001
3.453884e+003, 1.742194e-001
3.455812e+003, 1.759270e-001
3.457741e+003, 1.777449e-001
3.459669e+003, 1.794477e-001
3.461598e+003, 1.816920e-001
3.463526e+003, 1.838725e-001
3.465455e+003, 1.855866e-001
3.467383e+003, 1.879301e-001
3.469312e+003, 1.902602e-001
3.471240e+003, 1.922857e-001
3.473168e+003, 1.948092e-001
3.475097e+003, 1.962210e-001
3.477025e+003, 1.978427e-001
3.478954e+003, 2.000625e-001
3.480882e+003, 2.019676e-001
3.482811e+003, 2.038373e-001
3.484739e+003, 2.056035e-001
3.486668e+003, 2.074362e-001
3.488596e+003, 2.089210e-001
3.490525e+003, 2.094901e-001
3.492453e+003, 2.101806e-001
3.494382e+003, 2.120744e-001
3.496310e+003, 2.133460e-001
3.498239e+003, 2.135219e-001
3.500167e+003, 2.138303e-001
3.502095e+003, 2.139465e-001
3.504024e+003, 2.143050e-001
3.505952e+003, 2.142110e-001
3.507881e+003, 2.137477e-001
3.509809e+003, 2.133114e-001
3.511738e+003, 2.118269e-001
3.513666e+003, 2.102969e-001
3.515595e+003, 2.093990e-001
3.517523e+003, 2.080896e-001
3.519452e+003, 2.064020e-001
3.521380e+003, 2.046652e-001
3.523309e+003, 2.018559e-001
3.525237e+003, 1.983030e-001
3.527166e+003, 1.955835e-001
3.529094e+003, 1.931735e-001
3.531022e+003, 1.906055e-001
3.532951e+003, 1.864614e-001
3.534879e+003, 1.822658e-001
3.536808e+003, 1.790844e-001
3.538736e+003, 1.754411e-001
3.540665e+003, 1.705818e-001
3.542593e+003, 1.660565e-001
3.544522e+003, 1.612920e-001
3.546450e+003, 1.561741e-001
3.548379e+003, 1.518762e-001
3.550307e+003, 1.483306e-001
3.552236e+003, 1.440222e-001
3.554164e+003, 1.387590e-001
3.556093e+003, 1.336266e-001
3.558021e+003, 1.296850e-001
3.559949e+003, 1.260175e-001
3.561878e+003, 1.218650e-001
3.563806e+003, 1.177970e-001
3.565735e+003, 1.142939e-001
3.567663e+003, 1.098347e-001
3.569592e+003, 1.050902e-001
3.571520e+003, 1.015094e-001
3.573449e+003, 9.814318e-002
3.575377e+003, 9.389527e-002
3.577306e+003, 9.017470e-002
3.579234e+003, 8.718781e-002
3.581163e+003, 8.344206e-002
3.583091e+003, 7.968134e-002
3.585020e+003, 7.712359e-002
3.586948e+003, 7.451963e-002
3.588876e+003, 7.144020e-002
3.590805e+003, 6.810398e-002
3.592733e+003, 6.522182e-002
3.594662e+003, 6.267432e-002
3.596590e+003, 6.007619e-002
3.598519e+003, 5.710232e-002
3.600447e+003, 5.438331e-002
3.602376e+003, 5.217060e-002
3.604304e+003, 5.024143e-002
3.606233e+003, 4.825163e-002
3.608161e+003, 4.660066e-002
3.610090e+003, 4.456717e-002
3.612018e+003, 4.212782e-002
3.613947e+003, 4.017340e-002
3.615875e+003, 3.835097e-002
3.617803e+003, 3.684333e-002
3.619732e+003, 3.574629e-002
3.621660e+003, 3.488144e-002
3.623589e+003, 3.349839e-002
3.625517e+003, 3.174193e-002
3.627446e+003, 3.088008e-002
3.629374e+003, 2.975013e-002
3.631303e+003, 2.836962e-002
3.633231e+003, 2.705720e-002
3.635160e+003, 2.583729e-002
3.637088e+003, 2.487789e-002
3.639017e+003, 2.434571e-002
3.640945e+003, 2.394222e-002
3.642874e+003, 2.320240e-002
3.644802e+003, 2.237087e-002
3.646730e+003, 2.195149e-002
3.648659e+003, 2.212244e-002
3.650587e+003, 2.109982e-002
3.652516e+003, 1.947280e-002
3.654444e+003, 1.868475e-002
3.656373e+003, 1.803927e-002
3.658301e+003, 1.761702e-002
3.660230e+003, 1.753480e-002
3.662158e+003, 1.691708e-002
3.664087e+003, 1.690584e-002
3.666015e+003, 1.682363e-002
3.667944e+003, 1.733733e-002
3.669872e+003, 1.799093e-002
3.671801e+003, 1.661034e-002
3.673729e+003, 1.614509e-002
3.675657e+003, 1.674059e-002
3.677586e+003, 1.589304e-002
3.679514e+003, 1.506167e-002
3.681443e+003, 1.436868e-002
3.683371e+003, 1.399300e-002
3.685300e+003, 1.432946e-002
3.687228e+003, 1.525507e-002
3.689157e+003, 1.531941e-002
3.691085e+003, 1.452822e-002
3.693014e+003, 1.442293e-002
3.694942e+003, 1.388512e-002
3.696871e+003, 1.312896e-002
3.698799e+003, 1.374765e-002
3.700728e+003, 1.420589e-002
3.702656e+003, 1.395138e-002
3.704584e+003, 1.382404e-002
3.706513e+003, 1.388558e-002
3.708441e+003, 1.373402e-002
3.710370e+003, 1.388187e-002
3.712298e+003, 1.369453e-002
3.714227e+003, 1.326343e-002
3.716155e+003, 1.361557e-002
3.718084e+003, 1.383246e-002
3.720012e+003, 1.363922e-002
3.721941e+003, 1.347091e-002
3.723869e+003, 1.304334e-002
3.725798e+003, 1.303227e-002
3.727726e+003, 1.324781e-002
3.729655e+003, 1.311372e-002
3.731583e+003, 1.352749e-002
3.733511e+003, 1.401977e-002
3.735440e+003, 1.480932e-002
3.737368e+003, 1.462738e-002
3.739297e+003, 1.421802e-002
3.741225e+003, 1.454287e-002
3.743154e+003, 1.523725e-002
3.745082e+003, 1.488538e-002
3.747011e+003, 1.423912e-002
3.748939e+003, 1.475689e-002
3.750868e+003, 1.461059e-002
3.752796e+003, 1.418202e-002
3.754725e+003, 1.372503e-002
3.756653e+003, 1.356863e-002
3.758582e+003, 1.341987e-002
3.760510e+003, 1.380843e-002
3.762438e+003, 1.400321e-002
3.764367e+003, 1.361226e-002
3.766295e+003, 1.376304e-002
3.768224e+003, 1.460205e-002
3.770152e+003, 1.454737e-002
3.772081e+003, 1.440663e-002
3.774009e+003, 1.440615e-002
3.775938e+003, 1.437261e-002
3.777866e+003, 1.425278e-002
3.779795e+003, 1.446154e-002
3.781723e+003, 1.398419e-002
3.783652e+003, 1.370355e-002
3.785580e+003, 1.350830e-002
3.787509e+003, 1.316205e-002
3.789437e+003, 1.348582e-002
3.791365e+003, 1.430626e-002
3.793294e+003, 1.364943e-002
3.795222e+003, 1.329414e-002
3.797151e+003, 1.350813e-002
3.799079e+003, 1.449657e-002
3.801008e+003, 1.529602e-002
3.802936e+003, 1.447553e-002
3.804865e+003, 1.483227e-002
3.806793e+003, 1.545409e-002
3.808722e+003, 1.412251e-002
3.810650e+003, 1.378368e-002
3.812579e+003, 1.434702e-002
3.814507e+003, 1.505305e-002
3.816436e+003, 1.559235e-002
3.818364e+003, 1.526565e-002
3.820292e+003, 1.561639e-002
3.822221e+003, 1.533205e-002
3.824149e+003, 1.468167e-002
3.826078e+003, 1.446155e-002
3.828006e+003, 1.414836e-002
3.829935e+003, 1.468516e-002
3.831863e+003, 1.556085e-002
3.833792e+003, 1.631265e-002
3.835720e+003, 1.601554e-002
3.837649e+003, 1.554080e-002
3.839577e+003, 1.537422e-002
3.841506e+003, 1.527261e-002
3.843434e+003, 1.475446e-002
3.845363e+003, 1.419391e-002
3.847291e+003, 1.408892e-002
3.849219e+003, 1.512126e-002
3.851148e+003, 1.631336e-002
3.853076e+003, 1.753071e-002
3.855005e+003, 1.670133e-002
3.856933e+003, 1.532797e-002
3.858862e+003, 1.499526e-002
3.860790e+003, 1.515919e-002
3.862719e+003, 1.543800e-002
3.864647e+003, 1.547374e-002
3.866576e+003, 1.527485e-002
3.868504e+003, 1.597682e-002
3.870433e+003, 1.566154e-002
3.872361e+003, 1.458570e-002
3.874290e+003, 1.458739e-002
3.876218e+003, 1.498724e-002
3.878146e+003, 1.489383e-002
3.880075e+003, 1.435228e-002
3.882003e+003, 1.474604e-002
3.883932e+003, 1.549441e-002
3.885860e+003, 1.578697e-002
3.887789e+003, 1.534782e-002
3.889717e+003, 1.516361e-002
3.891646e+003, 1.521080e-002
3.893574e+003, 1.534306e-002
3.895503e+003, 1.521598e-002
3.897431e+003, 1.517934e-002
3.899360e+003, 1.576329e-002
3.901288e+003, 1.597125e-002
3.903217e+003, 1.592875e-002
3.905145e+003, 1.586112e-002
3.907073e+003, 1.552009e-002
3.909002e+003, 1.541038e-002
3.910930e+003, 1.547539e-002
3.912859e+003, 1.545279e-002
3.914787e+003, 1.578848e-002
3.916716e+003, 1.565244e-002
3.918644e+003, 1.559935e-002
3.920573e+003, 1.553493e-002
3.922501e+003, 1.550820e-002
3.924430e+003, 1.581321e-002
3.926358e+003, 1.615283e-002
3.928287e+003, 1.578159e-002
3.930215e+003, 1.571508e-002
3.932144e+003, 1.588099e-002
3.934072e+003, 1.575156e-002
3.936000e+003, 1.552961e-002
3.937929e+003, 1.588527e-002
3.939857e+003, 1.608346e-002
3.941786e+003, 1.606774e-002
3.943714e+003, 1.598868e-002
3.945643e+003, 1.577786e-002
3.947571e+003, 1.608064e-002
3.949500e+003, 1.586051e-002
3.951428e+003, 1.548735e-002
3.953357e+003, 1.592454e-002
3.955285e+003, 1.606950e-002
3.957214e+003, 1.607283e-002
3.959142e+003, 1.657201e-002
3.961071e+003, 1.634092e-002
3.962999e+003, 1.570036e-002
3.964927e+003, 1.582614e-002
3.966856e+003, 1.607038e-002
3.968784e+003, 1.610076e-002
3.970713e+003, 1.574422e-002
3.972641e+003, 1.514240e-002
3.974570e+003, 1.562266e-002
3.976498e+003, 1.608142e-002
3.978427e+003, 1.586971e-002
3.980355e+003, 1.631324e-002
3.982284e+003, 1.626788e-002
3.984212e+003, 1.601060e-002
3.986141e+003, 1.603622e-002
3.988069e+003, 1.603026e-002
3.989998e+003, 1.591686e-002
3.991926e+003, 1.586637e-002
3.993854e+003, 1.584185e-002
3.995783e+003, 1.592220e-002
3.997711e+003, 1.642914e-002
3.999640e+003, 1.608713e-002
4.001568e+003, 0.000000e+000
##END=



