##NAMES=Skutterudite
##RRUFFID=R050593
##IDEAL CHEMISTRY=Co^3+^As_3_
##LOCALITY=Bou Azzer, Morocco
##OWNER=RRUFF
##SOURCE=Marcus Origlieri
##DESCRIPTION=Gray metallic, massive to coarsely crystalline
##STATUS=The identification of this mineral has been confirmed by X-ray diffraction and chemical analysis
##URL=rruff.info/R050593
##MEASURED CHEMISTRY=(Co_0.86_Fe_0.11_Ni_0.07_)_Σ=1.04_(As_2.93_S_0.07_)_Σ=3.00_
3.991926e+002, 2.541224e-001
4.011211e+002, 2.627274e-001
4.030496e+002, 2.639905e-001
4.049780e+002, 2.649448e-001
4.069065e+002, 2.636050e-001
4.088350e+002, 2.644586e-001
4.107634e+002, 2.681163e-001
4.126919e+002, 2.707852e-001
4.146204e+002, 2.709804e-001
4.165488e+002, 2.632397e-001
4.184773e+002, 2.615524e-001
4.204058e+002, 2.698213e-001
4.223342e+002, 2.761096e-001
4.242627e+002, 2.727784e-001
4.261912e+002, 2.678911e-001
4.281196e+002, 2.675940e-001
4.300481e+002, 2.665652e-001
4.319766e+002, 2.683437e-001
4.339050e+002, 2.710805e-001
4.358335e+002, 2.716486e-001
4.377620e+002, 2.727514e-001
4.396904e+002, 2.756026e-001
4.416189e+002, 2.751913e-001
4.435474e+002, 2.729305e-001
4.454758e+002, 2.741471e-001
4.474043e+002, 2.756082e-001
4.493328e+002, 2.739764e-001
4.512612e+002, 2.745166e-001
4.531897e+002, 2.790389e-001
4.551182e+002, 2.818870e-001
4.570466e+002, 2.823807e-001
4.589751e+002, 2.819209e-001
4.609036e+002, 2.821219e-001
4.628320e+002, 2.847433e-001
4.647605e+002, 2.854348e-001
4.666890e+002, 2.842696e-001
4.686174e+002, 2.841897e-001
4.705459e+002, 2.866891e-001
4.724744e+002, 2.870355e-001
4.744028e+002, 2.863770e-001
4.763313e+002, 2.863235e-001
4.782598e+002, 2.877576e-001
4.801882e+002, 2.887877e-001
4.821167e+002, 2.897247e-001
4.840452e+002, 2.917210e-001
4.859736e+002, 2.942646e-001
4.879021e+002, 2.935545e-001
4.898306e+002, 2.910339e-001
4.917590e+002, 2.911012e-001
4.936875e+002, 2.918588e-001
4.956160e+002, 2.933292e-001
4.975444e+002, 2.945735e-001
4.994729e+002, 2.956046e-001
5.014014e+002, 2.973114e-001
5.033298e+002, 2.986464e-001
5.052583e+002, 3.005052e-001
5.071868e+002, 2.999330e-001
5.091152e+002, 2.983060e-001
5.110437e+002, 3.009794e-001
5.129722e+002, 3.037033e-001
5.149006e+002, 3.035264e-001
5.168291e+002, 3.041270e-001
5.187576e+002, 3.049099e-001
5.206860e+002, 3.056841e-001
5.226145e+002, 3.050302e-001
5.245430e+002, 3.043331e-001
5.264714e+002, 3.044856e-001
5.283999e+002, 3.037597e-001
5.303284e+002, 3.043999e-001
5.322568e+002, 3.063291e-001
5.341853e+002, 3.069549e-001
5.361138e+002, 3.077645e-001
5.380422e+002, 3.086717e-001
5.399707e+002, 3.090741e-001
5.418992e+002, 3.098950e-001
5.438276e+002, 3.115622e-001
5.457561e+002, 3.131927e-001
5.476846e+002, 3.125410e-001
5.496130e+002, 3.128582e-001
5.515415e+002, 3.145169e-001
5.534700e+002, 3.146967e-001
5.553984e+002, 3.158829e-001
5.573269e+002, 3.179846e-001
5.592554e+002, 3.185709e-001
5.611838e+002, 3.187352e-001
5.631123e+002, 3.190457e-001
5.650408e+002, 3.187987e-001
5.669692e+002, 3.185508e-001
5.688977e+002, 3.201616e-001
5.708262e+002, 3.214966e-001
5.727546e+002, 3.214157e-001
5.746831e+002, 3.217971e-001
5.766116e+002, 3.222173e-001
5.785400e+002, 3.232875e-001
5.804685e+002, 3.245953e-001
5.823970e+002, 3.251271e-001
5.843254e+002, 3.260328e-001
5.862539e+002, 3.270060e-001
5.881824e+002, 3.274528e-001
5.901108e+002, 3.283213e-001
5.920393e+002, 3.284334e-001
5.939678e+002, 3.281415e-001
5.958962e+002, 3.287713e-001
5.978247e+002, 3.294789e-001
5.997532e+002, 3.307403e-001
6.016816e+002, 3.309236e-001
6.036101e+002, 3.307843e-001
6.055386e+002, 3.319537e-001
6.074670e+002, 3.323947e-001
6.093955e+002, 3.331804e-001
6.113240e+002, 3.347092e-001
6.132524e+002, 3.353806e-001
6.151809e+002, 3.358947e-001
6.171094e+002, 3.357819e-001
6.190378e+002, 3.353578e-001
6.209663e+002, 3.356030e-001
6.228948e+002, 3.365709e-001
6.248232e+002, 3.376392e-001
6.267517e+002, 3.382578e-001
6.286802e+002, 3.386239e-001
6.306086e+002, 3.394128e-001
6.325371e+002, 3.398433e-001
6.344656e+002, 3.402170e-001
6.363940e+002, 3.406753e-001
6.383225e+002, 3.413307e-001
6.402510e+002, 3.417749e-001
6.421794e+002, 3.424675e-001
6.441079e+002, 3.428848e-001
6.460364e+002, 3.428272e-001
6.479648e+002, 3.423111e-001
6.498933e+002, 3.422446e-001
6.518218e+002, 3.432450e-001
6.537502e+002, 3.436632e-001
6.556787e+002, 3.444829e-001
6.576072e+002, 3.457125e-001
6.595356e+002, 3.463051e-001
6.614641e+002, 3.474709e-001
6.633926e+002, 3.474904e-001
6.653210e+002, 3.473256e-001
6.672495e+002, 3.479113e-001
6.691780e+002, 3.481473e-001
6.711064e+002, 3.483076e-001
6.730349e+002, 3.494466e-001
6.749634e+002, 3.499176e-001
6.768918e+002, 3.498227e-001
6.788203e+002, 3.501477e-001
6.807488e+002, 3.503604e-001
6.826772e+002, 3.509115e-001
6.846057e+002, 3.517188e-001
6.865342e+002, 3.519528e-001
6.884626e+002, 3.531754e-001
6.903911e+002, 3.537649e-001
6.923196e+002, 3.541933e-001
6.942480e+002, 3.552053e-001
6.961765e+002, 3.557356e-001
6.981050e+002, 3.565685e-001
7.000334e+002, 3.572631e-001
7.019619e+002, 3.581760e-001
7.038904e+002, 3.586906e-001
7.058188e+002, 3.586319e-001
7.077473e+002, 3.586962e-001
7.096758e+002, 3.593251e-001
7.116042e+002, 3.598104e-001
7.135327e+002, 3.591950e-001
7.154612e+002, 3.585340e-001
7.173896e+002, 3.588229e-001
7.193181e+002, 3.601511e-001
7.212466e+002, 3.606273e-001
7.231750e+002, 3.603619e-001
7.251035e+002, 3.607382e-001
7.270320e+002, 3.607271e-001
7.289604e+002, 3.617530e-001
7.308889e+002, 3.633407e-001
7.328174e+002, 3.636600e-001
7.347458e+002, 3.640231e-001
7.366743e+002, 3.647377e-001
7.386028e+002, 3.650799e-001
7.405313e+002, 3.647583e-001
7.424597e+002, 3.651890e-001
7.443882e+002, 3.661216e-001
7.463167e+002, 3.671107e-001
7.482451e+002, 3.680502e-001
7.501736e+002, 3.689269e-001
7.521021e+002, 3.692619e-001
7.540305e+002, 3.693028e-001
7.559590e+002, 3.699553e-001
7.578875e+002, 3.709761e-001
7.598159e+002, 3.713234e-001
7.617444e+002, 3.711968e-001
7.636729e+002, 3.714168e-001
7.656013e+002, 3.725293e-001
7.675298e+002, 3.728823e-001
7.694583e+002, 3.729656e-001
7.713867e+002, 3.732621e-001
7.733152e+002, 3.742643e-001
7.752437e+002, 3.751884e-001
7.771721e+002, 3.754146e-001
7.791006e+002, 3.755591e-001
7.810291e+002, 3.763444e-001
7.829575e+002, 3.766552e-001
7.848860e+002, 3.772025e-001
7.868145e+002, 3.778900e-001
7.887429e+002, 3.786108e-001
7.906714e+002, 3.791016e-001
7.925999e+002, 3.794168e-001
7.945283e+002, 3.793595e-001
7.964568e+002, 3.794959e-001
7.983853e+002, 3.796808e-001
8.003137e+002, 3.804514e-001
8.022422e+002, 3.808286e-001
8.041707e+002, 3.808603e-001
8.060991e+002, 3.809505e-001
8.080276e+002, 3.809940e-001
8.099561e+002, 3.814393e-001
8.118845e+002, 3.814446e-001
8.138130e+002, 3.819183e-001
8.157415e+002, 3.829536e-001
8.176699e+002, 3.829515e-001
8.195984e+002, 3.830098e-001
8.215269e+002, 3.838063e-001
8.234553e+002, 3.839084e-001
8.253838e+002, 3.840119e-001
8.273123e+002, 3.845798e-001
8.292407e+002, 3.845712e-001
8.311692e+002, 3.849753e-001
8.330977e+002, 3.861068e-001
8.350261e+002, 3.861731e-001
8.369546e+002, 3.862762e-001
8.388831e+002, 3.869305e-001
8.408115e+002, 3.865837e-001
8.427400e+002, 3.871317e-001
8.446685e+002, 3.883279e-001
8.465969e+002, 3.886709e-001
8.485254e+002, 3.883877e-001
8.504539e+002, 3.886522e-001
8.523823e+002, 3.893093e-001
8.543108e+002, 3.902483e-001
8.562393e+002, 3.906713e-001
8.581677e+002, 3.910307e-001
8.600962e+002, 3.920307e-001
8.620247e+002, 3.928719e-001
8.639531e+002, 3.931800e-001
8.658816e+002, 3.939968e-001
8.678101e+002, 3.953422e-001
8.697385e+002, 3.966185e-001
8.716670e+002, 3.973641e-001
8.735955e+002, 3.962506e-001
8.755239e+002, 3.937488e-001
8.774524e+002, 3.912830e-001
8.793809e+002, 3.893051e-001
8.813093e+002, 3.874774e-001
8.832378e+002, 3.865049e-001
8.851663e+002, 3.862928e-001
8.870947e+002, 3.868172e-001
8.890232e+002, 3.881642e-001
8.909517e+002, 3.896962e-001
8.928801e+002, 3.901256e-001
8.948085e+002, 3.904681e-001
8.967370e+002, 3.911935e-001
8.986655e+002, 3.918323e-001
9.005939e+002, 3.924117e-001
9.025224e+002, 3.929555e-001
9.044509e+002, 3.937977e-001
9.063793e+002, 3.941725e-001
9.083078e+002, 3.946730e-001
9.102363e+002, 3.954411e-001
9.121647e+002, 3.955593e-001
9.140932e+002, 3.962690e-001
9.160217e+002, 3.968081e-001
9.179501e+002, 3.969425e-001
9.198786e+002, 3.968871e-001
9.218071e+002, 3.969963e-001
9.237355e+002, 3.976762e-001
9.256640e+002, 3.990176e-001
9.275925e+002, 3.998215e-001
9.295209e+002, 4.002172e-001
9.314494e+002, 4.009435e-001
9.333779e+002, 4.013124e-001
9.353063e+002, 4.015520e-001
9.372348e+002, 4.021975e-001
9.391633e+002, 4.032778e-001
9.410917e+002, 4.040858e-001
9.430202e+002, 4.044978e-001
9.449487e+002, 4.046852e-001
9.468771e+002, 4.052037e-001
9.488056e+002, 4.059736e-001
9.507341e+002, 4.065456e-001
9.526625e+002, 4.062817e-001
9.545910e+002, 4.062226e-001
9.565195e+002, 4.074224e-001
9.584479e+002, 4.085597e-001
9.603764e+002, 4.088583e-001
9.623049e+002, 4.086471e-001
9.642333e+002, 4.088469e-001
9.661618e+002, 4.097850e-001
9.680903e+002, 4.102592e-001
9.700187e+002, 4.107691e-001
9.719472e+002, 4.111873e-001
9.738757e+002, 4.110452e-001
9.758041e+002, 4.118558e-001
9.777326e+002, 4.128873e-001
9.796611e+002, 4.130043e-001
9.815895e+002, 4.134792e-001
9.835180e+002, 4.139596e-001
9.854465e+002, 4.138767e-001
9.873749e+002, 4.143379e-001
9.893034e+002, 4.150759e-001
9.912319e+002, 4.150962e-001
9.931603e+002, 4.151675e-001
9.950888e+002, 4.158732e-001
9.970173e+002, 4.167172e-001
9.989457e+002, 4.171904e-001
1.000874e+003, 4.173320e-001
1.002803e+003, 4.174026e-001
1.004731e+003, 4.176758e-001
1.006660e+003, 4.184315e-001
1.008588e+003, 4.189323e-001
1.010517e+003, 4.189733e-001
1.012445e+003, 4.196128e-001
1.014373e+003, 4.198099e-001
1.016302e+003, 4.198498e-001
1.018230e+003, 4.198895e-001
1.020159e+003, 4.202012e-001
1.022087e+003, 4.212177e-001
1.024016e+003, 4.216057e-001
1.025944e+003, 4.214903e-001
1.027873e+003, 4.221285e-001
1.029801e+003, 4.231578e-001
1.031730e+003, 4.238412e-001
1.033658e+003, 4.238119e-001
1.035587e+003, 4.236828e-001
1.037515e+003, 4.237391e-001
1.039444e+003, 4.241774e-001
1.041372e+003, 4.246061e-001
1.043301e+003, 4.255596e-001
1.045229e+003, 4.260637e-001
1.047157e+003, 4.257047e-001
1.049086e+003, 4.255117e-001
1.051014e+003, 4.257814e-001
1.052943e+003, 4.260121e-001
1.054871e+003, 4.260862e-001
1.056800e+003, 4.262254e-001
1.058728e+003, 4.270460e-001
1.060657e+003, 4.278814e-001
1.062585e+003, 4.280259e-001
1.064514e+003, 4.278592e-001
1.066442e+003, 4.282417e-001
1.068371e+003, 4.285211e-001
1.070299e+003, 4.282584e-001
1.072228e+003, 4.290620e-001
1.074156e+003, 4.300731e-001
1.076084e+003, 4.303381e-001
1.078013e+003, 4.305079e-001
1.079941e+003, 4.308055e-001
1.081870e+003, 4.308985e-001
1.083798e+003, 4.308251e-001
1.085727e+003, 4.310317e-001
1.087655e+003, 4.313945e-001
1.089584e+003, 4.319470e-001
1.091512e+003, 4.320975e-001
1.093441e+003, 4.325810e-001
1.095369e+003, 4.335952e-001
1.097298e+003, 4.337890e-001
1.099226e+003, 4.334383e-001
1.101155e+003, 4.338100e-001
1.103083e+003, 4.344285e-001
1.105011e+003, 4.349996e-001
1.106940e+003, 4.351989e-001
1.108868e+003, 4.350339e-001
1.110797e+003, 4.351480e-001
1.112725e+003, 4.356171e-001
1.114654e+003, 4.360764e-001
1.116582e+003, 4.363289e-001
1.118511e+003, 4.364906e-001
1.120439e+003, 4.368863e-001
1.122368e+003, 4.373432e-001
1.124296e+003, 4.376504e-001
1.126225e+003, 4.380244e-001
1.128153e+003, 4.385976e-001
1.130082e+003, 4.395714e-001
1.132010e+003, 4.406134e-001
1.133938e+003, 4.413813e-001
1.135867e+003, 4.419253e-001
1.137795e+003, 4.421849e-001
1.139724e+003, 4.426512e-001
1.141652e+003, 4.433269e-001
1.143581e+003, 4.438037e-001
1.145509e+003, 4.440766e-001
1.147438e+003, 4.442093e-001
1.149366e+003, 4.444077e-001
1.151295e+003, 4.442173e-001
1.153223e+003, 4.443393e-001
1.155152e+003, 4.443693e-001
1.157080e+003, 4.442397e-001
1.159009e+003, 4.445298e-001
1.160937e+003, 4.446506e-001
1.162865e+003, 4.446163e-001
1.164794e+003, 4.446190e-001
1.166722e+003, 4.445723e-001
1.168651e+003, 4.451028e-001
1.170579e+003, 4.457366e-001
1.172508e+003, 4.458110e-001
1.174436e+003, 4.459572e-001
1.176365e+003, 4.461510e-001
1.178293e+003, 4.464508e-001
1.180222e+003, 4.467205e-001
1.182150e+003, 4.475017e-001
1.184079e+003, 4.478154e-001
1.186007e+003, 4.484149e-001
1.187936e+003, 4.492734e-001
1.189864e+003, 4.499399e-001
1.191792e+003, 4.498286e-001
1.193721e+003, 4.498720e-001
1.195649e+003, 4.509009e-001
1.197578e+003, 4.517732e-001
1.199506e+003, 4.518346e-001
1.201435e+003, 4.520691e-001
1.203363e+003, 4.524598e-001
1.205292e+003, 4.531103e-001
1.207220e+003, 4.537284e-001
1.209149e+003, 4.536291e-001
1.211077e+003, 4.537121e-001
1.213006e+003, 4.541618e-001
1.214934e+003, 4.541246e-001
1.216863e+003, 4.540850e-001
1.218791e+003, 4.543973e-001
1.220719e+003, 4.547783e-001
1.222648e+003, 4.548863e-001
1.224576e+003, 4.549636e-001
1.226505e+003, 4.558235e-001
1.228433e+003, 4.563796e-001
1.230362e+003, 4.565082e-001
1.232290e+003, 4.570578e-001
1.234219e+003, 4.572600e-001
1.236147e+003, 4.574217e-001
1.238076e+003, 4.579450e-001
1.240004e+003, 4.582095e-001
1.241933e+003, 4.582551e-001
1.243861e+003, 4.579537e-001
1.245790e+003, 4.578258e-001
1.247718e+003, 4.587451e-001
1.249646e+003, 4.600763e-001
1.251575e+003, 4.601787e-001
1.253503e+003, 4.599237e-001
1.255432e+003, 4.604016e-001
1.257360e+003, 4.608052e-001
1.259289e+003, 4.609371e-001
1.261217e+003, 4.610786e-001
1.263146e+003, 4.611083e-001
1.265074e+003, 4.615490e-001
1.267003e+003, 4.619827e-001
1.268931e+003, 4.621366e-001
1.270860e+003, 4.623353e-001
1.272788e+003, 4.633819e-001
1.274717e+003, 4.642296e-001
1.276645e+003, 4.643964e-001
1.278573e+003, 4.644541e-001
1.280502e+003, 4.650330e-001
1.282430e+003, 4.654481e-001
1.284359e+003, 4.656797e-001
1.286287e+003, 4.663042e-001
1.288216e+003, 4.668854e-001
1.290144e+003, 4.670955e-001
1.292073e+003, 4.671417e-001
1.294001e+003, 4.677450e-001
1.295930e+003, 4.685126e-001
1.297858e+003, 4.689094e-001
1.299787e+003, 4.693670e-001
1.301715e+003, 4.700463e-001
1.303644e+003, 4.700688e-001
1.305572e+003, 4.699901e-001
1.307500e+003, 4.700205e-001
1.309429e+003, 4.708194e-001
1.311357e+003, 4.718283e-001
1.313286e+003, 4.720853e-001
1.315214e+003, 4.723084e-001
1.317143e+003, 4.730176e-001
1.319071e+003, 4.736067e-001
1.321000e+003, 4.742171e-001
1.322928e+003, 4.746560e-001
1.324857e+003, 4.749690e-001
1.326785e+003, 4.751948e-001
1.328714e+003, 4.754250e-001
1.330642e+003, 4.763494e-001
1.332571e+003, 4.772699e-001
1.334499e+003, 4.778731e-001
1.336427e+003, 4.784836e-001
1.338356e+003, 4.790460e-001
1.340284e+003, 4.790077e-001
1.342213e+003, 4.791933e-001
1.344141e+003, 4.799367e-001
1.346070e+003, 4.810329e-001
1.347998e+003, 4.819562e-001
1.349927e+003, 4.822252e-001
1.351855e+003, 4.823641e-001
1.353784e+003, 4.831220e-001
1.355712e+003, 4.840407e-001
1.357641e+003, 4.849495e-001
1.359569e+003, 4.852403e-001
1.361498e+003, 4.857461e-001
1.363426e+003, 4.868075e-001
1.365354e+003, 4.873632e-001
1.367283e+003, 4.879089e-001
1.369211e+003, 4.886763e-001
1.371140e+003, 4.898538e-001
1.373068e+003, 4.904635e-001
1.374997e+003, 4.910329e-001
1.376925e+003, 4.920540e-001
1.378854e+003, 4.933864e-001
1.380782e+003, 4.943191e-001
1.382711e+003, 4.951913e-001
1.384639e+003, 4.959416e-001
1.386568e+003, 4.962782e-001
1.388496e+003, 4.968770e-001
1.390424e+003, 4.984623e-001
1.392353e+003, 4.996255e-001
1.394281e+003, 4.998543e-001
1.396210e+003, 5.003719e-001
1.398138e+003, 5.011831e-001
1.400067e+003, 5.017411e-001
1.401995e+003, 5.021439e-001
1.403924e+003, 5.027813e-001
1.405852e+003, 5.038056e-001
1.407781e+003, 5.043530e-001
1.409709e+003, 5.043514e-001
1.411638e+003, 5.042062e-001
1.413566e+003, 5.038456e-001
1.415495e+003, 5.032327e-001
1.417423e+003, 5.033964e-001
1.419351e+003, 5.032249e-001
1.421280e+003, 5.023871e-001
1.423208e+003, 5.020150e-001
1.425137e+003, 5.018709e-001
1.427065e+003, 5.016705e-001
1.428994e+003, 5.010548e-001
1.430922e+003, 5.004061e-001
1.432851e+003, 4.994782e-001
1.434779e+003, 4.983715e-001
1.436708e+003, 4.976978e-001
1.438636e+003, 4.974853e-001
1.440565e+003, 4.972195e-001
1.442493e+003, 4.965144e-001
1.444422e+003, 4.959106e-001
1.446350e+003, 4.947417e-001
1.448278e+003, 4.939726e-001
1.450207e+003, 4.936693e-001
1.452135e+003, 4.931376e-001
1.454064e+003, 4.923096e-001
1.455992e+003, 4.914679e-001
1.457921e+003, 4.909808e-001
1.459849e+003, 4.906898e-001
1.461778e+003, 4.894844e-001
1.463706e+003, 4.884259e-001
1.465635e+003, 4.886236e-001
1.467563e+003, 4.882440e-001
1.469492e+003, 4.874644e-001
1.471420e+003, 4.875064e-001
1.473349e+003, 4.874294e-001
1.475277e+003, 4.867061e-001
1.477205e+003, 4.864408e-001
1.479134e+003, 4.864368e-001
1.481062e+003, 4.861941e-001
1.482991e+003, 4.865144e-001
1.484919e+003, 4.864614e-001
1.486848e+003, 4.855511e-001
1.488776e+003, 4.852174e-001
1.490705e+003, 4.849646e-001
1.492633e+003, 4.849099e-001
1.494562e+003, 4.847235e-001
1.496490e+003, 4.846879e-001
1.498419e+003, 4.844959e-001
1.500347e+003, 4.837605e-001
1.502276e+003, 4.836720e-001
1.504204e+003, 4.838386e-001
1.506132e+003, 4.836919e-001
1.508061e+003, 4.837189e-001
1.509989e+003, 4.840468e-001
1.511918e+003, 4.843898e-001
1.513846e+003, 4.844422e-001
1.515775e+003, 4.842502e-001
1.517703e+003, 4.841747e-001
1.519632e+003, 4.839232e-001
1.521560e+003, 4.843021e-001
1.523489e+003, 4.845848e-001
1.525417e+003, 4.847490e-001
1.527346e+003, 4.851547e-001
1.529274e+003, 4.854713e-001
1.531203e+003, 4.852892e-001
1.533131e+003, 4.854036e-001
1.535059e+003, 4.857794e-001
1.536988e+003, 4.858670e-001
1.538916e+003, 4.857629e-001
1.540845e+003, 4.860256e-001
1.542773e+003, 4.862326e-001
1.544702e+003, 4.861558e-001
1.546630e+003, 4.864773e-001
1.548559e+003, 4.868288e-001
1.550487e+003, 4.869945e-001
1.552416e+003, 4.878170e-001
1.554344e+003, 4.882806e-001
1.556273e+003, 4.883207e-001
1.558201e+003, 4.886220e-001
1.560130e+003, 4.892299e-001
1.562058e+003, 4.893528e-001
1.563986e+003, 4.899441e-001
1.565915e+003, 4.907758e-001
1.567843e+003, 4.914171e-001
1.569772e+003, 4.915601e-001
1.571700e+003, 4.913581e-001
1.573629e+003, 4.916315e-001
1.575557e+003, 4.926003e-001
1.577486e+003, 4.932551e-001
1.579414e+003, 4.931897e-001
1.581343e+003, 4.928228e-001
1.583271e+003, 4.936130e-001
1.585200e+003, 4.940444e-001
1.587128e+003, 4.944053e-001
1.589057e+003, 4.948012e-001
1.590985e+003, 4.950011e-001
1.592913e+003, 4.952081e-001
1.594842e+003, 4.955567e-001
1.596770e+003, 4.962519e-001
1.598699e+003, 4.962458e-001
1.600627e+003, 4.965071e-001
1.602556e+003, 4.978462e-001
1.604484e+003, 4.985860e-001
1.606413e+003, 4.984283e-001
1.608341e+003, 4.985798e-001
1.610270e+003, 4.992915e-001
1.612198e+003, 4.992619e-001
1.614127e+003, 4.991297e-001
1.616055e+003, 4.992175e-001
1.617984e+003, 5.002486e-001
1.619912e+003, 5.010636e-001
1.621840e+003, 5.016978e-001
1.623769e+003, 5.024342e-001
1.625697e+003, 5.028809e-001
1.627626e+003, 5.028129e-001
1.629554e+003, 5.029247e-001
1.631483e+003, 5.032377e-001
1.633411e+003, 5.038484e-001
1.635340e+003, 5.039665e-001
1.637268e+003, 5.038117e-001
1.639197e+003, 5.040075e-001
1.641125e+003, 5.044868e-001
1.643054e+003, 5.049555e-001
1.644982e+003, 5.053158e-001
1.646911e+003, 5.056014e-001
1.648839e+003, 5.062659e-001
1.650767e+003, 5.066656e-001
1.652696e+003, 5.069598e-001
1.654624e+003, 5.072749e-001
1.656553e+003, 5.072029e-001
1.658481e+003, 5.071654e-001
1.660410e+003, 5.076406e-001
1.662338e+003, 5.078657e-001
1.664267e+003, 5.081775e-001
1.666195e+003, 5.082874e-001
1.668124e+003, 5.081338e-001
1.670052e+003, 5.091287e-001
1.671981e+003, 5.100655e-001
1.673909e+003, 5.104715e-001
1.675838e+003, 5.103405e-001
1.677766e+003, 5.105855e-001
1.679694e+003, 5.113962e-001
1.681623e+003, 5.116019e-001
1.683551e+003, 5.112491e-001
1.685480e+003, 5.112199e-001
1.687408e+003, 5.117587e-001
1.689337e+003, 5.127333e-001
1.691265e+003, 5.135217e-001
1.693194e+003, 5.137038e-001
1.695122e+003, 5.136634e-001
1.697051e+003, 5.138885e-001
1.698979e+003, 5.148354e-001
1.700908e+003, 5.151719e-001
1.702836e+003, 5.153571e-001
1.704765e+003, 5.154124e-001
1.706693e+003, 5.153810e-001
1.708621e+003, 5.156214e-001
1.710550e+003, 5.162508e-001
1.712478e+003, 5.163833e-001
1.714407e+003, 5.159975e-001
1.716335e+003, 5.161442e-001
1.718264e+003, 5.170901e-001
1.720192e+003, 5.174028e-001
1.722121e+003, 5.174513e-001
1.724049e+003, 5.185238e-001
1.725978e+003, 5.193844e-001
1.727906e+003, 5.193883e-001
1.729835e+003, 5.198331e-001
1.731763e+003, 5.195926e-001
1.733692e+003, 5.192130e-001
1.735620e+003, 5.191668e-001
1.737548e+003, 5.192952e-001
1.739477e+003, 5.192282e-001
1.741405e+003, 5.194088e-001
1.743334e+003, 5.192594e-001
1.745262e+003, 5.194306e-001
1.747191e+003, 5.205317e-001
1.749119e+003, 5.208692e-001
1.751048e+003, 5.207465e-001
1.752976e+003, 5.212905e-001
1.754905e+003, 5.216260e-001
1.756833e+003, 5.225827e-001
1.758762e+003, 5.234803e-001
1.760690e+003, 5.235143e-001
1.762619e+003, 5.233356e-001
1.764547e+003, 5.238612e-001
1.766475e+003, 5.248072e-001
1.768404e+003, 5.245243e-001
1.770332e+003, 5.241877e-001
1.772261e+003, 5.250193e-001
1.774189e+003, 5.258736e-001
1.776118e+003, 5.268444e-001
1.778046e+003, 5.276420e-001
1.779975e+003, 5.274512e-001
1.781903e+003, 5.276024e-001
1.783832e+003, 5.285472e-001
1.785760e+003, 5.289445e-001
1.787689e+003, 5.287543e-001
1.789617e+003, 5.288366e-001
1.791546e+003, 5.296244e-001
1.793474e+003, 5.294913e-001
1.795402e+003, 5.296792e-001
1.797331e+003, 5.296028e-001
1.799259e+003, 5.285395e-001
1.801188e+003, 5.280171e-001
1.803116e+003, 5.288837e-001
1.805045e+003, 5.296549e-001
1.806973e+003, 5.295979e-001
1.808902e+003, 5.298870e-001
1.810830e+003, 5.301541e-001
1.812759e+003, 5.301368e-001
1.814687e+003, 5.295085e-001
1.816616e+003, 5.288569e-001
1.818544e+003, 5.290300e-001
1.820473e+003, 5.300906e-001
1.822401e+003, 5.301602e-001
1.824329e+003, 5.303032e-001
1.826258e+003, 5.309812e-001
1.828186e+003, 5.309913e-001
1.830115e+003, 5.317228e-001
1.832043e+003, 5.331862e-001
1.833972e+003, 5.331987e-001
1.835900e+003, 5.322641e-001
1.837829e+003, 5.318384e-001
1.839757e+003, 5.313066e-001
1.841686e+003, 5.322953e-001
1.843614e+003, 5.327654e-001
1.845543e+003, 5.325742e-001
1.847471e+003, 5.334170e-001
1.849400e+003, 5.343273e-001
1.851328e+003, 5.346386e-001
1.853256e+003, 5.335066e-001
1.855185e+003, 5.326663e-001
1.857113e+003, 5.323456e-001
1.859042e+003, 5.325350e-001
1.860970e+003, 5.336299e-001
1.862899e+003, 5.345586e-001
1.864827e+003, 5.351415e-001
1.866756e+003, 5.354335e-001
1.868684e+003, 5.363751e-001
1.870613e+003, 5.362271e-001
1.872541e+003, 5.346906e-001
1.874470e+003, 5.349576e-001
1.876398e+003, 5.354374e-001
1.878327e+003, 5.353590e-001
1.880255e+003, 5.360014e-001
1.882183e+003, 5.369721e-001
1.884112e+003, 5.367663e-001
1.886040e+003, 5.358877e-001
1.887969e+003, 5.370477e-001
1.889897e+003, 5.380061e-001
1.891826e+003, 5.386850e-001
1.893754e+003, 5.383309e-001
1.895683e+003, 5.382477e-001
1.897611e+003, 5.380653e-001
1.899540e+003, 5.386401e-001
1.901468e+003, 5.391010e-001
1.903397e+003, 5.387822e-001
1.905325e+003, 5.385014e-001
1.907254e+003, 5.384233e-001
1.909182e+003, 5.378237e-001
1.911110e+003, 5.382814e-001
1.913039e+003, 5.387714e-001
1.914967e+003, 5.401511e-001
1.916896e+003, 5.395606e-001
1.918824e+003, 5.387258e-001
1.920753e+003, 5.360278e-001
1.922681e+003, 5.350273e-001
1.924610e+003, 5.362924e-001
1.926538e+003, 5.383129e-001
1.928467e+003, 5.383616e-001
1.930395e+003, 5.372927e-001
1.932324e+003, 5.371304e-001
1.934252e+003, 5.365661e-001
1.936181e+003, 5.360737e-001
1.938109e+003, 5.367417e-001
1.940037e+003, 5.347558e-001
1.941966e+003, 5.349335e-001
1.943894e+003, 5.360321e-001
1.945823e+003, 5.347010e-001
1.947751e+003, 5.342070e-001
1.949680e+003, 5.348108e-001
1.951608e+003, 5.351739e-001
1.953537e+003, 5.334527e-001
1.955465e+003, 5.308766e-001
1.957394e+003, 5.307119e-001
1.959322e+003, 5.303839e-001
1.961251e+003, 5.299640e-001
1.963179e+003, 5.280312e-001
1.965108e+003, 5.279358e-001
1.967036e+003, 5.266916e-001
1.968964e+003, 5.246662e-001
1.970893e+003, 5.246442e-001
1.972821e+003, 5.255920e-001
1.974750e+003, 5.249066e-001
1.976678e+003, 5.257550e-001
1.978607e+003, 5.284461e-001
1.980535e+003, 5.296968e-001
1.982464e+003, 5.322391e-001
1.984392e+003, 5.328730e-001
1.986321e+003, 5.330849e-001
1.988249e+003, 5.372888e-001
1.990178e+003, 5.376827e-001
1.992106e+003, 5.352532e-001
1.994035e+003, 5.356625e-001
1.995963e+003, 5.374002e-001
1.997891e+003, 5.387684e-001
1.999820e+003, 5.354946e-001
2.001748e+003, 5.315336e-001
2.003677e+003, 5.307037e-001
2.005605e+003, 5.325446e-001
2.007534e+003, 5.343024e-001
2.009462e+003, 5.318561e-001
2.011391e+003, 5.314274e-001
2.013319e+003, 5.321360e-001
2.015248e+003, 5.298190e-001
2.017176e+003, 5.265610e-001
2.019105e+003, 5.293632e-001
2.021033e+003, 5.316752e-001
2.022962e+003, 5.329278e-001
2.024890e+003, 5.371491e-001
2.026818e+003, 5.357604e-001
2.028747e+003, 5.317910e-001
2.030675e+003, 5.331681e-001
2.032604e+003, 5.338569e-001
2.034532e+003, 5.332511e-001
2.036461e+003, 5.346815e-001
2.038389e+003, 5.365965e-001
2.040318e+003, 5.383971e-001
2.042246e+003, 5.391053e-001
2.044175e+003, 5.409240e-001
2.046103e+003, 5.427552e-001
2.048032e+003, 5.447204e-001
2.049960e+003, 5.462802e-001
2.051889e+003, 5.473157e-001
2.053817e+003, 5.475777e-001
2.055746e+003, 5.492200e-001
2.057674e+003, 5.492334e-001
2.059603e+003, 5.503273e-001
2.061531e+003, 5.520392e-001
2.063459e+003, 5.548162e-001
2.065388e+003, 5.582287e-001
2.067316e+003, 5.576051e-001
2.069245e+003, 5.556240e-001
2.071173e+003, 5.576969e-001
2.073102e+003, 5.584997e-001
2.075030e+003, 5.573437e-001
2.076959e+003, 5.559036e-001
2.078887e+003, 5.571915e-001
2.080816e+003, 5.608644e-001
2.082744e+003, 5.620334e-001
2.084673e+003, 5.612417e-001
2.086601e+003, 5.617456e-001
2.088530e+003, 5.634535e-001
2.090458e+003, 5.629265e-001
2.092386e+003, 5.619981e-001
2.094315e+003, 5.617521e-001
2.096243e+003, 5.632454e-001
2.098172e+003, 5.644600e-001
2.100100e+003, 5.652443e-001
2.102029e+003, 5.650052e-001
2.103957e+003, 5.650504e-001
2.105886e+003, 5.678536e-001
2.107814e+003, 5.672972e-001
2.109743e+003, 5.664907e-001
2.111671e+003, 5.674211e-001
2.113600e+003, 5.689614e-001
2.115528e+003, 5.678772e-001
2.117457e+003, 5.663939e-001
2.119385e+003, 5.673085e-001
2.121313e+003, 5.685008e-001
2.123242e+003, 5.668570e-001
2.125170e+003, 5.660378e-001
2.127099e+003, 5.659370e-001
2.129027e+003, 5.638221e-001
2.130956e+003, 5.638151e-001
2.132884e+003, 5.603600e-001
2.134813e+003, 5.556245e-001
2.136741e+003, 5.547487e-001
2.138670e+003, 5.574377e-001
2.140598e+003, 5.583521e-001
2.142527e+003, 5.582426e-001
2.144455e+003, 5.576487e-001
2.146384e+003, 5.561211e-001
2.148312e+003, 5.538347e-001
2.150240e+003, 5.508452e-001
2.152169e+003, 5.467448e-001
2.154097e+003, 5.432463e-001
2.156026e+003, 5.397999e-001
2.157954e+003, 5.422591e-001
2.159883e+003, 5.503464e-001
2.161811e+003, 5.543303e-001
2.163740e+003, 5.550985e-001
2.165668e+003, 5.577615e-001
2.167597e+003, 5.598701e-001
2.169525e+003, 5.588533e-001
2.171454e+003, 5.563905e-001
2.173382e+003, 5.601819e-001
2.175311e+003, 5.616824e-001
2.177239e+003, 5.594760e-001
2.179167e+003, 5.589206e-001
2.181096e+003, 5.618180e-001
2.183024e+003, 5.606784e-001
2.184953e+003, 5.582863e-001
2.186881e+003, 5.588126e-001
2.188810e+003, 5.613002e-001
2.190738e+003, 5.641122e-001
2.192667e+003, 5.657151e-001
2.194595e+003, 5.659716e-001
2.196524e+003, 5.661076e-001
2.198452e+003, 5.671218e-001
2.200381e+003, 5.689074e-001
2.202309e+003, 5.709319e-001
2.204238e+003, 5.717526e-001
2.206166e+003, 5.694875e-001
2.208094e+003, 5.663943e-001
2.210023e+003, 5.679619e-001
2.211951e+003, 5.711563e-001
2.213880e+003, 5.703515e-001
2.215808e+003, 5.726327e-001
2.217737e+003, 5.760140e-001
2.219665e+003, 5.768712e-001
2.221594e+003, 5.751472e-001
2.223522e+003, 5.764123e-001
2.225451e+003, 5.793397e-001
2.227379e+003, 5.803526e-001
2.229308e+003, 5.796258e-001
2.231236e+003, 5.793853e-001
2.233165e+003, 5.791610e-001
2.235093e+003, 5.793412e-001
2.237021e+003, 5.811199e-001
2.238950e+003, 5.831439e-001
2.240878e+003, 5.840600e-001
2.242807e+003, 5.839106e-001
2.244735e+003, 5.833924e-001
2.246664e+003, 5.822632e-001
2.248592e+003, 5.835891e-001
2.250521e+003, 5.846092e-001
2.252449e+003, 5.860623e-001
2.254378e+003, 5.873169e-001
2.256306e+003, 5.874043e-001
2.258235e+003, 5.879276e-001
2.260163e+003, 5.883244e-001
2.262092e+003, 5.898385e-001
2.264020e+003, 5.920359e-001
2.265948e+003, 5.918824e-001
2.267877e+003, 5.904204e-001
2.269805e+003, 5.921161e-001
2.271734e+003, 5.943242e-001
2.273662e+003, 5.928214e-001
2.275591e+003, 5.913132e-001
2.277519e+003, 5.944341e-001
2.279448e+003, 5.976269e-001
2.281376e+003, 5.983165e-001
2.283305e+003, 5.991877e-001
2.285233e+003, 6.001998e-001
2.287162e+003, 6.010233e-001
2.289090e+003, 6.016510e-001
2.291019e+003, 6.022687e-001
2.292947e+003, 6.024896e-001
2.294875e+003, 6.033658e-001
2.296804e+003, 6.042436e-001
2.298732e+003, 6.038379e-001
2.300661e+003, 6.049621e-001
2.302589e+003, 6.046132e-001
2.304518e+003, 6.035910e-001
2.306446e+003, 6.045159e-001
2.308375e+003, 6.061165e-001
2.310303e+003, 6.077216e-001
2.312232e+003, 6.082025e-001
2.314160e+003, 6.078528e-001
2.316089e+003, 6.093296e-001
2.318017e+003, 6.093107e-001
2.319946e+003, 6.106606e-001
2.321874e+003, 6.134473e-001
2.323802e+003, 6.145195e-001
2.325731e+003, 6.134102e-001
2.327659e+003, 6.138690e-001
2.329588e+003, 6.137178e-001
2.331516e+003, 6.138133e-001
2.333445e+003, 6.154835e-001
2.335373e+003, 6.165410e-001
2.337302e+003, 6.163825e-001
2.339230e+003, 6.157078e-001
2.341159e+003, 6.152643e-001
2.343087e+003, 6.150040e-001
2.345016e+003, 6.148656e-001
2.346944e+003, 6.143842e-001
2.348873e+003, 6.145450e-001
2.350801e+003, 6.149322e-001
2.352729e+003, 6.144873e-001
2.354658e+003, 6.145912e-001
2.356586e+003, 6.152138e-001
2.358515e+003, 6.160785e-001
2.360443e+003, 6.171257e-001
2.362372e+003, 6.180434e-001
2.364300e+003, 6.182353e-001
2.366229e+003, 6.177847e-001
2.368157e+003, 6.172143e-001
2.370086e+003, 6.167484e-001
2.372014e+003, 6.147653e-001
2.373942e+003, 6.140873e-001
2.375871e+003, 6.155284e-001
2.377799e+003, 6.161171e-001
2.379728e+003, 6.159179e-001
2.381656e+003, 6.156998e-001
2.383585e+003, 6.171569e-001
2.385513e+003, 6.168016e-001
2.387442e+003, 6.151380e-001
2.389370e+003, 6.157956e-001
2.391299e+003, 6.159468e-001
2.393227e+003, 6.164470e-001
2.395156e+003, 6.160855e-001
2.397084e+003, 6.172795e-001
2.399012e+003, 6.174489e-001
2.400941e+003, 6.175355e-001
2.402869e+003, 6.174969e-001
2.404798e+003, 6.182349e-001
2.406726e+003, 6.189839e-001
2.408655e+003, 6.189117e-001
2.410583e+003, 6.195951e-001
2.412512e+003, 6.214926e-001
2.414440e+003, 6.217578e-001
2.416369e+003, 6.210228e-001
2.418297e+003, 6.219400e-001
2.420226e+003, 6.226366e-001
2.422154e+003, 6.210531e-001
2.424083e+003, 6.198164e-001
2.426011e+003, 6.195906e-001
2.427939e+003, 6.193430e-001
2.429868e+003, 6.205086e-001
2.431796e+003, 6.211340e-001
2.433725e+003, 6.214951e-001
2.435653e+003, 6.223384e-001
2.437582e+003, 6.229268e-001
2.439510e+003, 6.222290e-001
2.441439e+003, 6.220540e-001
2.443367e+003, 6.231048e-001
2.445296e+003, 6.239018e-001
2.447224e+003, 6.242868e-001
2.449153e+003, 6.240703e-001
2.451081e+003, 6.248859e-001
2.453010e+003, 6.250913e-001
2.454938e+003, 6.244315e-001
2.456866e+003, 6.249390e-001
2.458795e+003, 6.251058e-001
2.460723e+003, 6.254143e-001
2.462652e+003, 6.262457e-001
2.464580e+003, 6.272539e-001
2.466509e+003, 6.276914e-001
2.468437e+003, 6.266803e-001
2.470366e+003, 6.274254e-001
2.472294e+003, 6.278130e-001
2.474223e+003, 6.288798e-001
2.476151e+003, 6.298361e-001
2.478080e+003, 6.294640e-001
2.480008e+003, 6.295320e-001
2.481937e+003, 6.295478e-001
2.483865e+003, 6.290442e-001
2.485793e+003, 6.290888e-001
2.487722e+003, 6.292779e-001
2.489650e+003, 6.289182e-001
2.491579e+003, 6.303831e-001
2.493507e+003, 6.307960e-001
2.495436e+003, 6.294653e-001
2.497364e+003, 6.299968e-001
2.499293e+003, 6.318156e-001
2.501221e+003, 6.315233e-001
2.503150e+003, 6.320938e-001
2.505078e+003, 6.314251e-001
2.507007e+003, 6.313667e-001
2.508935e+003, 6.328427e-001
2.510864e+003, 6.336960e-001
2.512792e+003, 6.353228e-001
2.514720e+003, 6.349434e-001
2.516649e+003, 6.329402e-001
2.518577e+003, 6.319690e-001
2.520506e+003, 6.329253e-001
2.522434e+003, 6.334058e-001
2.524363e+003, 6.344955e-001
2.526291e+003, 6.353684e-001
2.528220e+003, 6.360037e-001
2.530148e+003, 6.366637e-001
2.532077e+003, 6.372469e-001
2.534005e+003, 6.374207e-001
2.535934e+003, 6.371974e-001
2.537862e+003, 6.368583e-001
2.539791e+003, 6.360884e-001
2.541719e+003, 6.372240e-001
2.543647e+003, 6.380091e-001
2.545576e+003, 6.367282e-001
2.547504e+003, 6.383477e-001
2.549433e+003, 6.417821e-001
2.551361e+003, 6.413624e-001
2.553290e+003, 6.387755e-001
2.555218e+003, 6.382605e-001
2.557147e+003, 6.387732e-001
2.559075e+003, 6.401585e-001
2.561004e+003, 6.427860e-001
2.562932e+003, 6.424929e-001
2.564861e+003, 6.422691e-001
2.566789e+003, 6.431071e-001
2.568718e+003, 6.413730e-001
2.570646e+003, 6.399164e-001
2.572574e+003, 6.414013e-001
2.574503e+003, 6.447383e-001
2.576431e+003, 6.470168e-001
2.578360e+003, 6.462697e-001
2.580288e+003, 6.444298e-001
2.582217e+003, 6.441908e-001
2.584145e+003, 6.462479e-001
2.586074e+003, 6.472392e-001
2.588002e+003, 6.461523e-001
2.589931e+003, 6.463160e-001
2.591859e+003, 6.468610e-001
2.593788e+003, 6.460981e-001
2.595716e+003, 6.468520e-001
2.597645e+003, 6.475381e-001
2.599573e+003, 6.479824e-001
2.601501e+003, 6.476830e-001
2.603430e+003, 6.483088e-001
2.605358e+003, 6.510096e-001
2.607287e+003, 6.506895e-001
2.609215e+003, 6.499483e-001
2.611144e+003, 6.503195e-001
2.613072e+003, 6.524539e-001
2.615001e+003, 6.534956e-001
2.616929e+003, 6.532063e-001
2.618858e+003, 6.526628e-001
2.620786e+003, 6.537405e-001
2.622715e+003, 6.548932e-001
2.624643e+003, 6.541507e-001
2.626572e+003, 6.533021e-001
2.628500e+003, 6.541483e-001
2.630428e+003, 6.550006e-001
2.632357e+003, 6.568613e-001
2.634285e+003, 6.580807e-001
2.636214e+003, 6.579720e-001
2.638142e+003, 6.574695e-001
2.640071e+003, 6.579214e-001
2.641999e+003, 6.587498e-001
2.643928e+003, 6.594136e-001
2.645856e+003, 6.598287e-001
2.647785e+003, 6.602211e-001
2.649713e+003, 6.613081e-001
2.651642e+003, 6.618880e-001
2.653570e+003, 6.612134e-001
2.655499e+003, 6.613625e-001
2.657427e+003, 6.614622e-001
2.659355e+003, 6.614336e-001
2.661284e+003, 6.624327e-001
2.663212e+003, 6.635665e-001
2.665141e+003, 6.640600e-001
2.667069e+003, 6.638306e-001
2.668998e+003, 6.639093e-001
2.670926e+003, 6.645890e-001
2.672855e+003, 6.658374e-001
2.674783e+003, 6.659253e-001
2.676712e+003, 6.644672e-001
2.678640e+003, 6.642066e-001
2.680569e+003, 6.658581e-001
2.682497e+003, 6.663067e-001
2.684426e+003, 6.659110e-001
2.686354e+003, 6.661296e-001
2.688282e+003, 6.660579e-001
2.690211e+003, 6.660321e-001
2.692139e+003, 6.665369e-001
2.694068e+003, 6.671348e-001
2.695996e+003, 6.670248e-001
2.697925e+003, 6.676912e-001
2.699853e+003, 6.684213e-001
2.701782e+003, 6.683291e-001
2.703710e+003, 6.678856e-001
2.705639e+003, 6.690137e-001
2.707567e+003, 6.699941e-001
2.709496e+003, 6.703550e-001
2.711424e+003, 6.705657e-001
2.713353e+003, 6.693570e-001
2.715281e+003, 6.688356e-001
2.717209e+003, 6.693218e-001
2.719138e+003, 6.696114e-001
2.721066e+003, 6.706132e-001
2.722995e+003, 6.719740e-001
2.724923e+003, 6.713112e-001
2.726852e+003, 6.716323e-001
2.728780e+003, 6.732942e-001
2.730709e+003, 6.733664e-001
2.732637e+003, 6.732922e-001
2.734566e+003, 6.741037e-001
2.736494e+003, 6.734244e-001
2.738423e+003, 6.734004e-001
2.740351e+003, 6.742245e-001
2.742280e+003, 6.734298e-001
2.744208e+003, 6.722146e-001
2.746136e+003, 6.727369e-001
2.748065e+003, 6.747763e-001
2.749993e+003, 6.758718e-001
2.751922e+003, 6.760421e-001
2.753850e+003, 6.765727e-001
2.755779e+003, 6.765082e-001
2.757707e+003, 6.769059e-001
2.759636e+003, 6.767488e-001
2.761564e+003, 6.773250e-001
2.763493e+003, 6.774846e-001
2.765421e+003, 6.770936e-001
2.767350e+003, 6.783272e-001
2.769278e+003, 6.784961e-001
2.771207e+003, 6.786866e-001
2.773135e+003, 6.788135e-001
2.775063e+003, 6.785421e-001
2.776992e+003, 6.784433e-001
2.778920e+003, 6.792376e-001
2.780849e+003, 6.797709e-001
2.782777e+003, 6.788914e-001
2.784706e+003, 6.797425e-001
2.786634e+003, 6.807576e-001
2.788563e+003, 6.799812e-001
2.790491e+003, 6.795283e-001
2.792420e+003, 6.812170e-001
2.794348e+003, 6.818150e-001
2.796277e+003, 6.805410e-001
2.798205e+003, 6.802189e-001
2.800134e+003, 6.811211e-001
2.802062e+003, 6.825935e-001
2.803990e+003, 6.833755e-001
2.805919e+003, 6.830929e-001
2.807847e+003, 6.840215e-001
2.809776e+003, 6.844977e-001
2.811704e+003, 6.842018e-001
2.813633e+003, 6.845869e-001
2.815561e+003, 6.850097e-001
2.817490e+003, 6.860635e-001
2.819418e+003, 6.860312e-001
2.821347e+003, 6.854031e-001
2.823275e+003, 6.856673e-001
2.825204e+003, 6.861829e-001
2.827132e+003, 6.871670e-001
2.829061e+003, 6.882544e-001
2.830989e+003, 6.879641e-001
2.832917e+003, 6.882246e-001
2.834846e+003, 6.879510e-001
2.836774e+003, 6.880095e-001
2.838703e+003, 6.883525e-001
2.840631e+003, 6.888007e-001
2.842560e+003, 6.901692e-001
2.844488e+003, 6.904235e-001
2.846417e+003, 6.892861e-001
2.848345e+003, 6.886908e-001
2.850274e+003, 6.904599e-001
2.852202e+003, 6.913908e-001
2.854131e+003, 6.889558e-001
2.856059e+003, 6.869926e-001
2.857988e+003, 6.871777e-001
2.859916e+003, 6.876948e-001
2.861844e+003, 6.896305e-001
2.863773e+003, 6.910679e-001
2.865701e+003, 6.914319e-001
2.867630e+003, 6.894512e-001
2.869558e+003, 6.880872e-001
2.871487e+003, 6.888207e-001
2.873415e+003, 6.902974e-001
2.875344e+003, 6.911398e-001
2.877272e+003, 6.931616e-001
2.879201e+003, 6.947901e-001
2.881129e+003, 6.949938e-001
2.883058e+003, 6.935017e-001
2.884986e+003, 6.933054e-001
2.886915e+003, 6.929449e-001
2.888843e+003, 6.935619e-001
2.890771e+003, 6.942439e-001
2.892700e+003, 6.947286e-001
2.894628e+003, 6.953558e-001
2.896557e+003, 6.949480e-001
2.898485e+003, 6.956373e-001
2.900414e+003, 6.970913e-001
2.902342e+003, 6.957797e-001
2.904271e+003, 6.958189e-001
2.906199e+003, 6.986818e-001
2.908128e+003, 7.008156e-001
2.910056e+003, 6.996931e-001
2.911985e+003, 6.988997e-001
2.913913e+003, 6.994908e-001
2.915842e+003, 6.989245e-001
2.917770e+003, 6.996669e-001
2.919698e+003, 7.002298e-001
2.921627e+003, 6.978391e-001
2.923555e+003, 6.949133e-001
2.925484e+003, 6.955805e-001
2.927412e+003, 6.965176e-001
2.929341e+003, 6.967267e-001
2.931269e+003, 6.958588e-001
2.933198e+003, 6.964588e-001
2.935126e+003, 6.974741e-001
2.937055e+003, 6.964003e-001
2.938983e+003, 6.946295e-001
2.940912e+003, 6.959578e-001
2.942840e+003, 6.968600e-001
2.944769e+003, 6.970248e-001
2.946697e+003, 6.967616e-001
2.948625e+003, 6.973014e-001
2.950554e+003, 6.988567e-001
2.952482e+003, 7.004883e-001
2.954411e+003, 6.997141e-001
2.956339e+003, 6.981474e-001
2.958268e+003, 6.993029e-001
2.960196e+003, 6.998007e-001
2.962125e+003, 6.988377e-001
2.964053e+003, 6.994826e-001
2.965982e+003, 6.993406e-001
2.967910e+003, 6.993525e-001
2.969839e+003, 6.988975e-001
2.971767e+003, 7.000064e-001
2.973696e+003, 7.027961e-001
2.975624e+003, 7.031229e-001
2.977552e+003, 7.026404e-001
2.979481e+003, 7.034790e-001
2.981409e+003, 7.042293e-001
2.983338e+003, 7.043049e-001
2.985266e+003, 7.049050e-001
2.987195e+003, 7.038925e-001
2.989123e+003, 7.038802e-001
2.991052e+003, 7.042830e-001
2.992980e+003, 7.053473e-001
2.994909e+003, 7.054194e-001
2.996837e+003, 7.028546e-001
2.998766e+003, 7.044396e-001
3.000694e+003, 7.073737e-001
3.002623e+003, 7.083070e-001
3.004551e+003, 7.092517e-001
3.006479e+003, 7.078146e-001
3.008408e+003, 7.074685e-001
3.010336e+003, 7.087573e-001
3.012265e+003, 7.097344e-001
3.014193e+003, 7.084490e-001
3.016122e+003, 7.085591e-001
3.018050e+003, 7.106009e-001
3.019979e+003, 7.093059e-001
3.021907e+003, 7.087466e-001
3.023836e+003, 7.094958e-001
3.025764e+003, 7.109564e-001
3.027693e+003, 7.120034e-001
3.029621e+003, 7.115184e-001
3.031550e+003, 7.094597e-001
3.033478e+003, 7.071044e-001
3.035406e+003, 7.082942e-001
3.037335e+003, 7.087596e-001
3.039263e+003, 7.085038e-001
3.041192e+003, 7.109570e-001
3.043120e+003, 7.123716e-001
3.045049e+003, 7.107159e-001
3.046977e+003, 7.096116e-001
3.048906e+003, 7.126080e-001
3.050834e+003, 7.152965e-001
3.052763e+003, 7.172121e-001
3.054691e+003, 7.169819e-001
3.056620e+003, 7.153128e-001
3.058548e+003, 7.158688e-001
3.060477e+003, 7.160546e-001
3.062405e+003, 7.155880e-001
3.064333e+003, 7.142061e-001
3.066262e+003, 7.140028e-001
3.068190e+003, 7.166892e-001
3.070119e+003, 7.188269e-001
3.072047e+003, 7.187134e-001
3.073976e+003, 7.183431e-001
3.075904e+003, 7.168289e-001
3.077833e+003, 7.165530e-001
3.079761e+003, 7.163010e-001
3.081690e+003, 7.191783e-001
3.083618e+003, 7.224371e-001
3.085547e+003, 7.215555e-001
3.087475e+003, 7.198752e-001
3.089404e+003, 7.201385e-001
3.091332e+003, 7.194538e-001
3.093260e+003, 7.192811e-001
3.095189e+003, 7.200534e-001
3.097117e+003, 7.202813e-001
3.099046e+003, 7.221208e-001
3.100974e+003, 7.230611e-001
3.102903e+003, 7.216420e-001
3.104831e+003, 7.208340e-001
3.106760e+003, 7.209623e-001
3.108688e+003, 7.204514e-001
3.110617e+003, 7.201762e-001
3.112545e+003, 7.208049e-001
3.114474e+003, 7.214203e-001
3.116402e+003, 7.221514e-001
3.118331e+003, 7.228526e-001
3.120259e+003, 7.234962e-001
3.122188e+003, 7.231331e-001
3.124116e+003, 7.248014e-001
3.126044e+003, 7.258267e-001
3.127973e+003, 7.241390e-001
3.129901e+003, 7.228944e-001
3.131830e+003, 7.263331e-001
3.133758e+003, 7.287858e-001
3.135687e+003, 7.266440e-001
3.137615e+003, 7.262657e-001
3.139544e+003, 7.286612e-001
3.141472e+003, 7.292984e-001
3.143401e+003, 7.279977e-001
3.145329e+003, 7.273063e-001
3.147258e+003, 7.294311e-001
3.149186e+003, 7.309992e-001
3.151115e+003, 7.319707e-001
3.153043e+003, 7.294994e-001
3.154971e+003, 7.283604e-001
3.156900e+003, 7.294374e-001
3.158828e+003, 7.298707e-001
3.160757e+003, 7.293856e-001
3.162685e+003, 7.278500e-001
3.164614e+003, 7.266889e-001
3.166542e+003, 7.281715e-001
3.168471e+003, 7.297388e-001
3.170399e+003, 7.300406e-001
3.172328e+003, 7.319021e-001
3.174256e+003, 7.335790e-001
3.176185e+003, 7.317903e-001
3.178113e+003, 7.320315e-001
3.180042e+003, 7.334911e-001
3.181970e+003, 7.349118e-001
3.183898e+003, 7.365954e-001
3.185827e+003, 7.341880e-001
3.187755e+003, 7.325987e-001
3.189684e+003, 7.359814e-001
3.191612e+003, 7.358537e-001
3.193541e+003, 7.345068e-001
3.195469e+003, 7.372526e-001
3.197398e+003, 7.380046e-001
3.199326e+003, 7.364779e-001
3.201255e+003, 7.353811e-001
3.203183e+003, 7.370462e-001
3.205112e+003, 7.386612e-001
3.207040e+003, 7.399323e-001
3.208969e+003, 7.400790e-001
3.210897e+003, 7.380990e-001
3.212825e+003, 7.340401e-001
3.214754e+003, 7.342376e-001
3.216682e+003, 7.379377e-001
3.218611e+003, 7.373717e-001
3.220539e+003, 7.377930e-001
3.222468e+003, 7.399170e-001
3.224396e+003, 7.396230e-001
3.226325e+003, 7.392069e-001
3.228253e+003, 7.384855e-001
3.230182e+003, 7.414801e-001
3.232110e+003, 7.417977e-001
3.234039e+003, 7.382170e-001
3.235967e+003, 7.400786e-001
3.237896e+003, 7.435803e-001
3.239824e+003, 7.432085e-001
3.241752e+003, 7.424135e-001
3.243681e+003, 7.408215e-001
3.245609e+003, 7.411523e-001
3.247538e+003, 7.438529e-001
3.249466e+003, 7.453306e-001
3.251395e+003, 7.447689e-001
3.253323e+003, 7.447868e-001
3.255252e+003, 7.448790e-001
3.257180e+003, 7.463193e-001
3.259109e+003, 7.460691e-001
3.261037e+003, 7.460752e-001
3.262966e+003, 7.453848e-001
3.264894e+003, 7.441280e-001
3.266823e+003, 7.468220e-001
3.268751e+003, 7.486381e-001
3.270679e+003, 7.479758e-001
3.272608e+003, 7.475976e-001
3.274536e+003, 7.492427e-001
3.276465e+003, 7.498183e-001
3.278393e+003, 7.504571e-001
3.280322e+003, 7.498202e-001
3.282250e+003, 7.468166e-001
3.284179e+003, 7.446647e-001
3.286107e+003, 7.470903e-001
3.288036e+003, 7.510005e-001
3.289964e+003, 7.510481e-001
3.291893e+003, 7.521281e-001
3.293821e+003, 7.522230e-001
3.295750e+003, 7.504562e-001
3.297678e+003, 7.506570e-001
3.299606e+003, 7.489165e-001
3.301535e+003, 7.505260e-001
3.303463e+003, 7.531654e-001
3.305392e+003, 7.535611e-001
3.307320e+003, 7.545133e-001
3.309249e+003, 7.555366e-001
3.311177e+003, 7.550138e-001
3.313106e+003, 7.547318e-001
3.315034e+003, 7.550002e-001
3.316963e+003, 7.553673e-001
3.318891e+003, 7.545321e-001
3.320820e+003, 7.548680e-001
3.322748e+003, 7.551387e-001
3.324677e+003, 7.569130e-001
3.326605e+003, 7.560459e-001
3.328533e+003, 7.538301e-001
3.330462e+003, 7.548766e-001
3.332390e+003, 7.567978e-001
3.334319e+003, 7.578118e-001
3.336247e+003, 7.567020e-001
3.338176e+003, 7.583107e-001
3.340104e+003, 7.596681e-001
3.342033e+003, 7.571504e-001
3.343961e+003, 7.566110e-001
3.345890e+003, 7.592219e-001
3.347818e+003, 7.593166e-001
3.349747e+003, 7.594001e-001
3.351675e+003, 7.599443e-001
3.353604e+003, 7.569511e-001
3.355532e+003, 7.542186e-001
3.357460e+003, 7.578458e-001
3.359389e+003, 7.607751e-001
3.361317e+003, 7.592471e-001
3.363246e+003, 7.606058e-001
3.365174e+003, 7.629334e-001
3.367103e+003, 7.636780e-001
3.369031e+003, 7.648078e-001
3.370960e+003, 7.631946e-001
3.372888e+003, 7.619120e-001
3.374817e+003, 7.622947e-001
3.376745e+003, 7.624649e-001
3.378674e+003, 7.624558e-001
3.380602e+003, 7.629085e-001
3.382531e+003, 7.638298e-001
3.384459e+003, 7.636108e-001
3.386387e+003, 7.636794e-001
3.388316e+003, 7.637302e-001
3.390244e+003, 7.637126e-001
3.392173e+003, 7.661587e-001
3.394101e+003, 7.661135e-001
3.396030e+003, 7.625965e-001
3.397958e+003, 7.621652e-001
3.399887e+003, 7.668933e-001
3.401815e+003, 7.678152e-001
3.403744e+003, 7.650301e-001
3.405672e+003, 7.668906e-001
3.407601e+003, 7.671294e-001
3.409529e+003, 7.655435e-001
3.411458e+003, 7.675306e-001
3.413386e+003, 7.660312e-001
3.415314e+003, 7.654415e-001
3.417243e+003, 7.665444e-001
3.419171e+003, 7.681102e-001
3.421100e+003, 7.675602e-001
3.423028e+003, 7.680402e-001
3.424957e+003, 7.727356e-001
3.426885e+003, 7.732508e-001
3.428814e+003, 7.708910e-001
3.430742e+003, 7.703366e-001
3.432671e+003, 7.722434e-001
3.434599e+003, 7.734535e-001
3.436528e+003, 7.724422e-001
3.438456e+003, 7.723262e-001
3.440385e+003, 7.727628e-001
3.442313e+003, 7.734600e-001
3.444241e+003, 7.709340e-001
3.446170e+003, 7.706199e-001
3.448098e+003, 7.722008e-001
3.450027e+003, 7.715967e-001
3.451955e+003, 7.726490e-001
3.453884e+003, 7.748280e-001
3.455812e+003, 7.760917e-001
3.457741e+003, 7.733701e-001
3.459669e+003, 7.740049e-001
3.461598e+003, 7.782149e-001
3.463526e+003, 7.796459e-001
3.465455e+003, 7.787520e-001
3.467383e+003, 7.796072e-001
3.469312e+003, 7.802784e-001
3.471240e+003, 7.782193e-001
3.473168e+003, 7.774116e-001
3.475097e+003, 7.776136e-001
3.477025e+003, 7.783563e-001
3.478954e+003, 7.798664e-001
3.480882e+003, 7.770998e-001
3.482811e+003, 7.761986e-001
3.484739e+003, 7.763519e-001
3.486668e+003, 7.790782e-001
3.488596e+003, 7.835926e-001
3.490525e+003, 7.814655e-001
3.492453e+003, 7.777051e-001
3.494382e+003, 7.798471e-001
3.496310e+003, 7.809190e-001
3.498239e+003, 7.811851e-001
3.500167e+003, 7.810842e-001
3.502095e+003, 7.824922e-001
3.504024e+003, 7.827294e-001
3.505952e+003, 7.780542e-001
3.507881e+003, 7.754319e-001
3.509809e+003, 7.774934e-001
3.511738e+003, 7.812772e-001
3.513666e+003, 7.860562e-001
3.515595e+003, 7.870623e-001
3.517523e+003, 7.856936e-001
3.519452e+003, 7.849329e-001
3.521380e+003, 7.855872e-001
3.523309e+003, 7.846211e-001
3.525237e+003, 7.881628e-001
3.527166e+003, 7.924445e-001
3.529094e+003, 7.941074e-001
3.531022e+003, 7.893625e-001
3.532951e+003, 7.865637e-001
3.534879e+003, 7.845696e-001
3.536808e+003, 7.848561e-001
3.538736e+003, 7.870204e-001
3.540665e+003, 7.892321e-001
3.542593e+003, 7.900287e-001
3.544522e+003, 7.879915e-001
3.546450e+003, 7.871876e-001
3.548379e+003, 7.889978e-001
3.550307e+003, 7.909414e-001
3.552236e+003, 7.918743e-001
3.554164e+003, 7.955720e-001
3.556093e+003, 7.980272e-001
3.558021e+003, 7.945079e-001
3.559949e+003, 7.893348e-001
3.561878e+003, 7.907067e-001
3.563806e+003, 7.934542e-001
3.565735e+003, 7.957868e-001
3.567663e+003, 7.975801e-001
3.569592e+003, 7.937089e-001
3.571520e+003, 7.938368e-001
3.573449e+003, 7.954858e-001
3.575377e+003, 7.929548e-001
3.577306e+003, 7.915883e-001
3.579234e+003, 7.944414e-001
3.581163e+003, 7.992187e-001
3.583091e+003, 7.990173e-001
3.585020e+003, 7.959115e-001
3.586948e+003, 7.977697e-001
3.588876e+003, 8.005031e-001
3.590805e+003, 8.002763e-001
3.592733e+003, 8.003588e-001
3.594662e+003, 7.984576e-001
3.596590e+003, 7.955262e-001
3.598519e+003, 7.979810e-001
3.600447e+003, 7.992147e-001
3.602376e+003, 8.003176e-001
3.604304e+003, 7.994953e-001
3.606233e+003, 7.985758e-001
3.608161e+003, 7.980965e-001
3.610090e+003, 7.958972e-001
3.612018e+003, 8.008582e-001
3.613947e+003, 8.077158e-001
3.615875e+003, 8.067892e-001
3.617803e+003, 8.056186e-001
3.619732e+003, 8.050689e-001
3.621660e+003, 8.042603e-001
3.623589e+003, 8.009334e-001
3.625517e+003, 7.992158e-001
3.627446e+003, 7.996218e-001
3.629374e+003, 8.017706e-001
3.631303e+003, 8.045210e-001
3.633231e+003, 8.082895e-001
3.635160e+003, 8.097368e-001
3.637088e+003, 8.044612e-001
3.639017e+003, 8.006480e-001
3.640945e+003, 8.055087e-001
3.642874e+003, 8.115605e-001
3.644802e+003, 8.127413e-001
3.646730e+003, 8.096867e-001
3.648659e+003, 8.056520e-001
3.650587e+003, 8.048927e-001
3.652516e+003, 8.096276e-001
3.654444e+003, 8.105926e-001
3.656373e+003, 8.069735e-001
3.658301e+003, 8.071259e-001
3.660230e+003, 8.098630e-001
3.662158e+003, 8.127384e-001
3.664087e+003, 8.157265e-001
3.666015e+003, 8.173063e-001
3.667944e+003, 8.162977e-001
3.669872e+003, 8.146127e-001
3.671801e+003, 8.164964e-001
3.673729e+003, 8.144956e-001
3.675657e+003, 8.131450e-001
3.677586e+003, 8.156201e-001
3.679514e+003, 8.209838e-001
3.681443e+003, 8.215001e-001
3.683371e+003, 8.187447e-001
3.685300e+003, 8.158014e-001
3.687228e+003, 8.143582e-001
3.689157e+003, 8.177899e-001
3.691085e+003, 8.200958e-001
3.693014e+003, 8.208727e-001
3.694942e+003, 8.255093e-001
3.696871e+003, 8.277152e-001
3.698799e+003, 8.275614e-001
3.700728e+003, 8.280271e-001
3.702656e+003, 8.252491e-001
3.704584e+003, 8.234040e-001
3.706513e+003, 8.257865e-001
3.708441e+003, 8.265542e-001
3.710370e+003, 8.307596e-001
3.712298e+003, 8.325388e-001
3.714227e+003, 8.273599e-001
3.716155e+003, 8.223954e-001
3.718084e+003, 8.274224e-001
3.720012e+003, 8.287362e-001
3.721941e+003, 8.256777e-001
3.723869e+003, 8.257182e-001
3.725798e+003, 8.261916e-001
3.727726e+003, 8.272792e-001
3.729655e+003, 8.292263e-001
3.731583e+003, 8.297310e-001
3.733511e+003, 8.297846e-001
3.735440e+003, 8.294199e-001
3.737368e+003, 8.333628e-001
3.739297e+003, 8.353671e-001
3.741225e+003, 8.333959e-001
3.743154e+003, 8.362327e-001
3.745082e+003, 8.388121e-001
3.747011e+003, 8.374590e-001
3.748939e+003, 8.302667e-001
3.750868e+003, 8.288273e-001
3.752796e+003, 8.335930e-001
3.754725e+003, 8.310666e-001
3.756653e+003, 8.297427e-001
3.758582e+003, 8.348418e-001
3.760510e+003, 8.403085e-001
3.762438e+003, 8.396815e-001
3.764367e+003, 8.389746e-001
3.766295e+003, 8.400757e-001
3.768224e+003, 8.383482e-001
3.770152e+003, 8.388289e-001
3.772081e+003, 8.442433e-001
3.774009e+003, 8.442203e-001
3.775938e+003, 8.396385e-001
3.777866e+003, 8.388098e-001
3.779795e+003, 8.405700e-001
3.781723e+003, 8.402495e-001
3.783652e+003, 8.390975e-001
3.785580e+003, 8.389598e-001
3.787509e+003, 8.422396e-001
3.789437e+003, 8.447217e-001
3.791365e+003, 8.443416e-001
3.793294e+003, 8.440261e-001
3.795222e+003, 8.423640e-001
3.797151e+003, 8.452038e-001
3.799079e+003, 8.474590e-001
3.801008e+003, 8.436934e-001
3.802936e+003, 8.431816e-001
3.804865e+003, 8.450577e-001
3.806793e+003, 8.454854e-001
3.808722e+003, 8.475266e-001
3.810650e+003, 8.466469e-001
3.812579e+003, 8.437264e-001
3.814507e+003, 8.430707e-001
3.816436e+003, 8.473379e-001
3.818364e+003, 8.501521e-001
3.820292e+003, 8.473131e-001
3.822221e+003, 8.476264e-001
3.824149e+003, 8.484163e-001
3.826078e+003, 8.487546e-001
3.828006e+003, 8.487025e-001
3.829935e+003, 8.516037e-001
3.831863e+003, 8.536849e-001
3.833792e+003, 8.522760e-001
3.835720e+003, 8.474983e-001
3.837649e+003, 8.502916e-001
3.839577e+003, 8.545067e-001
3.841506e+003, 8.559081e-001
3.843434e+003, 8.553481e-001
3.845363e+003, 8.548236e-001
3.847291e+003, 8.563506e-001
3.849219e+003, 8.580098e-001
3.851148e+003, 8.589236e-001
3.853076e+003, 8.569114e-001
3.855005e+003, 8.527664e-001
3.856933e+003, 8.543451e-001
3.858862e+003, 8.542135e-001
3.860790e+003, 8.564465e-001
3.862719e+003, 8.592802e-001
3.864647e+003, 8.575504e-001
3.866576e+003, 8.566576e-001
3.868504e+003, 8.565723e-001
3.870433e+003, 8.574207e-001
3.872361e+003, 8.616316e-001
3.874290e+003, 8.627958e-001
3.876218e+003, 8.581362e-001
3.878146e+003, 8.590151e-001
3.880075e+003, 8.622380e-001
3.882003e+003, 8.626160e-001
3.883932e+003, 8.593771e-001
3.885860e+003, 8.572419e-001
3.887789e+003, 8.580768e-001
3.889717e+003, 8.627459e-001
3.891646e+003, 8.677881e-001
3.893574e+003, 8.689955e-001
3.895503e+003, 8.673801e-001
3.897431e+003, 8.644999e-001
3.899360e+003, 8.645051e-001
3.901288e+003, 8.655709e-001
3.903217e+003, 8.655108e-001
3.905145e+003, 8.662740e-001
3.907073e+003, 8.658922e-001
3.909002e+003, 8.630009e-001
3.910930e+003, 8.624914e-001
3.912859e+003, 8.648162e-001
3.914787e+003, 8.707992e-001
3.916716e+003, 8.709401e-001
3.918644e+003, 8.715591e-001
3.920573e+003, 8.734155e-001
3.922501e+003, 8.689714e-001
3.924430e+003, 8.673380e-001
3.926358e+003, 8.684194e-001
3.928287e+003, 8.691777e-001
3.930215e+003, 8.698817e-001
3.932144e+003, 8.686343e-001
3.934072e+003, 8.694600e-001
3.936000e+003, 8.713819e-001
3.937929e+003, 8.738906e-001
3.939857e+003, 8.749772e-001
3.941786e+003, 8.762529e-001
3.943714e+003, 8.793619e-001
3.945643e+003, 8.780971e-001
3.947571e+003, 8.770166e-001
3.949500e+003, 8.772468e-001
3.951428e+003, 8.759084e-001
3.953357e+003, 8.778949e-001
3.955285e+003, 8.821252e-001
3.957214e+003, 8.849072e-001
3.959142e+003, 8.807056e-001
3.961071e+003, 8.793722e-001
3.962999e+003, 8.755056e-001
3.964927e+003, 8.744026e-001
3.966856e+003, 8.787341e-001
3.968784e+003, 8.820543e-001
3.970713e+003, 8.796387e-001
3.972641e+003, 8.755482e-001
3.974570e+003, 8.753077e-001
3.976498e+003, 8.791520e-001
3.978427e+003, 8.871611e-001
3.980355e+003, 8.905769e-001
3.982284e+003, 8.875649e-001
3.984212e+003, 8.830423e-001
3.986141e+003, 8.814127e-001
3.988069e+003, 8.808073e-001
3.989998e+003, 8.788744e-001
3.991926e+003, 8.804938e-001
3.993854e+003, 8.868833e-001
3.995783e+003, 8.860325e-001
3.997711e+003, 8.810875e-001
3.999640e+003, 8.815126e-001
4.001568e+003, 0.000000e+000
##END=



