##NAMES=Smithsonite
##RRUFFID=R040035
##IDEAL CHEMISTRY=Zn^2+^CO_3_
##LOCALITY=Mazapil, Zacatecas, Mexico
##OWNER=RRUFF
##SOURCE=University of Arizona Mineral Museum
##DESCRIPTION=Pale green-blue fine-grained massive
##STATUS=The identification of this mineral has been confirmed by X-ray diffraction and chemical analysis
##URL=rruff.info/R040035
##MEASURED CHEMISTRY=(Zn_0.97_Ca_0.02_Pb_0.01_)_Î£=1_C_1.00_O_3_; CO_2_ estimated by difference
3.991926e+002, 0.000000e+000
4.011211e+002, 6.373780e-003
4.030496e+002, 6.420616e-003
4.049780e+002, 4.057007e-003
4.069065e+002, 3.079999e-003
4.088350e+002, 3.021834e-005
4.107634e+002, -6.124358e-003
4.126919e+002, -6.369706e-003
4.146204e+002, -2.649892e-003
4.165488e+002, -1.423872e-003
4.184773e+002, -4.117613e-004
4.204058e+002, 5.326173e-004
4.223342e+002, 8.602843e-004
4.242627e+002, 1.198732e-003
4.261912e+002, 7.536231e-004
4.281196e+002, 8.561330e-004
4.300481e+002, 1.934077e-003
4.319766e+002, 2.410380e-003
4.339050e+002, 2.031654e-003
4.358335e+002, 6.499841e-004
4.377620e+002, 4.413254e-004
4.396904e+002, 1.372208e-003
4.416189e+002, 9.771838e-004
4.435474e+002, 8.428983e-005
4.454758e+002, 2.885592e-004
4.474043e+002, -8.219424e-005
4.493328e+002, -4.339168e-004
4.512612e+002, 6.539551e-004
4.531897e+002, 1.043664e-003
4.551182e+002, 6.918668e-004
4.570466e+002, 4.291408e-004
4.589751e+002, 5.695211e-004
4.609036e+002, 7.075765e-004
4.628320e+002, 9.280807e-004
4.647605e+002, 1.272261e-003
4.666890e+002, 1.238006e-003
4.686174e+002, 5.901822e-004
4.705459e+002, -4.921357e-005
4.724744e+002, -1.580029e-004
4.744028e+002, 5.115131e-004
4.763313e+002, 1.092963e-003
4.782598e+002, 1.222625e-003
4.801882e+002, 9.912595e-004
4.821167e+002, 4.983022e-004
4.840452e+002, 3.935456e-004
4.859736e+002, 9.518859e-005
4.879021e+002, 3.305242e-005
4.898306e+002, -9.480066e-005
4.917590e+002, 1.370222e-004
4.936875e+002, 1.183911e-003
4.956160e+002, 1.266113e-003
4.975444e+002, 5.661503e-004
4.994729e+002, 4.497752e-004
5.014014e+002, 6.056617e-004
5.033298e+002, 4.345728e-004
5.052583e+002, 4.375333e-004
5.071868e+002, 6.433851e-004
5.091152e+002, 8.775166e-004
5.110437e+002, 7.389392e-004
5.129722e+002, 5.526392e-004
5.149006e+002, 7.554460e-004
5.168291e+002, 9.828637e-004
5.187576e+002, 4.897655e-004
5.206860e+002, 4.599182e-004
5.226145e+002, 8.271682e-004
5.245430e+002, 4.929606e-004
5.264714e+002, 4.606564e-004
5.283999e+002, 4.675593e-004
5.303284e+002, 2.135570e-004
5.322568e+002, 3.032516e-004
5.341853e+002, 7.799912e-004
5.361138e+002, 9.161336e-004
5.380422e+002, 4.276959e-004
5.399707e+002, 8.232311e-004
5.418992e+002, 1.049422e-003
5.438276e+002, 5.796455e-004
5.457561e+002, 4.330549e-004
5.476846e+002, 2.339141e-004
5.496130e+002, 1.539684e-004
5.515415e+002, 5.000487e-004
5.534700e+002, 6.270562e-004
5.553984e+002, 5.730172e-004
5.573269e+002, 5.200632e-004
5.592554e+002, 6.465627e-004
5.611838e+002, 8.142809e-004
5.631123e+002, 7.740516e-004
5.650408e+002, 8.108941e-004
5.669692e+002, 6.684881e-004
5.688977e+002, 4.172673e-004
5.708262e+002, 2.960847e-004
5.727546e+002, 1.975895e-004
5.746831e+002, 5.626992e-004
5.766116e+002, 9.254014e-004
5.785400e+002, 9.100151e-004
5.804685e+002, 1.106836e-003
5.823970e+002, 9.669805e-004
5.843254e+002, 5.818642e-004
5.862539e+002, 4.825722e-004
5.881824e+002, 5.921094e-004
5.901108e+002, 7.604023e-004
5.920393e+002, 6.851332e-004
5.939678e+002, 5.326942e-004
5.958962e+002, 6.113686e-004
5.978247e+002, 6.424654e-004
5.997532e+002, 5.729196e-004
6.016816e+002, 5.505165e-004
6.036101e+002, 3.520061e-004
6.055386e+002, 3.951532e-004
6.074670e+002, 5.609212e-004
6.093955e+002, 5.092773e-004
6.113240e+002, 5.793404e-004
6.132524e+002, 7.262276e-004
6.151809e+002, 9.502122e-004
6.171094e+002, 8.221099e-004
6.190378e+002, 4.833349e-004
6.209663e+002, 5.957042e-004
6.228948e+002, 9.056910e-004
6.248232e+002, 9.169390e-004
6.267517e+002, 6.615236e-004
6.286802e+002, 6.290135e-004
6.306086e+002, 5.388214e-004
6.325371e+002, 5.928580e-004
6.344656e+002, 6.869049e-004
6.363940e+002, 5.887395e-004
6.383225e+002, 5.315760e-004
6.402510e+002, 8.191943e-004
6.421794e+002, 8.561189e-004
6.441079e+002, 5.673486e-004
6.460364e+002, 5.666135e-004
6.479648e+002, 9.301389e-004
6.498933e+002, 8.751967e-004
6.518218e+002, 8.447689e-004
6.537502e+002, 9.656027e-004
6.556787e+002, 9.242577e-004
6.576072e+002, 7.244843e-004
6.595356e+002, 8.359871e-004
6.614641e+002, 1.176005e-003
6.633926e+002, 9.585343e-004
6.653210e+002, 9.233366e-004
6.672495e+002, 1.126241e-003
6.691780e+002, 1.110433e-003
6.711064e+002, 9.016469e-004
6.730349e+002, 8.471024e-004
6.749634e+002, 9.449037e-004
6.768918e+002, 1.119728e-003
6.788203e+002, 1.078095e-003
6.807488e+002, 1.082461e-003
6.826772e+002, 1.287868e-003
6.846057e+002, 1.189768e-003
6.865342e+002, 9.684613e-004
6.884626e+002, 9.425439e-004
6.903911e+002, 1.056078e-003
6.923196e+002, 1.092837e-003
6.942480e+002, 8.914834e-004
6.961765e+002, 5.972005e-004
6.981050e+002, 5.693894e-004
7.000334e+002, 7.011162e-004
7.019619e+002, 6.792839e-004
7.038904e+002, 9.176900e-004
7.058188e+002, 1.409073e-003
7.077473e+002, 1.519934e-003
7.096758e+002, 1.364151e-003
7.116042e+002, 1.207037e-003
7.135327e+002, 1.064271e-003
7.154612e+002, 9.575921e-004
7.173896e+002, 8.613972e-004
7.193181e+002, 9.992450e-004
7.212466e+002, 1.221716e-003
7.231750e+002, 1.459094e-003
7.251035e+002, 1.318451e-003
7.270320e+002, 1.197078e-003
7.289604e+002, 1.368816e-003
7.308889e+002, 1.537448e-003
7.328174e+002, 1.628466e-003
7.347458e+002, 1.848909e-003
7.366743e+002, 2.177052e-003
7.386028e+002, 2.640410e-003
7.405313e+002, 3.219286e-003
7.424597e+002, 4.289848e-003
7.443882e+002, 5.031455e-003
7.463167e+002, 3.888535e-003
7.482451e+002, 2.155036e-003
7.501736e+002, 1.313379e-003
7.521021e+002, 1.034584e-003
7.540305e+002, 8.690472e-004
7.559590e+002, 7.854564e-004
7.578875e+002, 8.395112e-004
7.598159e+002, 6.826656e-004
7.617444e+002, 6.792049e-004
7.636729e+002, 8.972431e-004
7.656013e+002, 9.521318e-004
7.675298e+002, 8.430614e-004
7.694583e+002, 6.871475e-004
7.713867e+002, 6.972619e-004
7.733152e+002, 8.904939e-004
7.752437e+002, 9.622519e-004
7.771721e+002, 9.948791e-004
7.791006e+002, 1.079294e-003
7.810291e+002, 1.148528e-003
7.829575e+002, 1.132094e-003
7.848860e+002, 1.133361e-003
7.868145e+002, 1.049097e-003
7.887429e+002, 1.042879e-003
7.906714e+002, 1.117850e-003
7.925999e+002, 1.266696e-003
7.945283e+002, 1.244934e-003
7.964568e+002, 1.047328e-003
7.983853e+002, 1.059938e-003
8.003137e+002, 1.009723e-003
8.022422e+002, 1.091307e-003
8.041707e+002, 1.189892e-003
8.060991e+002, 1.189387e-003
8.080276e+002, 1.126682e-003
8.099561e+002, 1.219622e-003
8.118845e+002, 1.278859e-003
8.138130e+002, 1.230284e-003
8.157415e+002, 1.095596e-003
8.176699e+002, 1.171834e-003
8.195984e+002, 1.202627e-003
8.215269e+002, 1.183655e-003
8.234553e+002, 1.172820e-003
8.253838e+002, 1.169742e-003
8.273123e+002, 1.126102e-003
8.292407e+002, 9.476533e-004
8.311692e+002, 1.102441e-003
8.330977e+002, 1.272737e-003
8.350261e+002, 1.272177e-003
8.369546e+002, 1.338647e-003
8.388831e+002, 1.700585e-003
8.408115e+002, 2.012111e-003
8.427400e+002, 1.774097e-003
8.446685e+002, 1.697332e-003
8.465969e+002, 1.954607e-003
8.485254e+002, 2.054684e-003
8.504539e+002, 2.019649e-003
8.523823e+002, 2.358158e-003
8.543108e+002, 2.765634e-003
8.562393e+002, 3.023626e-003
8.581677e+002, 3.556315e-003
8.600962e+002, 4.327728e-003
8.620247e+002, 5.209859e-003
8.639531e+002, 6.370132e-003
8.658816e+002, 7.351253e-003
8.678101e+002, 8.117118e-003
8.697385e+002, 8.576348e-003
8.716670e+002, 8.667368e-003
8.735955e+002, 7.914550e-003
8.755239e+002, 6.576897e-003
8.774524e+002, 4.843415e-003
8.793809e+002, 3.133662e-003
8.813093e+002, 2.190471e-003
8.832378e+002, 1.712534e-003
8.851663e+002, 1.214148e-003
8.870947e+002, 1.019045e-003
8.890232e+002, 1.212805e-003
8.909517e+002, 1.163046e-003
8.928801e+002, 1.055749e-003
8.948085e+002, 1.013906e-003
8.967370e+002, 1.223627e-003
8.986655e+002, 1.260036e-003
9.005939e+002, 1.028368e-003
9.025224e+002, 1.053141e-003
9.044509e+002, 1.048082e-003
9.063793e+002, 1.007944e-003
9.083078e+002, 9.190302e-004
9.102363e+002, 8.078090e-004
9.121647e+002, 9.476997e-004
9.140932e+002, 1.111336e-003
9.160217e+002, 1.118634e-003
9.179501e+002, 1.238703e-003
9.198786e+002, 1.198619e-003
9.218071e+002, 9.171176e-004
9.237355e+002, 8.947643e-004
9.256640e+002, 1.235116e-003
9.275925e+002, 1.281247e-003
9.295209e+002, 1.191872e-003
9.314494e+002, 1.145774e-003
9.333779e+002, 1.222953e-003
9.353063e+002, 1.265200e-003
9.372348e+002, 1.156265e-003
9.391633e+002, 1.189127e-003
9.410917e+002, 1.315610e-003
9.430202e+002, 1.168520e-003
9.449487e+002, 9.973644e-004
9.468771e+002, 1.143712e-003
9.488056e+002, 1.145529e-003
9.507341e+002, 1.119958e-003
9.526625e+002, 1.236658e-003
9.545910e+002, 1.272435e-003
9.565195e+002, 1.166352e-003
9.584479e+002, 1.056262e-003
9.603764e+002, 9.992707e-004
9.623049e+002, 1.086616e-003
9.642333e+002, 1.237795e-003
9.661618e+002, 1.289038e-003
9.680903e+002, 1.161250e-003
9.700187e+002, 1.207906e-003
9.719472e+002, 1.290211e-003
9.738757e+002, 1.178750e-003
9.758041e+002, 9.842544e-004
9.777326e+002, 8.809983e-004
9.796611e+002, 1.147520e-003
9.815895e+002, 1.396650e-003
9.835180e+002, 1.258594e-003
9.854465e+002, 1.228898e-003
9.873749e+002, 1.362096e-003
9.893034e+002, 1.356331e-003
9.912319e+002, 1.209019e-003
9.931603e+002, 1.126530e-003
9.950888e+002, 1.114034e-003
9.970173e+002, 1.143478e-003
9.989457e+002, 1.189260e-003
1.000874e+003, 1.298906e-003
1.002803e+003, 1.437061e-003
1.004731e+003, 1.314350e-003
1.006660e+003, 1.208953e-003
1.008588e+003, 1.239547e-003
1.010517e+003, 1.350983e-003
1.012445e+003, 1.386364e-003
1.014373e+003, 1.261670e-003
1.016302e+003, 1.264772e-003
1.018230e+003, 1.399209e-003
1.020159e+003, 1.488329e-003
1.022087e+003, 1.423182e-003
1.024016e+003, 1.388624e-003
1.025944e+003, 1.489861e-003
1.027873e+003, 1.547777e-003
1.029801e+003, 1.723756e-003
1.031730e+003, 1.789680e-003
1.033658e+003, 1.493340e-003
1.035587e+003, 1.170141e-003
1.037515e+003, 1.208884e-003
1.039444e+003, 1.395364e-003
1.041372e+003, 1.445817e-003
1.043301e+003, 1.502904e-003
1.045229e+003, 1.453592e-003
1.047157e+003, 1.401100e-003
1.049086e+003, 1.407440e-003
1.051014e+003, 1.536388e-003
1.052943e+003, 1.555689e-003
1.054871e+003, 1.443828e-003
1.056800e+003, 1.453241e-003
1.058728e+003, 1.474926e-003
1.060657e+003, 1.371319e-003
1.062585e+003, 1.272470e-003
1.064514e+003, 1.258894e-003
1.066442e+003, 1.321583e-003
1.068371e+003, 1.416739e-003
1.070299e+003, 1.470232e-003
1.072228e+003, 1.597916e-003
1.074156e+003, 1.614855e-003
1.076084e+003, 1.543943e-003
1.078013e+003, 1.315432e-003
1.079941e+003, 1.223523e-003
1.081870e+003, 1.355860e-003
1.083798e+003, 1.374334e-003
1.085727e+003, 1.596044e-003
1.087655e+003, 1.693695e-003
1.089584e+003, 1.608259e-003
1.091512e+003, 1.508593e-003
1.093441e+003, 1.486356e-003
1.095369e+003, 1.531971e-003
1.097298e+003, 1.478786e-003
1.099226e+003, 1.598049e-003
1.101155e+003, 1.738256e-003
1.103083e+003, 1.744633e-003
1.105011e+003, 1.496944e-003
1.106940e+003, 1.420712e-003
1.108868e+003, 1.601163e-003
1.110797e+003, 1.610662e-003
1.112725e+003, 1.567289e-003
1.114654e+003, 1.732541e-003
1.116582e+003, 1.748454e-003
1.118511e+003, 1.525935e-003
1.120439e+003, 1.525543e-003
1.122368e+003, 1.668712e-003
1.124296e+003, 1.681891e-003
1.126225e+003, 1.710608e-003
1.128153e+003, 1.622350e-003
1.130082e+003, 1.679933e-003
1.132010e+003, 1.786268e-003
1.133938e+003, 1.777502e-003
1.135867e+003, 1.774929e-003
1.137795e+003, 1.833748e-003
1.139724e+003, 1.839958e-003
1.141652e+003, 1.738588e-003
1.143581e+003, 1.891967e-003
1.145509e+003, 2.075322e-003
1.147438e+003, 1.990016e-003
1.149366e+003, 1.922127e-003
1.151295e+003, 1.909378e-003
1.153223e+003, 1.932401e-003
1.155152e+003, 2.111750e-003
1.157080e+003, 2.213609e-003
1.159009e+003, 2.247651e-003
1.160937e+003, 2.216649e-003
1.162865e+003, 2.159416e-003
1.164794e+003, 2.155898e-003
1.166722e+003, 2.134732e-003
1.168651e+003, 2.116052e-003
1.170579e+003, 2.232812e-003
1.172508e+003, 2.079879e-003
1.174436e+003, 2.087319e-003
1.176365e+003, 2.297585e-003
1.178293e+003, 2.243935e-003
1.180222e+003, 2.130176e-003
1.182150e+003, 2.147575e-003
1.184079e+003, 2.337695e-003
1.186007e+003, 2.464677e-003
1.187936e+003, 2.300699e-003
1.189864e+003, 2.074793e-003
1.191792e+003, 2.102811e-003
1.193721e+003, 2.277324e-003
1.195649e+003, 2.321069e-003
1.197578e+003, 2.304998e-003
1.199506e+003, 2.301199e-003
1.201435e+003, 2.373071e-003
1.203363e+003, 2.397223e-003
1.205292e+003, 2.328969e-003
1.207220e+003, 2.424667e-003
1.209149e+003, 2.500747e-003
1.211077e+003, 2.543035e-003
1.213006e+003, 2.573008e-003
1.214934e+003, 2.496072e-003
1.216863e+003, 2.408159e-003
1.218791e+003, 2.465847e-003
1.220719e+003, 2.599836e-003
1.222648e+003, 2.724779e-003
1.224576e+003, 2.688004e-003
1.226505e+003, 2.576613e-003
1.228433e+003, 2.506921e-003
1.230362e+003, 2.552139e-003
1.232290e+003, 2.459362e-003
1.234219e+003, 2.487815e-003
1.236147e+003, 2.646110e-003
1.238076e+003, 2.607731e-003
1.240004e+003, 2.620995e-003
1.241933e+003, 2.828137e-003
1.243861e+003, 2.797516e-003
1.245790e+003, 2.720546e-003
1.247718e+003, 2.699648e-003
1.249646e+003, 2.756837e-003
1.251575e+003, 2.920192e-003
1.253503e+003, 3.067981e-003
1.255432e+003, 3.033041e-003
1.257360e+003, 2.907173e-003
1.259289e+003, 2.787307e-003
1.261217e+003, 2.838080e-003
1.263146e+003, 3.017138e-003
1.265074e+003, 3.059990e-003
1.267003e+003, 3.183822e-003
1.268931e+003, 3.161403e-003
1.270860e+003, 3.123383e-003
1.272788e+003, 3.216595e-003
1.274717e+003, 3.368509e-003
1.276645e+003, 3.406173e-003
1.278573e+003, 3.289238e-003
1.280502e+003, 3.210430e-003
1.282430e+003, 3.249681e-003
1.284359e+003, 3.504940e-003
1.286287e+003, 3.755097e-003
1.288216e+003, 3.746813e-003
1.290144e+003, 3.680554e-003
1.292073e+003, 3.635121e-003
1.294001e+003, 3.580010e-003
1.295930e+003, 3.734296e-003
1.297858e+003, 3.991151e-003
1.299787e+003, 3.937027e-003
1.301715e+003, 3.891750e-003
1.303644e+003, 4.026485e-003
1.305572e+003, 4.297063e-003
1.307500e+003, 4.424867e-003
1.309429e+003, 4.423871e-003
1.311357e+003, 4.416409e-003
1.313286e+003, 4.481385e-003
1.315214e+003, 4.611427e-003
1.317143e+003, 4.769517e-003
1.319071e+003, 4.839361e-003
1.321000e+003, 4.804381e-003
1.322928e+003, 5.024673e-003
1.324857e+003, 5.113097e-003
1.326785e+003, 4.967204e-003
1.328714e+003, 4.940574e-003
1.330642e+003, 5.115506e-003
1.332571e+003, 5.340251e-003
1.334499e+003, 5.512477e-003
1.336427e+003, 5.690503e-003
1.338356e+003, 5.823096e-003
1.340284e+003, 5.784187e-003
1.342213e+003, 5.794388e-003
1.344141e+003, 6.069089e-003
1.346070e+003, 6.254064e-003
1.347998e+003, 6.424882e-003
1.349927e+003, 6.518631e-003
1.351855e+003, 6.557271e-003
1.353784e+003, 6.861489e-003
1.355712e+003, 7.093303e-003
1.357641e+003, 7.429824e-003
1.359569e+003, 7.698953e-003
1.361498e+003, 7.855344e-003
1.363426e+003, 7.968074e-003
1.365354e+003, 8.126789e-003
1.367283e+003, 8.318030e-003
1.369211e+003, 8.660702e-003
1.371140e+003, 8.834845e-003
1.373068e+003, 9.172091e-003
1.374997e+003, 9.657407e-003
1.376925e+003, 9.966309e-003
1.378854e+003, 1.013833e-002
1.380782e+003, 1.040248e-002
1.382711e+003, 1.063902e-002
1.384639e+003, 1.101934e-002
1.386568e+003, 1.125589e-002
1.388496e+003, 1.154849e-002
1.390424e+003, 1.200117e-002
1.392353e+003, 1.239460e-002
1.394281e+003, 1.285048e-002
1.396210e+003, 1.326296e-002
1.398138e+003, 1.363820e-002
1.400067e+003, 1.422132e-002
1.401995e+003, 1.481028e-002
1.403924e+003, 1.517634e-002
1.405852e+003, 1.547763e-002
1.407781e+003, 1.587105e-002
1.409709e+003, 1.625872e-002
1.411638e+003, 1.658563e-002
1.413566e+003, 1.670071e-002
1.415495e+003, 1.683742e-002
1.417423e+003, 1.700473e-002
1.419351e+003, 1.709334e-002
1.421280e+003, 1.716376e-002
1.423208e+003, 1.707619e-002
1.425137e+003, 1.679311e-002
1.427065e+003, 1.659690e-002
1.428994e+003, 1.667678e-002
1.430922e+003, 1.666734e-002
1.432851e+003, 1.635382e-002
1.434779e+003, 1.620390e-002
1.436708e+003, 1.600526e-002
1.438636e+003, 1.583929e-002
1.440565e+003, 1.576516e-002
1.442493e+003, 1.563228e-002
1.444422e+003, 1.534842e-002
1.446350e+003, 1.504801e-002
1.448278e+003, 1.463907e-002
1.450207e+003, 1.433382e-002
1.452135e+003, 1.423327e-002
1.454064e+003, 1.430935e-002
1.455992e+003, 1.418639e-002
1.457921e+003, 1.386688e-002
1.459849e+003, 1.370844e-002
1.461778e+003, 1.361870e-002
1.463706e+003, 1.344738e-002
1.465635e+003, 1.309700e-002
1.467563e+003, 1.279517e-002
1.469492e+003, 1.264146e-002
1.471420e+003, 1.246424e-002
1.473349e+003, 1.218728e-002
1.475277e+003, 1.194889e-002
1.477205e+003, 1.171376e-002
1.479134e+003, 1.149186e-002
1.481062e+003, 1.132248e-002
1.482991e+003, 1.109824e-002
1.484919e+003, 1.074047e-002
1.486848e+003, 1.046330e-002
1.488776e+003, 1.020104e-002
1.490705e+003, 9.929752e-003
1.492633e+003, 9.740206e-003
1.494562e+003, 9.656946e-003
1.496490e+003, 9.357736e-003
1.498419e+003, 8.925667e-003
1.500347e+003, 8.621231e-003
1.502276e+003, 8.309796e-003
1.504204e+003, 8.050590e-003
1.506132e+003, 7.754112e-003
1.508061e+003, 7.452226e-003
1.509989e+003, 7.058724e-003
1.511918e+003, 6.621334e-003
1.513846e+003, 6.182981e-003
1.515775e+003, 5.930815e-003
1.517703e+003, 5.699405e-003
1.519632e+003, 5.418183e-003
1.521560e+003, 5.140951e-003
1.523489e+003, 5.026849e-003
1.525417e+003, 4.847029e-003
1.527346e+003, 4.371231e-003
1.529274e+003, 4.057571e-003
1.531203e+003, 3.765385e-003
1.533131e+003, 3.585686e-003
1.535059e+003, 3.409411e-003
1.536988e+003, 3.096881e-003
1.538916e+003, 2.903227e-003
1.540845e+003, 2.636391e-003
1.542773e+003, 2.525147e-003
1.544702e+003, 2.618473e-003
1.546630e+003, 2.475026e-003
1.548559e+003, 2.287224e-003
1.550487e+003, 2.029591e-003
1.552416e+003, 1.825771e-003
1.554344e+003, 1.697954e-003
1.556273e+003, 1.648743e-003
1.558201e+003, 1.607033e-003
1.560130e+003, 1.438099e-003
1.562058e+003, 1.396243e-003
1.563986e+003, 1.390810e-003
1.565915e+003, 1.238459e-003
1.567843e+003, 1.010879e-003
1.569772e+003, 8.264657e-004
1.571700e+003, 8.385879e-004
1.573629e+003, 7.255060e-004
1.575557e+003, 4.968455e-004
1.577486e+003, 4.885538e-004
1.579414e+003, 7.760495e-004
1.581343e+003, 8.690648e-004
1.583271e+003, 6.822894e-004
1.585200e+003, 3.727904e-004
1.587128e+003, 3.970342e-004
1.589057e+003, 5.680851e-004
1.590985e+003, 5.366979e-004
1.592913e+003, 5.622457e-004
1.594842e+003, 4.932028e-004
1.596770e+003, 4.982693e-004
1.598699e+003, 5.214057e-004
1.600627e+003, 3.796691e-004
1.602556e+003, 5.765738e-004
1.604484e+003, 8.219554e-004
1.606413e+003, 7.471460e-004
1.608341e+003, 6.299434e-004
1.610270e+003, 3.984148e-004
1.612198e+003, 3.493316e-004
1.614127e+003, 4.818828e-004
1.616055e+003, 4.432158e-004
1.617984e+003, 3.227610e-004
1.619912e+003, 2.125380e-004
1.621840e+003, 2.147253e-004
1.623769e+003, 1.578009e-004
1.625697e+003, 1.971502e-005
1.627626e+003, 4.013737e-005
1.629554e+003, 1.755495e-004
1.631483e+003, 1.573385e-004
1.633411e+003, 2.195524e-004
1.635340e+003, 2.231385e-004
1.637268e+003, 9.744245e-005
1.639197e+003, 2.935071e-004
1.641125e+003, 4.142319e-004
1.643054e+003, 3.069336e-004
1.644982e+003, 2.252307e-004
1.646911e+003, 2.522541e-004
1.648839e+003, 1.628385e-005
1.650767e+003, -2.195884e-006
1.652696e+003, 1.314286e-004
1.654624e+003, 2.969262e-004
1.656553e+003, 5.595009e-004
1.658481e+003, 3.329545e-004
1.660410e+003, 2.902538e-004
1.662338e+003, 4.047292e-004
1.664267e+003, 3.366502e-004
1.666195e+003, 3.011309e-004
1.668124e+003, 2.184021e-004
1.670052e+003, 2.508150e-005
1.671981e+003, 1.195015e-004
1.673909e+003, 2.111056e-005
1.675838e+003, -1.855402e-004
1.677766e+003, 5.154060e-005
1.679694e+003, 6.080524e-005
1.681623e+003, 1.151386e-004
1.683551e+003, 2.327600e-004
1.685480e+003, 1.116818e-004
1.687408e+003, -6.051857e-005
1.689337e+003, -1.244041e-004
1.691265e+003, 6.806721e-005
1.693194e+003, 2.508214e-004
1.695122e+003, 3.575784e-004
1.697051e+003, 4.214720e-004
1.698979e+003, 2.566110e-004
1.700908e+003, -1.125922e-004
1.702836e+003, 1.924857e-004
1.704765e+003, 3.986787e-004
1.706693e+003, 2.657468e-004
1.708621e+003, 9.327949e-005
1.710550e+003, 1.759292e-004
1.712478e+003, 1.809861e-004
1.714407e+003, 1.077250e-004
1.716335e+003, 4.091563e-005
1.718264e+003, 2.248496e-005
1.720192e+003, 1.706948e-004
1.722121e+003, 9.664743e-006
1.724049e+003, -3.347332e-006
1.725978e+003, 2.793603e-004
1.727906e+003, 4.168636e-004
1.729835e+003, 4.047371e-004
1.731763e+003, 5.408750e-004
1.733692e+003, 7.303061e-004
1.735620e+003, 8.303692e-004
1.737548e+003, 7.184604e-004
1.739477e+003, 3.506384e-004
1.741405e+003, 3.871987e-004
1.743334e+003, 3.429125e-004
1.745262e+003, 5.504359e-004
1.747191e+003, 8.842379e-004
1.749119e+003, 7.106120e-004
1.751048e+003, 3.280449e-004
1.752976e+003, -6.287076e-006
1.754905e+003, -3.363259e-005
1.756833e+003, 1.920734e-004
1.758762e+003, 3.707859e-004
1.760690e+003, 4.138458e-004
1.762619e+003, 3.073897e-004
1.764547e+003, 2.581908e-004
1.766475e+003, 4.270171e-004
1.768404e+003, 3.039926e-004
1.770332e+003, 1.551911e-004
1.772261e+003, 4.206092e-004
1.774189e+003, 3.823848e-004
1.776118e+003, 2.835452e-004
1.778046e+003, 2.090607e-004
1.779975e+003, 3.068779e-004
1.781903e+003, 3.452458e-004
1.783832e+003, 2.584833e-004
1.785760e+003, 2.560298e-004
1.787689e+003, 6.785388e-004
1.789617e+003, 7.986428e-004
1.791546e+003, 7.375181e-004
1.793474e+003, 4.426379e-004
1.795402e+003, 3.081527e-004
1.797331e+003, 4.753626e-004
1.799259e+003, 7.645731e-004
1.801188e+003, 9.359536e-004
1.803116e+003, 6.613106e-004
1.805045e+003, 4.119306e-004
1.806973e+003, 4.193834e-004
1.808902e+003, 8.132384e-004
1.810830e+003, 1.135688e-003
1.812759e+003, 8.349662e-004
1.814687e+003, 4.409507e-004
1.816616e+003, 3.046720e-004
1.818544e+003, 2.576451e-004
1.820473e+003, 4.016241e-004
1.822401e+003, 6.138982e-004
1.824329e+003, 8.926375e-004
1.826258e+003, 7.802538e-004
1.828186e+003, 9.304526e-004
1.830115e+003, 1.091034e-003
1.832043e+003, 4.320062e-004
1.833972e+003, 7.958295e-005
1.835900e+003, 2.244809e-004
1.837829e+003, 4.039420e-004
1.839757e+003, 6.179850e-004
1.841686e+003, 6.707329e-004
1.843614e+003, 3.629422e-004
1.845543e+003, 1.256261e-004
1.847471e+003, 5.187987e-004
1.849400e+003, 7.914887e-004
1.851328e+003, 8.182658e-004
1.853256e+003, 4.660784e-004
1.855185e+003, -9.225496e-005
1.857113e+003, 1.591049e-004
1.859042e+003, 5.596689e-004
1.860970e+003, 5.277416e-004
1.862899e+003, 5.364627e-004
1.864827e+003, 3.821152e-004
1.866756e+003, 9.215960e-004
1.868684e+003, 1.548546e-003
1.870613e+003, 1.404945e-003
1.872541e+003, 1.063970e-003
1.874470e+003, 9.123147e-004
1.876398e+003, 7.874773e-004
1.878327e+003, 6.559269e-004
1.880255e+003, 7.370096e-004
1.882183e+003, 5.877588e-004
1.884112e+003, 7.535326e-005
1.886040e+003, 4.852720e-004
1.887969e+003, 6.755037e-004
1.889897e+003, 3.807451e-004
1.891826e+003, 5.396568e-004
1.893754e+003, 5.128399e-004
1.895683e+003, 5.600357e-004
1.897611e+003, 2.690085e-004
1.899540e+003, 3.933202e-004
1.901468e+003, 6.171728e-004
1.903397e+003, 5.958450e-004
1.905325e+003, 4.498935e-004
1.907254e+003, 5.065179e-004
1.909182e+003, 9.414098e-004
1.911110e+003, 5.048268e-004
1.913039e+003, 4.924195e-004
1.914967e+003, 1.114916e-003
1.916896e+003, 1.504452e-003
1.918824e+003, 1.063460e-003
1.920753e+003, 1.067582e-003
1.922681e+003, 1.146610e-003
1.924610e+003, 7.672418e-004
1.926538e+003, 1.310342e-003
1.928467e+003, 2.078077e-003
1.930395e+003, 1.291988e-003
1.932324e+003, 2.115108e-004
1.934252e+003, -2.707326e-004
1.936181e+003, -3.810084e-004
1.938109e+003, 4.588099e-004
1.940037e+003, 1.559303e-003
1.941966e+003, 1.153502e-003
1.943894e+003, 1.408577e-003
1.945823e+003, 2.208732e-003
1.947751e+003, 2.268658e-003
1.949680e+003, 1.091300e-003
1.951608e+003, -9.169998e-004
1.953537e+003, -4.976247e-004
1.955465e+003, 6.641732e-004
1.957394e+003, 5.007711e-004
1.959322e+003, 1.995433e-004
1.961251e+003, 7.172527e-005
1.963179e+003, 9.621232e-004
1.965108e+003, 1.839156e-003
1.967036e+003, 1.029589e-003
1.968964e+003, -3.944445e-004
1.970893e+003, -2.999335e-004
1.972821e+003, 8.374104e-004
1.974750e+003, 1.139970e-003
1.976678e+003, 2.693050e-004
1.978607e+003, 3.006661e-004
1.980535e+003, -5.364666e-004
1.982464e+003, -4.730000e-004
1.984392e+003, 7.789173e-004
1.986321e+003, 5.080187e-006
1.988249e+003, 4.153343e-004
1.990178e+003, 1.491463e-003
1.992106e+003, 1.029818e-003
1.994035e+003, 1.334824e-003
1.995963e+003, 2.842046e-003
1.997891e+003, 2.878325e-003
1.999820e+003, 1.517136e-003
2.001748e+003, 9.947243e-004
2.003677e+003, 9.814206e-004
2.005605e+003, 4.579617e-004
2.007534e+003, -5.630277e-004
2.009462e+003, -2.654929e-004
2.011391e+003, 2.880686e-004
2.013319e+003, 1.371355e-003
2.015248e+003, 1.029788e-003
2.017176e+003, -8.234484e-005
2.019105e+003, 6.863788e-004
2.021033e+003, 2.167105e-003
2.022962e+003, 2.437808e-003
2.024890e+003, 1.909013e-003
2.026818e+003, 9.487107e-004
2.028747e+003, 3.900848e-004
2.030675e+003, -7.177664e-005
2.032604e+003, -5.845635e-004
2.034532e+003, 1.049795e-004
2.036461e+003, 2.538659e-003
2.038389e+003, 3.281137e-003
2.040318e+003, 3.050077e-003
2.042246e+003, 2.681522e-003
2.044175e+003, 8.738563e-004
2.046103e+003, 5.042792e-004
2.048032e+003, 5.593635e-004
2.049960e+003, 1.415444e-003
2.051889e+003, 1.449404e-003
2.053817e+003, -9.308010e-005
2.055746e+003, 8.495732e-005
2.057674e+003, 8.844180e-004
2.059603e+003, 1.005797e-003
2.061531e+003, 6.802290e-004
2.063459e+003, 1.093250e-003
2.065388e+003, 1.660344e-003
2.067316e+003, 1.515568e-003
2.069245e+003, 1.196898e-003
2.071173e+003, 2.838409e-004
2.073102e+003, -4.151825e-004
2.075030e+003, 5.575151e-004
2.076959e+003, 1.445186e-003
2.078887e+003, 1.574941e-004
2.080816e+003, 6.365293e-005
2.082744e+003, 1.233989e-003
2.084673e+003, 1.070455e-003
2.086601e+003, 2.159487e-004
2.088530e+003, -5.481140e-004
2.090458e+003, -5.369237e-004
2.092386e+003, -5.522490e-004
2.094315e+003, -4.836149e-004
2.096243e+003, -1.843264e-004
2.098172e+003, 4.356448e-004
2.100100e+003, 1.154158e-003
2.102029e+003, 1.450111e-003
2.103957e+003, 1.285204e-003
2.105886e+003, 3.124250e-004
2.107814e+003, -8.061298e-005
2.109743e+003, 6.723542e-004
2.111671e+003, 8.762559e-004
2.113600e+003, 9.775113e-004
2.115528e+003, 7.985706e-004
2.117457e+003, 9.014733e-004
2.119385e+003, 1.487173e-003
2.121313e+003, 1.451916e-003
2.123242e+003, 7.124752e-004
2.125170e+003, 1.229951e-003
2.127099e+003, 1.352247e-003
2.129027e+003, -2.989619e-004
2.130956e+003, -8.009545e-004
2.132884e+003, 1.153774e-005
2.134813e+003, 3.873712e-004
2.136741e+003, 1.555010e-004
2.138670e+003, 1.007127e-004
2.140598e+003, -9.524042e-004
2.142527e+003, -2.288394e-004
2.144455e+003, 1.859937e-003
2.146384e+003, 2.211633e-003
2.148312e+003, 2.222323e-003
2.150240e+003, -8.668100e-004
2.152169e+003, -2.376316e-003
2.154097e+003, -4.408529e-004
2.156026e+003, 3.320089e-003
2.157954e+003, 4.263241e-003
2.159883e+003, 1.571883e-003
2.161811e+003, 1.127178e-003
2.163740e+003, 1.954441e-003
2.165668e+003, 1.300830e-004
2.167597e+003, 1.014644e-004
2.169525e+003, 2.143078e-003
2.171454e+003, 1.478965e-003
2.173382e+003, 6.763408e-004
2.175311e+003, 1.735225e-003
2.177239e+003, 8.466985e-004
2.179167e+003, -1.508492e-003
2.181096e+003, -4.491565e-004
2.183024e+003, 6.743351e-004
2.184953e+003, 1.722669e-003
2.186881e+003, 2.525868e-003
2.188810e+003, 1.008062e-003
2.190738e+003, 1.303578e-003
2.192667e+003, 7.071836e-004
2.194595e+003, 3.511518e-004
2.196524e+003, -2.137179e-004
2.198452e+003, -9.101749e-004
2.200381e+003, -6.640953e-004
2.202309e+003, -3.801588e-004
2.204238e+003, -2.488295e-004
2.206166e+003, 4.643627e-004
2.208094e+003, 1.066745e-004
2.210023e+003, 4.124850e-004
2.211951e+003, 6.701276e-004
2.213880e+003, 1.373179e-004
2.215808e+003, -1.321339e-003
2.217737e+003, 2.105247e-004
2.219665e+003, 2.036816e-003
2.221594e+003, 1.434567e-003
2.223522e+003, 1.400591e-003
2.225451e+003, 1.577800e-003
2.227379e+003, 6.231033e-004
2.229308e+003, 2.342122e-004
2.231236e+003, -9.594028e-004
2.233165e+003, -2.836839e-004
2.235093e+003, 2.256264e-003
2.237021e+003, 2.734152e-003
2.238950e+003, 1.139012e-003
2.240878e+003, 3.218722e-005
2.242807e+003, 4.420381e-004
2.244735e+003, 1.091743e-003
2.246664e+003, 1.097587e-003
2.248592e+003, 6.835681e-004
2.250521e+003, -4.541068e-004
2.252449e+003, 1.039335e-004
2.254378e+003, 5.204069e-004
2.256306e+003, 1.630611e-004
2.258235e+003, 6.884195e-004
2.260163e+003, 1.409745e-003
2.262092e+003, 1.642552e-003
2.264020e+003, 7.187378e-004
2.265948e+003, -6.572497e-004
2.267877e+003, -4.907777e-004
2.269805e+003, -2.928051e-005
2.271734e+003, 1.452319e-004
2.273662e+003, 4.713045e-004
2.275591e+003, -2.694254e-004
2.277519e+003, -5.252193e-004
2.279448e+003, 5.235823e-004
2.281376e+003, 1.021214e-003
2.283305e+003, 6.278903e-004
2.285233e+003, -2.240162e-004
2.287162e+003, -8.964562e-004
2.289090e+003, -5.487984e-004
2.291019e+003, 7.629340e-004
2.292947e+003, 9.327692e-004
2.294875e+003, 8.373450e-004
2.296804e+003, 1.403241e-003
2.298732e+003, 8.939910e-004
2.300661e+003, 4.636648e-004
2.302589e+003, 5.531849e-004
2.304518e+003, 8.554080e-004
2.306446e+003, 8.079882e-004
2.308375e+003, 5.172687e-004
2.310303e+003, 5.700375e-004
2.312232e+003, 3.922935e-004
2.314160e+003, 7.524711e-004
2.316089e+003, 5.561564e-004
2.318017e+003, 1.478746e-004
2.319946e+003, 2.832848e-004
2.321874e+003, 3.859975e-004
2.323802e+003, 4.500976e-004
2.325731e+003, 4.680232e-004
2.327659e+003, 6.726316e-004
2.329588e+003, 7.819404e-004
2.331516e+003, 7.219196e-004
2.333445e+003, 8.913411e-004
2.335373e+003, 9.193281e-004
2.337302e+003, 5.665131e-004
2.339230e+003, 3.807248e-004
2.341159e+003, 6.523490e-004
2.343087e+003, 6.506179e-004
2.345016e+003, 4.954837e-004
2.346944e+003, 3.033263e-004
2.348873e+003, 4.624442e-004
2.350801e+003, 5.362582e-004
2.352729e+003, 4.761465e-004
2.354658e+003, 7.574975e-004
2.356586e+003, 9.341550e-004
2.358515e+003, 1.109113e-003
2.360443e+003, 1.319421e-003
2.362372e+003, 1.600205e-003
2.364300e+003, 1.764067e-003
2.366229e+003, 1.152707e-003
2.368157e+003, 3.904767e-004
2.370086e+003, 5.259503e-004
2.372014e+003, 8.141912e-004
2.373942e+003, 1.029971e-003
2.375871e+003, 1.233207e-003
2.377799e+003, 1.468785e-003
2.379728e+003, 1.465928e-003
2.381656e+003, 1.224281e-003
2.383585e+003, 4.830206e-004
2.385513e+003, 1.568044e-004
2.387442e+003, 5.647290e-004
2.389370e+003, 6.125919e-004
2.391299e+003, 5.645068e-004
2.393227e+003, 8.347431e-004
2.395156e+003, 1.263146e-003
2.397084e+003, 1.231968e-003
2.399012e+003, 1.103681e-003
2.400941e+003, 1.184944e-003
2.402869e+003, 1.368517e-003
2.404798e+003, 8.975613e-004
2.406726e+003, 6.758660e-004
2.408655e+003, 9.056318e-004
2.410583e+003, 2.493642e-004
2.412512e+003, 1.146884e-004
2.414440e+003, 9.878010e-004
2.416369e+003, 1.257654e-003
2.418297e+003, 5.776161e-004
2.420226e+003, 3.384399e-004
2.422154e+003, 8.265339e-004
2.424083e+003, 1.006140e-003
2.426011e+003, 1.029068e-003
2.427939e+003, 4.136394e-004
2.429868e+003, 3.451065e-004
2.431796e+003, 3.756876e-004
2.433725e+003, 1.124773e-004
2.435653e+003, 1.395250e-004
2.437582e+003, 4.930162e-004
2.439510e+003, 1.034393e-003
2.441439e+003, 1.400061e-003
2.443367e+003, 7.602132e-004
2.445296e+003, -5.454015e-004
2.447224e+003, -2.488415e-004
2.449153e+003, 7.192191e-004
2.451081e+003, 4.454567e-004
2.453010e+003, 1.595461e-004
2.454938e+003, 1.009104e-003
2.456866e+003, 1.624782e-003
2.458795e+003, 1.402188e-003
2.460723e+003, 7.018154e-004
2.462652e+003, 2.056338e-004
2.464580e+003, 4.944815e-004
2.466509e+003, 9.368901e-004
2.468437e+003, 1.226222e-003
2.470366e+003, 7.992569e-004
2.472294e+003, 9.932034e-004
2.474223e+003, 8.772180e-004
2.476151e+003, 3.539097e-004
2.478080e+003, 5.935563e-004
2.480008e+003, 5.390164e-004
2.481937e+003, 2.380948e-004
2.483865e+003, 2.477471e-004
2.485793e+003, 6.994124e-004
2.487722e+003, 9.789447e-004
2.489650e+003, 6.298420e-004
2.491579e+003, 6.602335e-004
2.493507e+003, 1.065410e-003
2.495436e+003, 1.067476e-003
2.497364e+003, 6.786593e-004
2.499293e+003, 7.646195e-004
2.501221e+003, 1.240609e-003
2.503150e+003, 6.820590e-004
2.505078e+003, 3.153757e-004
2.507007e+003, 8.001494e-004
2.508935e+003, 1.154556e-003
2.510864e+003, 1.833247e-003
2.512792e+003, 1.660533e-003
2.514720e+003, 1.298111e-003
2.516649e+003, 1.226477e-003
2.518577e+003, 7.846382e-004
2.520506e+003, 8.253560e-004
2.522434e+003, 8.127728e-004
2.524363e+003, 4.109340e-004
2.526291e+003, 1.830035e-004
2.528220e+003, 4.254741e-004
2.530148e+003, 5.225016e-004
2.532077e+003, 4.502965e-004
2.534005e+003, 3.941960e-004
2.535934e+003, 1.768135e-004
2.537862e+003, 1.664357e-004
2.539791e+003, 6.260377e-004
2.541719e+003, 7.173552e-004
2.543647e+003, 1.002824e-003
2.545576e+003, 1.358467e-003
2.547504e+003, 1.353327e-003
2.549433e+003, 1.793475e-003
2.551361e+003, 1.719221e-003
2.553290e+003, 8.596377e-004
2.555218e+003, 4.443394e-004
2.557147e+003, 4.578984e-004
2.559075e+003, 7.420283e-004
2.561004e+003, 8.744658e-004
2.562932e+003, 8.569378e-004
2.564861e+003, 9.022351e-004
2.566789e+003, 5.490537e-004
2.568718e+003, 5.781641e-004
2.570646e+003, 3.723851e-004
2.572574e+003, 3.062134e-005
2.574503e+003, 3.406045e-004
2.576431e+003, 1.386139e-003
2.578360e+003, 2.032314e-003
2.580288e+003, 1.680753e-003
2.582217e+003, 8.268298e-004
2.584145e+003, 5.908072e-004
2.586074e+003, 6.799851e-004
2.588002e+003, 2.679422e-004
2.589931e+003, -3.019171e-004
2.591859e+003, -1.611968e-005
2.593788e+003, 4.928430e-004
2.595716e+003, 7.987944e-004
2.597645e+003, 8.391817e-004
2.599573e+003, 3.709831e-004
2.601501e+003, -1.188329e-004
2.603430e+003, 1.802448e-004
2.605358e+003, 9.032997e-005
2.607287e+003, 8.250087e-004
2.609215e+003, 1.011127e-003
2.611144e+003, 2.455084e-004
2.613072e+003, 6.271838e-005
2.615001e+003, 3.227459e-004
2.616929e+003, 8.100139e-004
2.618858e+003, 9.413059e-004
2.620786e+003, 7.378683e-004
2.622715e+003, 7.758910e-004
2.624643e+003, 9.523517e-004
2.626572e+003, 1.082405e-003
2.628500e+003, 6.944641e-004
2.630428e+003, 3.800159e-004
2.632357e+003, 7.244593e-004
2.634285e+003, 7.677005e-004
2.636214e+003, 6.093682e-004
2.638142e+003, 2.307431e-004
2.640071e+003, 2.611856e-004
2.641999e+003, 5.941532e-004
2.643928e+003, 9.638261e-004
2.645856e+003, 1.287727e-003
2.647785e+003, 1.081054e-003
2.649713e+003, 6.999868e-004
2.651642e+003, 6.702550e-004
2.653570e+003, 4.632294e-004
2.655499e+003, 2.198573e-004
2.657427e+003, 4.209182e-004
2.659355e+003, 7.649618e-004
2.661284e+003, 8.635530e-004
2.663212e+003, 6.948152e-004
2.665141e+003, 8.695778e-004
2.667069e+003, 8.626020e-004
2.668998e+003, 8.963258e-004
2.670926e+003, 8.304620e-004
2.672855e+003, 5.118756e-004
2.674783e+003, 5.898303e-004
2.676712e+003, 6.237098e-004
2.678640e+003, 7.156291e-004
2.680569e+003, 9.907050e-004
2.682497e+003, 1.379694e-003
2.684426e+003, 1.158258e-003
2.686354e+003, 1.154457e-003
2.688282e+003, 1.417452e-003
2.690211e+003, 1.305043e-003
2.692139e+003, 8.472398e-004
2.694068e+003, 5.677418e-004
2.695996e+003, 7.856124e-004
2.697925e+003, 7.760667e-004
2.699853e+003, 7.607776e-004
2.701782e+003, 8.143535e-004
2.703710e+003, 8.611045e-004
2.705639e+003, 8.023297e-004
2.707567e+003, 7.136703e-004
2.709496e+003, 4.803721e-004
2.711424e+003, 3.349429e-004
2.713353e+003, 2.038913e-004
2.715281e+003, 4.637585e-004
2.717209e+003, 8.909956e-004
2.719138e+003, 1.189207e-003
2.721066e+003, 1.030770e-003
2.722995e+003, 7.818404e-004
2.724923e+003, 7.327949e-004
2.726852e+003, 1.076913e-003
2.728780e+003, 1.410844e-003
2.730709e+003, 1.454962e-003
2.732637e+003, 1.326361e-003
2.734566e+003, 1.372380e-003
2.736494e+003, 1.362547e-003
2.738423e+003, 1.328353e-003
2.740351e+003, 8.811437e-004
2.742280e+003, 6.481878e-004
2.744208e+003, 9.404405e-004
2.746136e+003, 1.334556e-003
2.748065e+003, 8.737849e-004
2.749993e+003, 7.125561e-004
2.751922e+003, 1.155454e-003
2.753850e+003, 1.284961e-003
2.755779e+003, 8.875705e-004
2.757707e+003, 8.945016e-004
2.759636e+003, 1.245464e-003
2.761564e+003, 1.601876e-003
2.763493e+003, 1.077371e-003
2.765421e+003, 1.053453e-003
2.767350e+003, 1.287683e-003
2.769278e+003, 1.100384e-003
2.771207e+003, 1.338565e-003
2.773135e+003, 1.398555e-003
2.775063e+003, 9.909609e-004
2.776992e+003, 9.398974e-004
2.778920e+003, 1.374003e-003
2.780849e+003, 1.323578e-003
2.782777e+003, 8.650853e-004
2.784706e+003, 8.518352e-004
2.786634e+003, 1.188522e-003
2.788563e+003, 1.600890e-003
2.790491e+003, 1.673474e-003
2.792420e+003, 1.335016e-003
2.794348e+003, 8.951848e-004
2.796277e+003, 5.281300e-004
2.798205e+003, 1.057413e-003
2.800134e+003, 1.740486e-003
2.802062e+003, 1.714165e-003
2.803990e+003, 1.711438e-003
2.805919e+003, 1.416958e-003
2.807847e+003, 1.093557e-003
2.809776e+003, 1.635074e-003
2.811704e+003, 1.675752e-003
2.813633e+003, 1.396776e-003
2.815561e+003, 1.208711e-003
2.817490e+003, 8.551460e-004
2.819418e+003, 1.117983e-003
2.821347e+003, 9.959927e-004
2.823275e+003, 7.235138e-004
2.825204e+003, 1.260736e-003
2.827132e+003, 1.515273e-003
2.829061e+003, 1.335182e-003
2.830989e+003, 9.541506e-004
2.832917e+003, 1.400716e-003
2.834846e+003, 1.714006e-003
2.836774e+003, 1.682888e-003
2.838703e+003, 1.750718e-003
2.840631e+003, 1.897070e-003
2.842560e+003, 2.155341e-003
2.844488e+003, 1.757308e-003
2.846417e+003, 2.046787e-003
2.848345e+003, 2.304576e-003
2.850274e+003, 1.709908e-003
2.852202e+003, 1.564200e-003
2.854131e+003, 1.745368e-003
2.856059e+003, 1.620516e-003
2.857988e+003, 1.761668e-003
2.859916e+003, 1.931592e-003
2.861844e+003, 1.069615e-003
2.863773e+003, 5.658622e-004
2.865701e+003, 1.246027e-003
2.867630e+003, 1.460124e-003
2.869558e+003, 1.540879e-003
2.871487e+003, 2.119144e-003
2.873415e+003, 2.209837e-003
2.875344e+003, 1.871121e-003
2.877272e+003, 1.541492e-003
2.879201e+003, 1.768444e-003
2.881129e+003, 1.419979e-003
2.883058e+003, 1.114645e-003
2.884986e+003, 9.942710e-004
2.886915e+003, 8.905935e-004
2.888843e+003, 1.007384e-003
2.890771e+003, 1.088678e-003
2.892700e+003, 1.355542e-003
2.894628e+003, 1.480983e-003
2.896557e+003, 1.364268e-003
2.898485e+003, 4.382221e-004
2.900414e+003, 3.757389e-004
2.902342e+003, 1.136929e-003
2.904271e+003, 1.393914e-003
2.906199e+003, 1.279358e-003
2.908128e+003, 1.012667e-003
2.910056e+003, 1.040456e-003
2.911985e+003, 1.574782e-003
2.913913e+003, 2.233352e-003
2.915842e+003, 2.239863e-003
2.917770e+003, 2.546164e-003
2.919698e+003, 2.271029e-003
2.921627e+003, 2.164111e-003
2.923555e+003, 2.646146e-003
2.925484e+003, 2.348168e-003
2.927412e+003, 2.706209e-003
2.929341e+003, 2.597307e-003
2.931269e+003, 2.103057e-003
2.933198e+003, 2.231878e-003
2.935126e+003, 1.759081e-003
2.937055e+003, 1.403909e-003
2.938983e+003, 1.138523e-003
2.940912e+003, 1.519309e-003
2.942840e+003, 1.955979e-003
2.944769e+003, 1.676050e-003
2.946697e+003, 1.406370e-003
2.948625e+003, 7.421786e-004
2.950554e+003, 7.827715e-004
2.952482e+003, 9.871013e-004
2.954411e+003, 1.238175e-003
2.956339e+003, 1.140741e-003
2.958268e+003, 9.721649e-004
2.960196e+003, 1.688861e-003
2.962125e+003, 2.319772e-003
2.964053e+003, 1.903888e-003
2.965982e+003, 1.259946e-003
2.967910e+003, 1.236256e-003
2.969839e+003, 1.099762e-003
2.971767e+003, 8.105732e-004
2.973696e+003, 9.112735e-004
2.975624e+003, 8.711173e-004
2.977552e+003, 1.264963e-003
2.979481e+003, 1.455233e-003
2.981409e+003, 1.230511e-003
2.983338e+003, 1.081119e-003
2.985266e+003, 5.933628e-004
2.987195e+003, 1.094900e-003
2.989123e+003, 1.675323e-003
2.991052e+003, 1.673725e-003
2.992980e+003, 1.470665e-003
2.994909e+003, 1.594410e-003
2.996837e+003, 1.337371e-003
2.998766e+003, 4.817366e-004
3.000694e+003, 6.188812e-005
3.002623e+003, 5.579988e-004
3.004551e+003, 1.591572e-003
3.006479e+003, 1.921074e-003
3.008408e+003, 1.264809e-003
3.010336e+003, 1.600930e-003
3.012265e+003, 2.428045e-003
3.014193e+003, 2.024228e-003
3.016122e+003, 8.847830e-004
3.018050e+003, 1.347043e-003
3.019979e+003, 2.279888e-003
3.021907e+003, 2.326682e-003
3.023836e+003, 1.510509e-003
3.025764e+003, 1.381499e-003
3.027693e+003, 1.319214e-003
3.029621e+003, 5.981725e-004
3.031550e+003, 1.491246e-004
3.033478e+003, 5.879743e-004
3.035406e+003, 9.990433e-004
3.037335e+003, 1.791640e-003
3.039263e+003, 2.302018e-003
3.041192e+003, 2.534658e-003
3.043120e+003, 2.134047e-003
3.045049e+003, 1.121169e-003
3.046977e+003, 6.816015e-004
3.048906e+003, 5.170900e-004
3.050834e+003, 9.118673e-004
3.052763e+003, 1.284480e-003
3.054691e+003, 1.333112e-003
3.056620e+003, 1.166485e-003
3.058548e+003, 1.250093e-003
3.060477e+003, 1.593290e-003
3.062405e+003, 1.761017e-003
3.064333e+003, 1.899995e-003
3.066262e+003, 1.358606e-003
3.068190e+003, 1.187387e-003
3.070119e+003, 1.888813e-003
3.072047e+003, 1.701028e-003
3.073976e+003, 1.287701e-003
3.075904e+003, 8.249295e-004
3.077833e+003, -1.922584e-004
3.079761e+003, 2.737770e-004
3.081690e+003, 7.961378e-004
3.083618e+003, 1.350959e-003
3.085547e+003, 2.238770e-003
3.087475e+003, 2.412948e-003
3.089404e+003, 1.869929e-003
3.091332e+003, 1.400480e-003
3.093260e+003, 3.853914e-004
3.095189e+003, 2.254031e-004
3.097117e+003, 8.857658e-004
3.099046e+003, 1.673625e-003
3.100974e+003, 1.906671e-003
3.102903e+003, 1.154317e-003
3.104831e+003, 1.085537e-003
3.106760e+003, 1.591528e-003
3.108688e+003, 1.039261e-003
3.110617e+003, 5.831468e-004
3.112545e+003, -4.520096e-005
3.114474e+003, 2.418811e-004
3.116402e+003, 1.273029e-003
3.118331e+003, 1.961219e-003
3.120259e+003, 2.189610e-003
3.122188e+003, 2.552743e-003
3.124116e+003, 1.855601e-003
3.126044e+003, 7.669807e-004
3.127973e+003, 6.824221e-004
3.129901e+003, 4.323938e-004
3.131830e+003, 2.704260e-004
3.133758e+003, 1.135250e-003
3.135687e+003, 1.977445e-003
3.137615e+003, 2.082882e-003
3.139544e+003, 1.087478e-003
3.141472e+003, 9.014821e-004
3.143401e+003, 7.749947e-004
3.145329e+003, 6.166666e-004
3.147258e+003, 6.851733e-004
3.149186e+003, 1.212067e-003
3.151115e+003, 2.355072e-003
3.153043e+003, 2.584258e-003
3.154971e+003, 2.012852e-003
3.156900e+003, 1.181536e-003
3.158828e+003, 9.796777e-004
3.160757e+003, 1.382361e-003
3.162685e+003, 1.537099e-003
3.164614e+003, 1.030687e-003
3.166542e+003, 2.119372e-004
3.168471e+003, 4.437170e-004
3.170399e+003, 1.256721e-003
3.172328e+003, 1.042773e-003
3.174256e+003, 1.091300e-003
3.176185e+003, 1.482768e-003
3.178113e+003, 1.610174e-003
3.180042e+003, 2.609981e-003
3.181970e+003, 2.633325e-003
3.183898e+003, 1.121223e-003
3.185827e+003, 7.190317e-004
3.187755e+003, 1.154930e-003
3.189684e+003, 1.631170e-003
3.191612e+003, 2.182396e-003
3.193541e+003, 2.003770e-003
3.195469e+003, 1.891425e-003
3.197398e+003, 1.962373e-003
3.199326e+003, 1.003916e-003
3.201255e+003, 7.296276e-004
3.203183e+003, 1.935316e-003
3.205112e+003, 1.511375e-003
3.207040e+003, 6.691781e-004
3.208969e+003, 9.685329e-004
3.210897e+003, 1.828224e-003
3.212825e+003, 1.920037e-003
3.214754e+003, 1.037541e-003
3.216682e+003, 6.269403e-004
3.218611e+003, 1.575396e-003
3.220539e+003, 1.771852e-003
3.222468e+003, 1.436620e-003
3.224396e+003, 1.675457e-003
3.226325e+003, 1.202935e-003
3.228253e+003, 1.297654e-003
3.230182e+003, 2.309118e-003
3.232110e+003, 2.268878e-003
3.234039e+003, 2.142622e-003
3.235967e+003, 1.996684e-003
3.237896e+003, 8.920296e-004
3.239824e+003, 1.024690e-003
3.241752e+003, 2.037581e-003
3.243681e+003, 1.688172e-003
3.245609e+003, 1.774129e-003
3.247538e+003, 1.496597e-003
3.249466e+003, 8.733497e-004
3.251395e+003, 6.162465e-005
3.253323e+003, 1.070387e-003
3.255252e+003, 2.253474e-003
3.257180e+003, 2.285293e-003
3.259109e+003, 1.692529e-003
3.261037e+003, 1.990842e-003
3.262966e+003, 1.016543e-003
3.264894e+003, 2.306603e-004
3.266823e+003, 1.389767e-003
3.268751e+003, 2.457339e-003
3.270679e+003, 1.625087e-003
3.272608e+003, 1.100827e-003
3.274536e+003, 1.794293e-003
3.276465e+003, 2.219560e-003
3.278393e+003, 2.560894e-003
3.280322e+003, 2.233821e-003
3.282250e+003, 1.311534e-003
3.284179e+003, 1.261985e-003
3.286107e+003, 1.433397e-003
3.288036e+003, 2.776687e-003
3.289964e+003, 3.169275e-003
3.291893e+003, 1.701699e-003
3.293821e+003, 1.192071e-003
3.295750e+003, 1.504505e-003
3.297678e+003, 1.431009e-003
3.299606e+003, 2.140637e-003
3.301535e+003, 2.333954e-003
3.303463e+003, 2.362179e-003
3.305392e+003, 2.442107e-003
3.307320e+003, 1.117227e-003
3.309249e+003, 7.936511e-004
3.311177e+003, 1.092289e-003
3.313106e+003, 1.842806e-003
3.315034e+003, 2.257137e-003
3.316963e+003, 1.977012e-003
3.318891e+003, 1.137646e-003
3.320820e+003, 1.396670e-003
3.322748e+003, 2.222915e-003
3.324677e+003, 2.509437e-003
3.326605e+003, 2.490576e-003
3.328533e+003, 1.879660e-003
3.330462e+003, 1.534389e-003
3.332390e+003, 1.884493e-003
3.334319e+003, 8.941843e-004
3.336247e+003, 7.242594e-004
3.338176e+003, 1.889094e-003
3.340104e+003, 2.181549e-003
3.342033e+003, 2.692824e-003
3.343961e+003, 2.538315e-003
3.345890e+003, 1.847838e-003
3.347818e+003, 8.086809e-004
3.349747e+003, 4.250678e-004
3.351675e+003, 6.299358e-004
3.353604e+003, 1.344525e-003
3.355532e+003, 1.472767e-003
3.357460e+003, 1.890761e-003
3.359389e+003, 3.378346e-003
3.361317e+003, 3.271106e-003
3.363246e+003, 2.528536e-003
3.365174e+003, 2.361944e-003
3.367103e+003, 1.111057e-003
3.369031e+003, 5.837521e-004
3.370960e+003, 2.057504e-003
3.372888e+003, 2.401074e-003
3.374817e+003, 2.292929e-003
3.376745e+003, 2.642900e-003
3.378674e+003, 2.570319e-003
3.380602e+003, 2.266195e-003
3.382531e+003, 2.721444e-003
3.384459e+003, 2.334867e-003
3.386387e+003, 1.429470e-003
3.388316e+003, 8.867831e-004
3.390244e+003, 1.914760e-003
3.392173e+003, 3.024853e-003
3.394101e+003, 2.933131e-003
3.396030e+003, 1.878491e-003
3.397958e+003, 1.151995e-003
3.399887e+003, 1.374469e-003
3.401815e+003, 1.764109e-003
3.403744e+003, 2.286736e-003
3.405672e+003, 1.875281e-003
3.407601e+003, 2.111383e-003
3.409529e+003, 2.049269e-003
3.411458e+003, 1.214175e-003
3.413386e+003, 1.348951e-003
3.415314e+003, 1.577404e-003
3.417243e+003, 1.852561e-003
3.419171e+003, 1.503037e-003
3.421100e+003, 2.535725e-003
3.423028e+003, 2.571256e-003
3.424957e+003, 1.351247e-003
3.426885e+003, 2.564996e-003
3.428814e+003, 3.228331e-003
3.430742e+003, 2.459011e-003
3.432671e+003, 2.781093e-003
3.434599e+003, 2.790830e-003
3.436528e+003, 8.814281e-004
3.438456e+003, -4.396669e-004
3.440385e+003, -2.720696e-005
3.442313e+003, 2.269085e-003
3.444241e+003, 2.960227e-003
3.446170e+003, 2.212122e-003
3.448098e+003, 1.908325e-003
3.450027e+003, 1.134267e-003
3.451955e+003, 8.371969e-004
3.453884e+003, 1.333613e-003
3.455812e+003, 1.462509e-003
3.457741e+003, 1.731106e-003
3.459669e+003, 1.284995e-003
3.461598e+003, 1.992031e-003
3.463526e+003, 2.139592e-003
3.465455e+003, 2.233195e-003
3.467383e+003, 2.493099e-003
3.469312e+003, 1.960082e-003
3.471240e+003, 1.826377e-003
3.473168e+003, 2.344566e-003
3.475097e+003, 2.799365e-003
3.477025e+003, 2.686969e-003
3.478954e+003, 1.516818e-003
3.480882e+003, 1.955652e-003
3.482811e+003, 3.725410e-003
3.484739e+003, 4.780203e-003
3.486668e+003, 4.185941e-003
3.488596e+003, 2.616884e-003
3.490525e+003, 2.106718e-003
3.492453e+003, 1.788597e-003
3.494382e+003, 1.205612e-003
3.496310e+003, 8.791041e-004
3.498239e+003, 6.342966e-004
3.500167e+003, 8.369461e-005
3.502095e+003, 3.253697e-004
3.504024e+003, 2.714524e-003
3.505952e+003, 2.853830e-003
3.507881e+003, 2.677588e-003
3.509809e+003, 1.554236e-003
3.511738e+003, 1.037089e-003
3.513666e+003, 1.587110e-003
3.515595e+003, 6.649111e-004
3.517523e+003, 1.904325e-003
3.519452e+003, 3.104180e-003
3.521380e+003, 2.709238e-003
3.523309e+003, 3.459153e-003
3.525237e+003, 2.450610e-003
3.527166e+003, 1.161642e-003
3.529094e+003, 2.599910e-004
3.531022e+003, 1.087647e-003
3.532951e+003, 2.207381e-003
3.534879e+003, 2.274635e-003
3.536808e+003, 2.281522e-003
3.538736e+003, 1.223008e-003
3.540665e+003, 2.146807e-003
3.542593e+003, 3.033829e-003
3.544522e+003, 2.616124e-003
3.546450e+003, 9.855699e-004
3.548379e+003, 1.849350e-004
3.550307e+003, 1.664754e-003
3.552236e+003, 2.065945e-003
3.554164e+003, 1.343778e-003
3.556093e+003, 2.796196e-004
3.558021e+003, 1.055187e-003
3.559949e+003, 2.208847e-003
3.561878e+003, 1.753580e-003
3.563806e+003, 1.827335e-003
3.565735e+003, 2.106781e-003
3.567663e+003, 1.192190e-003
3.569592e+003, 1.427266e-003
3.571520e+003, 2.921144e-003
3.573449e+003, 3.344708e-003
3.575377e+003, 2.077951e-003
3.577306e+003, 8.867509e-004
3.579234e+003, 9.770294e-004
3.581163e+003, 2.060109e-003
3.583091e+003, 2.377544e-003
3.585020e+003, 3.322441e-003
3.586948e+003, 4.437748e-003
3.588876e+003, 4.842637e-003
3.590805e+003, 4.140553e-003
3.592733e+003, 3.002701e-003
3.594662e+003, 2.398300e-003
3.596590e+003, 1.633133e-003
3.598519e+003, 2.755617e-003
3.600447e+003, 3.015340e-003
3.602376e+003, 3.442699e-003
3.604304e+003, 2.598339e-003
3.606233e+003, 1.157477e-003
3.608161e+003, 1.293402e-003
3.610090e+003, 1.390591e-003
3.612018e+003, 1.641279e-003
3.613947e+003, 2.759315e-003
3.615875e+003, 3.239904e-003
3.617803e+003, 2.153485e-003
3.619732e+003, 1.114167e-003
3.621660e+003, 1.511374e-003
3.623589e+003, 7.761281e-004
3.625517e+003, 7.338809e-004
3.627446e+003, 1.791855e-003
3.629374e+003, 2.133593e-003
3.631303e+003, 1.924537e-003
3.633231e+003, 3.372519e-003
3.635160e+003, 4.977176e-003
3.637088e+003, 4.500329e-003
3.639017e+003, 2.952744e-003
3.640945e+003, 2.201925e-003
3.642874e+003, 1.407858e-003
3.644802e+003, 1.863266e-003
3.646730e+003, 1.919313e-003
3.648659e+003, 2.735061e-003
3.650587e+003, 3.033605e-003
3.652516e+003, 1.589397e-003
3.654444e+003, 1.762963e-003
3.656373e+003, 2.547826e-003
3.658301e+003, 1.353136e-003
3.660230e+003, 1.326631e-003
3.662158e+003, 2.897209e-003
3.664087e+003, 2.911190e-003
3.666015e+003, 2.812112e-003
3.667944e+003, 1.460051e-003
3.669872e+003, 2.062397e-003
3.671801e+003, 3.516841e-003
3.673729e+003, 4.670139e-003
3.675657e+003, 3.828821e-003
3.677586e+003, 1.339120e-003
3.679514e+003, 7.869267e-004
3.681443e+003, 2.730055e-003
3.683371e+003, 3.989513e-003
3.685300e+003, 2.314661e-003
3.687228e+003, 2.267994e-003
3.689157e+003, 3.332767e-003
3.691085e+003, 1.310791e-003
3.693014e+003, 5.536357e-004
3.694942e+003, 1.945471e-003
3.696871e+003, 2.703775e-003
3.698799e+003, 3.826438e-003
3.700728e+003, 4.048773e-003
3.702656e+003, 2.509185e-003
3.704584e+003, 2.585309e-003
3.706513e+003, 2.966116e-003
3.708441e+003, 2.516558e-003
3.710370e+003, 1.532696e-003
3.712298e+003, 2.248323e-003
3.714227e+003, 2.601668e-003
3.716155e+003, 1.986358e-003
3.718084e+003, 1.215033e-003
3.720012e+003, 9.317301e-004
3.721941e+003, 2.189779e-003
3.723869e+003, 2.598864e-003
3.725798e+003, 3.052411e-003
3.727726e+003, 3.439669e-003
3.729655e+003, 3.729652e-003
3.731583e+003, 3.859187e-003
3.733511e+003, 3.739908e-003
3.735440e+003, 4.248689e-003
3.737368e+003, 3.080865e-003
3.739297e+003, 3.204281e-003
3.741225e+003, 4.220711e-003
3.743154e+003, 4.288948e-003
3.745082e+003, 3.711183e-003
3.747011e+003, 1.664455e-003
3.748939e+003, -4.203976e-004
3.750868e+003, -3.864852e-004
3.752796e+003, 1.565813e-003
3.754725e+003, 1.984923e-003
3.756653e+003, 2.503400e-003
3.758582e+003, 2.669075e-003
3.760510e+003, 2.198873e-003
3.762438e+003, 8.665503e-004
3.764367e+003, -7.599109e-004
3.766295e+003, 8.602437e-004
3.768224e+003, 3.645247e-003
3.770152e+003, 3.369886e-003
3.772081e+003, 3.037596e-003
3.774009e+003, 3.275855e-003
3.775938e+003, 2.601330e-003
3.777866e+003, 2.175051e-003
3.779795e+003, 2.551443e-003
3.781723e+003, 9.252853e-004
3.783652e+003, 6.068550e-004
3.785580e+003, 1.855396e-003
3.787509e+003, 2.458048e-003
3.789437e+003, 7.858168e-004
3.791365e+003, -6.091477e-004
3.793294e+003, 4.998681e-004
3.795222e+003, 3.525615e-003
3.797151e+003, 4.645044e-003
3.799079e+003, 3.249003e-003
3.801008e+003, 1.624741e-003
3.802936e+003, 1.683469e-003
3.804865e+003, 1.932626e-003
3.806793e+003, 2.430790e-004
3.808722e+003, 1.356909e-004
3.810650e+003, 4.200552e-004
3.812579e+003, 6.186739e-004
3.814507e+003, 2.381174e-003
3.816436e+003, 4.250414e-003
3.818364e+003, 3.451344e-003
3.820292e+003, 3.049219e-003
3.822221e+003, 3.133975e-003
3.824149e+003, 4.118672e-003
3.826078e+003, 4.154959e-003
3.828006e+003, 2.919320e-003
3.829935e+003, 1.711432e-003
3.831863e+003, 2.474390e-003
3.833792e+003, 3.000617e-003
3.835720e+003, 2.749015e-003
3.837649e+003, 3.266065e-003
3.839577e+003, 3.429827e-003
3.841506e+003, 3.256221e-003
3.843434e+003, 3.107592e-003
3.845363e+003, 3.212795e-003
3.847291e+003, 2.473376e-003
3.849219e+003, 1.098129e-003
3.851148e+003, 1.398838e-003
3.853076e+003, 3.659310e-003
3.855005e+003, 2.750313e-003
3.856933e+003, 1.535477e-003
3.858862e+003, 2.640016e-003
3.860790e+003, 3.091943e-003
3.862719e+003, 1.356048e-003
3.864647e+003, 2.717219e-004
3.866576e+003, 1.017807e-003
3.868504e+003, 1.084857e-003
3.870433e+003, 1.659494e-003
3.872361e+003, 3.012090e-003
3.874290e+003, 3.877606e-003
3.876218e+003, 2.930034e-003
3.878146e+003, 1.829869e-003
3.880075e+003, 8.603442e-004
3.882003e+003, 6.351149e-004
3.883932e+003, 3.370419e-003
3.885860e+003, 4.618939e-003
3.887789e+003, 3.870535e-003
3.889717e+003, 4.539363e-003
3.891646e+003, 4.938403e-003
3.893574e+003, 2.186753e-003
3.895503e+003, 1.249594e-003
3.897431e+003, 2.746911e-003
3.899360e+003, 3.315263e-003
3.901288e+003, 3.271715e-003
3.903217e+003, 3.493103e-003
3.905145e+003, 3.360813e-003
3.907073e+003, 4.259644e-003
3.909002e+003, 3.259341e-003
3.910930e+003, 1.012585e-003
3.912859e+003, 6.822035e-004
3.914787e+003, 1.705061e-003
3.916716e+003, 1.683117e-003
3.918644e+003, 1.906360e-003
3.920573e+003, 2.514060e-003
3.922501e+003, 2.509791e-003
3.924430e+003, 2.808360e-003
3.926358e+003, 1.481450e-003
3.928287e+003, 1.721285e-003
3.930215e+003, 3.919663e-003
3.932144e+003, 3.804808e-003
3.934072e+003, 3.401578e-003
3.936000e+003, 3.577873e-003
3.937929e+003, 3.416926e-003
3.939857e+003, 3.130378e-003
3.941786e+003, 2.969543e-003
3.943714e+003, 3.241736e-003
3.945643e+003, 5.262246e-003
3.947571e+003, 5.218122e-003
3.949500e+003, 1.654957e-003
3.951428e+003, 8.020634e-004
3.953357e+003, 3.621788e-003
3.955285e+003, 4.162096e-003
3.957214e+003, 4.046402e-003
3.959142e+003, 4.104439e-003
3.961071e+003, 2.316538e-003
3.962999e+003, 7.968991e-004
3.964927e+003, 1.836408e-003
3.966856e+003, 2.338580e-003
3.968784e+003, 1.734299e-004
3.970713e+003, -1.121621e-003
3.972641e+003, 5.439593e-004
3.974570e+003, 1.573442e-003
3.976498e+003, 2.166987e-003
3.978427e+003, 3.663666e-003
3.980355e+003, 3.604781e-003
3.982284e+003, 3.267764e-003
3.984212e+003, 3.919129e-003
3.986141e+003, 2.417438e-003
3.988069e+003, 2.803276e-003
3.989998e+003, 4.402915e-003
3.991926e+003, 2.782482e-003
3.993854e+003, -9.179759e-005
3.995783e+003, -7.400450e-004
3.997711e+003, -7.179353e-005
3.999640e+003, -7.229753e-005
##END=



