##NAMES=Sphalerite
##RRUFFID=R050237
##IDEAL CHEMISTRY=Zn^2+^S^2-^
##LOCALITY=Picos de Europa, Spain
##OWNER=RRUFF
##SOURCE=Marcus Origlieri
##DESCRIPTION=Green single crystal
##STATUS=The identification of this mineral has been confirmed by X-ray diffraction and chemical analysis
##URL=rruff.info/R050237
##MEASURED CHEMISTRY=Zn_1.00_S_1.00_
5.014013e+001, 2.058001e-002
5.206860e+001, 2.323680e-002
5.399707e+001, 2.698992e-002
5.592553e+001, 2.028449e-002
5.785400e+001, 2.174666e-002
5.978246e+001, 2.259743e-002
6.171093e+001, 2.196503e-002
6.363940e+001, 2.211653e-002
6.556786e+001, 2.161011e-002
6.749633e+001, 2.169683e-002
6.942480e+001, 2.210704e-002
7.135326e+001, 2.409268e-002
7.328172e+001, 2.387097e-002
7.521019e+001, 2.453956e-002
7.713866e+001, 2.594708e-002
7.906712e+001, 2.794299e-002
8.099559e+001, 2.949347e-002
8.292406e+001, 3.034479e-002
8.485252e+001, 2.952611e-002
8.678099e+001, 2.871796e-002
8.870946e+001, 2.980234e-002
9.063792e+001, 3.103925e-002
9.256638e+001, 3.228914e-002
9.449485e+001, 3.449136e-002
9.642332e+001, 3.486264e-002
9.835178e+001, 3.648609e-002
1.002803e+002, 3.787260e-002
1.022087e+002, 3.797348e-002
1.041372e+002, 3.860658e-002
1.060657e+002, 3.916098e-002
1.079941e+002, 3.945039e-002
1.099226e+002, 4.039196e-002
1.118510e+002, 4.111666e-002
1.137795e+002, 4.208888e-002
1.157080e+002, 4.300408e-002
1.176364e+002, 4.285619e-002
1.195649e+002, 4.334874e-002
1.214934e+002, 4.435091e-002
1.234218e+002, 4.479288e-002
1.253503e+002, 4.608995e-002
1.272788e+002, 4.660508e-002
1.292072e+002, 4.805896e-002
1.311357e+002, 4.968487e-002
1.330642e+002, 5.057018e-002
1.349926e+002, 5.163173e-002
1.369211e+002, 5.318434e-002
1.388496e+002, 5.349681e-002
1.407780e+002, 5.406183e-002
1.427065e+002, 5.542384e-002
1.446350e+002, 5.702445e-002
1.465634e+002, 5.808435e-002
1.484919e+002, 5.916120e-002
1.504204e+002, 5.920145e-002
1.523488e+002, 6.002295e-002
1.542773e+002, 6.109591e-002
1.562058e+002, 6.273242e-002
1.581342e+002, 6.387503e-002
1.600627e+002, 6.469117e-002
1.619912e+002, 6.516714e-002
1.639196e+002, 6.620421e-002
1.658481e+002, 6.742123e-002
1.677766e+002, 6.817657e-002
1.697050e+002, 6.925063e-002
1.716335e+002, 7.040322e-002
1.735620e+002, 7.127879e-002
1.754904e+002, 7.230267e-002
1.774189e+002, 7.319056e-002
1.793474e+002, 7.444946e-002
1.812758e+002, 7.510097e-002
1.832043e+002, 7.588229e-002
1.851328e+002, 7.628258e-002
1.870612e+002, 7.688862e-002
1.889897e+002, 7.802585e-002
1.909182e+002, 7.899777e-002
1.928466e+002, 7.941086e-002
1.947751e+002, 7.989439e-002
1.967036e+002, 8.092801e-002
1.986320e+002, 8.183788e-002
2.005605e+002, 8.311438e-002
2.024890e+002, 8.432429e-002
2.044174e+002, 8.526403e-002
2.063459e+002, 8.624742e-002
2.082744e+002, 8.700419e-002
2.102028e+002, 8.745600e-002
2.121313e+002, 8.762815e-002
2.140598e+002, 8.827274e-002
2.159882e+002, 8.899970e-002
2.179167e+002, 9.019208e-002
2.198452e+002, 9.088086e-002
2.217736e+002, 9.142022e-002
2.237021e+002, 9.216763e-002
2.256305e+002, 9.307730e-002
2.275590e+002, 9.381812e-002
2.294875e+002, 9.497144e-002
2.314159e+002, 9.610779e-002
2.333444e+002, 9.698394e-002
2.352729e+002, 9.752455e-002
2.372013e+002, 9.876672e-002
2.391298e+002, 9.967941e-002
2.410583e+002, 1.005164e-001
2.429867e+002, 1.011111e-001
2.449152e+002, 1.018562e-001
2.468437e+002, 1.025039e-001
2.487721e+002, 1.032732e-001
2.507006e+002, 1.038261e-001
2.526291e+002, 1.043952e-001
2.545575e+002, 1.053978e-001
2.564860e+002, 1.062311e-001
2.584145e+002, 1.064040e-001
2.603429e+002, 1.062445e-001
2.622714e+002, 1.061599e-001
2.641999e+002, 1.063525e-001
2.661283e+002, 1.063878e-001
2.680568e+002, 1.060380e-001
2.699853e+002, 1.052590e-001
2.719137e+002, 1.046320e-001
2.738422e+002, 1.041045e-001
2.757707e+002, 1.040130e-001
2.776991e+002, 1.033744e-001
2.796276e+002, 1.024734e-001
2.815561e+002, 1.018510e-001
2.834845e+002, 1.012600e-001
2.854130e+002, 1.004706e-001
2.873415e+002, 1.001999e-001
2.892699e+002, 9.965907e-002
2.911984e+002, 9.910849e-002
2.931269e+002, 9.845036e-002
2.950553e+002, 9.717196e-002
2.969838e+002, 9.582574e-002
2.989123e+002, 9.475134e-002
3.008407e+002, 9.358560e-002
3.027692e+002, 9.261293e-002
3.046977e+002, 9.083948e-002
3.066261e+002, 8.911718e-002
3.085546e+002, 8.715653e-002
3.104831e+002, 8.504605e-002
3.124115e+002, 8.274654e-002
3.143400e+002, 7.972586e-002
3.162685e+002, 7.633098e-002
3.181969e+002, 7.314117e-002
3.201254e+002, 7.034022e-002
3.220539e+002, 6.781208e-002
3.239823e+002, 6.492461e-002
3.259108e+002, 6.168986e-002
3.278392e+002, 5.876843e-002
3.297677e+002, 5.599449e-002
3.316962e+002, 5.349647e-002
3.336246e+002, 5.114743e-002
3.355531e+002, 4.846648e-002
3.374816e+002, 4.589196e-002
3.394100e+002, 4.322708e-002
3.413385e+002, 4.042475e-002
3.432670e+002, 3.718953e-002
3.451954e+002, 3.377100e-002
3.471239e+002, 3.067799e-002
3.490524e+002, 2.863619e-002
3.509808e+002, 2.729207e-002
3.529093e+002, 2.624910e-002
3.548378e+002, 2.535118e-002
3.567662e+002, 2.478515e-002
3.586947e+002, 2.477130e-002
3.606232e+002, 2.479493e-002
3.625516e+002, 2.477045e-002
3.644801e+002, 2.502200e-002
3.664086e+002, 2.531186e-002
3.683370e+002, 2.525688e-002
3.702655e+002, 2.501483e-002
3.721940e+002, 2.520527e-002
3.741224e+002, 2.554340e-002
3.760509e+002, 2.546464e-002
3.779794e+002, 2.529065e-002
3.799078e+002, 2.526164e-002
3.818363e+002, 2.504247e-002
3.837648e+002, 2.497150e-002
3.856932e+002, 2.500024e-002
3.876217e+002, 2.506217e-002
3.895502e+002, 2.549366e-002
3.914786e+002, 2.556980e-002
3.934071e+002, 2.537343e-002
3.953356e+002, 2.562835e-002
3.972640e+002, 2.581974e-002
3.991925e+002, 2.602740e-002
4.011210e+002, 2.606456e-002
4.030494e+002, 2.617751e-002
4.049779e+002, 2.656309e-002
4.069064e+002, 2.653975e-002
4.088348e+002, 2.673895e-002
4.107633e+002, 2.714438e-002
4.126917e+002, 2.745957e-002
4.146202e+002, 2.791752e-002
4.165487e+002, 2.847816e-002
4.184771e+002, 2.887656e-002
4.204056e+002, 2.908332e-002
4.223341e+002, 2.920236e-002
4.242625e+002, 2.960453e-002
4.261910e+002, 2.996066e-002
4.281195e+002, 3.004030e-002
4.300479e+002, 3.045733e-002
4.319764e+002, 3.110916e-002
4.339049e+002, 3.181502e-002
4.358333e+002, 3.258394e-002
4.377618e+002, 3.326844e-002
4.396903e+002, 3.383989e-002
4.416187e+002, 3.433422e-002
4.435472e+002, 3.497644e-002
4.454757e+002, 3.588547e-002
4.474041e+002, 3.662140e-002
4.493326e+002, 3.711988e-002
4.512611e+002, 3.781301e-002
4.531895e+002, 3.885521e-002
4.551180e+002, 3.980436e-002
4.570465e+002, 4.053341e-002
4.589749e+002, 4.124723e-002
4.609034e+002, 4.209195e-002
4.628319e+002, 4.314056e-002
4.647603e+002, 4.405141e-002
4.666888e+002, 4.523142e-002
4.686173e+002, 4.617525e-002
4.705457e+002, 4.670830e-002
4.724742e+002, 4.722890e-002
4.744027e+002, 4.798479e-002
4.763311e+002, 4.903677e-002
4.782596e+002, 5.001108e-002
4.801881e+002, 5.031944e-002
4.821165e+002, 5.068795e-002
4.840450e+002, 5.174577e-002
4.859735e+002, 5.301022e-002
4.879019e+002, 5.367417e-002
4.898304e+002, 5.389774e-002
4.917589e+002, 5.420033e-002
4.936873e+002, 5.461094e-002
4.956158e+002, 5.501356e-002
4.975443e+002, 5.587365e-002
4.994727e+002, 5.658189e-002
5.014012e+002, 5.724039e-002
5.033297e+002, 5.791722e-002
5.052581e+002, 5.809933e-002
5.071866e+002, 5.813563e-002
5.091151e+002, 5.838989e-002
5.110435e+002, 5.901396e-002
5.129720e+002, 5.957971e-002
5.149005e+002, 6.008651e-002
5.168289e+002, 6.065755e-002
5.187574e+002, 6.126683e-002
5.206859e+002, 6.247518e-002
5.226143e+002, 6.299069e-002
5.245428e+002, 6.307425e-002
5.264713e+002, 6.350945e-002
5.283997e+002, 6.374107e-002
5.303282e+002, 6.411425e-002
5.322567e+002, 6.444620e-002
5.341851e+002, 6.479403e-002
5.361136e+002, 6.570186e-002
5.380421e+002, 6.687076e-002
5.399705e+002, 6.741541e-002
5.418990e+002, 6.766616e-002
5.438275e+002, 6.831877e-002
5.457559e+002, 6.925450e-002
5.476844e+002, 7.002223e-002
5.496129e+002, 7.036797e-002
5.515413e+002, 7.037044e-002
5.534698e+002, 7.096744e-002
5.553983e+002, 7.205357e-002
5.573267e+002, 7.316714e-002
5.592552e+002, 7.396156e-002
5.611837e+002, 7.442535e-002
5.631121e+002, 7.507015e-002
5.650406e+002, 7.607796e-002
5.669691e+002, 7.687971e-002
5.688975e+002, 7.751510e-002
5.708260e+002, 7.777469e-002
5.727545e+002, 7.831252e-002
5.746829e+002, 7.920596e-002
5.766114e+002, 8.010796e-002
5.785399e+002, 8.058798e-002
5.804683e+002, 8.089215e-002
5.823968e+002, 8.158726e-002
5.843253e+002, 8.208299e-002
5.862537e+002, 8.222293e-002
5.881822e+002, 8.265576e-002
5.901107e+002, 8.346266e-002
5.920391e+002, 8.411811e-002
5.939676e+002, 8.441488e-002
5.958961e+002, 8.484446e-002
5.978245e+002, 8.503844e-002
5.997530e+002, 8.504774e-002
6.016815e+002, 8.571626e-002
6.036099e+002, 8.620937e-002
6.055384e+002, 8.600679e-002
6.074669e+002, 8.606542e-002
6.093953e+002, 8.660354e-002
6.113238e+002, 8.683230e-002
6.132523e+002, 8.787356e-002
6.151807e+002, 8.893472e-002
6.171091e+002, 8.910976e-002
6.190376e+002, 8.849907e-002
6.209661e+002, 8.880589e-002
6.228945e+002, 9.040563e-002
6.248230e+002, 9.153162e-002
6.267515e+002, 9.198420e-002
6.286799e+002, 9.255982e-002
6.306084e+002, 9.386943e-002
6.325369e+002, 9.538691e-002
6.344653e+002, 9.593679e-002
6.363938e+002, 9.613752e-002
6.383223e+002, 9.635942e-002
6.402507e+002, 9.651078e-002
6.421792e+002, 9.658159e-002
6.441077e+002, 9.674101e-002
6.460361e+002, 9.653468e-002
6.479646e+002, 9.659201e-002
6.498931e+002, 9.696804e-002
6.518215e+002, 9.754235e-002
6.537500e+002, 9.780908e-002
6.556785e+002, 9.790616e-002
6.576069e+002, 9.846027e-002
6.595354e+002, 9.955357e-002
6.614639e+002, 9.993121e-002
6.633923e+002, 1.001781e-001
6.653208e+002, 1.008139e-001
6.672493e+002, 1.012398e-001
6.691777e+002, 1.017292e-001
6.711062e+002, 1.024361e-001
6.730347e+002, 1.031008e-001
6.749631e+002, 1.034277e-001
6.768916e+002, 1.040486e-001
6.788201e+002, 1.049824e-001
6.807485e+002, 1.059463e-001
6.826770e+002, 1.059929e-001
6.846055e+002, 1.054701e-001
6.865339e+002, 1.057863e-001
6.884624e+002, 1.064630e-001
6.903909e+002, 1.072815e-001
6.923193e+002, 1.078018e-001
6.942478e+002, 1.078731e-001
6.961763e+002, 1.078352e-001
6.981047e+002, 1.091857e-001
7.000332e+002, 1.106263e-001
##END=



