##NAMES=Spinel
##RRUFFID=R050259
##IDEAL CHEMISTRY=MgAl_2_O_4_
##LOCALITY=Mogok, Burma
##OWNER=RRUFF
##SOURCE=Marcus Origlieri
##DESCRIPTION=Purple cut gemstone
##STATUS=The identification of this mineral has been confirmed by X-ray diffraction and chemical analysis
##URL=rruff.info/R050259
##MEASURED CHEMISTRY=(Mg_0.99_Zn_0.01_)_Σ=1_(Al_1.98_Fe^3+^_0.02_)_Σ=2_O_4_; trace amounts of Cr
3.721941e+002, 0.000000e+000
3.741225e+002, 7.471263e-002
3.760510e+002, 8.133225e-002
3.779795e+002, 8.379383e-002
3.799079e+002, 8.108848e-002
3.818364e+002, 7.785355e-002
3.837649e+002, 7.947589e-002
3.856933e+002, 7.943604e-002
3.876218e+002, 7.930967e-002
3.895503e+002, 8.231981e-002
3.914787e+002, 8.132266e-002
3.934072e+002, 8.102877e-002
3.953357e+002, 8.098433e-002
3.972641e+002, 7.898311e-002
3.991926e+002, 8.174576e-002
4.011211e+002, 8.388088e-002
4.030495e+002, 8.293797e-002
4.049780e+002, 8.337659e-002
4.069065e+002, 8.467066e-002
4.088349e+002, 8.491141e-002
4.107634e+002, 8.230636e-002
4.126919e+002, 8.212962e-002
4.146203e+002, 8.225377e-002
4.165488e+002, 8.301657e-002
4.184773e+002, 8.392745e-002
4.204057e+002, 8.484780e-002
4.223342e+002, 8.492656e-002
4.242627e+002, 8.576256e-002
4.261911e+002, 8.587381e-002
4.281196e+002, 8.540349e-002
4.300481e+002, 8.541927e-002
4.319765e+002, 8.537140e-002
4.339050e+002, 8.525041e-002
4.358335e+002, 8.563939e-002
4.377619e+002, 8.621233e-002
4.396904e+002, 8.702610e-002
4.416189e+002, 8.787542e-002
4.435473e+002, 8.834693e-002
4.454758e+002, 8.841896e-002
4.474043e+002, 8.860375e-002
4.493327e+002, 8.776139e-002
4.512612e+002, 8.623166e-002
4.531897e+002, 8.738565e-002
4.551181e+002, 8.866011e-002
4.570466e+002, 8.883259e-002
4.589751e+002, 8.846844e-002
4.609035e+002, 8.755632e-002
4.628320e+002, 8.697080e-002
4.647605e+002, 8.669449e-002
4.666889e+002, 8.639389e-002
4.686174e+002, 8.581976e-002
4.705459e+002, 8.493494e-002
4.724743e+002, 8.333944e-002
4.744028e+002, 8.262359e-002
4.763313e+002, 8.328824e-002
4.782597e+002, 8.371200e-002
4.801882e+002, 8.420829e-002
4.821167e+002, 8.519208e-002
4.840451e+002, 8.589446e-002
4.859736e+002, 8.647557e-002
4.879021e+002, 8.793183e-002
4.898305e+002, 8.876380e-002
4.917590e+002, 8.908279e-002
4.936875e+002, 8.981970e-002
4.956159e+002, 9.043419e-002
4.975444e+002, 9.100110e-002
4.994729e+002, 9.122279e-002
5.014013e+002, 9.139802e-002
5.033298e+002, 9.181698e-002
5.052583e+002, 9.224989e-002
5.071867e+002, 9.244630e-002
5.091152e+002, 9.273414e-002
5.110437e+002, 9.306838e-002
5.129721e+002, 9.289621e-002
5.149006e+002, 9.287364e-002
5.168290e+002, 9.321193e-002
5.187575e+002, 9.272327e-002
5.206860e+002, 9.195640e-002
5.226144e+002, 9.162287e-002
5.245429e+002, 9.167912e-002
5.264714e+002, 9.153084e-002
5.283998e+002, 9.110923e-002
5.303283e+002, 9.031727e-002
5.322568e+002, 8.927938e-002
5.341852e+002, 8.869225e-002
5.361137e+002, 8.832038e-002
5.380422e+002, 8.773708e-002
5.399706e+002, 8.693827e-002
5.418991e+002, 8.620099e-002
5.438276e+002, 8.512911e-002
5.457560e+002, 8.406920e-002
5.476845e+002, 8.320240e-002
5.496130e+002, 8.262297e-002
5.515414e+002, 8.200726e-002
5.534699e+002, 8.093332e-002
5.553984e+002, 7.941578e-002
5.573268e+002, 7.798760e-002
5.592553e+002, 7.724828e-002
5.611838e+002, 7.637589e-002
5.631122e+002, 7.484265e-002
5.650407e+002, 7.334441e-002
5.669692e+002, 7.167815e-002
5.688976e+002, 6.983511e-002
5.708261e+002, 6.869039e-002
5.727546e+002, 6.865390e-002
5.746830e+002, 6.969022e-002
5.766115e+002, 7.083824e-002
5.785400e+002, 7.149710e-002
5.804684e+002, 7.136703e-002
5.823969e+002, 7.031775e-002
5.843254e+002, 6.862263e-002
5.862538e+002, 6.697401e-002
5.881823e+002, 6.510785e-002
5.901108e+002, 6.267402e-002
5.920392e+002, 5.997135e-002
5.939677e+002, 5.705203e-002
5.958962e+002, 5.403093e-002
5.978246e+002, 5.107119e-002
5.997531e+002, 4.830208e-002
6.016816e+002, 4.567259e-002
6.036100e+002, 4.315829e-002
6.055385e+002, 4.077976e-002
6.074670e+002, 3.865451e-002
6.093954e+002, 3.655413e-002
6.113239e+002, 3.480715e-002
6.132524e+002, 3.347687e-002
6.151808e+002, 3.266445e-002
6.171093e+002, 3.232168e-002
6.190378e+002, 3.241285e-002
6.209662e+002, 3.302479e-002
6.228947e+002, 3.426463e-002
6.248232e+002, 3.601709e-002
6.267516e+002, 3.827246e-002
6.286801e+002, 4.132560e-002
6.306086e+002, 4.489763e-002
6.325370e+002, 4.867708e-002
6.344655e+002, 5.253095e-002
6.363940e+002, 5.655351e-002
6.383224e+002, 6.045630e-002
6.402509e+002, 6.373785e-002
6.421794e+002, 6.671911e-002
6.441078e+002, 6.976862e-002
6.460363e+002, 7.248150e-002
6.479648e+002, 7.494714e-002
6.498932e+002, 7.717213e-002
6.518217e+002, 7.892211e-002
6.537502e+002, 8.027288e-002
6.556786e+002, 8.132980e-002
6.576071e+002, 8.196267e-002
6.595356e+002, 8.238439e-002
6.614641e+002, 8.275701e-002
6.633925e+002, 8.306587e-002
6.653210e+002, 8.339965e-002
6.672495e+002, 8.372100e-002
6.691779e+002, 8.377479e-002
6.711064e+002, 8.372699e-002
6.730349e+002, 8.378462e-002
6.749633e+002, 8.380782e-002
6.768918e+002, 8.376588e-002
6.788203e+002, 8.376485e-002
6.807487e+002, 8.367931e-002
6.826772e+002, 8.304460e-002
6.846057e+002, 8.247505e-002
6.865341e+002, 8.226027e-002
6.884626e+002, 8.180758e-002
6.903911e+002, 8.104523e-002
6.923195e+002, 8.040126e-002
6.942480e+002, 7.976131e-002
6.961765e+002, 7.887138e-002
6.981049e+002, 7.787567e-002
7.000334e+002, 7.700916e-002
7.019619e+002, 7.621250e-002
7.038903e+002, 7.547989e-002
7.058188e+002, 7.461205e-002
7.077473e+002, 7.372793e-002
7.096757e+002, 7.273713e-002
7.116042e+002, 7.172796e-002
7.135327e+002, 7.108986e-002
7.154611e+002, 7.037690e-002
7.173896e+002, 6.937228e-002
7.193181e+002, 6.845571e-002
7.212465e+002, 6.766670e-002
7.231750e+002, 6.679883e-002
7.251035e+002, 6.583850e-002
7.270319e+002, 6.506027e-002
7.289604e+002, 6.404226e-002
7.308889e+002, 6.301216e-002
7.328173e+002, 6.219102e-002
7.347458e+002, 6.125369e-002
7.366743e+002, 6.023043e-002
7.386027e+002, 5.903714e-002
7.405312e+002, 5.783661e-002
7.424597e+002, 5.689062e-002
7.443881e+002, 5.578557e-002
7.463166e+002, 5.475847e-002
7.482451e+002, 5.371541e-002
7.501735e+002, 5.256345e-002
7.521020e+002, 5.132183e-002
7.540305e+002, 5.003032e-002
7.559589e+002, 4.885018e-002
7.578874e+002, 4.766161e-002
7.598159e+002, 4.638542e-002
7.617443e+002, 4.499956e-002
7.636728e+002, 4.351319e-002
7.656013e+002, 4.212997e-002
7.675297e+002, 4.091661e-002
7.694582e+002, 3.979461e-002
7.713867e+002, 3.838582e-002
7.733151e+002, 3.692041e-002
7.752436e+002, 3.566376e-002
7.771721e+002, 3.464673e-002
7.791005e+002, 3.362534e-002
7.810290e+002, 3.267799e-002
7.829575e+002, 3.187821e-002
7.848859e+002, 3.114732e-002
7.868144e+002, 3.045065e-002
7.887429e+002, 2.975524e-002
7.906713e+002, 2.907981e-002
7.925998e+002, 2.855932e-002
7.945283e+002, 2.790068e-002
7.964567e+002, 2.721800e-002
7.983852e+002, 2.664813e-002
8.003137e+002, 2.624338e-002
8.022421e+002, 2.566855e-002
8.041706e+002, 2.503831e-002
8.060991e+002, 2.442339e-002
8.080275e+002, 2.401348e-002
8.099560e+002, 2.362495e-002
8.118845e+002, 2.311253e-002
8.138129e+002, 2.259851e-002
8.157414e+002, 2.216203e-002
8.176699e+002, 2.180110e-002
8.195983e+002, 2.119348e-002
8.215268e+002, 2.061037e-002
8.234553e+002, 2.004272e-002
8.253837e+002, 1.930037e-002
8.273122e+002, 1.848093e-002
8.292407e+002, 1.773495e-002
8.311691e+002, 1.702924e-002
8.330976e+002, 1.639153e-002
8.350261e+002, 1.565978e-002
8.369545e+002, 1.490780e-002
8.388830e+002, 1.413831e-002
8.408115e+002, 1.357087e-002
8.427399e+002, 1.294967e-002
8.446684e+002, 1.228095e-002
8.465969e+002, 1.166159e-002
8.485253e+002, 1.098712e-002
8.504538e+002, 1.044620e-002
8.523823e+002, 9.964861e-003
8.543107e+002, 9.487321e-003
8.562392e+002, 9.142538e-003
8.581677e+002, 8.723135e-003
8.600961e+002, 8.225065e-003
8.620246e+002, 7.842742e-003
8.639531e+002, 7.400045e-003
8.658815e+002, 6.914768e-003
8.678100e+002, 6.475518e-003
8.697385e+002, 6.146054e-003
8.716669e+002, 5.955803e-003
8.735954e+002, 5.840149e-003
8.755239e+002, 5.633807e-003
8.774523e+002, 5.420315e-003
8.793808e+002, 5.370551e-003
8.813093e+002, 5.149479e-003
8.832377e+002, 4.893411e-003
8.851662e+002, 4.678220e-003
8.870947e+002, 4.514397e-003
8.890231e+002, 4.279211e-003
8.909516e+002, 4.072977e-003
8.928801e+002, 3.955645e-003
8.948085e+002, 3.740208e-003
8.967370e+002, 3.765908e-003
8.986655e+002, 3.759937e-003
9.005939e+002, 3.534212e-003
9.025224e+002, 3.420764e-003
9.044509e+002, 3.291817e-003
9.063793e+002, 3.105031e-003
9.083078e+002, 3.002237e-003
9.102363e+002, 2.961448e-003
9.121647e+002, 2.909169e-003
9.140932e+002, 2.808576e-003
9.160217e+002, 2.709885e-003
9.179501e+002, 2.680956e-003
9.198786e+002, 2.506386e-003
9.218071e+002, 2.352432e-003
9.237355e+002, 2.334602e-003
9.256640e+002, 2.265350e-003
9.275925e+002, 2.277797e-003
9.295209e+002, 2.240937e-003
9.314494e+002, 2.099751e-003
9.333779e+002, 2.125145e-003
9.353063e+002, 2.140596e-003
9.372348e+002, 2.148911e-003
9.391633e+002, 2.085611e-003
9.410917e+002, 1.936033e-003
9.430202e+002, 1.979402e-003
9.449487e+002, 2.007645e-003
9.468771e+002, 1.983273e-003
9.488056e+002, 1.946532e-003
9.507341e+002, 1.929726e-003
9.526625e+002, 1.847262e-003
9.545910e+002, 1.826983e-003
9.565195e+002, 1.827968e-003
9.584479e+002, 1.874430e-003
9.603764e+002, 1.876156e-003
9.623049e+002, 1.806360e-003
9.642333e+002, 1.683254e-003
9.661618e+002, 1.696135e-003
9.680903e+002, 1.715238e-003
9.700187e+002, 1.704552e-003
9.719472e+002, 1.644762e-003
9.738757e+002, 1.560570e-003
9.758041e+002, 1.662098e-003
9.777326e+002, 1.657219e-003
9.796611e+002, 1.569743e-003
9.815895e+002, 1.522009e-003
9.835180e+002, 1.438210e-003
9.854465e+002, 1.386288e-003
9.873749e+002, 1.495423e-003
9.893034e+002, 1.713492e-003
9.912319e+002, 1.650195e-003
9.931603e+002, 1.579714e-003
9.950888e+002, 1.559981e-003
9.970173e+002, 1.456127e-003
9.989457e+002, 1.483420e-003
1.000874e+003, 1.607261e-003
1.002803e+003, 1.514754e-003
1.004731e+003, 1.408040e-003
1.006660e+003, 1.496783e-003
1.008588e+003, 1.585571e-003
1.010517e+003, 1.496840e-003
1.012445e+003, 1.392634e-003
1.014373e+003, 1.451530e-003
1.016302e+003, 1.541971e-003
1.018230e+003, 1.472112e-003
1.020159e+003, 1.353774e-003
1.022087e+003, 1.266289e-003
1.024016e+003, 1.104699e-003
1.025944e+003, 1.025409e-003
1.027873e+003, 1.089536e-003
1.029801e+003, 1.177272e-003
1.031730e+003, 1.166726e-003
1.033658e+003, 1.087669e-003
1.035587e+003, 1.127123e-003
1.037515e+003, 1.083802e-003
1.039443e+003, 9.666899e-004
1.041372e+003, 8.976714e-004
1.043300e+003, 8.667066e-004
1.045229e+003, 7.722721e-004
1.047157e+003, 6.531804e-004
1.049086e+003, 6.978636e-004
1.051014e+003, 6.949264e-004
1.052943e+003, 5.062994e-004
1.054871e+003, 4.579272e-004
1.056800e+003, 4.399773e-004
1.058728e+003, 3.191628e-004
1.060657e+003, 2.750123e-004
1.062585e+003, 2.259129e-004
1.064514e+003, 9.100977e-005
1.066442e+003, 5.244090e-005
1.068370e+003, 2.304367e-004
1.070299e+003, 3.268030e-004
1.072227e+003, 1.100408e-004
1.074156e+003, -1.753245e-004
1.076084e+003, -5.978964e-005
1.078013e+003, 1.235680e-004
1.079941e+003, 4.780828e-005
1.081870e+003, -2.509263e-006
1.083798e+003, 2.459941e-005
1.085727e+003, 9.965044e-006
1.087655e+003, -1.680532e-004
1.089584e+003, -3.376167e-004
1.091512e+003, -3.746785e-004
1.093441e+003, -4.572573e-004
1.095369e+003, -4.250669e-004
1.097297e+003, -3.848384e-004
1.099226e+003, -3.998531e-004
1.101154e+003, -3.580460e-004
1.103083e+003, -4.230939e-004
1.105011e+003, -5.585432e-004
1.106940e+003, -6.062982e-004
1.108868e+003, -7.318444e-004
1.110797e+003, -7.001886e-004
1.112725e+003, -6.216551e-004
1.114654e+003, -7.385391e-004
1.116582e+003, -7.948919e-004
1.118511e+003, -7.649247e-004
1.120439e+003, -6.140998e-004
1.122368e+003, -4.986667e-004
1.124296e+003, -4.099403e-004
1.126224e+003, -4.138127e-004
1.128153e+003, -6.786172e-004
1.130081e+003, -7.741838e-004
1.132010e+003, -6.510837e-004
1.133938e+003, -6.793957e-004
1.135867e+003, -6.872411e-004
1.137795e+003, -6.354353e-004
1.139724e+003, -7.819582e-004
1.141652e+003, -8.889822e-004
1.143581e+003, -8.891979e-004
1.145509e+003, -8.146135e-004
1.147438e+003, -7.826954e-004
1.149366e+003, -8.620668e-004
1.151295e+003, -8.130530e-004
1.153223e+003, -7.254820e-004
1.155151e+003, -6.882449e-004
1.157080e+003, -6.879008e-004
1.159008e+003, -8.336064e-004
1.160937e+003, -9.753366e-004
1.162865e+003, -1.005490e-003
1.164794e+003, -1.027032e-003
1.166722e+003, -9.867563e-004
1.168651e+003, -8.907174e-004
1.170579e+003, -8.877346e-004
1.172508e+003, -9.600084e-004
1.174436e+003, -9.231338e-004
1.176365e+003, -9.078414e-004
1.178293e+003, -9.430785e-004
1.180222e+003, -1.030254e-003
1.182150e+003, -1.107729e-003
1.184078e+003, -1.143281e-003
1.186007e+003, -1.138909e-003
1.187935e+003, -1.107809e-003
1.189864e+003, -1.109528e-003
1.191792e+003, -1.147104e-003
1.193721e+003, -1.044446e-003
1.195649e+003, -9.821982e-004
1.197578e+003, -1.003822e-003
1.199506e+003, -1.122882e-003
1.201435e+003, -1.206430e-003
1.203363e+003, -1.124066e-003
1.205292e+003, -1.063020e-003
1.207220e+003, -1.088551e-003
1.209149e+003, -1.159493e-003
1.211077e+003, -1.203141e-003
1.213005e+003, -1.211273e-003
1.214934e+003, -1.122502e-003
1.216862e+003, -1.093101e-003
1.218791e+003, -1.014792e-003
1.220719e+003, -9.331887e-004
1.222648e+003, -8.835443e-004
1.224576e+003, -8.795098e-004
1.226505e+003, -8.985028e-004
1.228433e+003, -1.041548e-003
1.230362e+003, -1.225675e-003
1.232290e+003, -1.218553e-003
1.234219e+003, -1.205240e-003
1.236147e+003, -1.283212e-003
1.238076e+003, -1.188582e-003
1.240004e+003, -1.123115e-003
1.241932e+003, -1.247959e-003
1.243861e+003, -1.292905e-003
1.245789e+003, -1.385744e-003
1.247718e+003, -1.467263e-003
1.249646e+003, -1.354845e-003
1.251575e+003, -1.291036e-003
1.253503e+003, -1.370586e-003
1.255432e+003, -1.444431e-003
1.257360e+003, -1.428492e-003
1.259289e+003, -1.436509e-003
1.261217e+003, -1.503642e-003
1.263146e+003, -1.489078e-003
1.265074e+003, -1.365049e-003
1.267003e+003, -1.331785e-003
1.268931e+003, -1.347737e-003
1.270859e+003, -1.300762e-003
1.272788e+003, -1.268613e-003
1.274716e+003, -1.202939e-003
1.276645e+003, -1.226750e-003
1.278573e+003, -1.366768e-003
1.280502e+003, -1.453725e-003
1.282430e+003, -1.365847e-003
1.284359e+003, -1.316702e-003
1.286287e+003, -1.286618e-003
1.288216e+003, -1.270193e-003
1.290144e+003, -1.245394e-003
1.292073e+003, -1.197104e-003
1.294001e+003, -1.164491e-003
1.295930e+003, -1.224458e-003
1.297858e+003, -1.300080e-003
1.299786e+003, -1.381497e-003
1.301715e+003, -1.529212e-003
1.303643e+003, -1.770770e-003
1.305572e+003, -1.756614e-003
1.307500e+003, -1.405512e-003
1.309429e+003, -1.250200e-003
1.311357e+003, -1.202528e-003
1.313286e+003, -1.204600e-003
1.315214e+003, -1.295335e-003
1.317143e+003, -1.210968e-003
1.319071e+003, -1.197607e-003
1.321000e+003, -1.246922e-003
1.322928e+003, -1.194460e-003
1.324857e+003, -1.151166e-003
1.326785e+003, -1.231415e-003
1.328714e+003, -1.305204e-003
1.330642e+003, -1.233103e-003
1.332570e+003, -1.164743e-003
1.334499e+003, -1.153675e-003
1.336427e+003, -1.180488e-003
1.338356e+003, -1.181218e-003
1.340284e+003, -1.207162e-003
1.342213e+003, -1.263396e-003
1.344141e+003, -1.154366e-003
1.346070e+003, -1.234626e-003
1.347998e+003, -1.275482e-003
1.349927e+003, -1.139246e-003
1.351855e+003, -1.117895e-003
1.353784e+003, -1.221782e-003
1.355712e+003, -1.165244e-003
1.357641e+003, -1.191729e-003
1.359569e+003, -1.293308e-003
1.361497e+003, -1.217624e-003
1.363426e+003, -1.285752e-003
1.365354e+003, -1.311540e-003
1.367283e+003, -1.204081e-003
1.369211e+003, -1.166569e-003
1.371140e+003, -1.165537e-003
1.373068e+003, -1.264565e-003
1.374997e+003, -1.295618e-003
1.376925e+003, -1.231421e-003
1.378854e+003, -1.158825e-003
1.380782e+003, -1.127476e-003
1.382711e+003, -1.128274e-003
1.384639e+003, -1.118628e-003
1.386568e+003, -1.008238e-003
1.388496e+003, -9.957239e-004
1.390424e+003, -1.076856e-003
1.392353e+003, -1.017696e-003
1.394281e+003, -8.410079e-004
1.396210e+003, -7.251406e-004
1.398138e+003, -7.930920e-004
1.400067e+003, -7.212129e-004
1.401995e+003, -6.533468e-004
1.403924e+003, -5.593973e-004
1.405852e+003, -4.277484e-004
1.407781e+003, -5.194563e-004
1.409709e+003, -6.134068e-004
1.411638e+003, -5.955551e-004
1.413566e+003, -5.008127e-004
1.415495e+003, -4.309633e-004
1.417423e+003, -3.710521e-004
1.419351e+003, -4.060073e-004
1.421280e+003, -3.844867e-004
1.423208e+003, -3.708229e-004
1.425137e+003, -2.656530e-004
1.427065e+003, -2.419073e-004
1.428994e+003, -3.620145e-004
1.430922e+003, -3.797508e-004
1.432851e+003, -2.743516e-004
1.434779e+003, -2.990026e-004
1.436708e+003, -3.103956e-004
1.438636e+003, -3.242954e-004
1.440565e+003, -3.326971e-004
1.442493e+003, -3.193845e-004
1.444422e+003, -4.238443e-004
1.446350e+003, -5.182696e-004
1.448278e+003, -5.146933e-004
1.450207e+003, -4.563212e-004
1.452135e+003, -5.295731e-004
1.454064e+003, -6.867555e-004
1.455992e+003, -8.300530e-004
1.457921e+003, -6.946570e-004
1.459849e+003, -6.178764e-004
1.461778e+003, -8.187915e-004
1.463706e+003, -8.875816e-004
1.465635e+003, -9.604220e-004
1.467563e+003, -9.712506e-004
1.469492e+003, -8.206809e-004
1.471420e+003, -6.349502e-004
1.473349e+003, -4.729691e-004
1.475277e+003, -3.930853e-004
1.477205e+003, -3.968765e-004
1.479134e+003, -3.135854e-004
1.481062e+003, -2.234913e-004
1.482991e+003, -1.680283e-004
1.484919e+003, -1.232377e-004
1.486848e+003, -1.269441e-004
1.488776e+003, -2.574470e-004
1.490705e+003, -4.037612e-004
1.492633e+003, -4.310719e-004
1.494562e+003, -4.779479e-004
1.496490e+003, -4.453170e-004
1.498419e+003, -3.567768e-004
1.500347e+003, -4.082111e-004
1.502276e+003, -5.443771e-004
1.504204e+003, -5.879512e-004
1.506132e+003, -5.360015e-004
1.508061e+003, -3.749536e-004
1.509989e+003, -4.327345e-004
1.511918e+003, -6.336583e-004
1.513846e+003, -6.556133e-004
1.515775e+003, -5.566956e-004
1.517703e+003, -5.177593e-004
1.519632e+003, -5.779336e-004
1.521560e+003, -6.697320e-004
1.523489e+003, -6.752203e-004
1.525417e+003, -5.842242e-004
1.527346e+003, -5.460791e-004
1.529274e+003, -5.219597e-004
1.531203e+003, -5.123775e-004
1.533131e+003, -6.799505e-004
1.535059e+003, -8.226545e-004
1.536988e+003, -7.667181e-004
1.538916e+003, -7.538265e-004
1.540845e+003, -8.299362e-004
1.542773e+003, -9.485442e-004
1.544702e+003, -1.052555e-003
1.546630e+003, -9.136602e-004
1.548559e+003, -7.763339e-004
1.550487e+003, -7.635995e-004
1.552416e+003, -9.080883e-004
1.554344e+003, -9.196571e-004
1.556273e+003, -8.863469e-004
1.558201e+003, -9.157005e-004
1.560130e+003, -9.348501e-004
1.562058e+003, -7.634561e-004
1.563986e+003, -6.116291e-004
1.565915e+003, -6.545784e-004
1.567843e+003, -8.159412e-004
1.569772e+003, -7.649921e-004
1.571700e+003, -6.151141e-004
1.573629e+003, -6.609805e-004
1.575557e+003, -6.639810e-004
1.577486e+003, -5.651549e-004
1.579414e+003, -4.944673e-004
1.581343e+003, -5.656467e-004
1.583271e+003, -5.861499e-004
1.585200e+003, -6.332015e-004
1.587128e+003, -6.177894e-004
1.589057e+003, -6.185400e-004
1.590985e+003, -6.046487e-004
1.592913e+003, -5.160453e-004
1.594842e+003, -3.555459e-004
1.596770e+003, -2.609434e-004
1.598699e+003, -2.766142e-004
1.600627e+003, -4.019440e-004
1.602556e+003, -4.789488e-004
1.604484e+003, -4.457890e-004
1.606413e+003, -3.922787e-004
1.608341e+003, -4.418545e-004
1.610270e+003, -5.013549e-004
1.612198e+003, -4.814569e-004
1.614127e+003, -4.691522e-004
1.616055e+003, -5.083999e-004
1.617984e+003, -4.269838e-004
1.619912e+003, -4.176225e-004
1.621840e+003, -5.488286e-004
1.623769e+003, -6.517792e-004
1.625697e+003, -5.481422e-004
1.627626e+003, -5.704012e-004
1.629554e+003, -5.301277e-004
1.631483e+003, -5.186011e-004
1.633411e+003, -5.428475e-004
1.635340e+003, -5.932450e-004
1.637268e+003, -7.054877e-004
1.639197e+003, -8.219359e-004
1.641125e+003, -8.484301e-004
1.643054e+003, -6.087173e-004
1.644982e+003, -4.501776e-004
1.646911e+003, -5.906271e-004
1.648839e+003, -5.618954e-004
1.650767e+003, -6.646930e-004
1.652696e+003, -8.953778e-004
1.654624e+003, -9.012958e-004
1.656553e+003, -8.527329e-004
1.658481e+003, -8.692036e-004
1.660410e+003, -7.432143e-004
1.662338e+003, -6.985168e-004
1.664267e+003, -6.704591e-004
1.666195e+003, -6.920297e-004
1.668124e+003, -7.440719e-004
1.670052e+003, -6.995468e-004
1.671981e+003, -8.025717e-004
1.673909e+003, -8.711955e-004
1.675838e+003, -8.998737e-004
1.677766e+003, -8.880278e-004
1.679694e+003, -8.568628e-004
1.681623e+003, -8.124318e-004
1.683551e+003, -7.977059e-004
1.685480e+003, -5.960889e-004
1.687408e+003, -4.540216e-004
1.689337e+003, -4.760770e-004
1.691265e+003, -6.022785e-004
1.693194e+003, -7.871434e-004
1.695122e+003, -6.965811e-004
1.697051e+003, -5.634918e-004
1.698979e+003, -8.541054e-004
1.700908e+003, -1.007331e-003
1.702836e+003, -9.687488e-004
1.704765e+003, -1.109734e-003
1.706693e+003, -1.001157e-003
1.708621e+003, -7.673391e-004
1.710550e+003, -9.230984e-004
1.712478e+003, -1.147049e-003
1.714407e+003, -1.226323e-003
1.716335e+003, -1.379108e-003
1.718264e+003, -1.372417e-003
1.720192e+003, -1.294645e-003
1.722121e+003, -1.407905e-003
1.724049e+003, -1.457147e-003
1.725978e+003, -1.552378e-003
1.727906e+003, -1.780329e-003
1.729835e+003, -1.883519e-003
1.731763e+003, -2.049183e-003
1.733692e+003, -2.388872e-003
1.735620e+003, -2.348763e-003
1.737548e+003, -2.196569e-003
1.739477e+003, -2.293306e-003
1.741405e+003, -2.261218e-003
1.743334e+003, -2.241318e-003
1.745262e+003, -2.438595e-003
1.747191e+003, -2.478508e-003
1.749119e+003, -2.317285e-003
1.751048e+003, -2.141606e-003
1.752976e+003, -1.657167e-003
1.754905e+003, -1.420720e-003
1.756833e+003, -1.381550e-003
1.758762e+003, -1.320125e-003
1.760690e+003, -1.168158e-003
1.762619e+003, -8.739642e-004
1.764547e+003, -6.748747e-004
1.766475e+003, -8.545370e-004
1.768404e+003, -1.073636e-003
1.770332e+003, -1.039484e-003
1.772261e+003, -9.725290e-004
1.774189e+003, -1.046210e-003
1.776118e+003, -1.037004e-003
1.778046e+003, -8.328871e-004
1.779975e+003, -6.923835e-004
1.781903e+003, -7.430366e-004
1.783832e+003, -8.045405e-004
1.785760e+003, -7.840720e-004
1.787689e+003, -9.553197e-004
1.789617e+003, -9.617989e-004
1.791546e+003, -8.561101e-004
1.793474e+003, -7.760608e-004
1.795402e+003, -6.783547e-004
1.797331e+003, -6.005380e-004
1.799259e+003, -5.544178e-004
1.801188e+003, -5.536404e-004
1.803116e+003, -5.809792e-004
1.805045e+003, -6.794881e-004
1.806973e+003, -7.356058e-004
1.808902e+003, -9.112211e-004
1.810830e+003, -9.915367e-004
1.812759e+003, -7.216387e-004
1.814687e+003, -5.543648e-004
1.816616e+003, -6.387978e-004
1.818544e+003, -7.504897e-004
1.820473e+003, -4.569096e-004
1.822401e+003, -2.580974e-004
1.824329e+003, -7.337334e-004
1.826258e+003, -8.233733e-004
1.828186e+003, -5.976522e-004
1.830115e+003, -6.503913e-004
1.832043e+003, -6.339723e-004
1.833972e+003, -6.353076e-004
1.835900e+003, -5.526387e-004
1.837829e+003, -3.843965e-004
1.839757e+003, -5.742065e-004
1.841686e+003, -5.578561e-004
1.843614e+003, -4.939144e-004
1.845543e+003, -4.669298e-004
1.847471e+003, -4.918888e-004
1.849400e+003, -6.748170e-004
1.851328e+003, -6.051562e-004
1.853256e+003, -2.166108e-004
1.855185e+003, -7.806283e-005
1.857113e+003, 1.394474e-004
1.859042e+003, 6.677452e-005
1.860970e+003, -3.513939e-004
1.862899e+003, -3.176381e-004
1.864827e+003, -1.941186e-004
1.866756e+003, -2.805174e-004
1.868684e+003, -2.424929e-004
1.870613e+003, -3.167165e-005
1.872541e+003, 1.406058e-004
1.874470e+003, -6.937252e-005
1.876398e+003, 2.878645e-005
1.878327e+003, -1.183653e-004
1.880255e+003, -1.756684e-004
1.882183e+003, -1.187954e-004
1.884112e+003, -1.855157e-004
1.886040e+003, -4.161871e-005
1.887969e+003, 3.720426e-004
1.889897e+003, 2.639855e-004
1.891826e+003, 2.720523e-005
1.893754e+003, -1.123735e-004
1.895683e+003, -9.056938e-005
1.897611e+003, -2.664234e-004
1.899540e+003, -3.688684e-004
1.901468e+003, -3.299455e-004
1.903397e+003, 5.089681e-005
1.905325e+003, 3.989586e-004
1.907254e+003, 3.892464e-004
1.909182e+003, 4.585008e-004
1.911110e+003, 3.703945e-004
1.913039e+003, -3.657333e-005
1.914967e+003, -3.610825e-004
1.916896e+003, -4.173127e-004
1.918824e+003, -1.207902e-004
1.920753e+003, -3.998324e-004
1.922681e+003, -8.153597e-004
1.924610e+003, -8.707096e-004
1.926538e+003, -8.713907e-004
1.928467e+003, -5.842701e-004
1.930395e+003, 2.373318e-004
1.932324e+003, 3.520230e-004
1.934252e+003, 1.733802e-004
1.936181e+003, 2.166742e-004
1.938109e+003, 9.485441e-005
1.940037e+003, -2.509810e-004
1.941966e+003, 1.442742e-004
1.943894e+003, -8.385645e-005
1.945823e+003, 2.579957e-004
1.947751e+003, 1.639598e-003
1.949680e+003, 1.574815e-003
1.951608e+003, 5.434221e-004
1.953537e+003, -7.734711e-005
1.955465e+003, -2.477950e-004
1.957394e+003, 9.041458e-005
1.959322e+003, -2.564312e-005
1.961251e+003, -1.525042e-004
1.963179e+003, 3.131338e-004
1.965108e+003, -2.896990e-004
1.967036e+003, -1.356202e-004
1.968964e+003, 3.125555e-004
1.970893e+003, 3.826343e-004
1.972821e+003, 9.290494e-004
1.974750e+003, 3.702910e-004
1.976678e+003, 6.921061e-004
1.978607e+003, 1.730538e-003
1.980535e+003, 1.169543e-003
1.982464e+003, 1.034601e-003
1.984392e+003, 2.502560e-003
1.986321e+003, 3.292674e-003
1.988249e+003, 2.615918e-003
1.990178e+003, 1.766825e-003
1.992106e+003, 1.249746e-003
1.994035e+003, 8.179416e-004
1.995963e+003, -2.222490e-004
1.997891e+003, -3.655357e-004
1.999820e+003, 7.435140e-004
2.001748e+003, 8.842436e-004
2.003677e+003, -6.605545e-005
2.005605e+003, -1.140273e-004
2.007534e+003, 2.925274e-004
2.009462e+003, 1.273799e-004
2.011391e+003, 3.498959e-005
2.013319e+003, 5.069383e-004
2.015248e+003, 2.345392e-004
2.017176e+003, 2.391093e-004
2.019105e+003, 8.818652e-004
2.021033e+003, 6.673589e-004
2.022962e+003, 3.812760e-004
2.024890e+003, 7.658621e-004
2.026818e+003, 1.914905e-003
2.028747e+003, 1.054111e-003
2.030675e+003, 1.628509e-003
2.032604e+003, 2.316926e-003
2.034532e+003, 2.018943e-003
2.036461e+003, 1.825020e-003
2.038389e+003, 1.879811e-003
2.040318e+003, 2.035051e-003
2.042246e+003, 1.781317e-003
2.044175e+003, 1.296045e-003
2.046103e+003, 1.559176e-003
2.048031e+003, 1.670642e-003
2.049960e+003, 2.495130e-003
2.051888e+003, 1.553368e-003
2.053817e+003, 8.196455e-004
2.055745e+003, 3.601974e-004
2.057674e+003, 4.799048e-004
2.059602e+003, 1.009746e-003
2.061531e+003, 1.606036e-003
2.063459e+003, 1.777212e-003
2.065388e+003, 9.222885e-004
2.067316e+003, 8.697360e-004
2.069245e+003, 1.285779e-003
2.071173e+003, 1.089828e-003
2.073102e+003, 1.473787e-003
2.075030e+003, 1.589828e-003
2.076958e+003, 1.868968e-003
2.078887e+003, 1.381726e-003
2.080815e+003, 1.176015e-003
2.082744e+003, 1.684577e-003
2.084672e+003, 1.495504e-003
2.086601e+003, 1.438372e-003
2.088529e+003, 8.285809e-004
2.090458e+003, 1.081807e-003
2.092386e+003, 7.841049e-004
2.094315e+003, 1.357857e-003
2.096243e+003, 1.036332e-003
2.098172e+003, 1.361541e-003
2.100100e+003, 1.663410e-003
2.102029e+003, 2.183240e-003
2.103957e+003, 2.513805e-003
2.105885e+003, 2.262718e-003
2.107814e+003, 1.734242e-003
2.109742e+003, 1.340206e-003
2.111671e+003, 1.881133e-003
2.113599e+003, 1.697465e-003
2.115528e+003, 2.142948e-003
2.117456e+003, 1.603920e-003
2.119385e+003, 1.424960e-003
2.121313e+003, 4.833546e-004
2.123242e+003, 1.018691e-003
2.125170e+003, 7.284539e-004
2.127099e+003, 7.514748e-004
2.129027e+003, -5.911337e-005
2.130956e+003, -3.788711e-004
2.132884e+003, -2.989338e-005
2.134813e+003, 6.084496e-004
2.136741e+003, 6.379046e-004
2.138669e+003, -3.543131e-006
2.140598e+003, -6.560484e-005
2.142526e+003, -2.003847e-004
2.144455e+003, -1.247804e-003
2.146383e+003, -1.265403e-003
2.148312e+003, -1.263199e-003
2.150240e+003, -1.234947e-003
2.152169e+003, -4.433720e-004
2.154097e+003, 3.492265e-004
2.156026e+003, 1.066960e-003
2.157954e+003, 3.341506e-003
2.159883e+003, 5.210468e-003
2.161811e+003, 4.758930e-003
2.163740e+003, 4.364132e-003
2.165668e+003, 4.729846e-003
2.167596e+003, 4.820898e-003
2.169525e+003, 4.910090e-003
2.171453e+003, 4.629031e-003
2.173382e+003, 3.855514e-003
2.175310e+003, 3.070122e-003
2.177239e+003, 3.045992e-003
2.179167e+003, 2.533800e-003
2.181096e+003, 2.634088e-003
2.183024e+003, 3.536772e-003
2.184953e+003, 3.486560e-003
2.186881e+003, 3.096485e-003
2.188810e+003, 3.096960e-003
2.190738e+003, 2.432264e-003
2.192667e+003, 2.545635e-003
2.194595e+003, 2.500629e-003
2.196523e+003, 1.689621e-003
2.198452e+003, 8.482033e-004
2.200380e+003, 4.733598e-004
2.202309e+003, -3.057452e-005
2.204237e+003, 1.759582e-004
2.206166e+003, 7.834318e-004
2.208094e+003, 4.439100e-004
2.210023e+003, 2.388961e-004
2.211951e+003, 6.770065e-004
2.213880e+003, 1.072017e-003
2.215808e+003, 4.230580e-004
2.217737e+003, -2.019090e-004
2.219665e+003, 2.169865e-004
2.221594e+003, 9.426731e-004
2.223522e+003, 1.374339e-003
2.225450e+003, 7.422384e-004
2.227379e+003, -5.563813e-004
2.229307e+003, -3.084890e-004
2.231236e+003, -1.679541e-004
2.233164e+003, -9.189589e-005
2.235093e+003, 4.887817e-006
2.237021e+003, -3.372472e-005
2.238950e+003, 1.409525e-006
2.240878e+003, -3.068984e-004
2.242807e+003, 2.000718e-004
2.244735e+003, 3.044732e-004
2.246664e+003, -1.492429e-004
2.248592e+003, -5.068745e-004
2.250521e+003, -2.663981e-004
2.252449e+003, 1.730140e-004
2.254377e+003, -8.985592e-005
2.256306e+003, -6.672348e-004
2.258234e+003, -3.285738e-004
2.260163e+003, -4.456341e-004
2.262091e+003, -9.323379e-004
2.264020e+003, -6.278345e-004
2.265948e+003, -1.722185e-004
2.267877e+003, 2.840481e-005
2.269805e+003, -1.925301e-005
2.271734e+003, 2.596908e-005
2.273662e+003, 6.290266e-004
2.275591e+003, 7.271187e-004
2.277519e+003, 2.489851e-004
2.279448e+003, -6.986029e-005
2.281376e+003, -1.591067e-004
2.283304e+003, 4.365395e-005
2.285233e+003, 3.600334e-004
2.287161e+003, 3.988497e-004
2.289090e+003, 3.547988e-004
2.291018e+003, 2.387678e-004
2.292947e+003, 1.807600e-004
2.294875e+003, -1.038632e-004
2.296804e+003, -5.103642e-004
2.298732e+003, -5.108688e-004
2.300661e+003, -5.504590e-004
2.302589e+003, -9.407212e-004
2.304518e+003, -8.240977e-004
2.306446e+003, -6.587692e-004
2.308375e+003, -4.000172e-004
2.310303e+003, -2.957443e-004
2.312231e+003, -1.905965e-004
2.314160e+003, -1.768027e-004
2.316088e+003, -2.643393e-004
2.318017e+003, -6.236394e-005
2.319945e+003, 5.415350e-004
2.321874e+003, 7.941849e-004
2.323802e+003, 8.736005e-004
2.325731e+003, 7.678179e-004
2.327659e+003, 3.258275e-004
2.329588e+003, -1.018067e-004
2.331516e+003, -2.851763e-004
2.333445e+003, -2.007709e-004
2.335373e+003, 3.084849e-004
2.337302e+003, 4.649268e-004
2.339230e+003, 1.712299e-004
2.341158e+003, 1.091497e-004
2.343087e+003, -1.248309e-004
2.345015e+003, -6.905950e-004
2.346944e+003, -9.202293e-004
2.348872e+003, -8.214511e-004
2.350801e+003, -5.911035e-004
2.352729e+003, -3.645325e-004
2.354658e+003, 1.686917e-004
2.356586e+003, 5.165728e-004
2.358515e+003, 4.809521e-004
2.360443e+003, 3.055377e-004
2.362372e+003, 3.048478e-004
2.364300e+003, 4.675541e-004
2.366229e+003, 1.859881e-004
2.368157e+003, -3.122497e-004
2.370085e+003, -5.571801e-004
2.372014e+003, -5.405876e-004
2.373942e+003, -5.698792e-004
2.375871e+003, -7.270582e-004
2.377799e+003, -9.431902e-004
2.379728e+003, -1.453287e-003
2.381656e+003, -1.714324e-003
2.383585e+003, -1.694897e-003
2.385513e+003, -1.696899e-003
2.387442e+003, -1.422292e-003
2.389370e+003, -1.335284e-003
2.391299e+003, -1.521275e-003
2.393227e+003, -1.470321e-003
2.395156e+003, -1.406836e-003
2.397084e+003, -1.336184e-003
2.399012e+003, -1.084222e-003
2.400941e+003, -1.056563e-003
2.402869e+003, -1.347678e-003
2.404798e+003, -1.219040e-003
2.406726e+003, -1.006450e-003
2.408655e+003, -6.803055e-004
2.410583e+003, -7.325726e-004
2.412512e+003, -1.113160e-003
2.414440e+003, -1.328281e-003
2.416369e+003, -1.226505e-003
2.418297e+003, -1.283986e-003
2.420226e+003, -8.953615e-004
2.422154e+003, -1.012901e-003
2.424083e+003, -1.057840e-003
2.426011e+003, -6.137907e-004
2.427939e+003, -7.707265e-004
2.429868e+003, -1.072912e-003
2.431796e+003, -8.599516e-004
2.433725e+003, -7.993960e-004
2.435653e+003, -8.252700e-004
2.437582e+003, -5.060454e-004
2.439510e+003, -2.772943e-004
2.441439e+003, -9.381256e-004
2.443367e+003, -1.173656e-003
2.445296e+003, -8.018202e-004
2.447224e+003, -7.540794e-004
2.449153e+003, -1.290400e-003
2.451081e+003, -1.097856e-003
2.453010e+003, -1.057716e-003
2.454938e+003, -1.056760e-003
2.456866e+003, -9.432403e-004
2.458795e+003, -7.610641e-004
2.460723e+003, -6.194766e-004
2.462652e+003, -1.002039e-003
2.464580e+003, -1.253423e-003
2.466509e+003, -9.859717e-004
2.468437e+003, -1.168214e-003
2.470366e+003, -1.565364e-003
2.472294e+003, -1.345137e-003
2.474223e+003, -8.995287e-004
2.476151e+003, -6.270504e-004
2.478080e+003, -5.515476e-004
2.480008e+003, -9.847181e-004
2.481937e+003, -1.141744e-003
2.483865e+003, -1.362365e-003
2.485793e+003, -1.376419e-003
2.487722e+003, -9.685925e-004
2.489650e+003, -6.819952e-004
2.491579e+003, -6.806258e-004
2.493507e+003, -4.098827e-004
2.495436e+003, -3.275440e-004
2.497364e+003, -8.749529e-004
2.499293e+003, -1.292500e-003
2.501221e+003, -1.262621e-003
2.503150e+003, -1.182405e-003
2.505078e+003, -9.170495e-004
2.507007e+003, -1.062244e-003
2.508935e+003, -1.218852e-003
2.510864e+003, -1.069696e-003
2.512792e+003, -9.023204e-004
2.514720e+003, -9.584586e-004
2.516649e+003, -1.075160e-003
2.518577e+003, -1.290220e-003
2.520506e+003, -1.418077e-003
2.522434e+003, -1.711602e-003
2.524363e+003, -1.578532e-003
2.526291e+003, -1.360053e-003
2.528220e+003, -8.134417e-004
2.530148e+003, -9.966698e-004
2.532077e+003, -1.417883e-003
2.534005e+003, -1.077626e-003
2.535934e+003, -7.588270e-004
2.537862e+003, -5.256870e-004
2.539791e+003, -5.664602e-004
2.541719e+003, -1.328488e-003
2.543647e+003, -1.220646e-003
2.545576e+003, -8.942036e-004
2.547504e+003, -8.414920e-004
2.549433e+003, -1.259874e-003
2.551361e+003, -1.365782e-003
2.553290e+003, -8.759491e-004
2.555218e+003, -1.045878e-003
2.557147e+003, -1.335790e-003
2.559075e+003, -9.956962e-004
2.561004e+003, -1.280425e-003
2.562932e+003, -1.385292e-003
2.564861e+003, -6.528271e-004
2.566789e+003, -4.589951e-004
2.568718e+003, -9.724061e-004
2.570646e+003, -8.568812e-004
2.572574e+003, -6.614354e-004
2.574503e+003, -8.978872e-004
2.576431e+003, -1.087652e-003
2.578360e+003, -7.830474e-004
2.580288e+003, -5.499423e-004
2.582217e+003, -7.533529e-004
2.584145e+003, -1.083381e-003
2.586074e+003, -1.018272e-003
2.588002e+003, -9.917010e-004
2.589931e+003, -1.073204e-003
2.591859e+003, -1.060275e-003
2.593788e+003, -9.680718e-004
2.595716e+003, -9.385429e-004
2.597645e+003, -1.035297e-003
2.599573e+003, -1.263745e-003
2.601501e+003, -1.506689e-003
2.603430e+003, -1.461027e-003
2.605358e+003, -1.312603e-003
2.607287e+003, -1.198285e-003
2.609215e+003, -1.157717e-003
2.611144e+003, -1.069720e-003
2.613072e+003, -8.844331e-004
2.615001e+003, -8.248258e-004
2.616929e+003, -8.029925e-004
2.618858e+003, -9.483841e-004
2.620786e+003, -1.343187e-003
2.622715e+003, -1.497625e-003
2.624643e+003, -1.433847e-003
2.626572e+003, -1.256614e-003
2.628500e+003, -1.123206e-003
2.630428e+003, -1.082932e-003
2.632357e+003, -1.364189e-003
2.634285e+003, -1.623823e-003
2.636214e+003, -1.752178e-003
2.638142e+003, -1.490110e-003
2.640071e+003, -1.405755e-003
2.641999e+003, -1.640641e-003
2.643928e+003, -1.420671e-003
2.645856e+003, -1.289747e-003
2.647785e+003, -1.315663e-003
2.649713e+003, -1.426060e-003
2.651642e+003, -1.610043e-003
2.653570e+003, -1.497156e-003
2.655499e+003, -1.428382e-003
2.657427e+003, -1.699547e-003
2.659355e+003, -1.923450e-003
2.661284e+003, -2.150098e-003
2.663212e+003, -2.272494e-003
2.665141e+003, -2.558776e-003
2.667069e+003, -2.777166e-003
2.668998e+003, -2.671802e-003
2.670926e+003, -2.546934e-003
2.672855e+003, -2.566712e-003
2.674783e+003, -2.482252e-003
2.676712e+003, -2.370313e-003
2.678640e+003, -2.197783e-003
2.680569e+003, -1.840099e-003
2.682497e+003, -2.158897e-003
2.684426e+003, -2.607376e-003
2.686354e+003, -2.616177e-003
2.688282e+003, -2.490425e-003
2.690211e+003, -2.358960e-003
2.692139e+003, -2.511978e-003
2.694068e+003, -2.658780e-003
2.695996e+003, -2.816021e-003
2.697925e+003, -2.641538e-003
2.699853e+003, -2.484719e-003
2.701782e+003, -2.401179e-003
2.703710e+003, -2.161483e-003
2.705639e+003, -2.121056e-003
2.707567e+003, -2.342663e-003
2.709496e+003, -2.518050e-003
2.711424e+003, -2.611997e-003
2.713353e+003, -2.405989e-003
2.715281e+003, -2.306957e-003
2.717209e+003, -2.391439e-003
2.719138e+003, -2.536990e-003
2.721066e+003, -2.573965e-003
2.722995e+003, -2.456497e-003
2.724923e+003, -2.391651e-003
2.726852e+003, -2.427427e-003
2.728780e+003, -2.208600e-003
2.730709e+003, -2.210161e-003
2.732637e+003, -2.524738e-003
2.734566e+003, -2.586464e-003
2.736494e+003, -2.176379e-003
2.738423e+003, -2.506905e-003
2.740351e+003, -2.735259e-003
2.742280e+003, -2.437896e-003
2.744208e+003, -2.474182e-003
2.746136e+003, -2.670584e-003
2.748065e+003, -2.455670e-003
2.749993e+003, -2.336722e-003
2.751922e+003, -2.048295e-003
2.753850e+003, -2.157030e-003
2.755779e+003, -2.447346e-003
2.757707e+003, -2.713199e-003
2.759636e+003, -2.644755e-003
2.761564e+003, -2.702386e-003
2.763493e+003, -2.787225e-003
2.765421e+003, -2.359433e-003
2.767350e+003, -1.944620e-003
2.769278e+003, -2.123317e-003
2.771207e+003, -2.495684e-003
2.773135e+003, -2.310532e-003
2.775063e+003, -2.225686e-003
2.776992e+003, -2.379774e-003
2.778920e+003, -2.414141e-003
2.780849e+003, -2.452598e-003
2.782777e+003, -2.534996e-003
2.784706e+003, -2.431598e-003
2.786634e+003, -2.431347e-003
2.788563e+003, -2.631728e-003
2.790491e+003, -2.792962e-003
2.792420e+003, -2.679959e-003
2.794348e+003, -2.265827e-003
2.796277e+003, -2.102490e-003
2.798205e+003, -2.402580e-003
2.800134e+003, -2.521457e-003
2.802062e+003, -2.520692e-003
2.803990e+003, -2.523354e-003
2.805919e+003, -2.463019e-003
2.807847e+003, -2.626441e-003
2.809776e+003, -2.595172e-003
2.811704e+003, -2.504821e-003
2.813633e+003, -2.744595e-003
2.815561e+003, -2.791620e-003
2.817490e+003, -2.665549e-003
2.819418e+003, -2.869261e-003
2.821347e+003, -2.804632e-003
2.823275e+003, -2.555085e-003
2.825204e+003, -2.543098e-003
2.827132e+003, -2.500710e-003
2.829061e+003, -2.793875e-003
2.830989e+003, -2.925674e-003
2.832917e+003, -2.924577e-003
2.834846e+003, -3.075272e-003
2.836774e+003, -3.126212e-003
2.838703e+003, -3.318681e-003
2.840631e+003, -3.567035e-003
2.842560e+003, -3.755861e-003
2.844488e+003, -4.206907e-003
2.846417e+003, -5.108284e-003
2.848345e+003, -6.084984e-003
2.850274e+003, -6.791012e-003
2.852202e+003, -7.011008e-003
2.854131e+003, -7.338624e-003
2.856059e+003, -7.315641e-003
2.857988e+003, -6.643814e-003
2.859916e+003, -5.679546e-003
2.861844e+003, -5.218126e-003
2.863773e+003, -4.757228e-003
2.865701e+003, -4.640770e-003
2.867630e+003, -5.066773e-003
2.869558e+003, -4.901424e-003
2.871487e+003, -4.467370e-003
2.873415e+003, -4.461738e-003
2.875344e+003, -4.565166e-003
2.877272e+003, -4.504204e-003
2.879201e+003, -4.360828e-003
2.881129e+003, -4.193167e-003
2.883058e+003, -4.038585e-003
2.884986e+003, -4.283188e-003
2.886915e+003, -4.269845e-003
2.888843e+003, -4.070828e-003
2.890771e+003, -4.137893e-003
2.892700e+003, -4.659282e-003
2.894628e+003, -5.308083e-003
2.896557e+003, -5.493667e-003
2.898485e+003, -5.617418e-003
2.900414e+003, -5.588817e-003
2.902342e+003, -5.944044e-003
2.904271e+003, -6.435311e-003
2.906199e+003, -6.224198e-003
2.908128e+003, -6.097535e-003
2.910056e+003, -6.736659e-003
2.911985e+003, -7.366903e-003
2.913913e+003, -7.897404e-003
2.915842e+003, -9.163319e-003
2.917770e+003, -9.897566e-003
2.919698e+003, -1.004040e-002
2.921627e+003, -1.086966e-002
2.923555e+003, -1.123224e-002
2.925484e+003, -1.089823e-002
2.927412e+003, -1.056397e-002
2.929341e+003, -1.021280e-002
2.931269e+003, -9.355564e-003
2.933198e+003, -8.470152e-003
2.935126e+003, -8.041199e-003
2.937055e+003, -7.596050e-003
2.938983e+003, -7.442951e-003
2.940912e+003, -6.816326e-003
2.942840e+003, -6.064735e-003
2.944769e+003, -5.819404e-003
2.946697e+003, -6.147992e-003
2.948625e+003, -6.251090e-003
2.950554e+003, -6.078200e-003
2.952482e+003, -6.211954e-003
2.954411e+003, -6.142847e-003
2.956339e+003, -6.035131e-003
2.958268e+003, -5.975653e-003
2.960196e+003, -5.461234e-003
2.962125e+003, -4.925398e-003
2.964053e+003, -4.876751e-003
2.965982e+003, -5.189359e-003
2.967910e+003, -4.868402e-003
2.969839e+003, -4.511443e-003
2.971767e+003, -4.632410e-003
2.973696e+003, -4.348902e-003
2.975624e+003, -3.838687e-003
2.977552e+003, -4.008976e-003
2.979481e+003, -3.962561e-003
2.981409e+003, -3.549456e-003
2.983338e+003, -3.571468e-003
2.985266e+003, -3.543986e-003
2.987195e+003, -3.768349e-003
2.989123e+003, -3.984665e-003
2.991052e+003, -4.114883e-003
2.992980e+003, -4.210061e-003
2.994909e+003, -4.089919e-003
2.996837e+003, -3.802195e-003
2.998766e+003, -3.506304e-003
3.000694e+003, -3.444402e-003
3.002623e+003, -3.641184e-003
3.004551e+003, -3.644119e-003
3.006479e+003, -3.617450e-003
3.008408e+003, -4.150882e-003
3.010336e+003, -4.200472e-003
3.012265e+003, -3.961981e-003
3.014193e+003, -4.672570e-003
3.016122e+003, -6.048748e-003
3.018050e+003, -5.645635e-003
3.019979e+003, -3.942098e-003
3.021907e+003, -3.698318e-003
3.023836e+003, -4.083178e-003
3.025764e+003, -4.000027e-003
3.027693e+003, -3.805833e-003
3.029621e+003, -3.889630e-003
3.031550e+003, -3.960107e-003
3.033478e+003, -3.689426e-003
3.035406e+003, -3.587964e-003
3.037335e+003, -3.567259e-003
3.039263e+003, -3.424494e-003
3.041192e+003, -2.874673e-003
3.043120e+003, -2.793892e-003
3.045049e+003, -3.320009e-003
3.046977e+003, -3.674333e-003
3.048906e+003, -3.917310e-003
3.050834e+003, -4.100790e-003
3.052763e+003, -3.973497e-003
3.054691e+003, -3.929385e-003
3.056620e+003, -4.224470e-003
3.058548e+003, -3.701424e-003
3.060477e+003, -3.274215e-003
3.062405e+003, -3.269497e-003
3.064333e+003, -3.570413e-003
3.066262e+003, -3.934545e-003
3.068190e+003, -3.340474e-003
3.070119e+003, -2.705490e-003
3.072047e+003, -3.027544e-003
3.073976e+003, -3.581343e-003
3.075904e+003, -4.300293e-003
3.077833e+003, -4.178560e-003
3.079761e+003, -3.575362e-003
3.081690e+003, -3.530042e-003
3.083618e+003, -3.373781e-003
3.085547e+003, -3.297059e-003
3.087475e+003, -2.952924e-003
3.089404e+003, -3.072019e-003
3.091332e+003, -3.882968e-003
3.093260e+003, -3.979101e-003
3.095189e+003, -3.835864e-003
3.097117e+003, -3.511072e-003
3.099046e+003, -3.597135e-003
3.100974e+003, -3.494539e-003
3.102903e+003, -3.386881e-003
3.104831e+003, -3.734968e-003
3.106760e+003, -3.248768e-003
3.108688e+003, -3.088524e-003
3.110617e+003, -3.351196e-003
3.112545e+003, -3.687064e-003
3.114474e+003, -3.418657e-003
3.116402e+003, -3.053638e-003
3.118331e+003, -3.090166e-003
3.120259e+003, -3.554734e-003
3.122188e+003, -3.575194e-003
3.124116e+003, -3.125436e-003
3.126044e+003, -3.142040e-003
3.127973e+003, -3.442676e-003
3.129901e+003, -2.706009e-003
3.131830e+003, -2.548386e-003
3.133758e+003, -2.907672e-003
3.135687e+003, -2.877218e-003
3.137615e+003, -3.171717e-003
3.139544e+003, -3.120321e-003
3.141472e+003, -2.580959e-003
3.143401e+003, -2.674334e-003
3.145329e+003, -3.201246e-003
3.147258e+003, -3.645919e-003
3.149186e+003, -3.268255e-003
3.151115e+003, -3.012957e-003
3.153043e+003, -2.998539e-003
3.154971e+003, -2.703688e-003
3.156900e+003, -2.737493e-003
3.158828e+003, -3.110874e-003
3.160757e+003, -3.277651e-003
3.162685e+003, -3.117496e-003
3.164614e+003, -3.190954e-003
3.166542e+003, -3.511498e-003
3.168471e+003, -3.715411e-003
3.170399e+003, -3.430796e-003
3.172328e+003, -2.952899e-003
3.174256e+003, -2.310986e-003
3.176185e+003, -2.454533e-003
3.178113e+003, -2.910578e-003
3.180042e+003, -3.227745e-003
3.181970e+003, -3.064130e-003
3.183898e+003, -3.167140e-003
3.185827e+003, -3.969769e-003
3.187755e+003, -3.631839e-003
3.189684e+003, -3.087693e-003
3.191612e+003, -3.508815e-003
3.193541e+003, -3.736472e-003
3.195469e+003, -3.418636e-003
3.197398e+003, -2.942723e-003
3.199326e+003, -2.872670e-003
3.201255e+003, -3.312239e-003
3.203183e+003, -3.510314e-003
3.205112e+003, -3.508614e-003
3.207040e+003, -3.886214e-003
3.208969e+003, -4.173530e-003
3.210897e+003, -3.491388e-003
3.212825e+003, -2.878735e-003
3.214754e+003, -3.260321e-003
3.216682e+003, -4.020651e-003
3.218611e+003, -4.368090e-003
3.220539e+003, -3.851386e-003
3.222468e+003, -3.020880e-003
3.224396e+003, -3.094325e-003
3.226325e+003, -3.659042e-003
3.228253e+003, -3.924506e-003
3.230182e+003, -3.802078e-003
3.232110e+003, -3.669022e-003
3.234039e+003, -3.867530e-003
3.235967e+003, -3.813058e-003
3.237896e+003, -3.656970e-003
3.239824e+003, -3.397874e-003
3.241752e+003, -3.581188e-003
3.243681e+003, -4.123090e-003
3.245609e+003, -4.413200e-003
3.247538e+003, -4.311875e-003
3.249466e+003, -4.284917e-003
3.251395e+003, -3.798789e-003
3.253323e+003, -3.006456e-003
3.255252e+003, -3.045586e-003
3.257180e+003, -3.900801e-003
3.259109e+003, -4.048162e-003
3.261037e+003, -3.479082e-003
3.262966e+003, -3.354194e-003
3.264894e+003, -3.859658e-003
3.266823e+003, -3.590636e-003
3.268751e+003, -3.824145e-003
3.270679e+003, -4.415959e-003
3.272608e+003, -4.461369e-003
3.274536e+003, -4.089720e-003
3.276465e+003, -3.900728e-003
3.278393e+003, -4.142303e-003
3.280322e+003, -3.915292e-003
3.282250e+003, -3.901108e-003
3.284179e+003, -3.646400e-003
3.286107e+003, -3.625300e-003
3.288036e+003, -4.111359e-003
3.289964e+003, -4.570549e-003
3.291893e+003, -4.420678e-003
3.293821e+003, -4.146670e-003
3.295750e+003, -3.934033e-003
3.297678e+003, -3.871934e-003
3.299606e+003, -4.142507e-003
3.301535e+003, -4.785941e-003
3.303463e+003, -4.918006e-003
3.305392e+003, -4.963116e-003
3.307320e+003, -4.867285e-003
3.309249e+003, -4.372276e-003
3.311177e+003, -4.178584e-003
3.313106e+003, -4.529052e-003
3.315034e+003, -4.452412e-003
3.316963e+003, -4.296891e-003
3.318891e+003, -4.819321e-003
3.320820e+003, -4.857433e-003
3.322748e+003, -4.733735e-003
3.324677e+003, -4.181230e-003
3.326605e+003, -3.912604e-003
3.328533e+003, -4.357402e-003
3.330462e+003, -4.415926e-003
3.332390e+003, -4.260071e-003
3.334319e+003, -4.715531e-003
3.336247e+003, -4.684322e-003
3.338176e+003, -4.019862e-003
3.340104e+003, -4.051651e-003
3.342033e+003, -4.658117e-003
3.343961e+003, -5.100416e-003
3.345890e+003, -4.414940e-003
3.347818e+003, -4.068752e-003
3.349747e+003, -4.310920e-003
3.351675e+003, -4.660597e-003
3.353604e+003, -4.577989e-003
3.355532e+003, -4.160835e-003
3.357460e+003, -4.146697e-003
3.359389e+003, -4.052178e-003
3.361317e+003, -4.561095e-003
3.363246e+003, -5.380331e-003
3.365174e+003, -5.474730e-003
3.367103e+003, -4.923131e-003
3.369031e+003, -4.779310e-003
3.370960e+003, -4.714579e-003
3.372888e+003, -4.935934e-003
3.374817e+003, -4.685865e-003
3.376745e+003, -4.442826e-003
3.378674e+003, -4.514448e-003
3.380602e+003, -5.072250e-003
3.382531e+003, -5.157457e-003
3.384459e+003, -4.517707e-003
3.386387e+003, -4.359305e-003
3.388316e+003, -4.685696e-003
3.390244e+003, -4.669439e-003
3.392173e+003, -5.078074e-003
3.394101e+003, -5.441681e-003
3.396030e+003, -5.034731e-003
3.397958e+003, -5.014251e-003
3.399887e+003, -5.447365e-003
3.401815e+003, -5.692667e-003
3.403744e+003, -5.750044e-003
3.405672e+003, -5.439095e-003
3.407601e+003, -5.049297e-003
3.409529e+003, -4.963096e-003
3.411458e+003, -5.262499e-003
3.413386e+003, -5.258938e-003
3.415314e+003, -4.979299e-003
3.417243e+003, -4.945660e-003
3.419171e+003, -5.293929e-003
3.421100e+003, -5.149619e-003
3.423028e+003, -4.832509e-003
3.424957e+003, -4.900271e-003
3.426885e+003, -5.460303e-003
3.428814e+003, -5.532310e-003
3.430742e+003, -5.496689e-003
3.432671e+003, -5.304403e-003
3.434599e+003, -5.095541e-003
3.436528e+003, -5.467612e-003
3.438456e+003, -5.724815e-003
3.440385e+003, -5.543143e-003
3.442313e+003, -4.847911e-003
3.444241e+003, -4.402490e-003
3.446170e+003, -5.034185e-003
3.448098e+003, -5.601101e-003
3.450027e+003, -5.935607e-003
3.451955e+003, -6.122219e-003
3.453884e+003, -6.136695e-003
3.455812e+003, -5.909292e-003
3.457741e+003, -5.796868e-003
3.459669e+003, -5.919883e-003
3.461598e+003, -6.010921e-003
3.463526e+003, -5.574369e-003
3.465455e+003, -4.655013e-003
3.467383e+003, -5.001051e-003
3.469312e+003, -5.536494e-003
3.471240e+003, -5.872546e-003
3.473168e+003, -6.234108e-003
3.475097e+003, -5.858311e-003
3.477025e+003, -5.282249e-003
3.478954e+003, -5.590586e-003
3.480882e+003, -5.911606e-003
3.482811e+003, -5.652085e-003
3.484739e+003, -5.615527e-003
3.486668e+003, -6.153523e-003
3.488596e+003, -6.190772e-003
3.490525e+003, -5.569195e-003
3.492453e+003, -5.720418e-003
3.494382e+003, -6.049513e-003
3.496310e+003, -6.201115e-003
3.498239e+003, -5.956669e-003
3.500167e+003, -5.881050e-003
3.502095e+003, -6.117418e-003
3.504024e+003, -6.119747e-003
3.505952e+003, -5.723318e-003
3.507881e+003, -5.033512e-003
3.509809e+003, -5.228099e-003
3.511738e+003, -4.927823e-003
3.513666e+003, -4.888404e-003
3.515595e+003, -5.125501e-003
3.517523e+003, -5.330068e-003
3.519452e+003, -5.869310e-003
3.521380e+003, -6.528389e-003
3.523309e+003, -5.827363e-003
3.525237e+003, -5.565458e-003
3.527166e+003, -6.034446e-003
3.529094e+003, -6.347999e-003
3.531022e+003, -5.375590e-003
3.532951e+003, -5.076953e-003
3.534879e+003, -5.649299e-003
3.536808e+003, -6.114908e-003
3.538736e+003, -5.760599e-003
3.540665e+003, -5.755674e-003
3.542593e+003, -5.978995e-003
3.544522e+003, -5.857183e-003
3.546450e+003, -5.799145e-003
3.548379e+003, -5.757789e-003
3.550307e+003, -5.580775e-003
3.552236e+003, -5.647720e-003
3.554164e+003, -6.233823e-003
3.556093e+003, -6.766376e-003
3.558021e+003, -6.853029e-003
3.559949e+003, -6.615986e-003
3.561878e+003, -5.811322e-003
3.563806e+003, -4.767819e-003
3.565735e+003, -5.189771e-003
3.567663e+003, -5.614771e-003
3.569592e+003, -5.593530e-003
3.571520e+003, -6.018386e-003
3.573449e+003, -6.346538e-003
3.575377e+003, -6.186193e-003
3.577306e+003, -5.833304e-003
3.579234e+003, -5.669967e-003
3.581163e+003, -5.451331e-003
3.583091e+003, -5.349680e-003
3.585020e+003, -5.842451e-003
3.586948e+003, -6.211422e-003
3.588876e+003, -6.019678e-003
3.590805e+003, -6.051475e-003
3.592733e+003, -6.494835e-003
3.594662e+003, -6.955143e-003
3.596590e+003, -6.884485e-003
3.598519e+003, -6.908238e-003
3.600447e+003, -6.771309e-003
3.602376e+003, -6.216619e-003
3.604304e+003, -6.327357e-003
3.606233e+003, -6.615976e-003
3.608161e+003, -6.184330e-003
3.610090e+003, -6.256738e-003
3.612018e+003, -6.554129e-003
3.613947e+003, -6.577423e-003
3.615875e+003, -6.644642e-003
3.617803e+003, -5.937676e-003
3.619732e+003, -5.680942e-003
3.621660e+003, -5.825889e-003
3.623589e+003, -6.381181e-003
3.625517e+003, -6.515101e-003
3.627446e+003, -6.598401e-003
3.629374e+003, -6.538080e-003
3.631303e+003, -6.208654e-003
3.633231e+003, -6.318908e-003
3.635160e+003, -6.537466e-003
3.637088e+003, -6.362224e-003
3.639017e+003, -6.673480e-003
3.640945e+003, -6.913897e-003
3.642874e+003, -6.246110e-003
3.644802e+003, -5.143796e-003
3.646730e+003, -5.453848e-003
3.648659e+003, -6.386077e-003
3.650587e+003, -6.869943e-003
3.652516e+003, -7.094432e-003
3.654444e+003, -6.644739e-003
3.656373e+003, -6.694331e-003
3.658301e+003, -6.783197e-003
3.660230e+003, -6.822397e-003
3.662158e+003, -6.342387e-003
3.664087e+003, -5.710997e-003
3.666015e+003, -5.860569e-003
3.667944e+003, -5.500712e-003
3.669872e+003, -5.299648e-003
3.671801e+003, -6.011633e-003
3.673729e+003, -6.546823e-003
3.675657e+003, -6.696529e-003
3.677586e+003, -6.722855e-003
3.679514e+003, -6.448824e-003
3.681443e+003, -5.912212e-003
3.683371e+003, -6.487187e-003
3.685300e+003, -6.492774e-003
3.687228e+003, -6.231134e-003
3.689157e+003, -6.571760e-003
3.691085e+003, -7.464696e-003
3.693014e+003, -7.397101e-003
3.694942e+003, -6.797375e-003
3.696871e+003, -6.053655e-003
3.698799e+003, -5.557123e-003
3.700728e+003, -5.603888e-003
3.702656e+003, -5.702165e-003
3.704584e+003, -5.663793e-003
3.706513e+003, -5.817140e-003
3.708441e+003, -5.804372e-003
3.710370e+003, -5.779829e-003
3.712298e+003, -6.266394e-003
3.714227e+003, -6.556729e-003
3.716155e+003, -6.798512e-003
3.718084e+003, -6.438506e-003
3.720012e+003, -5.682589e-003
3.721941e+003, -5.600125e-003
3.723869e+003, -6.059021e-003
3.725798e+003, -6.328777e-003
3.727726e+003, -6.139127e-003
3.729655e+003, -5.998872e-003
3.731583e+003, -6.521363e-003
3.733511e+003, -6.990768e-003
3.735440e+003, -7.525201e-003
3.737368e+003, -7.464372e-003
3.739297e+003, -6.236311e-003
3.741225e+003, -5.830240e-003
3.743154e+003, -7.017343e-003
3.745082e+003, -7.416658e-003
3.747011e+003, -7.048804e-003
3.748939e+003, -6.401494e-003
3.750868e+003, -6.269970e-003
3.752796e+003, -6.892166e-003
3.754725e+003, -6.388695e-003
3.756653e+003, -5.804299e-003
3.758582e+003, -6.411756e-003
3.760510e+003, -6.669829e-003
3.762438e+003, -6.246467e-003
3.764367e+003, -6.185304e-003
3.766295e+003, -6.433119e-003
3.768224e+003, -6.590621e-003
3.770152e+003, -7.311978e-003
3.772081e+003, -7.625388e-003
3.774009e+003, -6.844208e-003
3.775938e+003, -7.017264e-003
3.777866e+003, -7.413920e-003
3.779795e+003, -7.210231e-003
3.781723e+003, -6.767852e-003
3.783652e+003, -6.409692e-003
3.785580e+003, -6.600363e-003
3.787509e+003, -6.739837e-003
3.789437e+003, -6.706255e-003
3.791365e+003, -6.091246e-003
3.793294e+003, -5.603772e-003
3.795222e+003, -5.776427e-003
3.797151e+003, -6.016679e-003
3.799079e+003, -5.587856e-003
3.801008e+003, -5.976235e-003
3.802936e+003, -6.457800e-003
3.804865e+003, -7.293200e-003
3.806793e+003, -7.919776e-003
3.808722e+003, -7.223446e-003
3.810650e+003, -6.346508e-003
3.812579e+003, -6.047796e-003
3.814507e+003, -6.615299e-003
3.816436e+003, -7.484701e-003
3.818364e+003, -7.900029e-003
3.820292e+003, -7.587275e-003
3.822221e+003, -7.607242e-003
3.824149e+003, -7.123642e-003
3.826078e+003, -6.998347e-003
3.828006e+003, -7.463832e-003
3.829935e+003, -7.940514e-003
3.831863e+003, -8.628867e-003
3.833792e+003, -8.121955e-003
3.835720e+003, -8.050661e-003
3.837649e+003, -7.493772e-003
3.839577e+003, -6.509501e-003
3.841506e+003, -6.392191e-003
3.843434e+003, -6.717977e-003
3.845363e+003, -6.996827e-003
3.847291e+003, -7.267911e-003
3.849219e+003, -6.929417e-003
3.851148e+003, -6.374803e-003
3.853076e+003, -6.200185e-003
3.855005e+003, -6.216015e-003
3.856933e+003, -6.375850e-003
3.858862e+003, -6.530224e-003
3.860790e+003, -7.282840e-003
3.862719e+003, -7.580949e-003
3.864647e+003, -7.399887e-003
3.866576e+003, -7.742323e-003
3.868504e+003, -8.173554e-003
3.870433e+003, -7.853186e-003
3.872361e+003, -7.509056e-003
3.874290e+003, -6.858210e-003
3.876218e+003, -6.471318e-003
3.878146e+003, -7.046242e-003
3.880075e+003, -7.614372e-003
3.882003e+003, -7.787810e-003
3.883932e+003, -6.904372e-003
3.885860e+003, -6.398786e-003
3.887789e+003, -6.938940e-003
3.889717e+003, -7.185337e-003
3.891646e+003, -7.147555e-003
3.893574e+003, -7.332352e-003
3.895503e+003, -7.465778e-003
3.897431e+003, -7.012993e-003
3.899360e+003, -7.357397e-003
3.901288e+003, -8.088450e-003
3.903217e+003, -7.974027e-003
3.905145e+003, -7.514016e-003
3.907073e+003, -7.579204e-003
3.909002e+003, -7.559090e-003
3.910930e+003, -7.254588e-003
3.912859e+003, -7.269138e-003
3.914787e+003, -7.741762e-003
3.916716e+003, -7.356420e-003
3.918644e+003, -7.047931e-003
3.920573e+003, -7.882383e-003
3.922501e+003, -8.433270e-003
3.924430e+003, -7.996657e-003
3.926358e+003, -7.310150e-003
3.928287e+003, -7.817693e-003
3.930215e+003, -7.959191e-003
3.932144e+003, -8.078509e-003
3.934072e+003, -7.548003e-003
3.936000e+003, -8.018027e-003
3.937929e+003, -8.605487e-003
3.939857e+003, -7.617588e-003
3.941786e+003, -7.441479e-003
3.943714e+003, -8.189156e-003
3.945643e+003, -7.636453e-003
3.947571e+003, -6.583275e-003
3.949500e+003, -7.110725e-003
3.951428e+003, -7.529814e-003
3.953357e+003, -7.677855e-003
3.955285e+003, -8.890499e-003
3.957214e+003, -9.454207e-003
3.959142e+003, -8.635136e-003
3.961071e+003, -7.140706e-003
3.962999e+003, -7.377192e-003
3.964927e+003, -8.573769e-003
3.966856e+003, -8.031562e-003
3.968784e+003, -7.629921e-003
3.970713e+003, -7.089170e-003
3.972641e+003, -6.622986e-003
3.974570e+003, -7.447643e-003
3.976498e+003, -7.967150e-003
3.978427e+003, -7.379659e-003
3.980355e+003, -7.814711e-003
3.982284e+003, -8.546045e-003
3.984212e+003, -8.497244e-003
3.986141e+003, -8.316293e-003
3.988069e+003, -7.801836e-003
3.989998e+003, -7.497349e-003
3.991926e+003, -7.660847e-003
3.993854e+003, -8.110329e-003
3.995783e+003, -8.222168e-003
3.997711e+003, -7.632386e-003
3.999640e+003, -7.034963e-003
##END=



