##NAMES=Spinel
##RRUFFID=R050184
##IDEAL CHEMISTRY=MgAl_2_O_4_
##LOCALITY=Pein Pyit, Mogok, Burma
##OWNER=RRUFF
##SOURCE=Marcus Origlieri
##DESCRIPTION=Red crystal in calcite, associated with yellowish-green clinohumite, R050183
##STATUS=The identification of this mineral has been confirmed by X-ray diffraction and chemical analysis
##URL=rruff.info/R050184
##MEASURED CHEMISTRY=Mg_1.00_(Al_1.99_Cr_0.01_)_Î£=2_O_4_; trace amounts of V
5.014013e+001, 1.499739e-003
5.206860e+001, 6.802091e-003
5.399707e+001, 5.786356e-003
5.592553e+001, 7.749015e-003
5.785400e+001, 1.234941e-002
5.978246e+001, 9.077507e-003
6.171093e+001, 6.015315e-003
6.363940e+001, 8.249724e-003
6.556786e+001, 9.262306e-003
6.749633e+001, 9.830665e-003
6.942480e+001, 1.103716e-002
7.135326e+001, 1.228733e-002
7.328172e+001, 1.325893e-002
7.521019e+001, 1.402066e-002
7.713866e+001, 1.497618e-002
7.906712e+001, 1.481441e-002
8.099559e+001, 1.501971e-002
8.292406e+001, 1.635627e-002
8.485252e+001, 1.745259e-002
8.678099e+001, 1.771186e-002
8.870946e+001, 1.751471e-002
9.063792e+001, 1.887373e-002
9.256638e+001, 1.953081e-002
9.449485e+001, 1.945441e-002
9.642332e+001, 2.065318e-002
9.835178e+001, 2.221304e-002
1.002803e+002, 2.262185e-002
1.022087e+002, 2.331616e-002
1.041372e+002, 2.414037e-002
1.060657e+002, 2.542703e-002
1.079941e+002, 2.644502e-002
1.099226e+002, 2.699339e-002
1.118510e+002, 2.698020e-002
1.137795e+002, 2.690971e-002
1.157080e+002, 2.708921e-002
1.176364e+002, 2.732762e-002
1.195649e+002, 2.801988e-002
1.214934e+002, 2.858334e-002
1.234218e+002, 2.917801e-002
1.253503e+002, 3.075256e-002
1.272788e+002, 3.196251e-002
1.292072e+002, 3.262532e-002
1.311357e+002, 3.378786e-002
1.330642e+002, 3.508282e-002
1.349926e+002, 3.528388e-002
1.369211e+002, 3.562774e-002
1.388496e+002, 3.635919e-002
1.407780e+002, 3.662452e-002
1.427065e+002, 3.670757e-002
1.446350e+002, 3.666779e-002
1.465634e+002, 3.714784e-002
1.484919e+002, 3.866303e-002
1.504204e+002, 3.984126e-002
1.523488e+002, 4.060795e-002
1.542773e+002, 4.127956e-002
1.562058e+002, 4.161934e-002
1.581342e+002, 4.240559e-002
1.600627e+002, 4.324802e-002
1.619912e+002, 4.408480e-002
1.639196e+002, 4.480036e-002
1.658481e+002, 4.515343e-002
1.677766e+002, 4.593673e-002
1.697050e+002, 4.665529e-002
1.716335e+002, 4.694684e-002
1.735620e+002, 4.768249e-002
1.754904e+002, 4.810160e-002
1.774189e+002, 4.764889e-002
1.793474e+002, 4.795898e-002
1.812758e+002, 4.884154e-002
1.832043e+002, 4.956585e-002
1.851328e+002, 5.055939e-002
1.870612e+002, 5.175390e-002
1.889897e+002, 5.223515e-002
1.909182e+002, 5.228857e-002
1.928466e+002, 5.324638e-002
1.947751e+002, 5.470309e-002
1.967036e+002, 5.508867e-002
1.986320e+002, 5.517990e-002
2.005605e+002, 5.522825e-002
2.024890e+002, 5.598615e-002
2.044174e+002, 5.679189e-002
2.063459e+002, 5.774279e-002
2.082744e+002, 5.844110e-002
2.102028e+002, 5.860977e-002
2.121313e+002, 5.893012e-002
2.140598e+002, 5.956946e-002
2.159882e+002, 6.056507e-002
2.179167e+002, 6.195005e-002
2.198452e+002, 6.329548e-002
2.217736e+002, 6.423091e-002
2.237021e+002, 6.483901e-002
2.256305e+002, 6.541841e-002
2.275590e+002, 6.590833e-002
2.294875e+002, 6.582874e-002
2.314159e+002, 6.624185e-002
2.333444e+002, 6.671923e-002
2.352729e+002, 6.706188e-002
2.372013e+002, 6.717460e-002
2.391298e+002, 6.711229e-002
2.410583e+002, 6.741736e-002
2.429867e+002, 6.795265e-002
2.449152e+002, 6.845573e-002
2.468437e+002, 6.890508e-002
2.487721e+002, 6.961795e-002
2.507006e+002, 7.025064e-002
2.526291e+002, 7.177293e-002
2.545575e+002, 7.303289e-002
2.564860e+002, 7.278249e-002
2.584145e+002, 7.288497e-002
2.603429e+002, 7.335331e-002
2.622714e+002, 7.373647e-002
2.641999e+002, 7.456508e-002
2.661283e+002, 7.549369e-002
2.680568e+002, 7.631353e-002
2.699853e+002, 7.717294e-002
2.719137e+002, 7.793365e-002
2.738422e+002, 7.915603e-002
2.757707e+002, 8.098434e-002
2.776991e+002, 8.255085e-002
2.796276e+002, 8.324926e-002
2.815561e+002, 8.334561e-002
2.834845e+002, 8.372384e-002
2.854130e+002, 8.393453e-002
2.873415e+002, 8.442264e-002
2.892699e+002, 8.498923e-002
2.911984e+002, 8.577849e-002
2.931269e+002, 8.665603e-002
2.950553e+002, 8.757756e-002
2.969838e+002, 8.870784e-002
2.989123e+002, 9.048057e-002
3.008407e+002, 9.163998e-002
3.027692e+002, 9.230600e-002
3.046977e+002, 9.136972e-002
3.066261e+002, 8.939255e-002
3.085546e+002, 8.566480e-002
3.104831e+002, 7.926923e-002
3.124115e+002, 7.265335e-002
3.143400e+002, 7.041986e-002
3.162685e+002, 7.242886e-002
3.181969e+002, 7.560666e-002
3.201254e+002, 7.843373e-002
3.220539e+002, 8.062604e-002
3.239823e+002, 8.247785e-002
3.259108e+002, 8.421067e-002
3.278392e+002, 8.562081e-002
3.297677e+002, 8.630683e-002
3.316962e+002, 8.697432e-002
3.336246e+002, 8.767474e-002
3.355531e+002, 8.865356e-002
3.374816e+002, 8.993421e-002
3.394100e+002, 9.045167e-002
3.413385e+002, 9.100330e-002
3.432670e+002, 9.194642e-002
3.451954e+002, 9.284405e-002
3.471239e+002, 9.374608e-002
3.490524e+002, 9.509902e-002
3.509808e+002, 9.639090e-002
3.529093e+002, 9.698249e-002
3.548378e+002, 9.754377e-002
3.567662e+002, 9.827200e-002
3.586947e+002, 9.854090e-002
3.606232e+002, 9.861163e-002
3.625516e+002, 9.888794e-002
3.644801e+002, 9.879162e-002
3.664086e+002, 9.853493e-002
3.683370e+002, 9.860274e-002
3.702655e+002, 9.876726e-002
3.721940e+002, 9.936360e-002
3.741224e+002, 1.001898e-001
3.760509e+002, 1.003188e-001
3.779794e+002, 1.001570e-001
3.799078e+002, 1.005955e-001
3.818363e+002, 1.010407e-001
3.837648e+002, 1.014537e-001
3.856932e+002, 1.015358e-001
3.876217e+002, 1.016319e-001
3.895502e+002, 1.024046e-001
3.914786e+002, 1.032605e-001
3.934071e+002, 1.038816e-001
3.953356e+002, 1.041714e-001
3.972640e+002, 1.047499e-001
3.991925e+002, 1.056894e-001
4.011210e+002, 1.064364e-001
4.030494e+002, 1.069688e-001
4.049779e+002, 1.075376e-001
4.069064e+002, 1.082803e-001
4.088348e+002, 1.085827e-001
4.107633e+002, 1.089515e-001
4.126917e+002, 1.097590e-001
4.146202e+002, 1.107572e-001
4.165487e+002, 1.117171e-001
4.184771e+002, 1.124933e-001
4.204056e+002, 1.130810e-001
4.223341e+002, 1.137015e-001
4.242625e+002, 1.143907e-001
4.261910e+002, 1.153295e-001
4.281195e+002, 1.162086e-001
4.300479e+002, 1.171357e-001
4.319764e+002, 1.176655e-001
4.339049e+002, 1.182904e-001
4.358333e+002, 1.192837e-001
4.377618e+002, 1.201652e-001
4.396903e+002, 1.202975e-001
4.416187e+002, 1.201509e-001
4.435472e+002, 1.203190e-001
4.454757e+002, 1.205617e-001
4.474041e+002, 1.205632e-001
4.493326e+002, 1.205517e-001
4.512611e+002, 1.206816e-001
4.531895e+002, 1.209454e-001
4.551180e+002, 1.210530e-001
4.570465e+002, 1.212426e-001
4.589749e+002, 1.210219e-001
4.609034e+002, 1.210024e-001
4.628319e+002, 1.213687e-001
4.647603e+002, 1.217614e-001
4.666888e+002, 1.220154e-001
4.686173e+002, 1.224994e-001
4.705457e+002, 1.224891e-001
4.724742e+002, 1.221249e-001
4.744027e+002, 1.219987e-001
4.763311e+002, 1.222656e-001
4.782596e+002, 1.225421e-001
4.801881e+002, 1.229909e-001
4.821165e+002, 1.233625e-001
4.840450e+002, 1.236166e-001
4.859735e+002, 1.239455e-001
4.879019e+002, 1.247791e-001
4.898304e+002, 1.253922e-001
4.917589e+002, 1.260702e-001
4.936873e+002, 1.267502e-001
4.956158e+002, 1.271095e-001
4.975443e+002, 1.274813e-001
4.994727e+002, 1.275979e-001
5.014012e+002, 1.276583e-001
5.033297e+002, 1.280684e-001
5.052581e+002, 1.284269e-001
5.071866e+002, 1.286858e-001
5.091151e+002, 1.286392e-001
5.110435e+002, 1.285513e-001
5.129720e+002, 1.285482e-001
5.149005e+002, 1.288856e-001
5.168289e+002, 1.285987e-001
5.187574e+002, 1.284443e-001
5.206859e+002, 1.277306e-001
5.226143e+002, 1.266964e-001
5.245428e+002, 1.257294e-001
5.264713e+002, 1.248906e-001
5.283997e+002, 1.242277e-001
5.303282e+002, 1.230166e-001
5.322567e+002, 1.217893e-001
5.341851e+002, 1.206452e-001
5.361136e+002, 1.190343e-001
5.380421e+002, 1.171963e-001
5.399705e+002, 1.158141e-001
5.418990e+002, 1.147996e-001
5.438275e+002, 1.132798e-001
5.457559e+002, 1.118777e-001
5.476844e+002, 1.109310e-001
5.496129e+002, 1.097371e-001
5.515413e+002, 1.079212e-001
5.534698e+002, 1.063677e-001
5.553983e+002, 1.050492e-001
5.573267e+002, 1.036138e-001
5.592552e+002, 1.022655e-001
5.611837e+002, 1.008847e-001
5.631121e+002, 9.910660e-002
5.650406e+002, 9.717485e-002
5.669691e+002, 9.557697e-002
5.688975e+002, 9.443292e-002
5.708260e+002, 9.416626e-002
5.727545e+002, 9.463920e-002
5.746829e+002, 9.574237e-002
5.766114e+002, 9.682017e-002
5.785399e+002, 9.668206e-002
5.804683e+002, 9.605670e-002
5.823968e+002, 9.481105e-002
5.843253e+002, 9.272712e-002
5.862537e+002, 9.084965e-002
5.881822e+002, 8.854181e-002
5.901107e+002, 8.585029e-002
5.920391e+002, 8.329501e-002
5.939676e+002, 8.049179e-002
5.958961e+002, 7.798231e-002
5.978245e+002, 7.599124e-002
5.997530e+002, 7.376532e-002
6.016815e+002, 7.111349e-002
6.036099e+002, 6.850205e-002
6.055384e+002, 6.645881e-002
6.074669e+002, 6.468736e-002
6.093953e+002, 6.268455e-002
6.113238e+002, 6.143690e-002
6.132523e+002, 6.137232e-002
6.151807e+002, 6.112654e-002
6.171091e+002, 6.089955e-002
6.190376e+002, 6.168609e-002
6.209661e+002, 6.287745e-002
6.228945e+002, 6.435525e-002
6.248230e+002, 6.709038e-002
6.267515e+002, 7.085864e-002
6.286799e+002, 7.511315e-002
6.306084e+002, 7.924876e-002
6.325369e+002, 8.335272e-002
6.344653e+002, 8.739501e-002
6.363938e+002, 9.175572e-002
6.383223e+002, 9.626438e-002
6.402507e+002, 1.004352e-001
6.421792e+002, 1.042412e-001
6.441077e+002, 1.079426e-001
6.460361e+002, 1.116936e-001
6.479646e+002, 1.151090e-001
6.498931e+002, 1.180623e-001
6.518215e+002, 1.207817e-001
6.537500e+002, 1.231252e-001
6.556785e+002, 1.247441e-001
6.576069e+002, 1.263804e-001
6.595354e+002, 1.277389e-001
6.614639e+002, 1.287199e-001
6.633923e+002, 1.299149e-001
6.653208e+002, 1.309656e-001
6.672493e+002, 1.316110e-001
6.691777e+002, 1.324040e-001
6.711062e+002, 1.330903e-001
6.730347e+002, 1.336714e-001
6.749631e+002, 1.340113e-001
6.768916e+002, 1.344339e-001
6.788201e+002, 1.350594e-001
6.807485e+002, 1.346951e-001
6.826770e+002, 1.335053e-001
6.846055e+002, 1.327515e-001
6.865339e+002, 1.318880e-001
6.884624e+002, 1.307921e-001
6.903909e+002, 1.303512e-001
6.923193e+002, 1.305358e-001
6.942478e+002, 1.300485e-001
6.961763e+002, 1.290676e-001
6.981047e+002, 1.273932e-001
7.000332e+002, 1.263363e-001
##END=



