##NAMES=Spodumene
##RRUFFID=R060039
##IDEAL CHEMISTRY=LiAlSi_2_O_6_
##LOCALITY=Black Hills, South Dakota, USA
##OWNER=RRUFF
##SOURCE=University of Arizona Mineral Museum
##DESCRIPTION=Light green massive
##STATUS=The identification of this mineral has been confirmed by X-ray diffraction and chemical analysis
##URL=rruff.info/R060039
##MEASURED CHEMISTRY=Li_1.00_(Al_0.99_Fe^3+^_0.01_)Si_2.00_O_6_
3.991926e+002, 2.721867e-001
4.011211e+002, 2.452247e-001
4.030495e+002, 2.200618e-001
4.049780e+002, 2.021129e-001
4.069065e+002, 1.932603e-001
4.088349e+002, 1.910218e-001
4.107634e+002, 1.968928e-001
4.126919e+002, 2.104478e-001
4.146203e+002, 2.207624e-001
4.165488e+002, 2.317188e-001
4.184773e+002, 2.477827e-001
4.204057e+002, 2.637000e-001
4.223342e+002, 2.778597e-001
4.242627e+002, 2.963929e-001
4.261911e+002, 3.086396e-001
4.281196e+002, 3.185019e-001
4.300481e+002, 3.252665e-001
4.319765e+002, 3.354816e-001
4.339050e+002, 3.473411e-001
4.358335e+002, 3.568179e-001
4.377619e+002, 3.599809e-001
4.396904e+002, 3.662599e-001
4.416189e+002, 3.711032e-001
4.435473e+002, 3.720590e-001
4.454758e+002, 3.665628e-001
4.474043e+002, 3.636546e-001
4.493327e+002, 3.621219e-001
4.512612e+002, 3.567484e-001
4.531897e+002, 3.466760e-001
4.551181e+002, 3.429707e-001
4.570466e+002, 3.453538e-001
4.589751e+002, 3.471930e-001
4.609035e+002, 3.471000e-001
4.628320e+002, 3.440584e-001
4.647605e+002, 3.385352e-001
4.666889e+002, 3.333903e-001
4.686174e+002, 3.276721e-001
4.705459e+002, 3.198355e-001
4.724743e+002, 3.119881e-001
4.744028e+002, 3.063956e-001
4.763313e+002, 2.980042e-001
4.782597e+002, 2.868702e-001
4.801882e+002, 2.782727e-001
4.821167e+002, 2.714593e-001
4.840451e+002, 2.639648e-001
4.859736e+002, 2.566299e-001
4.879021e+002, 2.495484e-001
4.898305e+002, 2.422290e-001
4.917590e+002, 2.362848e-001
4.936875e+002, 2.307738e-001
4.956159e+002, 2.242480e-001
4.975444e+002, 2.172722e-001
4.994729e+002, 2.116520e-001
5.014013e+002, 2.071076e-001
5.033298e+002, 2.008495e-001
5.052583e+002, 1.946384e-001
5.071867e+002, 1.875325e-001
5.091152e+002, 1.804636e-001
5.110437e+002, 1.743613e-001
5.129721e+002, 1.696930e-001
5.149006e+002, 1.682343e-001
5.168290e+002, 1.693233e-001
5.187575e+002, 1.704476e-001
5.206860e+002, 1.718691e-001
5.226144e+002, 1.722192e-001
5.245429e+002, 1.720422e-001
5.264714e+002, 1.710745e-001
5.283998e+002, 1.689786e-001
5.303283e+002, 1.665528e-001
5.322568e+002, 1.640937e-001
5.341852e+002, 1.604631e-001
5.361137e+002, 1.567009e-001
5.380422e+002, 1.531430e-001
5.399706e+002, 1.487776e-001
5.418991e+002, 1.440122e-001
5.438276e+002, 1.388429e-001
5.457560e+002, 1.334448e-001
5.476845e+002, 1.286012e-001
5.496130e+002, 1.232199e-001
5.515414e+002, 1.183809e-001
5.534699e+002, 1.150900e-001
5.553984e+002, 1.136152e-001
5.573268e+002, 1.142358e-001
5.592553e+002, 1.168928e-001
5.611838e+002, 1.216258e-001
5.631122e+002, 1.278800e-001
5.650407e+002, 1.351102e-001
5.669692e+002, 1.431369e-001
5.688976e+002, 1.503420e-001
5.708261e+002, 1.567651e-001
5.727546e+002, 1.623642e-001
5.746830e+002, 1.665850e-001
5.766115e+002, 1.692695e-001
5.785400e+002, 1.712790e-001
5.804684e+002, 1.723184e-001
5.823969e+002, 1.726625e-001
5.843254e+002, 1.725061e-001
5.862538e+002, 1.715094e-001
5.881823e+002, 1.698979e-001
5.901108e+002, 1.677616e-001
5.920392e+002, 1.658452e-001
5.939677e+002, 1.631802e-001
5.958962e+002, 1.594144e-001
5.978246e+002, 1.555600e-001
5.997531e+002, 1.517925e-001
6.016816e+002, 1.481759e-001
6.036100e+002, 1.440237e-001
6.055385e+002, 1.396751e-001
6.074670e+002, 1.355787e-001
6.093954e+002, 1.316885e-001
6.113239e+002, 1.281557e-001
6.132524e+002, 1.249777e-001
6.151808e+002, 1.218175e-001
6.171093e+002, 1.195289e-001
6.190378e+002, 1.178090e-001
6.209662e+002, 1.163707e-001
6.228947e+002, 1.155644e-001
6.248232e+002, 1.151008e-001
6.267516e+002, 1.149897e-001
6.286801e+002, 1.154013e-001
6.306086e+002, 1.159179e-001
6.325370e+002, 1.161164e-001
6.344655e+002, 1.158065e-001
6.363940e+002, 1.150440e-001
6.383224e+002, 1.134870e-001
6.402509e+002, 1.112829e-001
6.421794e+002, 1.087541e-001
6.441078e+002, 1.049750e-001
6.460363e+002, 1.004848e-001
6.479648e+002, 9.528124e-002
6.498932e+002, 8.882477e-002
6.518217e+002, 8.230316e-002
6.537502e+002, 7.604141e-002
6.556786e+002, 6.975865e-002
6.576071e+002, 6.405069e-002
6.595356e+002, 5.924920e-002
6.614641e+002, 5.541833e-002
6.633925e+002, 5.216299e-002
6.653210e+002, 4.936494e-002
6.672495e+002, 4.653839e-002
6.691779e+002, 4.314861e-002
6.711064e+002, 3.976383e-002
6.730349e+002, 3.686003e-002
6.749633e+002, 3.438983e-002
6.768918e+002, 3.264467e-002
6.788203e+002, 3.121655e-002
6.807487e+002, 3.026155e-002
6.826772e+002, 2.954692e-002
6.846057e+002, 2.897499e-002
6.865341e+002, 2.838339e-002
6.884626e+002, 2.785526e-002
6.903911e+002, 2.787120e-002
6.923195e+002, 2.759356e-002
6.942480e+002, 2.704080e-002
6.961765e+002, 2.710935e-002
6.981049e+002, 2.732798e-002
7.000334e+002, 2.709239e-002
7.019619e+002, 2.676347e-002
7.038903e+002, 2.699063e-002
7.058188e+002, 2.729988e-002
7.077473e+002, 2.715276e-002
7.096757e+002, 2.717024e-002
7.116042e+002, 2.741952e-002
7.135327e+002, 2.744322e-002
7.154611e+002, 2.741380e-002
7.173896e+002, 2.760766e-002
7.193181e+002, 2.782876e-002
7.212465e+002, 2.820888e-002
7.231750e+002, 2.870708e-002
7.251035e+002, 2.920113e-002
7.270319e+002, 2.949377e-002
7.289604e+002, 2.971414e-002
7.308889e+002, 3.011749e-002
7.328173e+002, 3.045014e-002
7.347458e+002, 3.058002e-002
7.366743e+002, 3.082809e-002
7.386027e+002, 3.123786e-002
7.405312e+002, 3.178661e-002
7.424597e+002, 3.205498e-002
7.443881e+002, 3.218725e-002
7.463166e+002, 3.291219e-002
7.482451e+002, 3.351751e-002
7.501735e+002, 3.377157e-002
7.521020e+002, 3.421179e-002
7.540305e+002, 3.496152e-002
7.559589e+002, 3.543381e-002
7.578874e+002, 3.595892e-002
7.598159e+002, 3.652816e-002
7.617443e+002, 3.734371e-002
7.636728e+002, 3.811319e-002
7.656013e+002, 3.900233e-002
7.675297e+002, 4.010591e-002
7.694582e+002, 4.100936e-002
7.713867e+002, 4.180468e-002
7.733151e+002, 4.271103e-002
7.752436e+002, 4.385522e-002
7.771721e+002, 4.529728e-002
7.791005e+002, 4.662417e-002
7.810290e+002, 4.739353e-002
7.829575e+002, 4.814032e-002
7.848859e+002, 4.915481e-002
7.868144e+002, 5.026093e-002
7.887429e+002, 5.137102e-002
7.906713e+002, 5.278463e-002
7.925998e+002, 5.420746e-002
7.945283e+002, 5.568576e-002
7.964567e+002, 5.750341e-002
7.983852e+002, 5.940962e-002
8.003137e+002, 6.148166e-002
8.022421e+002, 6.352720e-002
8.041706e+002, 6.556461e-002
8.060991e+002, 6.739399e-002
8.080275e+002, 6.939866e-002
8.099560e+002, 7.162251e-002
8.118845e+002, 7.409904e-002
8.138129e+002, 7.689802e-002
8.157414e+002, 8.010497e-002
8.176699e+002, 8.359224e-002
8.195983e+002, 8.700445e-002
8.215268e+002, 9.101555e-002
8.234553e+002, 9.585886e-002
8.253837e+002, 1.007143e-001
8.273122e+002, 1.056074e-001
8.292407e+002, 1.110132e-001
8.311691e+002, 1.171147e-001
8.330976e+002, 1.238829e-001
8.350261e+002, 1.312217e-001
8.369545e+002, 1.390796e-001
8.388830e+002, 1.477212e-001
8.408115e+002, 1.570048e-001
8.427399e+002, 1.667527e-001
8.446684e+002, 1.769821e-001
8.465969e+002, 1.875568e-001
8.485253e+002, 1.982730e-001
8.504538e+002, 2.085032e-001
8.523823e+002, 2.176085e-001
8.543107e+002, 2.248622e-001
8.562392e+002, 2.286198e-001
8.581677e+002, 2.287036e-001
8.600961e+002, 2.247725e-001
8.620246e+002, 2.183813e-001
8.639531e+002, 2.105156e-001
8.658815e+002, 2.027753e-001
8.678100e+002, 1.972370e-001
8.697385e+002, 1.944176e-001
8.716669e+002, 1.942353e-001
8.735954e+002, 1.957379e-001
8.755239e+002, 1.984166e-001
8.774523e+002, 2.024802e-001
8.793808e+002, 2.072497e-001
8.813093e+002, 2.122134e-001
8.832377e+002, 2.171158e-001
8.851662e+002, 2.224579e-001
8.870947e+002, 2.281016e-001
8.890231e+002, 2.336274e-001
8.909516e+002, 2.384998e-001
8.928801e+002, 2.430108e-001
8.948085e+002, 2.474023e-001
8.967370e+002, 2.511103e-001
8.986655e+002, 2.543795e-001
9.005939e+002, 2.571764e-001
9.025224e+002, 2.597307e-001
9.044509e+002, 2.619696e-001
9.063793e+002, 2.631365e-001
9.083078e+002, 2.640942e-001
9.102363e+002, 2.646639e-001
9.121647e+002, 2.643699e-001
9.140932e+002, 2.636797e-001
9.160217e+002, 2.625177e-001
9.179501e+002, 2.607775e-001
9.198786e+002, 2.585459e-001
9.218071e+002, 2.555507e-001
9.237355e+002, 2.519300e-001
9.256640e+002, 2.477766e-001
9.275925e+002, 2.431319e-001
9.295209e+002, 2.381784e-001
9.314494e+002, 2.330426e-001
9.333779e+002, 2.274208e-001
9.353063e+002, 2.216217e-001
9.372348e+002, 2.162884e-001
9.391633e+002, 2.108801e-001
9.410917e+002, 2.052801e-001
9.430202e+002, 2.001794e-001
9.449487e+002, 1.951544e-001
9.468771e+002, 1.908296e-001
9.488056e+002, 1.866205e-001
9.507341e+002, 1.822574e-001
9.526625e+002, 1.784116e-001
9.545910e+002, 1.751179e-001
9.565195e+002, 1.721005e-001
9.584479e+002, 1.698330e-001
9.603764e+002, 1.679733e-001
9.623049e+002, 1.665905e-001
9.642333e+002, 1.658638e-001
9.661618e+002, 1.657342e-001
9.680903e+002, 1.657316e-001
9.700187e+002, 1.666248e-001
9.719472e+002, 1.682332e-001
9.738757e+002, 1.705108e-001
9.758041e+002, 1.733105e-001
9.777326e+002, 1.767480e-001
9.796611e+002, 1.808996e-001
9.815895e+002, 1.857067e-001
9.835180e+002, 1.909840e-001
9.854465e+002, 1.974638e-001
9.873749e+002, 2.046709e-001
9.893034e+002, 2.123228e-001
9.912319e+002, 2.204067e-001
9.931603e+002, 2.293265e-001
9.950888e+002, 2.389282e-001
9.970173e+002, 2.488486e-001
9.989457e+002, 2.592820e-001
1.000874e+003, 2.698199e-001
1.002803e+003, 2.803497e-001
1.004731e+003, 2.905930e-001
1.006660e+003, 2.999798e-001
1.008588e+003, 3.091562e-001
1.010517e+003, 3.179991e-001
1.012445e+003, 3.252703e-001
1.014373e+003, 3.298053e-001
1.016302e+003, 3.325535e-001
1.018230e+003, 3.338970e-001
1.020159e+003, 3.339131e-001
1.022087e+003, 3.326930e-001
1.024016e+003, 3.302884e-001
1.025944e+003, 3.269130e-001
1.027873e+003, 3.230392e-001
1.029801e+003, 3.188150e-001
1.031730e+003, 3.143151e-001
1.033658e+003, 3.095660e-001
1.035587e+003, 3.043811e-001
1.037515e+003, 2.989865e-001
1.039443e+003, 2.939253e-001
1.041372e+003, 2.887897e-001
1.043300e+003, 2.837262e-001
1.045229e+003, 2.790908e-001
1.047157e+003, 2.749349e-001
1.049086e+003, 2.713070e-001
1.051014e+003, 2.684337e-001
1.052943e+003, 2.661552e-001
1.054871e+003, 2.642996e-001
1.056800e+003, 2.628681e-001
1.058728e+003, 2.619117e-001
1.060657e+003, 2.613991e-001
1.062585e+003, 2.609898e-001
1.064514e+003, 2.604994e-001
1.066442e+003, 2.602313e-001
1.068370e+003, 2.596450e-001
1.070299e+003, 2.587748e-001
1.072227e+003, 2.571413e-001
1.074156e+003, 2.541844e-001
1.076084e+003, 2.500887e-001
1.078013e+003, 2.460608e-001
1.079941e+003, 2.440744e-001
1.081870e+003, 2.440794e-001
1.083798e+003, 2.436750e-001
1.085727e+003, 2.411904e-001
1.087655e+003, 2.361954e-001
1.089584e+003, 2.291112e-001
1.091512e+003, 2.205696e-001
1.093441e+003, 2.113523e-001
1.095369e+003, 2.018527e-001
1.097297e+003, 1.926189e-001
1.099226e+003, 1.839920e-001
1.101154e+003, 1.759335e-001
1.103083e+003, 1.682061e-001
1.105011e+003, 1.607939e-001
1.106940e+003, 1.541988e-001
1.108868e+003, 1.482023e-001
1.110797e+003, 1.423993e-001
1.112725e+003, 1.369796e-001
1.114654e+003, 1.319354e-001
1.116582e+003, 1.274353e-001
1.118511e+003, 1.236878e-001
1.120439e+003, 1.206428e-001
1.122368e+003, 1.180763e-001
1.124296e+003, 1.157440e-001
1.126224e+003, 1.139324e-001
1.128153e+003, 1.125320e-001
1.130081e+003, 1.113695e-001
1.132010e+003, 1.106047e-001
1.133938e+003, 1.098565e-001
1.135867e+003, 1.089363e-001
1.137795e+003, 1.081692e-001
1.139724e+003, 1.073262e-001
1.141652e+003, 1.056137e-001
1.143581e+003, 1.033270e-001
1.145509e+003, 1.008238e-001
1.147438e+003, 9.831563e-002
1.149366e+003, 9.598322e-002
1.151295e+003, 9.391385e-002
1.153223e+003, 9.203560e-002
1.155151e+003, 9.010223e-002
1.157080e+003, 8.772301e-002
1.159008e+003, 8.525247e-002
1.160937e+003, 8.268680e-002
1.162865e+003, 7.983016e-002
1.164794e+003, 7.702203e-002
1.166722e+003, 7.406434e-002
1.168651e+003, 7.104881e-002
1.170579e+003, 6.789960e-002
1.172508e+003, 6.441327e-002
1.174436e+003, 6.077207e-002
1.176365e+003, 5.711573e-002
1.178293e+003, 5.341356e-002
1.180222e+003, 4.954174e-002
1.182150e+003, 4.594149e-002
1.184078e+003, 4.253518e-002
1.186007e+003, 3.915523e-002
1.187935e+003, 3.591729e-002
1.189864e+003, 3.289555e-002
1.191792e+003, 3.008626e-002
1.193721e+003, 2.750535e-002
1.195649e+003, 2.497405e-002
1.197578e+003, 2.247581e-002
1.199506e+003, 2.007612e-002
1.201435e+003, 1.814862e-002
1.203363e+003, 1.639648e-002
1.205292e+003, 1.469713e-002
1.207220e+003, 1.311022e-002
1.209149e+003, 1.178695e-002
1.211077e+003, 1.064408e-002
1.213005e+003, 9.741490e-003
1.214934e+003, 8.820062e-003
1.216862e+003, 7.975088e-003
1.218791e+003, 7.559599e-003
1.220719e+003, 7.297433e-003
1.222648e+003, 6.743446e-003
1.224576e+003, 6.022665e-003
1.226505e+003, 5.633240e-003
1.228433e+003, 5.566659e-003
1.230362e+003, 5.199755e-003
1.232290e+003, 4.766802e-003
1.234219e+003, 4.333574e-003
1.236147e+003, 4.135869e-003
1.238076e+003, 3.876325e-003
1.240004e+003, 3.639000e-003
1.241932e+003, 3.316722e-003
1.243861e+003, 3.011737e-003
1.245789e+003, 2.929950e-003
1.247718e+003, 2.828127e-003
1.249646e+003, 2.648642e-003
1.251575e+003, 2.556849e-003
1.253503e+003, 2.447213e-003
1.255432e+003, 2.518966e-003
1.257360e+003, 2.455789e-003
1.259289e+003, 2.151202e-003
1.261217e+003, 2.015311e-003
1.263146e+003, 1.879743e-003
1.265074e+003, 1.793746e-003
1.267003e+003, 1.808736e-003
1.268931e+003, 1.718230e-003
1.270859e+003, 1.715435e-003
1.272788e+003, 1.787548e-003
1.274716e+003, 1.639216e-003
1.276645e+003, 1.364427e-003
1.278573e+003, 1.602409e-003
1.280502e+003, 1.755051e-003
1.282430e+003, 1.608224e-003
1.284359e+003, 1.339696e-003
1.286287e+003, 1.156793e-003
1.288216e+003, 1.246730e-003
1.290144e+003, 1.298168e-003
1.292073e+003, 1.185077e-003
1.294001e+003, 1.135245e-003
1.295930e+003, 9.071811e-004
1.297858e+003, 6.608316e-004
1.299786e+003, 5.858021e-004
1.301715e+003, 7.447602e-004
1.303643e+003, 8.097503e-004
1.305572e+003, 7.338856e-004
1.307500e+003, 6.869079e-004
1.309429e+003, 8.097375e-004
1.311357e+003, 9.309936e-004
1.313286e+003, 9.846245e-004
1.315214e+003, 1.069106e-003
1.317143e+003, 1.068050e-003
1.319071e+003, 7.750846e-004
1.321000e+003, 6.629740e-004
1.322928e+003, 7.688357e-004
1.324857e+003, 6.600753e-004
1.326785e+003, 5.525123e-004
1.328714e+003, 5.150657e-004
1.330642e+003, 5.619298e-004
1.332570e+003, 7.282391e-004
1.334499e+003, 7.818476e-004
1.336427e+003, 7.375297e-004
1.338356e+003, 6.366569e-004
1.340284e+003, 5.626234e-004
1.342213e+003, 4.344400e-004
1.344141e+003, 5.093672e-004
1.346070e+003, 5.338468e-004
1.347998e+003, 4.200875e-004
1.349927e+003, 4.033664e-004
1.351855e+003, 5.219741e-004
1.353784e+003, 5.199352e-004
1.355712e+003, 6.538623e-004
1.357641e+003, 6.355181e-004
1.359569e+003, 5.449720e-004
1.361497e+003, 5.189695e-004
1.363426e+003, 6.160215e-004
1.365354e+003, 6.387667e-004
1.367283e+003, 7.973802e-004
1.369211e+003, 9.321250e-004
1.371140e+003, 8.468980e-004
1.373068e+003, 8.115966e-004
1.374997e+003, 8.759710e-004
1.376925e+003, 7.007249e-004
1.378854e+003, 6.880758e-004
1.380782e+003, 8.488219e-004
1.382711e+003, 9.803198e-004
1.384639e+003, 1.031917e-003
1.386568e+003, 1.056457e-003
1.388496e+003, 1.052626e-003
1.390424e+003, 1.149951e-003
1.392353e+003, 1.326476e-003
1.394281e+003, 1.613494e-003
1.396210e+003, 1.717086e-003
1.398138e+003, 1.963826e-003
1.400067e+003, 2.026714e-003
1.401995e+003, 1.758163e-003
1.403924e+003, 1.674655e-003
1.405852e+003, 1.657243e-003
1.407781e+003, 1.591794e-003
1.409709e+003, 1.664553e-003
1.411638e+003, 2.032248e-003
1.413566e+003, 2.024639e-003
1.415495e+003, 1.844193e-003
1.417423e+003, 2.021022e-003
1.419351e+003, 2.146886e-003
1.421280e+003, 2.081851e-003
1.423208e+003, 1.975196e-003
1.425137e+003, 1.882189e-003
1.427065e+003, 1.696758e-003
1.428994e+003, 1.806551e-003
1.430922e+003, 1.664595e-003
1.432851e+003, 1.531374e-003
1.434779e+003, 1.691295e-003
1.436708e+003, 1.772525e-003
1.438636e+003, 1.492879e-003
1.440565e+003, 1.496651e-003
1.442493e+003, 1.446578e-003
1.444422e+003, 1.424384e-003
1.446350e+003, 1.535184e-003
1.448278e+003, 1.495718e-003
1.450207e+003, 1.091997e-003
1.452135e+003, 1.016770e-003
1.454064e+003, 1.198288e-003
1.455992e+003, 1.920327e-003
1.457921e+003, 1.829846e-003
1.459849e+003, 1.197531e-003
1.461778e+003, 1.107842e-003
1.463706e+003, 1.434214e-003
1.465635e+003, 1.399990e-003
1.467563e+003, 1.198890e-003
1.469492e+003, 1.244566e-003
1.471420e+003, 1.356266e-003
1.473349e+003, 1.172217e-003
1.475277e+003, 9.328075e-004
1.477205e+003, 9.054995e-004
1.479134e+003, 9.154667e-004
1.481062e+003, 9.441322e-004
1.482991e+003, 8.663355e-004
1.484919e+003, 7.817916e-004
1.486848e+003, 8.264116e-004
1.488776e+003, 9.578431e-004
1.490705e+003, 9.791673e-004
1.492633e+003, 6.464775e-004
1.494562e+003, 7.316372e-004
1.496490e+003, 9.972699e-004
1.498419e+003, 7.913842e-004
1.500347e+003, 7.328270e-004
1.502276e+003, 8.268626e-004
1.504204e+003, 1.131258e-003
1.506132e+003, 1.661325e-003
1.508061e+003, 1.361147e-003
1.509989e+003, 8.887208e-004
1.511918e+003, 7.752915e-004
1.513846e+003, 8.291633e-004
1.515775e+003, 1.104995e-003
1.517703e+003, 1.397869e-003
1.519632e+003, 1.530093e-003
1.521560e+003, 1.567256e-003
1.523489e+003, 1.021480e-003
1.525417e+003, 9.392028e-004
1.527346e+003, 1.181666e-003
1.529274e+003, 1.135190e-003
1.531203e+003, 1.136926e-003
1.533131e+003, 1.413351e-003
1.535059e+003, 1.381183e-003
1.536988e+003, 1.551805e-003
1.538916e+003, 2.055168e-003
1.540845e+003, 2.107933e-003
1.542773e+003, 1.614881e-003
1.544702e+003, 1.438123e-003
1.546630e+003, 1.289770e-003
1.548559e+003, 1.429887e-003
1.550487e+003, 1.599369e-003
1.552416e+003, 1.640391e-003
1.554344e+003, 1.696433e-003
1.556273e+003, 2.053209e-003
1.558201e+003, 2.833102e-003
1.560130e+003, 2.933012e-003
1.562058e+003, 2.216085e-003
1.563986e+003, 1.753351e-003
1.565915e+003, 1.694705e-003
1.567843e+003, 1.726269e-003
1.569772e+003, 1.740073e-003
1.571700e+003, 1.587791e-003
1.573629e+003, 1.788208e-003
1.575557e+003, 2.247963e-003
1.577486e+003, 2.065835e-003
1.579414e+003, 1.715978e-003
1.581343e+003, 1.627836e-003
1.583271e+003, 1.591173e-003
1.585200e+003, 1.791930e-003
1.587128e+003, 2.020970e-003
1.589057e+003, 2.188360e-003
1.590985e+003, 2.296156e-003
1.592913e+003, 2.146074e-003
1.594842e+003, 1.980234e-003
1.596770e+003, 1.963846e-003
1.598699e+003, 2.096750e-003
1.600627e+003, 2.182056e-003
1.602556e+003, 2.102021e-003
1.604484e+003, 2.044510e-003
1.606413e+003, 2.216374e-003
1.608341e+003, 2.134038e-003
1.610270e+003, 2.162018e-003
1.612198e+003, 2.146228e-003
1.614127e+003, 2.441982e-003
1.616055e+003, 3.215159e-003
1.617984e+003, 3.215226e-003
1.619912e+003, 2.891353e-003
1.621840e+003, 3.213065e-003
1.623769e+003, 3.165434e-003
1.625697e+003, 2.998935e-003
1.627626e+003, 3.119053e-003
1.629554e+003, 3.116132e-003
1.631483e+003, 3.205776e-003
1.633411e+003, 3.827715e-003
1.635340e+003, 4.414194e-003
1.637268e+003, 3.974051e-003
1.639197e+003, 3.217115e-003
1.641125e+003, 3.045635e-003
1.643054e+003, 3.216262e-003
1.644982e+003, 3.488532e-003
1.646911e+003, 3.643821e-003
1.648839e+003, 3.386920e-003
1.650767e+003, 3.662085e-003
1.652696e+003, 4.618487e-003
1.654624e+003, 3.783561e-003
1.656553e+003, 2.955154e-003
1.658481e+003, 3.091200e-003
1.660410e+003, 3.049820e-003
1.662338e+003, 3.106299e-003
1.664267e+003, 3.043946e-003
1.666195e+003, 2.781794e-003
1.668124e+003, 2.783183e-003
1.670052e+003, 2.673979e-003
1.671981e+003, 2.550412e-003
1.673909e+003, 2.694851e-003
1.675838e+003, 2.779164e-003
1.677766e+003, 2.564258e-003
1.679694e+003, 2.467518e-003
1.681623e+003, 2.866285e-003
1.683551e+003, 3.641802e-003
1.685480e+003, 3.244785e-003
1.687408e+003, 2.567156e-003
1.689337e+003, 2.398227e-003
1.691265e+003, 2.541421e-003
1.693194e+003, 2.600279e-003
1.695122e+003, 2.939536e-003
1.697051e+003, 2.735550e-003
1.698979e+003, 2.909432e-003
1.700908e+003, 3.098116e-003
1.702836e+003, 2.510061e-003
1.704765e+003, 2.271269e-003
1.706693e+003, 2.381281e-003
1.708621e+003, 2.453891e-003
1.710550e+003, 2.158633e-003
1.712478e+003, 1.743263e-003
1.714407e+003, 1.918738e-003
1.716335e+003, 2.384066e-003
1.718264e+003, 2.405422e-003
1.720192e+003, 1.934756e-003
1.722121e+003, 1.975198e-003
1.724049e+003, 1.988006e-003
1.725978e+003, 1.808769e-003
1.727906e+003, 2.019607e-003
1.729835e+003, 2.074276e-003
1.731763e+003, 2.190582e-003
1.733692e+003, 2.436297e-003
1.735620e+003, 1.766301e-003
1.737548e+003, 1.486129e-003
1.739477e+003, 1.743075e-003
1.741405e+003, 1.304679e-003
1.743334e+003, 8.889273e-004
1.745262e+003, 1.231803e-003
1.747191e+003, 1.873305e-003
1.749119e+003, 1.886238e-003
1.751048e+003, 1.752634e-003
1.752976e+003, 1.686395e-003
1.754905e+003, 1.388188e-003
1.756833e+003, 1.220904e-003
1.758762e+003, 1.121099e-003
1.760690e+003, 1.503759e-003
1.762619e+003, 1.813037e-003
1.764547e+003, 1.839694e-003
1.766475e+003, 2.002011e-003
1.768404e+003, 2.260202e-003
1.770332e+003, 2.226251e-003
1.772261e+003, 2.449967e-003
1.774189e+003, 2.334695e-003
1.776118e+003, 1.975944e-003
1.778046e+003, 1.839063e-003
1.779975e+003, 1.868371e-003
1.781903e+003, 1.810266e-003
1.783832e+003, 2.239255e-003
1.785760e+003, 2.412062e-003
1.787689e+003, 2.381868e-003
1.789617e+003, 2.044766e-003
1.791546e+003, 1.896464e-003
1.793474e+003, 2.063830e-003
1.795402e+003, 2.268457e-003
1.797331e+003, 2.193850e-003
1.799259e+003, 2.418036e-003
1.801188e+003, 2.378603e-003
1.803116e+003, 2.032096e-003
1.805045e+003, 1.929820e-003
1.806973e+003, 1.659438e-003
1.808902e+003, 1.149818e-003
1.810830e+003, 1.479854e-003
1.812759e+003, 1.800554e-003
1.814687e+003, 1.621814e-003
1.816616e+003, 1.242976e-003
1.818544e+003, 1.165844e-003
1.820473e+003, 1.551555e-003
1.822401e+003, 1.509214e-003
1.824329e+003, 1.462484e-003
1.826258e+003, 1.528596e-003
1.828186e+003, 1.762148e-003
1.830115e+003, 1.745471e-003
1.832043e+003, 1.289648e-003
1.833972e+003, 1.073380e-003
1.835900e+003, 7.654971e-004
1.837829e+003, 4.017015e-004
1.839757e+003, 2.419203e-004
1.841686e+003, 8.334521e-004
1.843614e+003, 1.578928e-003
1.845543e+003, 1.427233e-003
1.847471e+003, 8.105177e-004
1.849400e+003, 5.118963e-004
1.851328e+003, 5.885463e-004
1.853256e+003, 1.060072e-003
1.855185e+003, 6.151784e-004
1.857113e+003, 2.648844e-004
1.859042e+003, 4.234711e-004
1.860970e+003, 7.492257e-004
1.862899e+003, 1.017812e-003
1.864827e+003, 7.890624e-004
1.866756e+003, 2.755408e-004
1.868684e+003, 5.303690e-004
1.870613e+003, 8.226557e-004
1.872541e+003, 7.962390e-004
1.874470e+003, 5.521477e-004
1.876398e+003, 7.109434e-004
1.878327e+003, 9.406251e-004
1.880255e+003, 2.778450e-004
1.882183e+003, -5.420782e-004
1.884112e+003, -3.745609e-005
1.886040e+003, -1.437318e-006
1.887969e+003, 4.122546e-005
1.889897e+003, 3.206140e-004
1.891826e+003, 4.689462e-004
1.893754e+003, 2.556740e-004
1.895683e+003, 3.594866e-004
1.897611e+003, 5.587126e-004
1.899540e+003, 3.956062e-004
1.901468e+003, -7.698648e-005
1.903397e+003, -1.031010e-003
1.905325e+003, -1.437761e-003
1.907254e+003, -6.013981e-004
1.909182e+003, 5.138215e-004
1.911110e+003, 1.099990e-004
1.913039e+003, -6.386925e-004
1.914967e+003, -9.198422e-004
1.916896e+003, -1.007873e-003
1.918824e+003, -1.613138e-003
1.920753e+003, -1.476276e-003
1.922681e+003, -3.724708e-004
1.924610e+003, 1.329074e-004
1.926538e+003, -1.995851e-004
1.928467e+003, -3.969674e-004
1.930395e+003, -1.471620e-003
1.932324e+003, -2.191999e-003
1.934252e+003, -1.721732e-003
1.936181e+003, -1.243337e-003
1.938109e+003, -1.419740e-003
1.940037e+003, -1.310511e-003
1.941966e+003, -1.657382e-003
1.943894e+003, -2.824053e-003
1.945823e+003, -3.286558e-003
1.947751e+003, -3.159625e-003
1.949680e+003, -2.500682e-003
1.951608e+003, -2.649047e-003
1.953537e+003, -3.205574e-003
1.955465e+003, -3.309492e-003
1.957394e+003, -3.673751e-003
1.959322e+003, -4.496809e-003
1.961251e+003, -4.710390e-003
1.963179e+003, -3.448694e-003
1.965108e+003, -4.613387e-003
1.967036e+003, -5.632333e-003
1.968964e+003, -4.181024e-003
1.970893e+003, -4.097775e-003
1.972821e+003, -4.955016e-003
1.974750e+003, -6.641096e-003
1.976678e+003, -6.921405e-003
1.978607e+003, -6.742795e-003
1.980535e+003, -5.341705e-003
1.982464e+003, -3.424932e-003
1.984392e+003, -2.784389e-003
1.986321e+003, -3.570427e-003
1.988249e+003, -4.780015e-003
1.990178e+003, -5.256885e-003
1.992106e+003, -5.562732e-003
1.994035e+003, -5.959547e-003
1.995963e+003, -5.286300e-003
1.997891e+003, -4.660855e-003
1.999820e+003, -5.396812e-003
2.001748e+003, -6.297474e-003
2.003677e+003, -6.739892e-003
2.005605e+003, -6.514302e-003
2.007534e+003, -5.863926e-003
2.009462e+003, -8.062824e-003
2.011391e+003, -8.159172e-003
2.013319e+003, -7.289750e-003
2.015248e+003, -6.808299e-003
2.017176e+003, -7.573045e-003
2.019105e+003, -8.009503e-003
2.021033e+003, -7.729120e-003
2.022962e+003, -7.617691e-003
2.024890e+003, -8.634848e-003
2.026818e+003, -9.218112e-003
2.028747e+003, -9.108534e-003
2.030675e+003, -7.667149e-003
2.032604e+003, -7.365587e-003
2.034532e+003, -5.291158e-003
2.036461e+003, -2.598465e-003
2.038389e+003, -3.958978e-003
2.040318e+003, -7.097297e-003
2.042246e+003, -6.481711e-003
2.044175e+003, -6.372645e-003
2.046103e+003, -8.573036e-003
2.048031e+003, -7.274841e-003
2.049960e+003, -5.332023e-003
2.051888e+003, -5.698660e-003
2.053817e+003, -5.439796e-003
2.055745e+003, -5.648525e-003
2.057674e+003, -4.983737e-003
2.059602e+003, -4.682700e-003
2.061531e+003, -4.726426e-003
2.063459e+003, -4.448830e-003
2.065388e+003, -3.330341e-003
2.067316e+003, -3.013052e-003
2.069245e+003, -3.005409e-003
2.071173e+003, -2.536419e-003
2.073102e+003, -2.624328e-003
2.075030e+003, -2.785253e-003
2.076958e+003, -2.456758e-003
2.078887e+003, -1.836933e-003
2.080815e+003, -1.107625e-003
2.082744e+003, -2.026063e-003
2.084672e+003, -2.845432e-003
2.086601e+003, -3.163459e-003
2.088529e+003, -3.077281e-003
2.090458e+003, -3.227354e-003
2.092386e+003, -4.101605e-003
2.094315e+003, -3.800550e-003
2.096243e+003, -3.115782e-003
2.098172e+003, -3.074029e-003
2.100100e+003, -3.043496e-003
2.102029e+003, -2.413825e-003
2.103957e+003, -2.473607e-003
2.105885e+003, -2.967102e-003
2.107814e+003, -3.082587e-003
2.109742e+003, -3.088055e-003
2.111671e+003, -2.497958e-003
2.113599e+003, -2.236339e-003
2.115528e+003, -2.736883e-003
2.117456e+003, -3.122211e-003
2.119385e+003, -2.709385e-003
2.121313e+003, -2.174242e-003
2.123242e+003, -2.026570e-003
2.125170e+003, -2.411253e-003
2.127099e+003, -2.975353e-003
2.129027e+003, -4.330652e-003
2.130956e+003, -4.988695e-003
2.132884e+003, -5.533521e-003
2.134813e+003, -6.679153e-003
2.136741e+003, -8.283975e-003
2.138669e+003, -8.403257e-003
2.140598e+003, -7.499105e-003
2.142526e+003, -5.545975e-003
2.144455e+003, -5.786990e-003
2.146383e+003, -6.980308e-003
2.148312e+003, -7.995568e-003
2.150240e+003, -1.026812e-002
2.152169e+003, -1.215704e-002
2.154097e+003, -1.151483e-002
2.156026e+003, -1.154567e-002
2.157954e+003, -1.225147e-002
2.159883e+003, -1.108001e-002
2.161811e+003, -9.760117e-003
2.163740e+003, -9.209556e-003
2.165668e+003, -9.593725e-003
2.167596e+003, -1.003931e-002
2.169525e+003, -9.167692e-003
2.171453e+003, -9.341559e-003
2.173382e+003, -1.029315e-002
2.175310e+003, -9.093846e-003
2.177239e+003, -6.365432e-003
2.179167e+003, -6.232999e-003
2.181096e+003, -7.892929e-003
2.183024e+003, -8.222360e-003
2.184953e+003, -6.186758e-003
2.186881e+003, -5.389990e-003
2.188810e+003, -4.612421e-003
2.190738e+003, -5.207559e-003
2.192667e+003, -5.588662e-003
2.194595e+003, -5.001771e-003
2.196523e+003, -4.447808e-003
2.198452e+003, -4.497824e-003
2.200380e+003, -4.314680e-003
2.202309e+003, -5.353495e-003
2.204237e+003, -4.706854e-003
2.206166e+003, -3.970550e-003
2.208094e+003, -3.342987e-003
2.210023e+003, -4.418581e-003
2.211951e+003, -3.934760e-003
2.213880e+003, -3.325211e-003
2.215808e+003, -4.293403e-003
2.217737e+003, -4.125941e-003
2.219665e+003, -2.986504e-003
2.221594e+003, -3.445138e-003
2.223522e+003, -3.191520e-003
2.225450e+003, -3.282919e-003
2.227379e+003, -2.006220e-003
2.229307e+003, -1.480471e-003
2.231236e+003, -2.215804e-003
2.233164e+003, -1.827551e-003
2.235093e+003, -2.186384e-003
2.237021e+003, -2.759403e-003
2.238950e+003, -2.277865e-003
2.240878e+003, -7.525231e-004
2.242807e+003, -7.372799e-004
2.244735e+003, -1.531189e-003
2.246664e+003, -2.049293e-003
2.248592e+003, -2.506108e-003
2.250521e+003, -9.587830e-004
2.252449e+003, -7.872077e-004
2.254377e+003, -1.741024e-004
2.256306e+003, 4.541259e-004
2.258234e+003, 5.569266e-004
2.260163e+003, 2.503087e-004
2.262091e+003, -2.312753e-004
2.264020e+003, -8.964018e-005
2.265948e+003, -1.481217e-004
2.267877e+003, -5.813671e-004
2.269805e+003, -1.607812e-004
2.271734e+003, 4.092619e-004
2.273662e+003, 8.838561e-004
2.275591e+003, 1.438236e-003
2.277519e+003, 2.068047e-003
2.279448e+003, 2.019317e-003
2.281376e+003, 1.832134e-003
2.283304e+003, 1.823602e-003
2.285233e+003, 1.986354e-003
2.287161e+003, 2.230596e-003
2.289090e+003, 2.756906e-003
2.291018e+003, 3.441054e-003
2.292947e+003, 2.801321e-003
2.294875e+003, 2.163131e-003
2.296804e+003, 2.815573e-003
2.298732e+003, 3.446144e-003
2.300661e+003, 3.350974e-003
2.302589e+003, 2.538089e-003
2.304518e+003, 2.521460e-003
2.306446e+003, 2.842491e-003
2.308375e+003, 2.517245e-003
2.310303e+003, 2.306948e-003
2.312231e+003, 3.134705e-003
2.314160e+003, 3.592388e-003
2.316088e+003, 3.757359e-003
2.318017e+003, 3.409931e-003
2.319945e+003, 3.565111e-003
2.321874e+003, 4.330771e-003
2.323802e+003, 4.483467e-003
2.325731e+003, 3.872788e-003
2.327659e+003, 3.631301e-003
2.329588e+003, 3.739824e-003
2.331516e+003, 3.812397e-003
2.333445e+003, 4.087138e-003
2.335373e+003, 4.358436e-003
2.337302e+003, 4.406058e-003
2.339230e+003, 4.419736e-003
2.341158e+003, 4.112253e-003
2.343087e+003, 4.188059e-003
2.345015e+003, 4.147738e-003
2.346944e+003, 3.541752e-003
2.348872e+003, 3.492416e-003
2.350801e+003, 4.009775e-003
2.352729e+003, 4.291403e-003
2.354658e+003, 4.381654e-003
2.356586e+003, 4.176201e-003
2.358515e+003, 4.438905e-003
2.360443e+003, 4.457381e-003
2.362372e+003, 4.361421e-003
2.364300e+003, 4.408881e-003
2.366229e+003, 4.895425e-003
2.368157e+003, 5.952406e-003
2.370085e+003, 6.609887e-003
2.372014e+003, 5.650135e-003
2.373942e+003, 4.341391e-003
2.375871e+003, 3.620401e-003
2.377799e+003, 3.236794e-003
2.379728e+003, 3.043593e-003
2.381656e+003, 3.281072e-003
2.383585e+003, 3.092409e-003
2.385513e+003, 3.738136e-003
2.387442e+003, 4.180206e-003
2.389370e+003, 4.201309e-003
2.391299e+003, 3.660370e-003
2.393227e+003, 3.419446e-003
2.395156e+003, 3.590776e-003
2.397084e+003, 4.239834e-003
2.399012e+003, 3.938164e-003
2.400941e+003, 4.001700e-003
2.402869e+003, 4.461534e-003
2.404798e+003, 4.398699e-003
2.406726e+003, 4.234550e-003
2.408655e+003, 4.887618e-003
2.410583e+003, 5.140887e-003
2.412512e+003, 4.748165e-003
2.414440e+003, 4.194225e-003
2.416369e+003, 4.165743e-003
2.418297e+003, 3.888588e-003
2.420226e+003, 3.884767e-003
2.422154e+003, 4.751099e-003
2.424083e+003, 5.434858e-003
2.426011e+003, 4.890776e-003
2.427939e+003, 4.290371e-003
2.429868e+003, 4.191279e-003
2.431796e+003, 4.270650e-003
2.433725e+003, 4.025906e-003
2.435653e+003, 3.881909e-003
2.437582e+003, 4.159257e-003
2.439510e+003, 4.519014e-003
2.441439e+003, 5.012256e-003
2.443367e+003, 4.984491e-003
2.445296e+003, 4.713397e-003
2.447224e+003, 4.425899e-003
2.449153e+003, 4.233098e-003
2.451081e+003, 3.993475e-003
2.453010e+003, 4.205084e-003
2.454938e+003, 5.329078e-003
2.456866e+003, 5.490358e-003
2.458795e+003, 4.527984e-003
2.460723e+003, 4.504597e-003
2.462652e+003, 4.966118e-003
2.464580e+003, 4.664774e-003
2.466509e+003, 4.833423e-003
2.468437e+003, 4.542044e-003
2.470366e+003, 4.202131e-003
2.472294e+003, 3.704531e-003
2.474223e+003, 4.131741e-003
2.476151e+003, 4.797265e-003
2.478080e+003, 4.791269e-003
2.480008e+003, 4.722201e-003
2.481937e+003, 4.226436e-003
2.483865e+003, 4.176181e-003
2.485793e+003, 5.207425e-003
2.487722e+003, 5.106860e-003
2.489650e+003, 3.923674e-003
2.491579e+003, 3.174309e-003
2.493507e+003, 3.927016e-003
2.495436e+003, 3.477883e-003
2.497364e+003, 3.169314e-003
2.499293e+003, 4.519652e-003
2.501221e+003, 5.552325e-003
2.503150e+003, 5.952493e-003
2.505078e+003, 5.627131e-003
2.507007e+003, 4.375293e-003
2.508935e+003, 4.180445e-003
2.510864e+003, 4.394554e-003
2.512792e+003, 4.208937e-003
2.514720e+003, 4.250895e-003
2.516649e+003, 5.348232e-003
2.518577e+003, 5.701411e-003
2.520506e+003, 4.162167e-003
2.522434e+003, 3.463108e-003
2.524363e+003, 4.006419e-003
2.526291e+003, 4.463410e-003
2.528220e+003, 4.637241e-003
2.530148e+003, 4.026876e-003
2.532077e+003, 4.187169e-003
2.534005e+003, 4.384393e-003
2.535934e+003, 5.076753e-003
2.537862e+003, 4.471442e-003
2.539791e+003, 3.029898e-003
2.541719e+003, 3.205670e-003
2.543647e+003, 4.728850e-003
2.545576e+003, 4.412627e-003
2.547504e+003, 3.976391e-003
2.549433e+003, 4.918961e-003
2.551361e+003, 4.748114e-003
2.553290e+003, 4.411389e-003
2.555218e+003, 3.925556e-003
2.557147e+003, 4.444849e-003
2.559075e+003, 5.355319e-003
2.561004e+003, 4.844720e-003
2.562932e+003, 4.951661e-003
2.564861e+003, 5.219531e-003
2.566789e+003, 5.667188e-003
2.568718e+003, 5.770427e-003
2.570646e+003, 6.048597e-003
2.572574e+003, 6.500850e-003
2.574503e+003, 5.614430e-003
2.576431e+003, 5.414543e-003
2.578360e+003, 5.337731e-003
2.580288e+003, 5.580476e-003
2.582217e+003, 5.820103e-003
2.584145e+003, 5.010448e-003
2.586074e+003, 5.320210e-003
2.588002e+003, 5.773582e-003
2.589931e+003, 5.157782e-003
2.591859e+003, 4.933711e-003
2.593788e+003, 5.722392e-003
2.595716e+003, 5.908886e-003
2.597645e+003, 5.477285e-003
2.599573e+003, 5.820520e-003
2.601501e+003, 5.927862e-003
2.603430e+003, 5.777826e-003
2.605358e+003, 5.637992e-003
2.607287e+003, 5.750090e-003
2.609215e+003, 5.303367e-003
2.611144e+003, 5.277471e-003
2.613072e+003, 6.099153e-003
2.615001e+003, 5.977871e-003
2.616929e+003, 5.467936e-003
2.618858e+003, 5.682205e-003
2.620786e+003, 5.750710e-003
2.622715e+003, 5.423705e-003
2.624643e+003, 5.362247e-003
2.626572e+003, 5.524463e-003
2.628500e+003, 5.895355e-003
2.630428e+003, 5.537392e-003
2.632357e+003, 6.046219e-003
2.634285e+003, 6.671893e-003
2.636214e+003, 6.177143e-003
2.638142e+003, 5.656141e-003
2.640071e+003, 5.726297e-003
2.641999e+003, 6.078751e-003
2.643928e+003, 6.138145e-003
2.645856e+003, 6.092296e-003
2.647785e+003, 6.087917e-003
2.649713e+003, 6.042838e-003
2.651642e+003, 6.949447e-003
2.653570e+003, 7.116917e-003
2.655499e+003, 6.653316e-003
2.657427e+003, 6.378330e-003
2.659355e+003, 6.603160e-003
2.661284e+003, 6.598725e-003
2.663212e+003, 6.391240e-003
2.665141e+003, 5.745530e-003
2.667069e+003, 5.250769e-003
2.668998e+003, 5.306624e-003
2.670926e+003, 5.639008e-003
2.672855e+003, 5.922198e-003
2.674783e+003, 5.934845e-003
2.676712e+003, 5.625734e-003
2.678640e+003, 5.300920e-003
2.680569e+003, 5.711668e-003
2.682497e+003, 5.730872e-003
2.684426e+003, 6.032948e-003
2.686354e+003, 6.717196e-003
2.688282e+003, 6.664683e-003
2.690211e+003, 6.444828e-003
2.692139e+003, 6.527754e-003
2.694068e+003, 6.297180e-003
2.695996e+003, 5.913318e-003
2.697925e+003, 6.579448e-003
2.699853e+003, 6.781722e-003
2.701782e+003, 6.406568e-003
2.703710e+003, 6.000199e-003
2.705639e+003, 5.738420e-003
2.707567e+003, 5.945549e-003
2.709496e+003, 6.596922e-003
2.711424e+003, 6.821449e-003
2.713353e+003, 6.345781e-003
2.715281e+003, 5.957334e-003
2.717209e+003, 6.066989e-003
2.719138e+003, 6.037788e-003
2.721066e+003, 6.606690e-003
2.722995e+003, 6.779415e-003
2.724923e+003, 6.593083e-003
2.726852e+003, 6.449753e-003
2.728780e+003, 6.611507e-003
2.730709e+003, 7.049897e-003
2.732637e+003, 7.390018e-003
2.734566e+003, 6.501525e-003
2.736494e+003, 6.226802e-003
2.738423e+003, 7.044711e-003
2.740351e+003, 7.506360e-003
2.742280e+003, 7.380254e-003
2.744208e+003, 6.971972e-003
2.746136e+003, 6.548797e-003
2.748065e+003, 6.479879e-003
2.749993e+003, 6.682329e-003
2.751922e+003, 7.153646e-003
2.753850e+003, 7.048878e-003
2.755779e+003, 7.417686e-003
2.757707e+003, 7.123000e-003
2.759636e+003, 6.414770e-003
2.761564e+003, 6.436088e-003
2.763493e+003, 6.518006e-003
2.765421e+003, 6.371565e-003
2.767350e+003, 7.018776e-003
2.769278e+003, 7.226640e-003
2.771207e+003, 7.056913e-003
2.773135e+003, 7.205276e-003
2.775063e+003, 7.427776e-003
2.776992e+003, 7.186603e-003
2.778920e+003, 7.515925e-003
2.780849e+003, 7.576401e-003
2.782777e+003, 7.750814e-003
2.784706e+003, 7.184753e-003
2.786634e+003, 6.788264e-003
2.788563e+003, 6.921936e-003
2.790491e+003, 7.191123e-003
2.792420e+003, 7.616585e-003
2.794348e+003, 7.352144e-003
2.796277e+003, 7.248161e-003
2.798205e+003, 7.074745e-003
2.800134e+003, 6.678498e-003
2.802062e+003, 6.296483e-003
2.803990e+003, 7.152454e-003
2.805919e+003, 7.363974e-003
2.807847e+003, 6.823099e-003
2.809776e+003, 6.903527e-003
2.811704e+003, 6.967667e-003
2.813633e+003, 6.927349e-003
2.815561e+003, 6.878338e-003
2.817490e+003, 6.752655e-003
2.819418e+003, 6.925527e-003
2.821347e+003, 6.802789e-003
2.823275e+003, 6.266296e-003
2.825204e+003, 6.658664e-003
2.827132e+003, 7.212802e-003
2.829061e+003, 7.007943e-003
2.830989e+003, 7.215943e-003
2.832917e+003, 7.719395e-003
2.834846e+003, 7.606599e-003
2.836774e+003, 7.213766e-003
2.838703e+003, 7.645435e-003
2.840631e+003, 7.929762e-003
2.842560e+003, 7.967849e-003
2.844488e+003, 7.794742e-003
2.846417e+003, 7.284012e-003
2.848345e+003, 7.118931e-003
2.850274e+003, 7.186538e-003
2.852202e+003, 7.841749e-003
2.854131e+003, 8.185806e-003
2.856059e+003, 8.183525e-003
2.857988e+003, 7.956959e-003
2.859916e+003, 8.192096e-003
2.861844e+003, 8.211270e-003
2.863773e+003, 8.486001e-003
2.865701e+003, 8.414852e-003
2.867630e+003, 8.033629e-003
2.869558e+003, 7.881334e-003
2.871487e+003, 8.003544e-003
2.873415e+003, 7.467074e-003
2.875344e+003, 7.291242e-003
2.877272e+003, 7.709983e-003
2.879201e+003, 7.771786e-003
2.881129e+003, 7.757972e-003
2.883058e+003, 7.847850e-003
2.884986e+003, 7.931692e-003
2.886915e+003, 8.388835e-003
2.888843e+003, 8.480879e-003
2.890771e+003, 8.378540e-003
2.892700e+003, 8.597966e-003
2.894628e+003, 8.728086e-003
2.896557e+003, 8.501012e-003
2.898485e+003, 8.186573e-003
2.900414e+003, 8.094907e-003
2.902342e+003, 8.800345e-003
2.904271e+003, 8.616953e-003
2.906199e+003, 8.292976e-003
2.908128e+003, 8.528859e-003
2.910056e+003, 8.709457e-003
2.911985e+003, 8.759337e-003
2.913913e+003, 8.296232e-003
2.915842e+003, 8.811506e-003
2.917770e+003, 9.528402e-003
2.919698e+003, 8.683766e-003
2.921627e+003, 7.854747e-003
2.923555e+003, 8.214579e-003
2.925484e+003, 8.957685e-003
2.927412e+003, 9.707958e-003
2.929341e+003, 9.640807e-003
2.931269e+003, 8.985084e-003
2.933198e+003, 8.762668e-003
2.935126e+003, 9.784892e-003
2.937055e+003, 1.036818e-002
2.938983e+003, 9.170750e-003
2.940912e+003, 8.293848e-003
2.942840e+003, 7.798853e-003
2.944769e+003, 8.012100e-003
2.946697e+003, 8.248745e-003
2.948625e+003, 9.039170e-003
2.950554e+003, 9.203114e-003
2.952482e+003, 9.156020e-003
2.954411e+003, 8.642718e-003
2.956339e+003, 8.073548e-003
2.958268e+003, 8.250554e-003
2.960196e+003, 8.552605e-003
2.962125e+003, 7.908223e-003
2.964053e+003, 8.514416e-003
2.965982e+003, 8.552107e-003
2.967910e+003, 8.338118e-003
2.969839e+003, 9.214303e-003
2.971767e+003, 9.378973e-003
2.973696e+003, 1.028090e-002
2.975624e+003, 1.033537e-002
2.977552e+003, 8.950804e-003
2.979481e+003, 8.767939e-003
2.981409e+003, 9.123455e-003
2.983338e+003, 8.899717e-003
2.985266e+003, 8.242033e-003
2.987195e+003, 9.283206e-003
2.989123e+003, 9.652452e-003
2.991052e+003, 9.645998e-003
2.992980e+003, 9.221583e-003
2.994909e+003, 9.828103e-003
2.996837e+003, 1.030956e-002
2.998766e+003, 9.585692e-003
3.000694e+003, 8.556717e-003
3.002623e+003, 8.831533e-003
3.004551e+003, 9.224649e-003
3.006479e+003, 1.085873e-002
3.008408e+003, 1.086821e-002
3.010336e+003, 9.473271e-003
3.012265e+003, 9.230038e-003
3.014193e+003, 1.089616e-002
3.016122e+003, 1.088187e-002
3.018050e+003, 9.359556e-003
3.019979e+003, 8.744166e-003
3.021907e+003, 1.006522e-002
3.023836e+003, 1.130225e-002
3.025764e+003, 1.035895e-002
3.027693e+003, 9.223159e-003
3.029621e+003, 9.227822e-003
3.031550e+003, 1.003144e-002
3.033478e+003, 1.055952e-002
3.035406e+003, 1.033803e-002
3.037335e+003, 9.604154e-003
3.039263e+003, 9.176571e-003
3.041192e+003, 8.947411e-003
3.043120e+003, 8.810156e-003
3.045049e+003, 8.825795e-003
3.046977e+003, 9.763703e-003
3.048906e+003, 1.022447e-002
3.050834e+003, 9.721073e-003
3.052763e+003, 9.239943e-003
3.054691e+003, 9.733362e-003
3.056620e+003, 1.069735e-002
3.058548e+003, 1.124853e-002
3.060477e+003, 1.207637e-002
3.062405e+003, 1.151877e-002
3.064333e+003, 1.022157e-002
3.066262e+003, 1.025390e-002
3.068190e+003, 1.084463e-002
3.070119e+003, 1.053869e-002
3.072047e+003, 1.020924e-002
3.073976e+003, 1.015602e-002
3.075904e+003, 1.065511e-002
3.077833e+003, 1.135720e-002
3.079761e+003, 1.176204e-002
3.081690e+003, 1.145031e-002
3.083618e+003, 1.039596e-002
3.085547e+003, 1.042524e-002
3.087475e+003, 1.159924e-002
3.089404e+003, 1.099794e-002
3.091332e+003, 9.128648e-003
3.093260e+003, 9.401842e-003
3.095189e+003, 1.050040e-002
3.097117e+003, 1.090518e-002
3.099046e+003, 1.044063e-002
3.100974e+003, 1.079551e-002
3.102903e+003, 1.117112e-002
3.104831e+003, 1.119155e-002
3.106760e+003, 1.158229e-002
3.108688e+003, 1.146835e-002
3.110617e+003, 1.111451e-002
3.112545e+003, 1.092852e-002
3.114474e+003, 1.094705e-002
3.116402e+003, 1.145651e-002
3.118331e+003, 1.180396e-002
3.120259e+003, 1.107381e-002
3.122188e+003, 1.075475e-002
3.124116e+003, 1.148476e-002
3.126044e+003, 1.181070e-002
3.127973e+003, 1.136840e-002
3.129901e+003, 1.182956e-002
3.131830e+003, 1.109520e-002
3.133758e+003, 1.001208e-002
3.135687e+003, 1.032651e-002
3.137615e+003, 1.167698e-002
3.139544e+003, 1.267844e-002
3.141472e+003, 1.262078e-002
3.143401e+003, 1.192986e-002
3.145329e+003, 1.154025e-002
3.147258e+003, 1.184225e-002
3.149186e+003, 1.156145e-002
3.151115e+003, 1.121531e-002
3.153043e+003, 1.201398e-002
3.154971e+003, 1.228859e-002
3.156900e+003, 1.215426e-002
3.158828e+003, 1.138144e-002
3.160757e+003, 1.200439e-002
3.162685e+003, 1.336614e-002
3.164614e+003, 1.288870e-002
3.166542e+003, 1.202816e-002
3.168471e+003, 1.223566e-002
3.170399e+003, 1.277378e-002
3.172328e+003, 1.242205e-002
3.174256e+003, 1.363703e-002
3.176185e+003, 1.447725e-002
3.178113e+003, 1.335691e-002
3.180042e+003, 1.307885e-002
3.181970e+003, 1.361821e-002
3.183898e+003, 1.340242e-002
3.185827e+003, 1.303732e-002
3.187755e+003, 1.299307e-002
3.189684e+003, 1.280999e-002
3.191612e+003, 1.236152e-002
3.193541e+003, 1.323008e-002
3.195469e+003, 1.463812e-002
3.197398e+003, 1.394671e-002
3.199326e+003, 1.255559e-002
3.201255e+003, 1.185830e-002
3.203183e+003, 1.179662e-002
3.205112e+003, 1.188587e-002
3.207040e+003, 1.286971e-002
3.208969e+003, 1.339233e-002
3.210897e+003, 1.275645e-002
3.212825e+003, 1.297588e-002
3.214754e+003, 1.332807e-002
3.216682e+003, 1.233539e-002
3.218611e+003, 1.244123e-002
3.220539e+003, 1.361226e-002
3.222468e+003, 1.297247e-002
3.224396e+003, 1.265020e-002
3.226325e+003, 1.335953e-002
3.228253e+003, 1.409059e-002
3.230182e+003, 1.327340e-002
3.232110e+003, 1.227236e-002
3.234039e+003, 1.315598e-002
3.235967e+003, 1.447055e-002
3.237896e+003, 1.463809e-002
3.239824e+003, 1.335637e-002
3.241752e+003, 1.286657e-002
3.243681e+003, 1.326138e-002
3.245609e+003, 1.374494e-002
3.247538e+003, 1.505913e-002
3.249466e+003, 1.515742e-002
3.251395e+003, 1.442623e-002
3.253323e+003, 1.511353e-002
3.255252e+003, 1.434103e-002
3.257180e+003, 1.257344e-002
3.259109e+003, 1.293666e-002
3.261037e+003, 1.390957e-002
3.262966e+003, 1.268882e-002
3.264894e+003, 1.274566e-002
3.266823e+003, 1.372001e-002
3.268751e+003, 1.439886e-002
3.270679e+003, 1.422804e-002
3.272608e+003, 1.441672e-002
3.274536e+003, 1.446786e-002
3.276465e+003, 1.465943e-002
3.278393e+003, 1.290479e-002
3.280322e+003, 1.288485e-002
3.282250e+003, 1.343576e-002
3.284179e+003, 1.335270e-002
3.286107e+003, 1.289165e-002
3.288036e+003, 1.269145e-002
3.289964e+003, 1.334079e-002
3.291893e+003, 1.262975e-002
3.293821e+003, 1.284361e-002
3.295750e+003, 1.428725e-002
3.297678e+003, 1.435973e-002
3.299606e+003, 1.341951e-002
3.301535e+003, 1.360183e-002
3.303463e+003, 1.424076e-002
3.305392e+003, 1.495917e-002
3.307320e+003, 1.510986e-002
3.309249e+003, 1.402508e-002
3.311177e+003, 1.358961e-002
3.313106e+003, 1.362434e-002
3.315034e+003, 1.347227e-002
3.316963e+003, 1.336918e-002
3.318891e+003, 1.331468e-002
3.320820e+003, 1.317017e-002
3.322748e+003, 1.304939e-002
3.324677e+003, 1.294481e-002
3.326605e+003, 1.355969e-002
3.328533e+003, 1.535479e-002
3.330462e+003, 1.524201e-002
3.332390e+003, 1.411256e-002
3.334319e+003, 1.290198e-002
3.336247e+003, 1.319109e-002
3.338176e+003, 1.518030e-002
3.340104e+003, 1.564051e-002
3.342033e+003, 1.515218e-002
3.343961e+003, 1.515992e-002
3.345890e+003, 1.624451e-002
3.347818e+003, 1.607440e-002
3.349747e+003, 1.344732e-002
3.351675e+003, 1.298314e-002
3.353604e+003, 1.491565e-002
3.355532e+003, 1.566813e-002
3.357460e+003, 1.509274e-002
3.359389e+003, 1.398548e-002
3.361317e+003, 1.409247e-002
3.363246e+003, 1.472505e-002
3.365174e+003, 1.488038e-002
3.367103e+003, 1.491088e-002
3.369031e+003, 1.574346e-002
3.370960e+003, 1.648799e-002
3.372888e+003, 1.476558e-002
3.374817e+003, 1.297136e-002
3.376745e+003, 1.338136e-002
3.378674e+003, 1.519263e-002
3.380602e+003, 1.643128e-002
3.382531e+003, 1.631644e-002
3.384459e+003, 1.601553e-002
3.386387e+003, 1.570912e-002
3.388316e+003, 1.457718e-002
3.390244e+003, 1.355899e-002
3.392173e+003, 1.408429e-002
3.394101e+003, 1.490422e-002
3.396030e+003, 1.601534e-002
3.397958e+003, 1.603911e-002
3.399887e+003, 1.492997e-002
3.401815e+003, 1.491191e-002
3.403744e+003, 1.491011e-002
3.405672e+003, 1.334693e-002
3.407601e+003, 1.296080e-002
3.409529e+003, 1.421316e-002
3.411458e+003, 1.563954e-002
3.413386e+003, 1.628528e-002
3.415314e+003, 1.606899e-002
3.417243e+003, 1.514356e-002
3.419171e+003, 1.524756e-002
3.421100e+003, 1.559348e-002
3.423028e+003, 1.516588e-002
3.424957e+003, 1.425237e-002
3.426885e+003, 1.428207e-002
3.428814e+003, 1.449384e-002
3.430742e+003, 1.435530e-002
3.432671e+003, 1.415277e-002
3.434599e+003, 1.442475e-002
3.436528e+003, 1.398637e-002
3.438456e+003, 1.426829e-002
3.440385e+003, 1.541322e-002
3.442313e+003, 1.489715e-002
3.444241e+003, 1.338696e-002
3.446170e+003, 1.326278e-002
3.448098e+003, 1.410335e-002
3.450027e+003, 1.514692e-002
3.451955e+003, 1.540150e-002
3.453884e+003, 1.509969e-002
3.455812e+003, 1.455281e-002
3.457741e+003, 1.490988e-002
3.459669e+003, 1.470286e-002
3.461598e+003, 1.364423e-002
3.463526e+003, 1.334393e-002
3.465455e+003, 1.288434e-002
3.467383e+003, 1.402636e-002
3.469312e+003, 1.486922e-002
3.471240e+003, 1.439353e-002
3.473168e+003, 1.358498e-002
3.475097e+003, 1.387232e-002
3.477025e+003, 1.455094e-002
3.478954e+003, 1.531793e-002
3.480882e+003, 1.628142e-002
3.482811e+003, 1.507101e-002
3.484739e+003, 1.362557e-002
3.486668e+003, 1.277329e-002
3.488596e+003, 1.326723e-002
3.490525e+003, 1.381275e-002
3.492453e+003, 1.390038e-002
3.494382e+003, 1.470798e-002
3.496310e+003, 1.563287e-002
3.498239e+003, 1.493478e-002
3.500167e+003, 1.345128e-002
3.502095e+003, 1.332793e-002
3.504024e+003, 1.396448e-002
3.505952e+003, 1.369574e-002
3.507881e+003, 1.343004e-002
3.509809e+003, 1.353867e-002
3.511738e+003, 1.315559e-002
3.513666e+003, 1.353311e-002
3.515595e+003, 1.370038e-002
3.517523e+003, 1.221099e-002
3.519452e+003, 1.171513e-002
3.521380e+003, 1.272879e-002
3.523309e+003, 1.092187e-002
3.525237e+003, 1.066294e-002
3.527166e+003, 1.327951e-002
3.529094e+003, 1.317756e-002
3.531022e+003, 1.265783e-002
3.532951e+003, 1.268964e-002
3.534879e+003, 1.174264e-002
3.536808e+003, 1.231503e-002
3.538736e+003, 1.176679e-002
3.540665e+003, 1.085528e-002
3.542593e+003, 1.291579e-002
3.544522e+003, 1.337756e-002
3.546450e+003, 1.242809e-002
3.548379e+003, 1.109266e-002
3.550307e+003, 1.292802e-002
3.552236e+003, 1.428918e-002
3.554164e+003, 1.304787e-002
3.556093e+003, 1.181631e-002
3.558021e+003, 1.178720e-002
3.559949e+003, 1.100540e-002
3.561878e+003, 1.093862e-002
3.563806e+003, 1.187169e-002
3.565735e+003, 1.240420e-002
3.567663e+003, 1.308217e-002
3.569592e+003, 1.345643e-002
3.571520e+003, 1.225399e-002
3.573449e+003, 1.283654e-002
3.575377e+003, 1.246246e-002
3.577306e+003, 1.214983e-002
3.579234e+003, 1.372296e-002
3.581163e+003, 1.125658e-002
3.583091e+003, 9.492126e-003
3.585020e+003, 1.159203e-002
3.586948e+003, 1.255263e-002
3.588876e+003, 1.264438e-002
3.590805e+003, 1.238791e-002
3.592733e+003, 1.270297e-002
3.594662e+003, 1.288608e-002
3.596590e+003, 1.250529e-002
3.598519e+003, 1.198889e-002
3.600447e+003, 1.192643e-002
3.602376e+003, 1.096899e-002
3.604304e+003, 9.628589e-003
3.606233e+003, 1.120637e-002
3.608161e+003, 1.207571e-002
3.610090e+003, 1.132618e-002
3.612018e+003, 1.150825e-002
3.613947e+003, 1.027580e-002
3.615875e+003, 9.334898e-003
3.617803e+003, 9.694684e-003
3.619732e+003, 1.091459e-002
3.621660e+003, 1.071270e-002
3.623589e+003, 9.555078e-003
3.625517e+003, 8.831427e-003
3.627446e+003, 1.001128e-002
3.629374e+003, 1.151569e-002
3.631303e+003, 1.108966e-002
3.633231e+003, 9.185713e-003
3.635160e+003, 8.001578e-003
3.637088e+003, 7.798957e-003
3.639017e+003, 7.654178e-003
3.640945e+003, 9.034252e-003
3.642874e+003, 1.051917e-002
3.644802e+003, 9.139048e-003
3.646730e+003, 9.126505e-003
3.648659e+003, 1.076335e-002
3.650587e+003, 1.120642e-002
3.652516e+003, 9.733272e-003
3.654444e+003, 8.552944e-003
3.656373e+003, 8.247858e-003
3.658301e+003, 8.139506e-003
3.660230e+003, 8.889397e-003
3.662158e+003, 9.365767e-003
3.664087e+003, 8.212783e-003
3.666015e+003, 8.104047e-003
3.667944e+003, 9.040373e-003
3.669872e+003, 8.625606e-003
3.671801e+003, 7.270622e-003
3.673729e+003, 8.891581e-003
3.675657e+003, 1.090320e-002
3.677586e+003, 1.116953e-002
3.679514e+003, 1.008542e-002
3.681443e+003, 8.136802e-003
3.683371e+003, 6.953960e-003
3.685300e+003, 7.042838e-003
3.687228e+003, 8.820811e-003
3.689157e+003, 8.909007e-003
3.691085e+003, 8.347552e-003
3.693014e+003, 9.219444e-003
3.694942e+003, 1.004627e-002
3.696871e+003, 7.406649e-003
3.698799e+003, 6.315831e-003
3.700728e+003, 8.979120e-003
3.702656e+003, 9.802328e-003
3.704584e+003, 8.307012e-003
3.706513e+003, 7.988306e-003
3.708441e+003, 8.929754e-003
3.710370e+003, 9.107850e-003
3.712298e+003, 6.796469e-003
3.714227e+003, 5.363197e-003
3.716155e+003, 6.555257e-003
3.718084e+003, 7.772331e-003
3.720012e+003, 8.681491e-003
3.721941e+003, 9.213644e-003
3.723869e+003, 7.918083e-003
3.725798e+003, 8.198357e-003
3.727726e+003, 7.351459e-003
3.729655e+003, 5.492481e-003
3.731583e+003, 5.704007e-003
3.733511e+003, 7.621120e-003
3.735440e+003, 9.383371e-003
3.737368e+003, 9.637464e-003
3.739297e+003, 7.390084e-003
3.741225e+003, 6.322567e-003
3.743154e+003, 7.955100e-003
3.745082e+003, 8.584556e-003
3.747011e+003, 6.196121e-003
3.748939e+003, 5.859686e-003
3.750868e+003, 7.069656e-003
3.752796e+003, 8.424118e-003
3.754725e+003, 7.635048e-003
3.756653e+003, 5.632410e-003
3.758582e+003, 6.878203e-003
3.760510e+003, 7.965567e-003
3.762438e+003, 8.032791e-003
3.764367e+003, 7.516691e-003
3.766295e+003, 7.733806e-003
3.768224e+003, 8.099724e-003
3.770152e+003, 8.296333e-003
3.772081e+003, 8.463388e-003
3.774009e+003, 7.613331e-003
3.775938e+003, 8.222679e-003
3.777866e+003, 8.447555e-003
3.779795e+003, 7.422187e-003
3.781723e+003, 5.394908e-003
3.783652e+003, 6.520001e-003
3.785580e+003, 1.009354e-002
3.787509e+003, 1.012002e-002
3.789437e+003, 8.025704e-003
3.791365e+003, 8.243270e-003
3.793294e+003, 8.893453e-003
3.795222e+003, 9.176780e-003
3.797151e+003, 8.406326e-003
3.799079e+003, 8.706558e-003
3.801008e+003, 1.039574e-002
3.802936e+003, 1.081622e-002
3.804865e+003, 1.004755e-002
3.806793e+003, 1.169089e-002
3.808722e+003, 1.017137e-002
3.810650e+003, 7.696253e-003
3.812579e+003, 7.232659e-003
3.814507e+003, 9.197865e-003
3.816436e+003, 9.346082e-003
3.818364e+003, 8.238141e-003
3.820292e+003, 9.108970e-003
3.822221e+003, 1.049581e-002
3.824149e+003, 1.024406e-002
3.826078e+003, 9.323034e-003
3.828006e+003, 8.495289e-003
3.829935e+003, 8.045292e-003
3.831863e+003, 6.919872e-003
3.833792e+003, 6.202296e-003
3.835720e+003, 8.158594e-003
3.837649e+003, 8.694734e-003
3.839577e+003, 8.887490e-003
3.841506e+003, 8.667519e-003
3.843434e+003, 8.419706e-003
3.845363e+003, 8.257337e-003
3.847291e+003, 9.534846e-003
3.849219e+003, 1.113234e-002
3.851148e+003, 1.113240e-002
3.853076e+003, 1.115815e-002
3.855005e+003, 9.400458e-003
3.856933e+003, 7.859833e-003
3.858862e+003, 9.769538e-003
3.860790e+003, 1.216658e-002
3.862719e+003, 1.222810e-002
3.864647e+003, 1.071000e-002
3.866576e+003, 9.672577e-003
3.868504e+003, 1.031361e-002
3.870433e+003, 1.096417e-002
3.872361e+003, 1.118145e-002
3.874290e+003, 9.753334e-003
3.876218e+003, 7.984816e-003
3.878146e+003, 7.407509e-003
3.880075e+003, 8.592105e-003
3.882003e+003, 9.942242e-003
3.883932e+003, 9.541269e-003
3.885860e+003, 1.098714e-002
3.887789e+003, 1.086527e-002
3.889717e+003, 9.092438e-003
3.891646e+003, 8.188530e-003
3.893574e+003, 8.805878e-003
3.895503e+003, 9.635507e-003
3.897431e+003, 1.163868e-002
3.899360e+003, 1.183855e-002
3.901288e+003, 1.005340e-002
3.903217e+003, 8.605003e-003
3.905145e+003, 9.363073e-003
3.907073e+003, 1.035223e-002
3.909002e+003, 9.738068e-003
3.910930e+003, 9.269577e-003
3.912859e+003, 1.114752e-002
3.914787e+003, 1.356668e-002
3.916716e+003, 1.373924e-002
3.918644e+003, 1.190311e-002
3.920573e+003, 1.204411e-002
3.922501e+003, 1.116204e-002
3.924430e+003, 9.760546e-003
3.926358e+003, 1.000258e-002
3.928287e+003, 1.073625e-002
3.930215e+003, 1.062463e-002
3.932144e+003, 9.900683e-003
3.934072e+003, 8.495643e-003
3.936000e+003, 8.645689e-003
3.937929e+003, 9.832571e-003
3.939857e+003, 1.012442e-002
3.941786e+003, 1.009115e-002
3.943714e+003, 9.902084e-003
3.945643e+003, 1.025818e-002
3.947571e+003, 1.139348e-002
3.949500e+003, 1.090827e-002
3.951428e+003, 9.649280e-003
3.953357e+003, 8.430791e-003
3.955285e+003, 8.843485e-003
3.957214e+003, 1.100057e-002
3.959142e+003, 1.162471e-002
3.961071e+003, 1.035665e-002
3.962999e+003, 1.052062e-002
3.964927e+003, 1.177688e-002
3.966856e+003, 1.062528e-002
3.968784e+003, 9.289029e-003
3.970713e+003, 1.037326e-002
3.972641e+003, 1.129014e-002
3.974570e+003, 1.098653e-002
3.976498e+003, 9.916153e-003
3.978427e+003, 9.351888e-003
3.980355e+003, 9.102111e-003
3.982284e+003, 8.828783e-003
3.984212e+003, 8.089895e-003
3.986141e+003, 8.728479e-003
3.988069e+003, 9.084282e-003
3.989998e+003, 1.054228e-002
3.991926e+003, 1.040499e-002
3.993854e+003, 8.655597e-003
3.995783e+003, 7.732871e-003
3.997711e+003, 1.135299e-002
3.999640e+003, 1.323927e-002
4.001568e+003, 0.000000e+000
##END=



