##NAMES=Spodumene
##RRUFFID=R040050
##IDEAL CHEMISTRY=LiAlSi_2_O_6_
##LOCALITY=Minas Gerais, Brazil
##OWNER=RRUFF
##SOURCE=University of Arizona Mineral Museum
##DESCRIPTION=Pale pink fragment of a single crystal, variety kunzite
##STATUS=The identification of this mineral has been confirmed by X-ray diffraction and chemical analysis
##URL=rruff.info/R040050
##MEASURED CHEMISTRY=(Li_0.99_Na_0.01_)Al_1.00_Si_2.00_O_6_
3.991926e+002, 0.000000e+000
4.011211e+002, 1.891967e-001
4.030496e+002, 1.900650e-001
4.049780e+002, 1.665536e-001
4.069065e+002, 1.547704e-001
4.088350e+002, 1.472996e-001
4.107634e+002, 1.472096e-001
4.126919e+002, 1.508128e-001
4.146204e+002, 1.588381e-001
4.165488e+002, 1.724384e-001
4.184773e+002, 1.845711e-001
4.204058e+002, 1.946949e-001
4.223342e+002, 2.104657e-001
4.242627e+002, 2.264766e-001
4.261912e+002, 2.324819e-001
4.281196e+002, 2.373598e-001
4.300481e+002, 2.497319e-001
4.319766e+002, 2.589427e-001
4.339050e+002, 2.662636e-001
4.358335e+002, 2.756886e-001
4.377620e+002, 2.857699e-001
4.396904e+002, 2.905963e-001
4.416189e+002, 2.941518e-001
4.435474e+002, 2.976751e-001
4.454758e+002, 3.030953e-001
4.474043e+002, 3.046229e-001
4.493328e+002, 3.000357e-001
4.512612e+002, 2.959716e-001
4.531897e+002, 2.917074e-001
4.551182e+002, 2.884341e-001
4.570466e+002, 2.886765e-001
4.589751e+002, 2.911281e-001
4.609036e+002, 2.922949e-001
4.628320e+002, 2.918832e-001
4.647605e+002, 2.900502e-001
4.666890e+002, 2.888183e-001
4.686174e+002, 2.870992e-001
4.705459e+002, 2.817989e-001
4.724744e+002, 2.760248e-001
4.744028e+002, 2.710410e-001
4.763313e+002, 2.645042e-001
4.782598e+002, 2.577623e-001
4.801882e+002, 2.497010e-001
4.821167e+002, 2.416524e-001
4.840452e+002, 2.335007e-001
4.859736e+002, 2.277563e-001
4.879021e+002, 2.223109e-001
4.898306e+002, 2.153761e-001
4.917590e+002, 2.085054e-001
4.936875e+002, 2.028724e-001
4.956160e+002, 1.976443e-001
4.975444e+002, 1.935223e-001
4.994729e+002, 1.892425e-001
5.014014e+002, 1.829685e-001
5.033298e+002, 1.770285e-001
5.052583e+002, 1.710553e-001
5.071868e+002, 1.644939e-001
5.091152e+002, 1.583375e-001
5.110437e+002, 1.522298e-001
5.129722e+002, 1.475054e-001
5.149006e+002, 1.458124e-001
5.168291e+002, 1.460543e-001
5.187576e+002, 1.475356e-001
5.206860e+002, 1.487527e-001
5.226145e+002, 1.490699e-001
5.245430e+002, 1.487548e-001
5.264714e+002, 1.479938e-001
5.283999e+002, 1.471270e-001
5.303284e+002, 1.456150e-001
5.322568e+002, 1.433723e-001
5.341853e+002, 1.409339e-001
5.361138e+002, 1.379896e-001
5.380422e+002, 1.348211e-001
5.399707e+002, 1.317073e-001
5.418992e+002, 1.279438e-001
5.438276e+002, 1.229389e-001
5.457561e+002, 1.179102e-001
5.476846e+002, 1.132441e-001
5.496130e+002, 1.079172e-001
5.515415e+002, 1.025027e-001
5.534700e+002, 9.815405e-002
5.553984e+002, 9.538785e-002
5.573269e+002, 9.502093e-002
5.592554e+002, 9.702160e-002
5.611838e+002, 1.007039e-001
5.631123e+002, 1.061545e-001
5.650408e+002, 1.126437e-001
5.669692e+002, 1.193392e-001
5.688977e+002, 1.258848e-001
5.708262e+002, 1.315524e-001
5.727546e+002, 1.366069e-001
5.746831e+002, 1.401876e-001
5.766116e+002, 1.423501e-001
5.785400e+002, 1.444045e-001
5.804685e+002, 1.460382e-001
5.823970e+002, 1.472380e-001
5.843254e+002, 1.475241e-001
5.862539e+002, 1.467895e-001
5.881824e+002, 1.455869e-001
5.901108e+002, 1.441564e-001
5.920393e+002, 1.425491e-001
5.939678e+002, 1.404170e-001
5.958962e+002, 1.382187e-001
5.978247e+002, 1.359095e-001
5.997532e+002, 1.329332e-001
6.016816e+002, 1.297178e-001
6.036101e+002, 1.263919e-001
6.055386e+002, 1.229900e-001
6.074670e+002, 1.197405e-001
6.093955e+002, 1.165784e-001
6.113240e+002, 1.130981e-001
6.132524e+002, 1.097253e-001
6.151809e+002, 1.067480e-001
6.171094e+002, 1.042461e-001
6.190378e+002, 1.024593e-001
6.209663e+002, 1.007009e-001
6.228948e+002, 9.916478e-002
6.248232e+002, 9.859847e-002
6.267517e+002, 9.812047e-002
6.286802e+002, 9.785182e-002
6.306086e+002, 9.804172e-002
6.325371e+002, 9.767546e-002
6.344656e+002, 9.666247e-002
6.363940e+002, 9.611432e-002
6.383225e+002, 9.541838e-002
6.402510e+002, 9.412806e-002
6.421794e+002, 9.221587e-002
6.441079e+002, 8.956664e-002
6.460364e+002, 8.604054e-002
6.479648e+002, 8.212668e-002
6.498933e+002, 7.766630e-002
6.518218e+002, 7.256424e-002
6.537502e+002, 6.695940e-002
6.556787e+002, 6.129906e-002
6.576072e+002, 5.599390e-002
6.595356e+002, 5.087845e-002
6.614641e+002, 4.650716e-002
6.633926e+002, 4.304648e-002
6.653210e+002, 3.978907e-002
6.672495e+002, 3.649559e-002
6.691780e+002, 3.330808e-002
6.711064e+002, 3.020074e-002
6.730349e+002, 2.739242e-002
6.749634e+002, 2.511742e-002
6.768918e+002, 2.330674e-002
6.788203e+002, 2.203101e-002
6.807488e+002, 2.096263e-002
6.826772e+002, 2.004560e-002
6.846057e+002, 1.936268e-002
6.865342e+002, 1.882640e-002
6.884626e+002, 1.861493e-002
6.903911e+002, 1.841011e-002
6.923196e+002, 1.792113e-002
6.942480e+002, 1.766292e-002
6.961765e+002, 1.761944e-002
6.981050e+002, 1.743647e-002
7.000334e+002, 1.736941e-002
7.019619e+002, 1.735941e-002
7.038904e+002, 1.733049e-002
7.058188e+002, 1.744997e-002
7.077473e+002, 1.740660e-002
7.096758e+002, 1.731281e-002
7.116042e+002, 1.745903e-002
7.135327e+002, 1.780077e-002
7.154612e+002, 1.773310e-002
7.173896e+002, 1.771667e-002
7.193181e+002, 1.807423e-002
7.212466e+002, 1.824212e-002
7.231750e+002, 1.842716e-002
7.251035e+002, 1.886160e-002
7.270320e+002, 1.920715e-002
7.289604e+002, 1.940701e-002
7.308889e+002, 1.976314e-002
7.328174e+002, 1.994713e-002
7.347458e+002, 1.994293e-002
7.366743e+002, 2.020850e-002
7.386028e+002, 2.084360e-002
7.405313e+002, 2.143787e-002
7.424597e+002, 2.198279e-002
7.443882e+002, 2.260089e-002
7.463167e+002, 2.319204e-002
7.482451e+002, 2.359454e-002
7.501736e+002, 2.405869e-002
7.521021e+002, 2.468309e-002
7.540305e+002, 2.509990e-002
7.559590e+002, 2.550111e-002
7.578875e+002, 2.613249e-002
7.598159e+002, 2.682525e-002
7.617444e+002, 2.766762e-002
7.636729e+002, 2.858818e-002
7.656013e+002, 2.949072e-002
7.675298e+002, 3.027003e-002
7.694583e+002, 3.121556e-002
7.713867e+002, 3.216659e-002
7.733152e+002, 3.329458e-002
7.752437e+002, 3.453087e-002
7.771721e+002, 3.574543e-002
7.791006e+002, 3.708976e-002
7.810291e+002, 3.809714e-002
7.829575e+002, 3.898329e-002
7.848860e+002, 4.006659e-002
7.868145e+002, 4.110119e-002
7.887429e+002, 4.241906e-002
7.906714e+002, 4.392058e-002
7.925999e+002, 4.538500e-002
7.945283e+002, 4.696133e-002
7.964568e+002, 4.865498e-002
7.983853e+002, 5.020033e-002
8.003137e+002, 5.168637e-002
8.022422e+002, 5.312226e-002
8.041707e+002, 5.502403e-002
8.060991e+002, 5.712607e-002
8.080276e+002, 5.887686e-002
8.099561e+002, 6.087666e-002
8.118845e+002, 6.320084e-002
8.138130e+002, 6.540222e-002
8.157415e+002, 6.769502e-002
8.176699e+002, 7.057929e-002
8.195984e+002, 7.389177e-002
8.215269e+002, 7.746045e-002
8.234553e+002, 8.089586e-002
8.253838e+002, 8.451810e-002
8.273123e+002, 8.861901e-002
8.292407e+002, 9.324370e-002
8.311692e+002, 9.833793e-002
8.330977e+002, 1.036025e-001
8.350261e+002, 1.093242e-001
8.369546e+002, 1.156285e-001
8.388831e+002, 1.223891e-001
8.408115e+002, 1.299263e-001
8.427400e+002, 1.377142e-001
8.446685e+002, 1.458249e-001
8.465969e+002, 1.543293e-001
8.485254e+002, 1.631276e-001
8.504539e+002, 1.717532e-001
8.523823e+002, 1.796272e-001
8.543108e+002, 1.860744e-001
8.562393e+002, 1.901585e-001
8.581677e+002, 1.910583e-001
8.600962e+002, 1.883178e-001
8.620247e+002, 1.827735e-001
8.639531e+002, 1.758383e-001
8.658816e+002, 1.686121e-001
8.678101e+002, 1.627402e-001
8.697385e+002, 1.594846e-001
8.716670e+002, 1.585556e-001
8.735955e+002, 1.590999e-001
8.755239e+002, 1.608372e-001
8.774524e+002, 1.635424e-001
8.793809e+002, 1.668876e-001
8.813093e+002, 1.709210e-001
8.832378e+002, 1.749371e-001
8.851663e+002, 1.785365e-001
8.870947e+002, 1.821452e-001
8.890232e+002, 1.856491e-001
8.909517e+002, 1.892033e-001
8.928801e+002, 1.926327e-001
8.948085e+002, 1.957250e-001
8.967370e+002, 1.985917e-001
8.986655e+002, 2.007031e-001
9.005939e+002, 2.026099e-001
9.025224e+002, 2.042783e-001
9.044509e+002, 2.054590e-001
9.063793e+002, 2.064998e-001
9.083078e+002, 2.071700e-001
9.102363e+002, 2.072773e-001
9.121647e+002, 2.072222e-001
9.140932e+002, 2.064473e-001
9.160217e+002, 2.053225e-001
9.179501e+002, 2.039595e-001
9.198786e+002, 2.021862e-001
9.218071e+002, 2.001119e-001
9.237355e+002, 1.979358e-001
9.256640e+002, 1.952731e-001
9.275925e+002, 1.918732e-001
9.295209e+002, 1.879081e-001
9.314494e+002, 1.838737e-001
9.333779e+002, 1.798179e-001
9.353063e+002, 1.757253e-001
9.372348e+002, 1.715463e-001
9.391633e+002, 1.670513e-001
9.410917e+002, 1.627852e-001
9.430202e+002, 1.587281e-001
9.449487e+002, 1.546604e-001
9.468771e+002, 1.507212e-001
9.488056e+002, 1.473466e-001
9.507341e+002, 1.441737e-001
9.526625e+002, 1.411201e-001
9.545910e+002, 1.384996e-001
9.565195e+002, 1.362982e-001
9.584479e+002, 1.343515e-001
9.603764e+002, 1.325370e-001
9.623049e+002, 1.312598e-001
9.642333e+002, 1.304322e-001
9.661618e+002, 1.300058e-001
9.680903e+002, 1.297971e-001
9.700187e+002, 1.300612e-001
9.719472e+002, 1.312640e-001
9.738757e+002, 1.328585e-001
9.758041e+002, 1.346530e-001
9.777326e+002, 1.369551e-001
9.796611e+002, 1.400437e-001
9.815895e+002, 1.435648e-001
9.835180e+002, 1.474690e-001
9.854465e+002, 1.519264e-001
9.873749e+002, 1.571397e-001
9.893034e+002, 1.627107e-001
9.912319e+002, 1.686254e-001
9.931603e+002, 1.752922e-001
9.950888e+002, 1.825390e-001
9.970173e+002, 1.902001e-001
9.989457e+002, 1.981195e-001
1.000874e+003, 2.061615e-001
1.002803e+003, 2.145424e-001
1.004731e+003, 2.231669e-001
1.006660e+003, 2.312890e-001
1.008588e+003, 2.387779e-001
1.010517e+003, 2.460934e-001
1.012445e+003, 2.524095e-001
1.014373e+003, 2.566370e-001
1.016302e+003, 2.590658e-001
1.018230e+003, 2.596633e-001
1.020159e+003, 2.592889e-001
1.022087e+003, 2.583189e-001
1.024016e+003, 2.563333e-001
1.025944e+003, 2.536651e-001
1.027873e+003, 2.507820e-001
1.029801e+003, 2.477043e-001
1.031730e+003, 2.446621e-001
1.033658e+003, 2.413719e-001
1.035587e+003, 2.378615e-001
1.037515e+003, 2.345464e-001
1.039444e+003, 2.312099e-001
1.041372e+003, 2.277907e-001
1.043301e+003, 2.244452e-001
1.045229e+003, 2.213716e-001
1.047157e+003, 2.187022e-001
1.049086e+003, 2.165503e-001
1.051014e+003, 2.147627e-001
1.052943e+003, 2.134466e-001
1.054871e+003, 2.130391e-001
1.056800e+003, 2.126272e-001
1.058728e+003, 2.124410e-001
1.060657e+003, 2.127800e-001
1.062585e+003, 2.132557e-001
1.064514e+003, 2.139191e-001
1.066442e+003, 2.149202e-001
1.068371e+003, 2.159684e-001
1.070299e+003, 2.163839e-001
1.072228e+003, 2.160400e-001
1.074156e+003, 2.148635e-001
1.076084e+003, 2.123984e-001
1.078013e+003, 2.091783e-001
1.079941e+003, 2.072432e-001
1.081870e+003, 2.078137e-001
1.083798e+003, 2.090345e-001
1.085727e+003, 2.085040e-001
1.087655e+003, 2.053762e-001
1.089584e+003, 2.000226e-001
1.091512e+003, 1.932301e-001
1.093441e+003, 1.855177e-001
1.095369e+003, 1.773705e-001
1.097298e+003, 1.694241e-001
1.099226e+003, 1.616918e-001
1.101155e+003, 1.546137e-001
1.103083e+003, 1.478573e-001
1.105011e+003, 1.412803e-001
1.106940e+003, 1.353631e-001
1.108868e+003, 1.296450e-001
1.110797e+003, 1.241302e-001
1.112725e+003, 1.189953e-001
1.114654e+003, 1.143817e-001
1.116582e+003, 1.101552e-001
1.118511e+003, 1.061302e-001
1.120439e+003, 1.023520e-001
1.122368e+003, 9.902167e-002
1.124296e+003, 9.620836e-002
1.126225e+003, 9.412560e-002
1.128153e+003, 9.246965e-002
1.130082e+003, 9.097997e-002
1.132010e+003, 8.969398e-002
1.133938e+003, 8.851944e-002
1.135867e+003, 8.753247e-002
1.137795e+003, 8.667047e-002
1.139724e+003, 8.582798e-002
1.141652e+003, 8.484613e-002
1.143581e+003, 8.373974e-002
1.145509e+003, 8.266742e-002
1.147438e+003, 8.137989e-002
1.149366e+003, 8.014316e-002
1.151295e+003, 7.890689e-002
1.153223e+003, 7.733923e-002
1.155152e+003, 7.566695e-002
1.157080e+003, 7.412810e-002
1.159009e+003, 7.241225e-002
1.160937e+003, 7.043123e-002
1.162865e+003, 6.839874e-002
1.164794e+003, 6.623013e-002
1.166722e+003, 6.373702e-002
1.168651e+003, 6.106686e-002
1.170579e+003, 5.854252e-002
1.172508e+003, 5.611677e-002
1.174436e+003, 5.338295e-002
1.176365e+003, 5.046719e-002
1.178293e+003, 4.741568e-002
1.180222e+003, 4.431222e-002
1.182150e+003, 4.141160e-002
1.184079e+003, 3.860042e-002
1.186007e+003, 3.591229e-002
1.187936e+003, 3.321537e-002
1.189864e+003, 3.049801e-002
1.191792e+003, 2.798915e-002
1.193721e+003, 2.549505e-002
1.195649e+003, 2.315552e-002
1.197578e+003, 2.117079e-002
1.199506e+003, 1.933120e-002
1.201435e+003, 1.744724e-002
1.203363e+003, 1.582662e-002
1.205292e+003, 1.433670e-002
1.207220e+003, 1.286185e-002
1.209149e+003, 1.171741e-002
1.211077e+003, 1.086511e-002
1.213006e+003, 1.001668e-002
1.214934e+003, 9.202273e-003
1.216863e+003, 8.538744e-003
1.218791e+003, 8.039596e-003
1.220719e+003, 7.425732e-003
1.222648e+003, 7.012557e-003
1.224576e+003, 6.662556e-003
1.226505e+003, 6.275599e-003
1.228433e+003, 5.904974e-003
1.230362e+003, 5.532232e-003
1.232290e+003, 5.328198e-003
1.234219e+003, 5.077220e-003
1.236147e+003, 4.737781e-003
1.238076e+003, 4.510862e-003
1.240004e+003, 4.233123e-003
1.241933e+003, 4.052944e-003
1.243861e+003, 3.867892e-003
1.245790e+003, 3.719591e-003
1.247718e+003, 3.743785e-003
1.249646e+003, 3.689794e-003
1.251575e+003, 3.582035e-003
1.253503e+003, 3.504033e-003
1.255432e+003, 3.234020e-003
1.257360e+003, 2.851846e-003
1.259289e+003, 2.667715e-003
1.261217e+003, 2.685520e-003
1.263146e+003, 2.875064e-003
1.265074e+003, 2.856515e-003
1.267003e+003, 2.672227e-003
1.268931e+003, 2.633401e-003
1.270860e+003, 2.556071e-003
1.272788e+003, 2.540803e-003
1.274717e+003, 2.362871e-003
1.276645e+003, 2.196418e-003
1.278573e+003, 2.233695e-003
1.280502e+003, 2.279647e-003
1.282430e+003, 2.225618e-003
1.284359e+003, 2.112088e-003
1.286287e+003, 2.178553e-003
1.288216e+003, 2.380154e-003
1.290144e+003, 2.361205e-003
1.292073e+003, 2.270916e-003
1.294001e+003, 2.176956e-003
1.295930e+003, 2.148976e-003
1.297858e+003, 2.250936e-003
1.299787e+003, 2.322023e-003
1.301715e+003, 2.229380e-003
1.303644e+003, 2.145228e-003
1.305572e+003, 2.138700e-003
1.307500e+003, 2.139419e-003
1.309429e+003, 2.082914e-003
1.311357e+003, 2.100315e-003
1.313286e+003, 2.067556e-003
1.315214e+003, 2.002412e-003
1.317143e+003, 2.095052e-003
1.319071e+003, 2.244280e-003
1.321000e+003, 2.231118e-003
1.322928e+003, 2.321858e-003
1.324857e+003, 2.351599e-003
1.326785e+003, 2.398151e-003
1.328714e+003, 2.276200e-003
1.330642e+003, 2.160773e-003
1.332571e+003, 2.204188e-003
1.334499e+003, 2.253165e-003
1.336427e+003, 2.198936e-003
1.338356e+003, 2.125407e-003
1.340284e+003, 2.020050e-003
1.342213e+003, 1.910714e-003
1.344141e+003, 1.955471e-003
1.346070e+003, 2.069790e-003
1.347998e+003, 2.018939e-003
1.349927e+003, 1.879772e-003
1.351855e+003, 1.837578e-003
1.353784e+003, 1.924811e-003
1.355712e+003, 2.021857e-003
1.357641e+003, 1.987763e-003
1.359569e+003, 2.006025e-003
1.361498e+003, 2.121215e-003
1.363426e+003, 2.147766e-003
1.365354e+003, 2.304123e-003
1.367283e+003, 2.313997e-003
1.369211e+003, 2.306466e-003
1.371140e+003, 2.377134e-003
1.373068e+003, 2.347470e-003
1.374997e+003, 2.259485e-003
1.376925e+003, 2.340541e-003
1.378854e+003, 2.306550e-003
1.380782e+003, 2.127139e-003
1.382711e+003, 2.306914e-003
1.384639e+003, 2.665759e-003
1.386568e+003, 2.628917e-003
1.388496e+003, 2.463765e-003
1.390424e+003, 2.403187e-003
1.392353e+003, 2.368493e-003
1.394281e+003, 2.536481e-003
1.396210e+003, 2.650043e-003
1.398138e+003, 2.659166e-003
1.400067e+003, 2.651796e-003
1.401995e+003, 2.786983e-003
1.403924e+003, 2.875295e-003
1.405852e+003, 2.791398e-003
1.407781e+003, 2.797697e-003
1.409709e+003, 2.838780e-003
1.411638e+003, 2.849932e-003
1.413566e+003, 2.776203e-003
1.415495e+003, 2.832151e-003
1.417423e+003, 2.960456e-003
1.419351e+003, 2.951192e-003
1.421280e+003, 2.986952e-003
1.423208e+003, 2.767671e-003
1.425137e+003, 2.624122e-003
1.427065e+003, 2.772967e-003
1.428994e+003, 3.007213e-003
1.430922e+003, 3.098605e-003
1.432851e+003, 3.076632e-003
1.434779e+003, 3.074831e-003
1.436708e+003, 3.094261e-003
1.438636e+003, 2.953383e-003
1.440565e+003, 2.910177e-003
1.442493e+003, 2.936518e-003
1.444422e+003, 3.055463e-003
1.446350e+003, 3.136256e-003
1.448278e+003, 2.944507e-003
1.450207e+003, 2.872902e-003
1.452135e+003, 2.832650e-003
1.454064e+003, 2.612464e-003
1.455992e+003, 2.633847e-003
1.457921e+003, 2.770172e-003
1.459849e+003, 2.865931e-003
1.461778e+003, 2.863084e-003
1.463706e+003, 2.618945e-003
1.465635e+003, 2.510543e-003
1.467563e+003, 2.535783e-003
1.469492e+003, 2.643621e-003
1.471420e+003, 2.669836e-003
1.473349e+003, 2.444649e-003
1.475277e+003, 2.321306e-003
1.477205e+003, 2.564404e-003
1.479134e+003, 2.514118e-003
1.481062e+003, 2.427769e-003
1.482991e+003, 2.591782e-003
1.484919e+003, 2.688844e-003
1.486848e+003, 2.587785e-003
1.488776e+003, 2.402633e-003
1.490705e+003, 2.332523e-003
1.492633e+003, 2.141143e-003
1.494562e+003, 2.207209e-003
1.496490e+003, 2.439007e-003
1.498419e+003, 2.556686e-003
1.500347e+003, 2.688833e-003
1.502276e+003, 2.709753e-003
1.504204e+003, 2.626912e-003
1.506132e+003, 2.501135e-003
1.508061e+003, 2.513800e-003
1.509989e+003, 2.388114e-003
1.511918e+003, 2.280814e-003
1.513846e+003, 2.395913e-003
1.515775e+003, 2.785673e-003
1.517703e+003, 2.900705e-003
1.519632e+003, 2.657779e-003
1.521560e+003, 2.579815e-003
1.523489e+003, 2.676735e-003
1.525417e+003, 2.782523e-003
1.527346e+003, 2.888812e-003
1.529274e+003, 2.968110e-003
1.531203e+003, 2.984030e-003
1.533131e+003, 3.006643e-003
1.535059e+003, 3.072184e-003
1.536988e+003, 3.040806e-003
1.538916e+003, 3.094818e-003
1.540845e+003, 3.246051e-003
1.542773e+003, 3.291575e-003
1.544702e+003, 3.602922e-003
1.546630e+003, 3.669314e-003
1.548559e+003, 3.520127e-003
1.550487e+003, 3.410735e-003
1.552416e+003, 3.650199e-003
1.554344e+003, 3.858038e-003
1.556273e+003, 4.004144e-003
1.558201e+003, 4.092166e-003
1.560130e+003, 4.123042e-003
1.562058e+003, 4.123523e-003
1.563986e+003, 4.185710e-003
1.565915e+003, 4.314320e-003
1.567843e+003, 4.495629e-003
1.569772e+003, 4.599574e-003
1.571700e+003, 4.601523e-003
1.573629e+003, 4.506771e-003
1.575557e+003, 4.478812e-003
1.577486e+003, 4.869772e-003
1.579414e+003, 5.198454e-003
1.581343e+003, 5.012749e-003
1.583271e+003, 4.741626e-003
1.585200e+003, 4.691442e-003
1.587128e+003, 4.796077e-003
1.589057e+003, 4.892660e-003
1.590985e+003, 4.865323e-003
1.592913e+003, 4.580949e-003
1.594842e+003, 4.405214e-003
1.596770e+003, 4.678651e-003
1.598699e+003, 4.920916e-003
1.600627e+003, 4.854979e-003
1.602556e+003, 4.649699e-003
1.604484e+003, 4.575887e-003
1.606413e+003, 4.634575e-003
1.608341e+003, 4.658736e-003
1.610270e+003, 4.781501e-003
1.612198e+003, 4.921265e-003
1.614127e+003, 4.936096e-003
1.616055e+003, 4.898758e-003
1.617984e+003, 4.855609e-003
1.619912e+003, 4.750229e-003
1.621840e+003, 4.703171e-003
1.623769e+003, 4.798818e-003
1.625697e+003, 4.918376e-003
1.627626e+003, 4.801460e-003
1.629554e+003, 4.774204e-003
1.631483e+003, 4.856222e-003
1.633411e+003, 4.521611e-003
1.635340e+003, 4.364269e-003
1.637268e+003, 4.703519e-003
1.639197e+003, 5.007503e-003
1.641125e+003, 5.070253e-003
1.643054e+003, 4.882780e-003
1.644982e+003, 4.755271e-003
1.646911e+003, 4.742970e-003
1.648839e+003, 4.744985e-003
1.650767e+003, 4.581983e-003
1.652696e+003, 4.311989e-003
1.654624e+003, 4.319506e-003
1.656553e+003, 4.317596e-003
1.658481e+003, 4.371782e-003
1.660410e+003, 4.285629e-003
1.662338e+003, 4.346396e-003
1.664267e+003, 4.362970e-003
1.666195e+003, 4.252958e-003
1.668124e+003, 4.294469e-003
1.670052e+003, 4.402967e-003
1.671981e+003, 4.163209e-003
1.673909e+003, 3.960586e-003
1.675838e+003, 4.130209e-003
1.677766e+003, 4.190858e-003
1.679694e+003, 4.130805e-003
1.681623e+003, 4.221860e-003
1.683551e+003, 4.353472e-003
1.685480e+003, 4.271497e-003
1.687408e+003, 3.957894e-003
1.689337e+003, 4.225472e-003
1.691265e+003, 4.402805e-003
1.693194e+003, 4.011102e-003
1.695122e+003, 3.729140e-003
1.697051e+003, 3.964312e-003
1.698979e+003, 4.179174e-003
1.700908e+003, 4.150664e-003
1.702836e+003, 3.905683e-003
1.704765e+003, 3.964705e-003
1.706693e+003, 4.037305e-003
1.708621e+003, 3.891150e-003
1.710550e+003, 3.884716e-003
1.712478e+003, 3.942386e-003
1.714407e+003, 4.056345e-003
1.716335e+003, 3.867709e-003
1.718264e+003, 3.740852e-003
1.720192e+003, 3.788056e-003
1.722121e+003, 3.742880e-003
1.724049e+003, 3.705922e-003
1.725978e+003, 3.721582e-003
1.727906e+003, 3.709010e-003
1.729835e+003, 3.629854e-003
1.731763e+003, 3.642443e-003
1.733692e+003, 3.693814e-003
1.735620e+003, 3.948749e-003
1.737548e+003, 3.908673e-003
1.739477e+003, 3.587791e-003
1.741405e+003, 3.272176e-003
1.743334e+003, 3.062382e-003
1.745262e+003, 3.213122e-003
1.747191e+003, 3.699031e-003
1.749119e+003, 3.749450e-003
1.751048e+003, 3.933035e-003
1.752976e+003, 4.041901e-003
1.754905e+003, 4.019242e-003
1.756833e+003, 4.142953e-003
1.758762e+003, 4.174887e-003
1.760690e+003, 4.145830e-003
1.762619e+003, 4.103901e-003
1.764547e+003, 4.068052e-003
1.766475e+003, 3.954950e-003
1.768404e+003, 3.798054e-003
1.770332e+003, 3.999712e-003
1.772261e+003, 4.365111e-003
1.774189e+003, 4.239846e-003
1.776118e+003, 4.096920e-003
1.778046e+003, 4.488185e-003
1.779975e+003, 4.521339e-003
1.781903e+003, 4.193816e-003
1.783832e+003, 4.356427e-003
1.785760e+003, 4.280784e-003
1.787689e+003, 3.812926e-003
1.789617e+003, 3.792950e-003
1.791546e+003, 3.975503e-003
1.793474e+003, 4.230077e-003
1.795402e+003, 4.106369e-003
1.797331e+003, 4.094137e-003
1.799259e+003, 4.446415e-003
1.801188e+003, 4.662888e-003
1.803116e+003, 4.342729e-003
1.805045e+003, 4.207185e-003
1.806973e+003, 4.260034e-003
1.808902e+003, 4.051229e-003
1.810830e+003, 3.730126e-003
1.812759e+003, 3.540682e-003
1.814687e+003, 3.481029e-003
1.816616e+003, 3.471785e-003
1.818544e+003, 3.840552e-003
1.820473e+003, 4.091975e-003
1.822401e+003, 3.831295e-003
1.824329e+003, 3.398499e-003
1.826258e+003, 3.547915e-003
1.828186e+003, 3.571561e-003
1.830115e+003, 3.280687e-003
1.832043e+003, 3.459669e-003
1.833972e+003, 3.697096e-003
1.835900e+003, 3.474331e-003
1.837829e+003, 3.906836e-003
1.839757e+003, 3.807172e-003
1.841686e+003, 3.213132e-003
1.843614e+003, 3.223294e-003
1.845543e+003, 3.543906e-003
1.847471e+003, 3.303867e-003
1.849400e+003, 3.541707e-003
1.851328e+003, 3.691316e-003
1.853256e+003, 3.507192e-003
1.855185e+003, 3.518769e-003
1.857113e+003, 3.702703e-003
1.859042e+003, 3.519902e-003
1.860970e+003, 3.086755e-003
1.862899e+003, 3.265236e-003
1.864827e+003, 3.369353e-003
1.866756e+003, 3.545957e-003
1.868684e+003, 3.822412e-003
1.870613e+003, 3.611917e-003
1.872541e+003, 3.333436e-003
1.874470e+003, 3.075824e-003
1.876398e+003, 3.111067e-003
1.878327e+003, 3.155620e-003
1.880255e+003, 3.423312e-003
1.882183e+003, 3.361462e-003
1.884112e+003, 3.001693e-003
1.886040e+003, 3.392378e-003
1.887969e+003, 3.517248e-003
1.889897e+003, 3.270027e-003
1.891826e+003, 2.854257e-003
1.893754e+003, 2.770809e-003
1.895683e+003, 2.827124e-003
1.897611e+003, 2.802523e-003
1.899540e+003, 2.848397e-003
1.901468e+003, 3.094946e-003
1.903397e+003, 2.751484e-003
1.905325e+003, 2.292961e-003
1.907254e+003, 2.320000e-003
1.909182e+003, 2.138536e-003
1.911110e+003, 2.019252e-003
1.913039e+003, 1.611308e-003
1.914967e+003, 1.927525e-003
1.916896e+003, 2.608148e-003
1.918824e+003, 2.521061e-003
1.920753e+003, 2.455619e-003
1.922681e+003, 2.755349e-003
1.924610e+003, 2.357320e-003
1.926538e+003, 1.614390e-003
1.928467e+003, 1.543976e-003
1.930395e+003, 6.562928e-004
1.932324e+003, 8.602605e-004
1.934252e+003, 1.724033e-003
1.936181e+003, 2.242272e-003
1.938109e+003, 1.826661e-003
1.940037e+003, 1.609639e-003
1.941966e+003, 1.316228e-003
1.943894e+003, 1.566082e-003
1.945823e+003, 9.765531e-004
1.947751e+003, 8.356319e-004
1.949680e+003, 6.673069e-004
1.951608e+003, -2.472857e-004
1.953537e+003, 6.939868e-005
1.955465e+003, 5.541843e-004
1.957394e+003, 1.443878e-003
1.959322e+003, 1.157069e-003
1.961251e+003, 8.687524e-004
1.963179e+003, 1.387986e-003
1.965108e+003, -2.453289e-004
1.967036e+003, -1.555051e-003
1.968964e+003, -1.726377e-003
1.970893e+003, -2.276983e-003
1.972821e+003, -3.428278e-003
1.974750e+003, -3.374937e-003
1.976678e+003, -1.909797e-003
1.978607e+003, 1.415698e-003
1.980535e+003, 2.106614e-003
1.982464e+003, 6.306023e-004
1.984392e+003, 1.222191e-004
1.986321e+003, -6.887643e-004
1.988249e+003, -6.437565e-004
1.990178e+003, -8.420154e-005
1.992106e+003, -1.481417e-003
1.994035e+003, -2.656744e-003
1.995963e+003, -1.863336e-003
1.997891e+003, -1.442527e-003
1.999820e+003, -1.154810e-003
2.001748e+003, -1.626034e-003
2.003677e+003, -2.931025e-003
2.005605e+003, -3.594588e-003
2.007534e+003, -3.616172e-003
2.009462e+003, -3.325007e-003
2.011391e+003, -3.113810e-003
2.013319e+003, -3.222427e-003
2.015248e+003, -4.034850e-003
2.017176e+003, -3.620540e-003
2.019105e+003, -3.101865e-003
2.021033e+003, -2.986866e-003
2.022962e+003, -3.196719e-003
2.024890e+003, -3.481975e-003
2.026818e+003, -2.688703e-003
2.028747e+003, -3.757601e-003
2.030675e+003, -3.895111e-003
2.032604e+003, -3.771948e-003
2.034532e+003, -2.762345e-003
2.036461e+003, -1.752965e-003
2.038389e+003, -2.208871e-003
2.040318e+003, -2.626378e-003
2.042246e+003, -1.397890e-003
2.044175e+003, -1.035586e-003
2.046103e+003, -1.827705e-003
2.048032e+003, -1.312580e-003
2.049960e+003, -2.147237e-004
2.051889e+003, -9.283427e-004
2.053817e+003, -1.401335e-003
2.055746e+003, -4.700389e-004
2.057674e+003, 1.631852e-005
2.059603e+003, -6.135904e-004
2.061531e+003, -1.956452e-003
2.063459e+003, -2.453569e-003
2.065388e+003, -1.937945e-003
2.067316e+003, -6.096744e-004
2.069245e+003, -2.913585e-004
2.071173e+003, 1.207827e-004
2.073102e+003, -4.238608e-004
2.075030e+003, -2.540774e-004
2.076959e+003, 1.347928e-003
2.078887e+003, 2.193477e-003
2.080816e+003, 1.640980e-003
2.082744e+003, 9.280658e-004
2.084673e+003, 4.259037e-004
2.086601e+003, 5.870003e-004
2.088530e+003, 1.077046e-003
2.090458e+003, 1.034913e-003
2.092386e+003, 1.023658e-003
2.094315e+003, 4.641644e-005
2.096243e+003, -3.123687e-004
2.098172e+003, 5.643417e-004
2.100100e+003, 7.789284e-004
2.102029e+003, 1.141438e-003
2.103957e+003, 1.051337e-003
2.105886e+003, 6.253692e-004
2.107814e+003, 1.306355e-003
2.109743e+003, 2.121089e-003
2.111671e+003, 1.241003e-003
2.113600e+003, 4.681235e-004
2.115528e+003, 1.170425e-003
2.117457e+003, 1.008674e-003
2.119385e+003, 2.527657e-004
2.121313e+003, -1.813954e-004
2.123242e+003, -8.456582e-004
2.125170e+003, -8.220085e-004
2.127099e+003, -1.454243e-003
2.129027e+003, -3.260179e-003
2.130956e+003, -4.723541e-003
2.132884e+003, -3.413598e-003
2.134813e+003, -2.140413e-003
2.136741e+003, -6.177554e-004
2.138670e+003, -7.951179e-004
2.140598e+003, -3.919817e-003
2.142527e+003, -4.877197e-003
2.144455e+003, -5.564698e-003
2.146384e+003, -5.266365e-003
2.148312e+003, -5.127819e-003
2.150240e+003, -6.011113e-003
2.152169e+003, -6.352704e-003
2.154097e+003, -6.775137e-003
2.156026e+003, -8.290277e-003
2.157954e+003, -8.038189e-003
2.159883e+003, -3.635825e-003
2.161811e+003, -2.764302e-003
2.163740e+003, -4.847471e-003
2.165668e+003, -3.261049e-003
2.167597e+003, -1.171120e-003
2.169525e+003, -2.265120e-003
2.171454e+003, -2.953350e-003
2.173382e+003, -2.529378e-003
2.175311e+003, -1.906017e-003
2.177239e+003, -2.895469e-003
2.179167e+003, -3.693982e-003
2.181096e+003, -2.864346e-003
2.183024e+003, -2.972948e-003
2.184953e+003, -3.554628e-003
2.186881e+003, -3.462032e-003
2.188810e+003, -1.815458e-003
2.190738e+003, -9.896781e-004
2.192667e+003, -1.931181e-003
2.194595e+003, -1.394552e-003
2.196524e+003, -8.078371e-006
2.198452e+003, 7.215784e-004
2.200381e+003, 4.602427e-004
2.202309e+003, 1.340412e-003
2.204238e+003, 2.458827e-003
2.206166e+003, 2.887999e-003
2.208094e+003, 2.516873e-003
2.210023e+003, 1.718775e-003
2.211951e+003, 1.384075e-003
2.213880e+003, 1.462954e-003
2.215808e+003, -1.756850e-004
2.217737e+003, -4.886406e-004
2.219665e+003, 5.213749e-004
2.221594e+003, 1.366703e-003
2.223522e+003, 2.802828e-003
2.225451e+003, 3.965891e-003
2.227379e+003, 4.457206e-003
2.229308e+003, 2.784106e-003
2.231236e+003, 1.473390e-003
2.233165e+003, 2.288415e-003
2.235093e+003, 2.817076e-003
2.237021e+003, 3.039530e-003
2.238950e+003, 3.801125e-003
2.240878e+003, 3.824683e-003
2.242807e+003, 3.781087e-003
2.244735e+003, 3.205155e-003
2.246664e+003, 3.059922e-003
2.248592e+003, 3.527773e-003
2.250521e+003, 4.113670e-003
2.252449e+003, 4.525439e-003
2.254378e+003, 4.787878e-003
2.256306e+003, 5.273508e-003
2.258235e+003, 5.447781e-003
2.260163e+003, 5.368353e-003
2.262092e+003, 5.269123e-003
2.264020e+003, 5.092080e-003
2.265948e+003, 4.234801e-003
2.267877e+003, 4.510850e-003
2.269805e+003, 5.837317e-003
2.271734e+003, 5.729768e-003
2.273662e+003, 5.603574e-003
2.275591e+003, 5.729515e-003
2.277519e+003, 5.266406e-003
2.279448e+003, 5.683304e-003
2.281376e+003, 6.457543e-003
2.283305e+003, 6.749999e-003
2.285233e+003, 6.384881e-003
2.287162e+003, 6.754037e-003
2.289090e+003, 6.936896e-003
2.291019e+003, 6.027311e-003
2.292947e+003, 5.591698e-003
2.294875e+003, 6.226690e-003
2.296804e+003, 6.798065e-003
2.298732e+003, 7.038082e-003
2.300661e+003, 6.834489e-003
2.302589e+003, 6.680875e-003
2.304518e+003, 6.390459e-003
2.306446e+003, 6.223726e-003
2.308375e+003, 7.261795e-003
2.310303e+003, 8.046270e-003
2.312232e+003, 7.989615e-003
2.314160e+003, 7.870225e-003
2.316089e+003, 7.607159e-003
2.318017e+003, 7.885604e-003
2.319946e+003, 8.302685e-003
2.321874e+003, 8.907117e-003
2.323802e+003, 9.132664e-003
2.325731e+003, 8.042221e-003
2.327659e+003, 7.195254e-003
2.329588e+003, 7.066312e-003
2.331516e+003, 7.538621e-003
2.333445e+003, 7.499282e-003
2.335373e+003, 7.152615e-003
2.337302e+003, 7.167767e-003
2.339230e+003, 7.385527e-003
2.341159e+003, 7.648436e-003
2.343087e+003, 7.844320e-003
2.345016e+003, 7.499103e-003
2.346944e+003, 7.497301e-003
2.348873e+003, 7.645908e-003
2.350801e+003, 7.461792e-003
2.352729e+003, 7.405496e-003
2.354658e+003, 7.533044e-003
2.356586e+003, 7.420257e-003
2.358515e+003, 7.293507e-003
2.360443e+003, 7.285950e-003
2.362372e+003, 7.411057e-003
2.364300e+003, 7.293292e-003
2.366229e+003, 7.076854e-003
2.368157e+003, 7.240886e-003
2.370086e+003, 6.915495e-003
2.372014e+003, 6.963943e-003
2.373942e+003, 7.195062e-003
2.375871e+003, 7.123743e-003
2.377799e+003, 6.939688e-003
2.379728e+003, 7.119559e-003
2.381656e+003, 7.325096e-003
2.383585e+003, 7.416624e-003
2.385513e+003, 7.290398e-003
2.387442e+003, 7.536561e-003
2.389370e+003, 7.476494e-003
2.391299e+003, 7.147324e-003
2.393227e+003, 7.161320e-003
2.395156e+003, 7.329732e-003
2.397084e+003, 7.374392e-003
2.399012e+003, 7.372176e-003
2.400941e+003, 7.501398e-003
2.402869e+003, 7.703313e-003
2.404798e+003, 7.793354e-003
2.406726e+003, 7.218892e-003
2.408655e+003, 7.449555e-003
2.410583e+003, 7.186470e-003
2.412512e+003, 6.622847e-003
2.414440e+003, 7.170261e-003
2.416369e+003, 7.924917e-003
2.418297e+003, 8.215552e-003
2.420226e+003, 7.420172e-003
2.422154e+003, 7.409355e-003
2.424083e+003, 8.159605e-003
2.426011e+003, 7.961164e-003
2.427939e+003, 7.613328e-003
2.429868e+003, 8.099165e-003
2.431796e+003, 8.313965e-003
2.433725e+003, 8.110966e-003
2.435653e+003, 8.122517e-003
2.437582e+003, 8.746798e-003
2.439510e+003, 9.152421e-003
2.441439e+003, 8.363487e-003
2.443367e+003, 7.663916e-003
2.445296e+003, 8.421944e-003
2.447224e+003, 8.892847e-003
2.449153e+003, 8.261508e-003
2.451081e+003, 8.220216e-003
2.453010e+003, 9.121913e-003
2.454938e+003, 9.311069e-003
2.456866e+003, 8.418477e-003
2.458795e+003, 7.554442e-003
2.460723e+003, 7.720090e-003
2.462652e+003, 8.517922e-003
2.464580e+003, 8.734021e-003
2.466509e+003, 8.035867e-003
2.468437e+003, 7.829400e-003
2.470366e+003, 8.000273e-003
2.472294e+003, 8.008418e-003
2.474223e+003, 8.235465e-003
2.476151e+003, 8.637398e-003
2.478080e+003, 8.693541e-003
2.480008e+003, 8.750512e-003
2.481937e+003, 8.969997e-003
2.483865e+003, 8.337148e-003
2.485793e+003, 8.008920e-003
2.487722e+003, 8.412980e-003
2.489650e+003, 8.551866e-003
2.491579e+003, 9.046556e-003
2.493507e+003, 9.566396e-003
2.495436e+003, 8.826962e-003
2.497364e+003, 8.118818e-003
2.499293e+003, 7.423548e-003
2.501221e+003, 7.614124e-003
2.503150e+003, 7.707447e-003
2.505078e+003, 7.907009e-003
2.507007e+003, 8.872502e-003
2.508935e+003, 8.689679e-003
2.510864e+003, 8.706171e-003
2.512792e+003, 8.634224e-003
2.514720e+003, 8.938954e-003
2.516649e+003, 8.651848e-003
2.518577e+003, 7.707391e-003
2.520506e+003, 7.235005e-003
2.522434e+003, 7.641005e-003
2.524363e+003, 8.844638e-003
2.526291e+003, 9.465974e-003
2.528220e+003, 9.636797e-003
2.530148e+003, 9.823798e-003
2.532077e+003, 8.928761e-003
2.534005e+003, 8.278730e-003
2.535934e+003, 8.080088e-003
2.537862e+003, 8.328781e-003
2.539791e+003, 8.090851e-003
2.541719e+003, 8.426386e-003
2.543647e+003, 9.011035e-003
2.545576e+003, 8.973564e-003
2.547504e+003, 8.569589e-003
2.549433e+003, 8.508656e-003
2.551361e+003, 9.023621e-003
2.553290e+003, 9.232606e-003
2.555218e+003, 8.777892e-003
2.557147e+003, 8.241495e-003
2.559075e+003, 8.101046e-003
2.561004e+003, 8.050140e-003
2.562932e+003, 8.652903e-003
2.564861e+003, 9.648401e-003
2.566789e+003, 9.631465e-003
2.568718e+003, 9.196743e-003
2.570646e+003, 9.028807e-003
2.572574e+003, 9.322374e-003
2.574503e+003, 1.004888e-002
2.576431e+003, 1.046772e-002
2.578360e+003, 1.000231e-002
2.580288e+003, 9.706185e-003
2.582217e+003, 9.798626e-003
2.584145e+003, 1.000428e-002
2.586074e+003, 9.347886e-003
2.588002e+003, 9.065830e-003
2.589931e+003, 9.766701e-003
2.591859e+003, 1.018718e-002
2.593788e+003, 9.401684e-003
2.595716e+003, 8.820900e-003
2.597645e+003, 9.161826e-003
2.599573e+003, 9.240533e-003
2.601501e+003, 9.600113e-003
2.603430e+003, 1.028515e-002
2.605358e+003, 9.882621e-003
2.607287e+003, 9.779091e-003
2.609215e+003, 9.771761e-003
2.611144e+003, 8.911702e-003
2.613072e+003, 9.152180e-003
2.615001e+003, 9.946123e-003
2.616929e+003, 9.723342e-003
2.618858e+003, 1.004921e-002
2.620786e+003, 1.060587e-002
2.622715e+003, 1.018562e-002
2.624643e+003, 9.590890e-003
2.626572e+003, 9.503947e-003
2.628500e+003, 9.900219e-003
2.630428e+003, 1.021699e-002
2.632357e+003, 1.073177e-002
2.634285e+003, 1.035431e-002
2.636214e+003, 9.439668e-003
2.638142e+003, 8.929417e-003
2.640071e+003, 9.260689e-003
2.641999e+003, 9.969613e-003
2.643928e+003, 1.012483e-002
2.645856e+003, 9.490287e-003
2.647785e+003, 9.605838e-003
2.649713e+003, 9.933281e-003
2.651642e+003, 1.020791e-002
2.653570e+003, 1.036127e-002
2.655499e+003, 1.018690e-002
2.657427e+003, 9.729973e-003
2.659355e+003, 9.484785e-003
2.661284e+003, 9.694477e-003
2.663212e+003, 9.793163e-003
2.665141e+003, 9.625536e-003
2.667069e+003, 9.130571e-003
2.668998e+003, 9.199836e-003
2.670926e+003, 9.580758e-003
2.672855e+003, 9.098963e-003
2.674783e+003, 9.115892e-003
2.676712e+003, 9.551256e-003
2.678640e+003, 9.709829e-003
2.680569e+003, 9.699355e-003
2.682497e+003, 9.751774e-003
2.684426e+003, 9.323135e-003
2.686354e+003, 9.197586e-003
2.688282e+003, 9.048523e-003
2.690211e+003, 9.084661e-003
2.692139e+003, 9.169388e-003
2.694068e+003, 9.423846e-003
2.695996e+003, 9.333791e-003
2.697925e+003, 9.740080e-003
2.699853e+003, 1.011748e-002
2.701782e+003, 9.408870e-003
2.703710e+003, 9.126642e-003
2.705639e+003, 9.493790e-003
2.707567e+003, 9.901008e-003
2.709496e+003, 1.021203e-002
2.711424e+003, 9.903245e-003
2.713353e+003, 9.595092e-003
2.715281e+003, 9.674841e-003
2.717209e+003, 9.767498e-003
2.719138e+003, 9.642531e-003
2.721066e+003, 9.628192e-003
2.722995e+003, 9.558611e-003
2.724923e+003, 9.406741e-003
2.726852e+003, 1.007213e-002
2.728780e+003, 1.049652e-002
2.730709e+003, 1.021149e-002
2.732637e+003, 9.855556e-003
2.734566e+003, 9.328980e-003
2.736494e+003, 9.664323e-003
2.738423e+003, 9.949163e-003
2.740351e+003, 9.435753e-003
2.742280e+003, 9.287349e-003
2.744208e+003, 9.558015e-003
2.746136e+003, 9.960403e-003
2.748065e+003, 1.064971e-002
2.749993e+003, 1.088576e-002
2.751922e+003, 1.039863e-002
2.753850e+003, 9.590316e-003
2.755779e+003, 9.189523e-003
2.757707e+003, 9.908949e-003
2.759636e+003, 1.060212e-002
2.761564e+003, 1.049183e-002
2.763493e+003, 1.052013e-002
2.765421e+003, 1.100528e-002
2.767350e+003, 1.097252e-002
2.769278e+003, 1.007016e-002
2.771207e+003, 9.882747e-003
2.773135e+003, 1.004453e-002
2.775063e+003, 9.808620e-003
2.776992e+003, 9.750410e-003
2.778920e+003, 9.867276e-003
2.780849e+003, 1.009589e-002
2.782777e+003, 1.025121e-002
2.784706e+003, 1.043476e-002
2.786634e+003, 1.046024e-002
2.788563e+003, 1.024662e-002
2.790491e+003, 9.725578e-003
2.792420e+003, 9.549784e-003
2.794348e+003, 9.815652e-003
2.796277e+003, 1.020713e-002
2.798205e+003, 9.906409e-003
2.800134e+003, 9.784720e-003
2.802062e+003, 9.881501e-003
2.803990e+003, 9.871913e-003
2.805919e+003, 9.767172e-003
2.807847e+003, 9.840848e-003
2.809776e+003, 9.796552e-003
2.811704e+003, 1.029990e-002
2.813633e+003, 1.074752e-002
2.815561e+003, 1.069870e-002
2.817490e+003, 1.053558e-002
2.819418e+003, 1.045225e-002
2.821347e+003, 1.021824e-002
2.823275e+003, 9.819109e-003
2.825204e+003, 1.007222e-002
2.827132e+003, 1.037249e-002
2.829061e+003, 1.095134e-002
2.830989e+003, 1.092947e-002
2.832917e+003, 1.061610e-002
2.834846e+003, 1.049334e-002
2.836774e+003, 1.076225e-002
2.838703e+003, 1.070790e-002
2.840631e+003, 1.062346e-002
2.842560e+003, 1.068102e-002
2.844488e+003, 1.056868e-002
2.846417e+003, 1.068677e-002
2.848345e+003, 1.012391e-002
2.850274e+003, 9.885219e-003
2.852202e+003, 9.653773e-003
2.854131e+003, 9.355350e-003
2.856059e+003, 9.382363e-003
2.857988e+003, 9.542997e-003
2.859916e+003, 9.993651e-003
2.861844e+003, 1.026167e-002
2.863773e+003, 1.040933e-002
2.865701e+003, 1.046240e-002
2.867630e+003, 9.945136e-003
2.869558e+003, 1.000971e-002
2.871487e+003, 1.049197e-002
2.873415e+003, 1.057804e-002
2.875344e+003, 1.009953e-002
2.877272e+003, 1.014504e-002
2.879201e+003, 1.037182e-002
2.881129e+003, 1.059604e-002
2.883058e+003, 1.076586e-002
2.884986e+003, 9.995699e-003
2.886915e+003, 9.592366e-003
2.888843e+003, 1.030493e-002
2.890771e+003, 1.046247e-002
2.892700e+003, 1.016784e-002
2.894628e+003, 1.049664e-002
2.896557e+003, 1.062046e-002
2.898485e+003, 1.030243e-002
2.900414e+003, 1.039601e-002
2.902342e+003, 1.018953e-002
2.904271e+003, 1.023927e-002
2.906199e+003, 1.087851e-002
2.908128e+003, 1.068135e-002
2.910056e+003, 1.061298e-002
2.911985e+003, 1.098552e-002
2.913913e+003, 1.069394e-002
2.915842e+003, 9.802214e-003
2.917770e+003, 9.552095e-003
2.919698e+003, 9.715351e-003
2.921627e+003, 9.605007e-003
2.923555e+003, 9.856655e-003
2.925484e+003, 1.032033e-002
2.927412e+003, 1.026122e-002
2.929341e+003, 1.026329e-002
2.931269e+003, 1.079790e-002
2.933198e+003, 1.052059e-002
2.935126e+003, 1.084879e-002
2.937055e+003, 1.129776e-002
2.938983e+003, 1.056236e-002
2.940912e+003, 9.939436e-003
2.942840e+003, 1.067022e-002
2.944769e+003, 1.174923e-002
2.946697e+003, 1.149701e-002
2.948625e+003, 1.077859e-002
2.950554e+003, 1.061538e-002
2.952482e+003, 1.032317e-002
2.954411e+003, 1.001634e-002
2.956339e+003, 1.043166e-002
2.958268e+003, 1.032977e-002
2.960196e+003, 1.034698e-002
2.962125e+003, 1.111787e-002
2.964053e+003, 1.106092e-002
2.965982e+003, 1.057715e-002
2.967910e+003, 1.052553e-002
2.969839e+003, 1.082845e-002
2.971767e+003, 1.100946e-002
2.973696e+003, 1.070014e-002
2.975624e+003, 1.071135e-002
2.977552e+003, 1.102125e-002
2.979481e+003, 1.137822e-002
2.981409e+003, 1.147528e-002
2.983338e+003, 1.160687e-002
2.985266e+003, 1.135711e-002
2.987195e+003, 1.080980e-002
2.989123e+003, 1.068256e-002
2.991052e+003, 1.091261e-002
2.992980e+003, 1.132593e-002
2.994909e+003, 1.098762e-002
2.996837e+003, 1.085130e-002
2.998766e+003, 1.151232e-002
3.000694e+003, 1.147769e-002
3.002623e+003, 1.150846e-002
3.004551e+003, 1.155502e-002
3.006479e+003, 1.142938e-002
3.008408e+003, 1.168793e-002
3.010336e+003, 1.161451e-002
3.012265e+003, 1.177995e-002
3.014193e+003, 1.184837e-002
3.016122e+003, 1.182953e-002
3.018050e+003, 1.206284e-002
3.019979e+003, 1.245750e-002
3.021907e+003, 1.287825e-002
3.023836e+003, 1.286866e-002
3.025764e+003, 1.256356e-002
3.027693e+003, 1.210351e-002
3.029621e+003, 1.142157e-002
3.031550e+003, 1.181585e-002
3.033478e+003, 1.179041e-002
3.035406e+003, 1.199753e-002
3.037335e+003, 1.275498e-002
3.039263e+003, 1.237756e-002
3.041192e+003, 1.166779e-002
3.043120e+003, 1.152810e-002
3.045049e+003, 1.234837e-002
3.046977e+003, 1.229331e-002
3.048906e+003, 1.212633e-002
3.050834e+003, 1.205596e-002
3.052763e+003, 1.140414e-002
3.054691e+003, 1.158399e-002
3.056620e+003, 1.199829e-002
3.058548e+003, 1.190074e-002
3.060477e+003, 1.175314e-002
3.062405e+003, 1.206156e-002
3.064333e+003, 1.231989e-002
3.066262e+003, 1.216379e-002
3.068190e+003, 1.218724e-002
3.070119e+003, 1.258271e-002
3.072047e+003, 1.251591e-002
3.073976e+003, 1.266227e-002
3.075904e+003, 1.260005e-002
3.077833e+003, 1.272150e-002
3.079761e+003, 1.350349e-002
3.081690e+003, 1.322534e-002
3.083618e+003, 1.224193e-002
3.085547e+003, 1.258991e-002
3.087475e+003, 1.297847e-002
3.089404e+003, 1.353709e-002
3.091332e+003, 1.443586e-002
3.093260e+003, 1.320968e-002
3.095189e+003, 1.235649e-002
3.097117e+003, 1.268871e-002
3.099046e+003, 1.290840e-002
3.100974e+003, 1.300576e-002
3.102903e+003, 1.328773e-002
3.104831e+003, 1.293209e-002
3.106760e+003, 1.261464e-002
3.108688e+003, 1.263152e-002
3.110617e+003, 1.289927e-002
3.112545e+003, 1.294819e-002
3.114474e+003, 1.303039e-002
3.116402e+003, 1.255333e-002
3.118331e+003, 1.247235e-002
3.120259e+003, 1.261739e-002
3.122188e+003, 1.245959e-002
3.124116e+003, 1.342541e-002
3.126044e+003, 1.425576e-002
3.127973e+003, 1.331743e-002
3.129901e+003, 1.282670e-002
3.131830e+003, 1.276778e-002
3.133758e+003, 1.301705e-002
3.135687e+003, 1.407653e-002
3.137615e+003, 1.411649e-002
3.139544e+003, 1.339149e-002
3.141472e+003, 1.423345e-002
3.143401e+003, 1.511117e-002
3.145329e+003, 1.483479e-002
3.147258e+003, 1.353161e-002
3.149186e+003, 1.267529e-002
3.151115e+003, 1.264016e-002
3.153043e+003, 1.229039e-002
3.154971e+003, 1.306433e-002
3.156900e+003, 1.439722e-002
3.158828e+003, 1.449645e-002
3.160757e+003, 1.348844e-002
3.162685e+003, 1.375660e-002
3.164614e+003, 1.441609e-002
3.166542e+003, 1.382044e-002
3.168471e+003, 1.317535e-002
3.170399e+003, 1.325676e-002
3.172328e+003, 1.330197e-002
3.174256e+003, 1.364165e-002
3.176185e+003, 1.376016e-002
3.178113e+003, 1.378564e-002
3.180042e+003, 1.406914e-002
3.181970e+003, 1.455376e-002
3.183898e+003, 1.430972e-002
3.185827e+003, 1.335570e-002
3.187755e+003, 1.326376e-002
3.189684e+003, 1.336867e-002
3.191612e+003, 1.384901e-002
3.193541e+003, 1.261697e-002
3.195469e+003, 1.234340e-002
3.197398e+003, 1.342315e-002
3.199326e+003, 1.388805e-002
3.201255e+003, 1.383000e-002
3.203183e+003, 1.403741e-002
3.205112e+003, 1.420152e-002
3.207040e+003, 1.402629e-002
3.208969e+003, 1.345187e-002
3.210897e+003, 1.317360e-002
3.212825e+003, 1.298938e-002
3.214754e+003, 1.328072e-002
3.216682e+003, 1.292386e-002
3.218611e+003, 1.262078e-002
3.220539e+003, 1.328447e-002
3.222468e+003, 1.315974e-002
3.224396e+003, 1.331581e-002
3.226325e+003, 1.420362e-002
3.228253e+003, 1.429478e-002
3.230182e+003, 1.317223e-002
3.232110e+003, 1.264293e-002
3.234039e+003, 1.385217e-002
3.235967e+003, 1.413116e-002
3.237896e+003, 1.382231e-002
3.239824e+003, 1.451261e-002
3.241752e+003, 1.566656e-002
3.243681e+003, 1.582728e-002
3.245609e+003, 1.576339e-002
3.247538e+003, 1.478039e-002
3.249466e+003, 1.392804e-002
3.251395e+003, 1.385068e-002
3.253323e+003, 1.471021e-002
3.255252e+003, 1.531392e-002
3.257180e+003, 1.508027e-002
3.259109e+003, 1.481418e-002
3.261037e+003, 1.458187e-002
3.262966e+003, 1.406561e-002
3.264894e+003, 1.455147e-002
3.266823e+003, 1.518618e-002
3.268751e+003, 1.522536e-002
3.270679e+003, 1.541762e-002
3.272608e+003, 1.494622e-002
3.274536e+003, 1.428032e-002
3.276465e+003, 1.346948e-002
3.278393e+003, 1.353959e-002
3.280322e+003, 1.412584e-002
3.282250e+003, 1.413327e-002
3.284179e+003, 1.421718e-002
3.286107e+003, 1.411787e-002
3.288036e+003, 1.427790e-002
3.289964e+003, 1.496270e-002
3.291893e+003, 1.542302e-002
3.293821e+003, 1.476212e-002
3.295750e+003, 1.445700e-002
3.297678e+003, 1.466614e-002
3.299606e+003, 1.396003e-002
3.301535e+003, 1.341751e-002
3.303463e+003, 1.455984e-002
3.305392e+003, 1.511932e-002
3.307320e+003, 1.396810e-002
3.309249e+003, 1.457592e-002
3.311177e+003, 1.473859e-002
3.313106e+003, 1.340338e-002
3.315034e+003, 1.354501e-002
3.316963e+003, 1.482042e-002
3.318891e+003, 1.516162e-002
3.320820e+003, 1.507792e-002
3.322748e+003, 1.488921e-002
3.324677e+003, 1.477776e-002
3.326605e+003, 1.550712e-002
3.328533e+003, 1.576328e-002
3.330462e+003, 1.509137e-002
3.332390e+003, 1.548108e-002
3.334319e+003, 1.647562e-002
3.336247e+003, 1.699486e-002
3.338176e+003, 1.657523e-002
3.340104e+003, 1.532195e-002
3.342033e+003, 1.570295e-002
3.343961e+003, 1.574427e-002
3.345890e+003, 1.474618e-002
3.347818e+003, 1.455859e-002
3.349747e+003, 1.548117e-002
3.351675e+003, 1.561942e-002
3.353604e+003, 1.514561e-002
3.355532e+003, 1.478834e-002
3.357460e+003, 1.601110e-002
3.359389e+003, 1.642668e-002
3.361317e+003, 1.533083e-002
3.363246e+003, 1.436736e-002
3.365174e+003, 1.451176e-002
3.367103e+003, 1.522027e-002
3.369031e+003, 1.505454e-002
3.370960e+003, 1.404626e-002
3.372888e+003, 1.332842e-002
3.374817e+003, 1.407545e-002
3.376745e+003, 1.504156e-002
3.378674e+003, 1.496787e-002
3.380602e+003, 1.542464e-002
3.382531e+003, 1.593884e-002
3.384459e+003, 1.562643e-002
3.386387e+003, 1.611886e-002
3.388316e+003, 1.601565e-002
3.390244e+003, 1.573892e-002
3.392173e+003, 1.659735e-002
3.394101e+003, 1.659130e-002
3.396030e+003, 1.702249e-002
3.397958e+003, 1.684725e-002
3.399887e+003, 1.570224e-002
3.401815e+003, 1.469433e-002
3.403744e+003, 1.630231e-002
3.405672e+003, 1.672207e-002
3.407601e+003, 1.505415e-002
3.409529e+003, 1.373901e-002
3.411458e+003, 1.432690e-002
3.413386e+003, 1.499665e-002
3.415314e+003, 1.462336e-002
3.417243e+003, 1.446404e-002
3.419171e+003, 1.601400e-002
3.421100e+003, 1.647946e-002
3.423028e+003, 1.549406e-002
3.424957e+003, 1.462570e-002
3.426885e+003, 1.359396e-002
3.428814e+003, 1.435579e-002
3.430742e+003, 1.560263e-002
3.432671e+003, 1.607858e-002
3.434599e+003, 1.639257e-002
3.436528e+003, 1.533645e-002
3.438456e+003, 1.463113e-002
3.440385e+003, 1.510396e-002
3.442313e+003, 1.609172e-002
3.444241e+003, 1.578701e-002
3.446170e+003, 1.530528e-002
3.448098e+003, 1.509613e-002
3.450027e+003, 1.508836e-002
3.451955e+003, 1.605899e-002
3.453884e+003, 1.659814e-002
3.455812e+003, 1.636156e-002
3.457741e+003, 1.738982e-002
3.459669e+003, 1.800003e-002
3.461598e+003, 1.759614e-002
3.463526e+003, 1.685621e-002
3.465455e+003, 1.536850e-002
3.467383e+003, 1.372196e-002
3.469312e+003, 1.432904e-002
3.471240e+003, 1.506837e-002
3.473168e+003, 1.558675e-002
3.475097e+003, 1.519365e-002
3.477025e+003, 1.594311e-002
3.478954e+003, 1.740384e-002
3.480882e+003, 1.663799e-002
3.482811e+003, 1.596148e-002
3.484739e+003, 1.633809e-002
3.486668e+003, 1.646878e-002
3.488596e+003, 1.588648e-002
3.490525e+003, 1.492468e-002
3.492453e+003, 1.546912e-002
3.494382e+003, 1.501220e-002
3.496310e+003, 1.310719e-002
3.498239e+003, 1.338207e-002
3.500167e+003, 1.443641e-002
3.502095e+003, 1.452423e-002
3.504024e+003, 1.450190e-002
3.505952e+003, 1.469364e-002
3.507881e+003, 1.368573e-002
3.509809e+003, 1.433487e-002
3.511738e+003, 1.517138e-002
3.513666e+003, 1.423914e-002
3.515595e+003, 1.572493e-002
3.517523e+003, 1.672924e-002
3.519452e+003, 1.619926e-002
3.521380e+003, 1.557583e-002
3.523309e+003, 1.499273e-002
3.525237e+003, 1.483959e-002
3.527166e+003, 1.544392e-002
3.529094e+003, 1.552292e-002
3.531022e+003, 1.525241e-002
3.532951e+003, 1.552250e-002
3.534879e+003, 1.488459e-002
3.536808e+003, 1.606914e-002
3.538736e+003, 1.739533e-002
3.540665e+003, 1.659765e-002
3.542593e+003, 1.573703e-002
3.544522e+003, 1.513463e-002
3.546450e+003, 1.334793e-002
3.548379e+003, 1.235605e-002
3.550307e+003, 1.350066e-002
3.552236e+003, 1.602306e-002
3.554164e+003, 1.594108e-002
3.556093e+003, 1.441074e-002
3.558021e+003, 1.420197e-002
3.559949e+003, 1.588142e-002
3.561878e+003, 1.617317e-002
3.563806e+003, 1.462563e-002
3.565735e+003, 1.393291e-002
3.567663e+003, 1.481588e-002
3.569592e+003, 1.535168e-002
3.571520e+003, 1.455891e-002
3.573449e+003, 1.441602e-002
3.575377e+003, 1.570443e-002
3.577306e+003, 1.590666e-002
3.579234e+003, 1.479081e-002
3.581163e+003, 1.345625e-002
3.583091e+003, 1.385633e-002
3.585020e+003, 1.484900e-002
3.586948e+003, 1.517106e-002
3.588876e+003, 1.681208e-002
3.590805e+003, 1.677828e-002
3.592733e+003, 1.546237e-002
3.594662e+003, 1.542032e-002
3.596590e+003, 1.555796e-002
3.598519e+003, 1.539348e-002
3.600447e+003, 1.465954e-002
3.602376e+003, 1.416327e-002
3.604304e+003, 1.605121e-002
3.606233e+003, 1.792736e-002
3.608161e+003, 1.690937e-002
3.610090e+003, 1.469932e-002
3.612018e+003, 1.464651e-002
3.613947e+003, 1.629801e-002
3.615875e+003, 1.650432e-002
3.617803e+003, 1.491687e-002
3.619732e+003, 1.542460e-002
3.621660e+003, 1.638242e-002
3.623589e+003, 1.616503e-002
3.625517e+003, 1.474064e-002
3.627446e+003, 1.246394e-002
3.629374e+003, 1.199636e-002
3.631303e+003, 1.320038e-002
3.633231e+003, 1.413195e-002
3.635160e+003, 1.444932e-002
3.637088e+003, 1.443475e-002
3.639017e+003, 1.314030e-002
3.640945e+003, 1.318297e-002
3.642874e+003, 1.517261e-002
3.644802e+003, 1.542337e-002
3.646730e+003, 1.361002e-002
3.648659e+003, 1.238852e-002
3.650587e+003, 1.429672e-002
3.652516e+003, 1.447164e-002
3.654444e+003, 1.300427e-002
3.656373e+003, 1.318224e-002
3.658301e+003, 1.365410e-002
3.660230e+003, 1.497078e-002
3.662158e+003, 1.502703e-002
3.664087e+003, 1.424065e-002
3.666015e+003, 1.276222e-002
3.667944e+003, 1.312531e-002
3.669872e+003, 1.398360e-002
3.671801e+003, 1.415522e-002
3.673729e+003, 1.495412e-002
3.675657e+003, 1.517784e-002
3.677586e+003, 1.446645e-002
3.679514e+003, 1.491796e-002
3.681443e+003, 1.484838e-002
3.683371e+003, 1.383999e-002
3.685300e+003, 1.334993e-002
3.687228e+003, 1.360499e-002
3.689157e+003, 1.424685e-002
3.691085e+003, 1.596035e-002
3.693014e+003, 1.714578e-002
3.694942e+003, 1.563280e-002
3.696871e+003, 1.521158e-002
3.698799e+003, 1.369997e-002
3.700728e+003, 1.288019e-002
3.702656e+003, 1.455982e-002
3.704584e+003, 1.506208e-002
3.706513e+003, 1.402564e-002
3.708441e+003, 1.344863e-002
3.710370e+003, 1.454858e-002
3.712298e+003, 1.521598e-002
3.714227e+003, 1.416027e-002
3.716155e+003, 1.194854e-002
3.718084e+003, 1.226681e-002
3.720012e+003, 1.159002e-002
3.721941e+003, 1.064702e-002
3.723869e+003, 1.317110e-002
3.725798e+003, 1.489659e-002
3.727726e+003, 1.356511e-002
3.729655e+003, 1.164207e-002
3.731583e+003, 1.422513e-002
3.733511e+003, 1.594625e-002
3.735440e+003, 1.549610e-002
3.737368e+003, 1.406875e-002
3.739297e+003, 1.370646e-002
3.741225e+003, 1.493194e-002
3.743154e+003, 1.560813e-002
3.745082e+003, 1.600564e-002
3.747011e+003, 1.613842e-002
3.748939e+003, 1.575164e-002
3.750868e+003, 1.547761e-002
3.752796e+003, 1.409380e-002
3.754725e+003, 1.276784e-002
3.756653e+003, 1.435009e-002
3.758582e+003, 1.565938e-002
3.760510e+003, 1.428648e-002
3.762438e+003, 1.297346e-002
3.764367e+003, 1.377155e-002
3.766295e+003, 1.395342e-002
3.768224e+003, 1.300480e-002
3.770152e+003, 1.395193e-002
3.772081e+003, 1.502629e-002
3.774009e+003, 1.458250e-002
3.775938e+003, 1.311108e-002
3.777866e+003, 1.246450e-002
3.779795e+003, 1.378609e-002
3.781723e+003, 1.503557e-002
3.783652e+003, 1.568331e-002
3.785580e+003, 1.598323e-002
3.787509e+003, 1.652966e-002
3.789437e+003, 1.597693e-002
3.791365e+003, 1.618131e-002
3.793294e+003, 1.618000e-002
3.795222e+003, 1.660195e-002
3.797151e+003, 1.655292e-002
3.799079e+003, 1.569593e-002
3.801008e+003, 1.580214e-002
3.802936e+003, 1.649529e-002
3.804865e+003, 1.676483e-002
3.806793e+003, 1.509711e-002
3.808722e+003, 1.472525e-002
3.810650e+003, 1.649253e-002
3.812579e+003, 1.683892e-002
3.814507e+003, 1.524237e-002
3.816436e+003, 1.510679e-002
3.818364e+003, 1.552704e-002
3.820292e+003, 1.617617e-002
3.822221e+003, 1.606700e-002
3.824149e+003, 1.441222e-002
3.826078e+003, 1.543983e-002
3.828006e+003, 1.428819e-002
3.829935e+003, 1.295497e-002
3.831863e+003, 1.367306e-002
3.833792e+003, 1.540793e-002
3.835720e+003, 1.486058e-002
3.837649e+003, 1.337419e-002
3.839577e+003, 1.419118e-002
3.841506e+003, 1.498095e-002
3.843434e+003, 1.513691e-002
3.845363e+003, 1.601492e-002
3.847291e+003, 1.528570e-002
3.849219e+003, 1.509717e-002
3.851148e+003, 1.558290e-002
3.853076e+003, 1.664426e-002
3.855005e+003, 1.796008e-002
3.856933e+003, 1.545216e-002
3.858862e+003, 1.605846e-002
3.860790e+003, 1.624925e-002
3.862719e+003, 1.539820e-002
3.864647e+003, 1.527111e-002
3.866576e+003, 1.606802e-002
3.868504e+003, 1.624272e-002
3.870433e+003, 1.617885e-002
3.872361e+003, 1.411392e-002
3.874290e+003, 1.314841e-002
3.876218e+003, 1.396510e-002
3.878146e+003, 1.380745e-002
3.880075e+003, 1.287335e-002
3.882003e+003, 1.488681e-002
3.883932e+003, 1.700688e-002
3.885860e+003, 1.745960e-002
3.887789e+003, 1.628594e-002
3.889717e+003, 1.594214e-002
3.891646e+003, 1.581141e-002
3.893574e+003, 1.505255e-002
3.895503e+003, 1.748543e-002
3.897431e+003, 1.915151e-002
3.899360e+003, 1.725887e-002
3.901288e+003, 1.538343e-002
3.903217e+003, 1.545000e-002
3.905145e+003, 1.571425e-002
3.907073e+003, 1.527247e-002
3.909002e+003, 1.386676e-002
3.910930e+003, 1.444386e-002
3.912859e+003, 1.487710e-002
3.914787e+003, 1.419586e-002
3.916716e+003, 1.567597e-002
3.918644e+003, 1.690834e-002
3.920573e+003, 1.512463e-002
3.922501e+003, 1.358882e-002
3.924430e+003, 1.359930e-002
3.926358e+003, 1.525561e-002
3.928287e+003, 1.502408e-002
3.930215e+003, 1.345837e-002
3.932144e+003, 1.582026e-002
3.934072e+003, 1.885592e-002
3.936000e+003, 1.729594e-002
3.937929e+003, 1.388198e-002
3.939857e+003, 1.433920e-002
3.941786e+003, 1.679473e-002
3.943714e+003, 1.788920e-002
3.945643e+003, 1.836509e-002
3.947571e+003, 1.714696e-002
3.949500e+003, 1.509608e-002
3.951428e+003, 1.582599e-002
3.953357e+003, 1.666409e-002
3.955285e+003, 1.704340e-002
3.957214e+003, 1.742375e-002
3.959142e+003, 1.655041e-002
3.961071e+003, 1.566647e-002
3.962999e+003, 1.753022e-002
3.964927e+003, 1.740474e-002
3.966856e+003, 1.533249e-002
3.968784e+003, 1.517074e-002
3.970713e+003, 1.665595e-002
3.972641e+003, 1.670448e-002
3.974570e+003, 1.622666e-002
3.976498e+003, 1.861206e-002
3.978427e+003, 1.949375e-002
3.980355e+003, 1.710818e-002
3.982284e+003, 1.721319e-002
3.984212e+003, 1.709403e-002
3.986141e+003, 1.594029e-002
3.988069e+003, 1.501148e-002
3.989998e+003, 1.493158e-002
3.991926e+003, 1.676332e-002
3.993854e+003, 1.799000e-002
3.995783e+003, 1.660511e-002
3.997711e+003, 1.559473e-002
3.999640e+003, 1.560122e-002
##END=



