##NAMES=Stibarsen
##RRUFFID=R070299
##IDEAL CHEMISTRY=SbAs
##LOCALITY=Varutrask, Skelleftea, Vasterbotten, Sweden
##OWNER=RRUFF
##SOURCE=James Shigley
##DESCRIPTION=Grey metallic platy fragment associated with arsenic
##STATUS=The identification of this mineral has been confirmed by X-ray diffraction and chemical analysis
##URL=rruff.info/R070299
##MEASURED CHEMISTRY=gray: (Sb_0.92_As_0.08_)_Σ=1_As_1.00_; black rings: (As_0.98_Sb_0.02_)_Σ=1_ (arsenic)
3.991926e+002, 2.253560e-001
4.011211e+002, 2.293184e-001
4.030495e+002, 2.292568e-001
4.049780e+002, 2.309805e-001
4.069065e+002, 2.356372e-001
4.088349e+002, 2.339051e-001
4.107634e+002, 2.338370e-001
4.126919e+002, 2.386349e-001
4.146203e+002, 2.393338e-001
4.165488e+002, 2.403335e-001
4.184773e+002, 2.430889e-001
4.204057e+002, 2.445608e-001
4.223342e+002, 2.465250e-001
4.242627e+002, 2.493488e-001
4.261911e+002, 2.526152e-001
4.281196e+002, 2.535184e-001
4.300481e+002, 2.530021e-001
4.319765e+002, 2.517390e-001
4.339050e+002, 2.535883e-001
4.358335e+002, 2.569441e-001
4.377619e+002, 2.593962e-001
4.396904e+002, 2.608195e-001
4.416189e+002, 2.613597e-001
4.435473e+002, 2.618691e-001
4.454758e+002, 2.634982e-001
4.474043e+002, 2.668529e-001
4.493327e+002, 2.677591e-001
4.512612e+002, 2.679716e-001
4.531897e+002, 2.706667e-001
4.551181e+002, 2.722549e-001
4.570466e+002, 2.721879e-001
4.589751e+002, 2.742052e-001
4.609035e+002, 2.755422e-001
4.628320e+002, 2.766004e-001
4.647605e+002, 2.794770e-001
4.666889e+002, 2.823795e-001
4.686174e+002, 2.828772e-001
4.705459e+002, 2.826585e-001
4.724743e+002, 2.837078e-001
4.744028e+002, 2.830161e-001
4.763313e+002, 2.796057e-001
4.782597e+002, 2.744610e-001
4.801882e+002, 2.697797e-001
4.821167e+002, 2.669893e-001
4.840451e+002, 2.649616e-001
4.859736e+002, 2.645718e-001
4.879021e+002, 2.651066e-001
4.898305e+002, 2.645255e-001
4.917590e+002, 2.619073e-001
4.936875e+002, 2.599953e-001
4.956159e+002, 2.577519e-001
4.975444e+002, 2.580893e-001
4.994729e+002, 2.577808e-001
5.014013e+002, 2.580904e-001
5.033298e+002, 2.599168e-001
5.052583e+002, 2.628054e-001
5.071867e+002, 2.666196e-001
5.091152e+002, 2.670912e-001
5.110437e+002, 2.689171e-001
5.129721e+002, 2.722704e-001
5.149006e+002, 2.734752e-001
5.168290e+002, 2.750198e-001
5.187575e+002, 2.776675e-001
5.206860e+002, 2.796218e-001
5.226144e+002, 2.805490e-001
5.245429e+002, 2.822745e-001
5.264714e+002, 2.840935e-001
5.283998e+002, 2.851940e-001
5.303283e+002, 2.866931e-001
5.322568e+002, 2.872975e-001
5.341852e+002, 2.883543e-001
5.361137e+002, 2.905597e-001
5.380422e+002, 2.921107e-001
5.399706e+002, 2.932490e-001
5.418991e+002, 2.961587e-001
5.438276e+002, 2.978175e-001
5.457560e+002, 2.976009e-001
5.476845e+002, 2.997563e-001
5.496130e+002, 3.008551e-001
5.515414e+002, 3.022676e-001
5.534699e+002, 3.047151e-001
5.553984e+002, 3.055588e-001
5.573268e+002, 3.061090e-001
5.592553e+002, 3.066946e-001
5.611838e+002, 3.076311e-001
5.631122e+002, 3.085235e-001
5.650407e+002, 3.095004e-001
5.669692e+002, 3.110577e-001
5.688976e+002, 3.122399e-001
5.708261e+002, 3.137811e-001
5.727546e+002, 3.145238e-001
5.746830e+002, 3.168028e-001
5.766115e+002, 3.177047e-001
5.785400e+002, 3.191567e-001
5.804684e+002, 3.199221e-001
5.823969e+002, 3.213026e-001
5.843254e+002, 3.216564e-001
5.862538e+002, 3.229988e-001
5.881823e+002, 3.242670e-001
5.901108e+002, 3.249297e-001
5.920392e+002, 3.261363e-001
5.939677e+002, 3.272563e-001
5.958962e+002, 3.286389e-001
5.978246e+002, 3.294429e-001
5.997531e+002, 3.299138e-001
6.016816e+002, 3.302672e-001
6.036100e+002, 3.319779e-001
6.055385e+002, 3.340441e-001
6.074670e+002, 3.346414e-001
6.093954e+002, 3.340220e-001
6.113239e+002, 3.356667e-001
6.132524e+002, 3.371405e-001
6.151808e+002, 3.380739e-001
6.171093e+002, 3.391464e-001
6.190378e+002, 3.398556e-001
6.209662e+002, 3.404246e-001
6.228947e+002, 3.417363e-001
6.248232e+002, 3.428243e-001
6.267516e+002, 3.440666e-001
6.286801e+002, 3.454340e-001
6.306086e+002, 3.462582e-001
6.325370e+002, 3.468309e-001
6.344655e+002, 3.478400e-001
6.363940e+002, 3.491746e-001
6.383224e+002, 3.503324e-001
6.402509e+002, 3.514563e-001
6.421794e+002, 3.519776e-001
6.441078e+002, 3.529701e-001
6.460363e+002, 3.539370e-001
6.479648e+002, 3.549784e-001
6.498932e+002, 3.560570e-001
6.518217e+002, 3.566504e-001
6.537502e+002, 3.569487e-001
6.556786e+002, 3.583824e-001
6.576071e+002, 3.596892e-001
6.595356e+002, 3.603404e-001
6.614641e+002, 3.618306e-001
6.633925e+002, 3.630629e-001
6.653210e+002, 3.644757e-001
6.672495e+002, 3.661670e-001
6.691779e+002, 3.667934e-001
6.711064e+002, 3.671981e-001
6.730349e+002, 3.680460e-001
6.749633e+002, 3.694990e-001
6.768918e+002, 3.708403e-001
6.788203e+002, 3.717007e-001
6.807487e+002, 3.727770e-001
6.826772e+002, 3.735925e-001
6.846057e+002, 3.746844e-001
6.865341e+002, 3.762479e-001
6.884626e+002, 3.773385e-001
6.903911e+002, 3.785400e-001
6.923195e+002, 3.804856e-001
6.942480e+002, 3.816627e-001
6.961765e+002, 3.827522e-001
6.981049e+002, 3.841752e-001
7.000334e+002, 3.860399e-001
7.019619e+002, 3.865522e-001
7.038903e+002, 3.883527e-001
7.058188e+002, 3.898202e-001
7.077473e+002, 3.902626e-001
7.096757e+002, 3.910248e-001
7.116042e+002, 3.927117e-001
7.135327e+002, 3.944213e-001
7.154611e+002, 3.955246e-001
7.173896e+002, 3.968135e-001
7.193181e+002, 3.980778e-001
7.212465e+002, 3.988298e-001
7.231750e+002, 4.002257e-001
7.251035e+002, 4.023398e-001
7.270319e+002, 4.034777e-001
7.289604e+002, 4.045844e-001
7.308889e+002, 4.052651e-001
7.328173e+002, 4.060895e-001
7.347458e+002, 4.074235e-001
7.366743e+002, 4.092580e-001
7.386027e+002, 4.114335e-001
7.405312e+002, 4.132330e-001
7.424597e+002, 4.145455e-001
7.443881e+002, 4.161929e-001
7.463166e+002, 4.182451e-001
7.482451e+002, 4.203843e-001
7.501735e+002, 4.228860e-001
7.521020e+002, 4.250861e-001
7.540305e+002, 4.268247e-001
7.559589e+002, 4.290116e-001
7.578874e+002, 4.310879e-001
7.598159e+002, 4.336381e-001
7.617443e+002, 4.362180e-001
7.636728e+002, 4.382003e-001
7.656013e+002, 4.398889e-001
7.675297e+002, 4.421844e-001
7.694582e+002, 4.442278e-001
7.713867e+002, 4.456660e-001
7.733151e+002, 4.468816e-001
7.752436e+002, 4.494797e-001
7.771721e+002, 4.520695e-001
7.791005e+002, 4.549318e-001
7.810290e+002, 4.574270e-001
7.829575e+002, 4.592964e-001
7.848859e+002, 4.603733e-001
7.868144e+002, 4.601389e-001
7.887429e+002, 4.573833e-001
7.906713e+002, 4.511597e-001
7.925998e+002, 4.366002e-001
7.945283e+002, 4.121182e-001
7.964567e+002, 3.845533e-001
7.983852e+002, 3.628508e-001
8.003137e+002, 3.496500e-001
8.022421e+002, 3.403613e-001
8.041706e+002, 3.320676e-001
8.060991e+002, 3.230655e-001
8.080275e+002, 3.142213e-001
8.099560e+002, 3.070976e-001
8.118845e+002, 3.006545e-001
8.138129e+002, 2.943656e-001
8.157414e+002, 2.886745e-001
8.176699e+002, 2.847876e-001
8.195983e+002, 2.829331e-001
8.215268e+002, 2.816300e-001
8.234553e+002, 2.796044e-001
8.253837e+002, 2.767699e-001
8.273122e+002, 2.742898e-001
8.292407e+002, 2.725275e-001
8.311691e+002, 2.716528e-001
8.330976e+002, 2.709345e-001
8.350261e+002, 2.717807e-001
8.369545e+002, 2.729439e-001
8.388830e+002, 2.728221e-001
8.408115e+002, 2.694404e-001
8.427399e+002, 2.628404e-001
8.446684e+002, 2.556264e-001
8.465969e+002, 2.482174e-001
8.485253e+002, 2.418288e-001
8.504538e+002, 2.381907e-001
8.523823e+002, 2.373070e-001
8.543107e+002, 2.378851e-001
8.562392e+002, 2.396207e-001
8.581677e+002, 2.442108e-001
8.600961e+002, 2.493909e-001
8.620246e+002, 2.546643e-001
8.639531e+002, 2.601629e-001
8.658815e+002, 2.662904e-001
8.678100e+002, 2.721655e-001
8.697385e+002, 2.768819e-001
8.716669e+002, 2.812335e-001
8.735954e+002, 2.853497e-001
8.755239e+002, 2.897368e-001
8.774523e+002, 2.935722e-001
8.793808e+002, 2.969241e-001
8.813093e+002, 3.003684e-001
8.832377e+002, 3.032266e-001
8.851662e+002, 3.059613e-001
8.870947e+002, 3.091804e-001
8.890231e+002, 3.121380e-001
8.909516e+002, 3.150265e-001
8.928801e+002, 3.176090e-001
8.948085e+002, 3.204298e-001
8.967370e+002, 3.227612e-001
8.986655e+002, 3.252606e-001
9.005939e+002, 3.277927e-001
9.025224e+002, 3.303577e-001
9.044509e+002, 3.329504e-001
9.063793e+002, 3.353992e-001
9.083078e+002, 3.377452e-001
9.102363e+002, 3.404998e-001
9.121647e+002, 3.429675e-001
9.140932e+002, 3.446684e-001
9.160217e+002, 3.457420e-001
9.179501e+002, 3.463460e-001
9.198786e+002, 3.470099e-001
9.218071e+002, 3.483694e-001
9.237355e+002, 3.500565e-001
9.256640e+002, 3.518813e-001
9.275925e+002, 3.535901e-001
9.295209e+002, 3.551089e-001
9.314494e+002, 3.564025e-001
9.333779e+002, 3.573658e-001
9.353063e+002, 3.581273e-001
9.372348e+002, 3.590614e-001
9.391633e+002, 3.603414e-001
9.410917e+002, 3.616962e-001
9.430202e+002, 3.632095e-001
9.449487e+002, 3.650958e-001
9.468771e+002, 3.668752e-001
9.488056e+002, 3.683375e-001
9.507341e+002, 3.698349e-001
9.526625e+002, 3.713988e-001
9.545910e+002, 3.729359e-001
9.565195e+002, 3.742695e-001
9.584479e+002, 3.753746e-001
9.603764e+002, 3.768291e-001
9.623049e+002, 3.782745e-001
9.642333e+002, 3.796559e-001
9.661618e+002, 3.809345e-001
9.680903e+002, 3.820659e-001
9.700187e+002, 3.829981e-001
9.719472e+002, 3.841593e-001
9.738757e+002, 3.855548e-001
9.758041e+002, 3.867011e-001
9.777326e+002, 3.879181e-001
9.796611e+002, 3.889985e-001
9.815895e+002, 3.899605e-001
9.835180e+002, 3.910808e-001
9.854465e+002, 3.919787e-001
9.873749e+002, 3.924889e-001
9.893034e+002, 3.931808e-001
9.912319e+002, 3.943166e-001
9.931603e+002, 3.955675e-001
9.950888e+002, 3.966185e-001
9.970173e+002, 3.978525e-001
9.989457e+002, 3.988923e-001
1.000874e+003, 3.997167e-001
1.002803e+003, 4.009806e-001
1.004731e+003, 4.022059e-001
1.006660e+003, 4.036034e-001
1.008588e+003, 4.050203e-001
1.010517e+003, 4.062374e-001
1.012445e+003, 4.074392e-001
1.014373e+003, 4.087782e-001
1.016302e+003, 4.102272e-001
1.018230e+003, 4.114899e-001
1.020159e+003, 4.129213e-001
1.022087e+003, 4.144903e-001
1.024016e+003, 4.158753e-001
1.025944e+003, 4.170246e-001
1.027873e+003, 4.185168e-001
1.029801e+003, 4.201308e-001
1.031730e+003, 4.212261e-001
1.033658e+003, 4.216893e-001
1.035587e+003, 4.214000e-001
1.037515e+003, 4.208151e-001
1.039443e+003, 4.202719e-001
1.041372e+003, 4.198484e-001
1.043300e+003, 4.196897e-001
1.045229e+003, 4.196081e-001
1.047157e+003, 4.191314e-001
1.049086e+003, 4.180108e-001
1.051014e+003, 4.168062e-001
1.052943e+003, 4.156303e-001
1.054871e+003, 4.143541e-001
1.056800e+003, 4.136432e-001
1.058728e+003, 4.133276e-001
1.060657e+003, 4.126580e-001
1.062585e+003, 4.114696e-001
1.064514e+003, 4.104979e-001
1.066442e+003, 4.100320e-001
1.068370e+003, 4.100947e-001
1.070299e+003, 4.106564e-001
1.072227e+003, 4.113306e-001
1.074156e+003, 4.119228e-001
1.076084e+003, 4.126745e-001
1.078013e+003, 4.135914e-001
1.079941e+003, 4.145991e-001
1.081870e+003, 4.153415e-001
1.083798e+003, 4.163437e-001
1.085727e+003, 4.174457e-001
1.087655e+003, 4.184390e-001
1.089584e+003, 4.192252e-001
1.091512e+003, 4.202658e-001
1.093441e+003, 4.212536e-001
1.095369e+003, 4.219815e-001
1.097297e+003, 4.228962e-001
1.099226e+003, 4.240711e-001
1.101154e+003, 4.250783e-001
1.103083e+003, 4.259527e-001
1.105011e+003, 4.270744e-001
1.106940e+003, 4.279017e-001
1.108868e+003, 4.285918e-001
1.110797e+003, 4.293534e-001
1.112725e+003, 4.301963e-001
1.114654e+003, 4.310547e-001
1.116582e+003, 4.317337e-001
1.118511e+003, 4.325494e-001
1.120439e+003, 4.336324e-001
1.122368e+003, 4.344674e-001
1.124296e+003, 4.350646e-001
1.126224e+003, 4.359094e-001
1.128153e+003, 4.367667e-001
1.130081e+003, 4.378647e-001
1.132010e+003, 4.391815e-001
1.133938e+003, 4.403923e-001
1.135867e+003, 4.414441e-001
1.137795e+003, 4.424285e-001
1.139724e+003, 4.434089e-001
1.141652e+003, 4.445861e-001
1.143581e+003, 4.458553e-001
1.145509e+003, 4.468815e-001
1.147438e+003, 4.474939e-001
1.149366e+003, 4.476243e-001
1.151295e+003, 4.476092e-001
1.153223e+003, 4.479113e-001
1.155151e+003, 4.482735e-001
1.157080e+003, 4.482601e-001
1.159008e+003, 4.482763e-001
1.160937e+003, 4.487715e-001
1.162865e+003, 4.490756e-001
1.164794e+003, 4.492635e-001
1.166722e+003, 4.496453e-001
1.168651e+003, 4.499652e-001
1.170579e+003, 4.502092e-001
1.172508e+003, 4.504625e-001
1.174436e+003, 4.507534e-001
1.176365e+003, 4.513364e-001
1.178293e+003, 4.520214e-001
1.180222e+003, 4.526199e-001
1.182150e+003, 4.533953e-001
1.184078e+003, 4.541887e-001
1.186007e+003, 4.548667e-001
1.187935e+003, 4.554041e-001
1.189864e+003, 4.563139e-001
1.191792e+003, 4.573339e-001
1.193721e+003, 4.580137e-001
1.195649e+003, 4.587587e-001
1.197578e+003, 4.594696e-001
1.199506e+003, 4.601232e-001
1.201435e+003, 4.607332e-001
1.203363e+003, 4.612101e-001
1.205292e+003, 4.615563e-001
1.207220e+003, 4.620863e-001
1.209149e+003, 4.626123e-001
1.211077e+003, 4.630145e-001
1.213005e+003, 4.633058e-001
1.214934e+003, 4.637752e-001
1.216862e+003, 4.644329e-001
1.218791e+003, 4.652266e-001
1.220719e+003, 4.659308e-001
1.222648e+003, 4.665413e-001
1.224576e+003, 4.669394e-001
1.226505e+003, 4.672594e-001
1.228433e+003, 4.678863e-001
1.230362e+003, 4.686320e-001
1.232290e+003, 4.692498e-001
1.234219e+003, 4.696306e-001
1.236147e+003, 4.699644e-001
1.238076e+003, 4.703743e-001
1.240004e+003, 4.707788e-001
1.241932e+003, 4.712989e-001
1.243861e+003, 4.718559e-001
1.245789e+003, 4.722877e-001
1.247718e+003, 4.728181e-001
1.249646e+003, 4.734278e-001
1.251575e+003, 4.739194e-001
1.253503e+003, 4.742493e-001
1.255432e+003, 4.743668e-001
1.257360e+003, 4.744472e-001
1.259289e+003, 4.745949e-001
1.261217e+003, 4.747165e-001
1.263146e+003, 4.747954e-001
1.265074e+003, 4.748599e-001
1.267003e+003, 4.748984e-001
1.268931e+003, 4.751921e-001
1.270859e+003, 4.757313e-001
1.272788e+003, 4.760443e-001
1.274716e+003, 4.761109e-001
1.276645e+003, 4.763524e-001
1.278573e+003, 4.768915e-001
1.280502e+003, 4.774651e-001
1.282430e+003, 4.777271e-001
1.284359e+003, 4.781002e-001
1.286287e+003, 4.787138e-001
1.288216e+003, 4.790998e-001
1.290144e+003, 4.795905e-001
1.292073e+003, 4.802416e-001
1.294001e+003, 4.806332e-001
1.295930e+003, 4.809442e-001
1.297858e+003, 4.815634e-001
1.299786e+003, 4.822055e-001
1.301715e+003, 4.826151e-001
1.303643e+003, 4.829484e-001
1.305572e+003, 4.832241e-001
1.307500e+003, 4.835562e-001
1.309429e+003, 4.842041e-001
1.311357e+003, 4.847248e-001
1.313286e+003, 4.851570e-001
1.315214e+003, 4.855370e-001
1.317143e+003, 4.857922e-001
1.319071e+003, 4.864869e-001
1.321000e+003, 4.871102e-001
1.322928e+003, 4.874044e-001
1.324857e+003, 4.876570e-001
1.326785e+003, 4.879528e-001
1.328714e+003, 4.884317e-001
1.330642e+003, 4.889640e-001
1.332570e+003, 4.893636e-001
1.334499e+003, 4.897792e-001
1.336427e+003, 4.902847e-001
1.338356e+003, 4.906165e-001
1.340284e+003, 4.909362e-001
1.342213e+003, 4.912187e-001
1.344141e+003, 4.916566e-001
1.346070e+003, 4.922371e-001
1.347998e+003, 4.925692e-001
1.349927e+003, 4.930594e-001
1.351855e+003, 4.934614e-001
1.353784e+003, 4.936001e-001
1.355712e+003, 4.938835e-001
1.357641e+003, 4.944513e-001
1.359569e+003, 4.946389e-001
1.361497e+003, 4.948495e-001
1.363426e+003, 4.952278e-001
1.365354e+003, 4.955360e-001
1.367283e+003, 4.958097e-001
1.369211e+003, 4.962154e-001
1.371140e+003, 4.966078e-001
1.373068e+003, 4.971655e-001
1.374997e+003, 4.975530e-001
1.376925e+003, 4.977022e-001
1.378854e+003, 4.979906e-001
1.380782e+003, 4.983149e-001
1.382711e+003, 4.985023e-001
1.384639e+003, 4.987896e-001
1.386568e+003, 4.994097e-001
1.388496e+003, 4.999997e-001
1.390424e+003, 5.004741e-001
1.392353e+003, 5.006609e-001
1.394281e+003, 5.011017e-001
1.396210e+003, 5.015072e-001
1.398138e+003, 5.018412e-001
1.400067e+003, 5.020576e-001
1.401995e+003, 5.024406e-001
1.403924e+003, 5.031400e-001
1.405852e+003, 5.036164e-001
1.407781e+003, 5.039010e-001
1.409709e+003, 5.040987e-001
1.411638e+003, 5.043349e-001
1.413566e+003, 5.046315e-001
1.415495e+003, 5.050573e-001
1.417423e+003, 5.057881e-001
1.419351e+003, 5.063843e-001
1.421280e+003, 5.064769e-001
1.423208e+003, 5.068191e-001
1.425137e+003, 5.073026e-001
1.427065e+003, 5.077097e-001
1.428994e+003, 5.083292e-001
1.430922e+003, 5.087442e-001
1.432851e+003, 5.092905e-001
1.434779e+003, 5.101975e-001
1.436708e+003, 5.107763e-001
1.438636e+003, 5.106454e-001
1.440565e+003, 5.106614e-001
1.442493e+003, 5.109851e-001
1.444422e+003, 5.114874e-001
1.446350e+003, 5.120240e-001
1.448278e+003, 5.125548e-001
1.450207e+003, 5.130107e-001
1.452135e+003, 5.135096e-001
1.454064e+003, 5.139536e-001
1.455992e+003, 5.148155e-001
1.457921e+003, 5.153663e-001
1.459849e+003, 5.152636e-001
1.461778e+003, 5.151098e-001
1.463706e+003, 5.153175e-001
1.465635e+003, 5.156137e-001
1.467563e+003, 5.158343e-001
1.469492e+003, 5.160006e-001
1.471420e+003, 5.164648e-001
1.473349e+003, 5.170891e-001
1.475277e+003, 5.175387e-001
1.477205e+003, 5.180045e-001
1.479134e+003, 5.183471e-001
1.481062e+003, 5.187995e-001
1.482991e+003, 5.193309e-001
1.484919e+003, 5.197877e-001
1.486848e+003, 5.202470e-001
1.488776e+003, 5.207574e-001
1.490705e+003, 5.209790e-001
1.492633e+003, 5.212107e-001
1.494562e+003, 5.217816e-001
1.496490e+003, 5.225430e-001
1.498419e+003, 5.229192e-001
1.500347e+003, 5.230585e-001
1.502276e+003, 5.233693e-001
1.504204e+003, 5.240741e-001
1.506132e+003, 5.247833e-001
1.508061e+003, 5.250316e-001
1.509989e+003, 5.251466e-001
1.511918e+003, 5.255134e-001
1.513846e+003, 5.258940e-001
1.515775e+003, 5.264068e-001
1.517703e+003, 5.268882e-001
1.519632e+003, 5.273118e-001
1.521560e+003, 5.276805e-001
1.523489e+003, 5.277419e-001
1.525417e+003, 5.278934e-001
1.527346e+003, 5.283052e-001
1.529274e+003, 5.286191e-001
1.531203e+003, 5.288913e-001
1.533131e+003, 5.293818e-001
1.535059e+003, 5.296282e-001
1.536988e+003, 5.300169e-001
1.538916e+003, 5.307240e-001
1.540845e+003, 5.310752e-001
1.542773e+003, 5.310732e-001
1.544702e+003, 5.309727e-001
1.546630e+003, 5.312759e-001
1.548559e+003, 5.318240e-001
1.550487e+003, 5.321181e-001
1.552416e+003, 5.325235e-001
1.554344e+003, 5.331475e-001
1.556273e+003, 5.336874e-001
1.558201e+003, 5.345759e-001
1.560130e+003, 5.347402e-001
1.562058e+003, 5.344679e-001
1.563986e+003, 5.346969e-001
1.565915e+003, 5.351715e-001
1.567843e+003, 5.355065e-001
1.569772e+003, 5.358828e-001
1.571700e+003, 5.362878e-001
1.573629e+003, 5.366624e-001
1.575557e+003, 5.372404e-001
1.577486e+003, 5.374024e-001
1.579414e+003, 5.374880e-001
1.581343e+003, 5.379465e-001
1.583271e+003, 5.383541e-001
1.585200e+003, 5.384882e-001
1.587128e+003, 5.387173e-001
1.589057e+003, 5.391604e-001
1.590985e+003, 5.394425e-001
1.592913e+003, 5.397694e-001
1.594842e+003, 5.403147e-001
1.596770e+003, 5.408484e-001
1.598699e+003, 5.412390e-001
1.600627e+003, 5.416694e-001
1.602556e+003, 5.419912e-001
1.604484e+003, 5.419632e-001
1.606413e+003, 5.420502e-001
1.608341e+003, 5.424899e-001
1.610270e+003, 5.431030e-001
1.612198e+003, 5.437374e-001
1.614127e+003, 5.439141e-001
1.616055e+003, 5.443587e-001
1.617984e+003, 5.444891e-001
1.619912e+003, 5.446851e-001
1.621840e+003, 5.454428e-001
1.623769e+003, 5.459154e-001
1.625697e+003, 5.461206e-001
1.627626e+003, 5.464492e-001
1.629554e+003, 5.467083e-001
1.631483e+003, 5.470752e-001
1.633411e+003, 5.475853e-001
1.635340e+003, 5.481097e-001
1.637268e+003, 5.483546e-001
1.639197e+003, 5.485408e-001
1.641125e+003, 5.488597e-001
1.643054e+003, 5.488966e-001
1.644982e+003, 5.494023e-001
1.646911e+003, 5.499847e-001
1.648839e+003, 5.497821e-001
1.650767e+003, 5.502880e-001
1.652696e+003, 5.513188e-001
1.654624e+003, 5.512168e-001
1.656553e+003, 5.510019e-001
1.658481e+003, 5.511568e-001
1.660410e+003, 5.513390e-001
1.662338e+003, 5.517975e-001
1.664267e+003, 5.525425e-001
1.666195e+003, 5.527887e-001
1.668124e+003, 5.530339e-001
1.670052e+003, 5.534136e-001
1.671981e+003, 5.536057e-001
1.673909e+003, 5.540323e-001
1.675838e+003, 5.545572e-001
1.677766e+003, 5.546086e-001
1.679694e+003, 5.547969e-001
1.681623e+003, 5.554359e-001
1.683551e+003, 5.564747e-001
1.685480e+003, 5.566436e-001
1.687408e+003, 5.563486e-001
1.689337e+003, 5.567394e-001
1.691265e+003, 5.571002e-001
1.693194e+003, 5.575624e-001
1.695122e+003, 5.583102e-001
1.697051e+003, 5.584700e-001
1.698979e+003, 5.589711e-001
1.700908e+003, 5.594134e-001
1.702836e+003, 5.590478e-001
1.704765e+003, 5.592768e-001
1.706693e+003, 5.596271e-001
1.708621e+003, 5.598853e-001
1.710550e+003, 5.601012e-001
1.712478e+003, 5.605721e-001
1.714407e+003, 5.613304e-001
1.716335e+003, 5.622835e-001
1.718264e+003, 5.624914e-001
1.720192e+003, 5.623338e-001
1.722121e+003, 5.628002e-001
1.724049e+003, 5.632342e-001
1.725978e+003, 5.634672e-001
1.727906e+003, 5.638270e-001
1.729835e+003, 5.641101e-001
1.731763e+003, 5.641716e-001
1.733692e+003, 5.641910e-001
1.735620e+003, 5.638068e-001
1.737548e+003, 5.635571e-001
1.739477e+003, 5.635647e-001
1.741405e+003, 5.634298e-001
1.743334e+003, 5.635805e-001
1.745262e+003, 5.636169e-001
1.747191e+003, 5.636678e-001
1.749119e+003, 5.638820e-001
1.751048e+003, 5.644190e-001
1.752976e+003, 5.645370e-001
1.754905e+003, 5.645469e-001
1.756833e+003, 5.650445e-001
1.758762e+003, 5.654903e-001
1.760690e+003, 5.660575e-001
1.762619e+003, 5.662314e-001
1.764547e+003, 5.661759e-001
1.766475e+003, 5.665496e-001
1.768404e+003, 5.669425e-001
1.770332e+003, 5.675884e-001
1.772261e+003, 5.681122e-001
1.774189e+003, 5.680727e-001
1.776118e+003, 5.678846e-001
1.778046e+003, 5.677643e-001
1.779975e+003, 5.679474e-001
1.781903e+003, 5.683802e-001
1.783832e+003, 5.687655e-001
1.785760e+003, 5.690473e-001
1.787689e+003, 5.694095e-001
1.789617e+003, 5.696075e-001
1.791546e+003, 5.700280e-001
1.793474e+003, 5.705156e-001
1.795402e+003, 5.706630e-001
1.797331e+003, 5.707166e-001
1.799259e+003, 5.706437e-001
1.801188e+003, 5.708028e-001
1.803116e+003, 5.706500e-001
1.805045e+003, 5.708318e-001
1.806973e+003, 5.713538e-001
1.808902e+003, 5.717672e-001
1.810830e+003, 5.718732e-001
1.812759e+003, 5.719370e-001
1.814687e+003, 5.715040e-001
1.816616e+003, 5.716313e-001
1.818544e+003, 5.718424e-001
1.820473e+003, 5.718792e-001
1.822401e+003, 5.724050e-001
1.824329e+003, 5.731986e-001
1.826258e+003, 5.735820e-001
1.828186e+003, 5.734814e-001
1.830115e+003, 5.733131e-001
1.832043e+003, 5.735587e-001
1.833972e+003, 5.735486e-001
1.835900e+003, 5.736267e-001
1.837829e+003, 5.737590e-001
1.839757e+003, 5.741584e-001
1.841686e+003, 5.746545e-001
1.843614e+003, 5.749022e-001
1.845543e+003, 5.748576e-001
1.847471e+003, 5.751395e-001
1.849400e+003, 5.752274e-001
1.851328e+003, 5.752063e-001
1.853256e+003, 5.750675e-001
1.855185e+003, 5.752432e-001
1.857113e+003, 5.749782e-001
1.859042e+003, 5.755420e-001
1.860970e+003, 5.764069e-001
1.862899e+003, 5.760289e-001
1.864827e+003, 5.759255e-001
1.866756e+003, 5.758418e-001
1.868684e+003, 5.758368e-001
1.870613e+003, 5.758588e-001
1.872541e+003, 5.763291e-001
1.874470e+003, 5.770350e-001
1.876398e+003, 5.777537e-001
1.878327e+003, 5.775043e-001
1.880255e+003, 5.779485e-001
1.882183e+003, 5.774098e-001
1.884112e+003, 5.761274e-001
1.886040e+003, 5.774121e-001
1.887969e+003, 5.788081e-001
1.889897e+003, 5.795072e-001
1.891826e+003, 5.800386e-001
1.893754e+003, 5.799471e-001
1.895683e+003, 5.796765e-001
1.897611e+003, 5.802431e-001
1.899540e+003, 5.805673e-001
1.901468e+003, 5.807486e-001
1.903397e+003, 5.811512e-001
1.905325e+003, 5.816579e-001
1.907254e+003, 5.816283e-001
1.909182e+003, 5.807892e-001
1.911110e+003, 5.810805e-001
1.913039e+003, 5.820715e-001
1.914967e+003, 5.825138e-001
1.916896e+003, 5.822254e-001
1.918824e+003, 5.819921e-001
1.920753e+003, 5.825400e-001
1.922681e+003, 5.828344e-001
1.924610e+003, 5.818717e-001
1.926538e+003, 5.822895e-001
1.928467e+003, 5.838193e-001
1.930395e+003, 5.836695e-001
1.932324e+003, 5.840729e-001
1.934252e+003, 5.853684e-001
1.936181e+003, 5.850670e-001
1.938109e+003, 5.846772e-001
1.940037e+003, 5.853603e-001
1.941966e+003, 5.851120e-001
1.943894e+003, 5.852248e-001
1.945823e+003, 5.847364e-001
1.947751e+003, 5.846505e-001
1.949680e+003, 5.855093e-001
1.951608e+003, 5.856336e-001
1.953537e+003, 5.856598e-001
1.955465e+003, 5.845549e-001
1.957394e+003, 5.852195e-001
1.959322e+003, 5.882265e-001
1.961251e+003, 5.898753e-001
1.963179e+003, 5.880057e-001
1.965108e+003, 5.875843e-001
1.967036e+003, 5.869535e-001
1.968964e+003, 5.845945e-001
1.970893e+003, 5.860800e-001
1.972821e+003, 5.881627e-001
1.974750e+003, 5.897509e-001
1.976678e+003, 5.904392e-001
1.978607e+003, 5.904634e-001
1.980535e+003, 5.904881e-001
1.982464e+003, 5.924897e-001
1.984392e+003, 5.946987e-001
1.986321e+003, 5.928316e-001
1.988249e+003, 5.906909e-001
1.990178e+003, 5.920774e-001
1.992106e+003, 5.953615e-001
1.994035e+003, 5.932986e-001
1.995963e+003, 5.924643e-001
1.997891e+003, 5.962118e-001
1.999820e+003, 5.994373e-001
2.001748e+003, 5.960875e-001
2.003677e+003, 5.917420e-001
2.005605e+003, 5.930094e-001
2.007534e+003, 5.967495e-001
2.009462e+003, 5.985937e-001
2.011391e+003, 5.971636e-001
2.013319e+003, 5.965462e-001
2.015248e+003, 5.969959e-001
2.017176e+003, 5.977694e-001
2.019105e+003, 5.970941e-001
2.021033e+003, 5.971816e-001
2.022962e+003, 5.965973e-001
2.024890e+003, 5.961722e-001
2.026818e+003, 5.963627e-001
2.028747e+003, 6.001240e-001
2.030675e+003, 6.025829e-001
2.032604e+003, 6.032708e-001
2.034532e+003, 6.025503e-001
2.036461e+003, 5.981531e-001
2.038389e+003, 5.972980e-001
2.040318e+003, 6.005146e-001
2.042246e+003, 6.019497e-001
2.044175e+003, 6.017513e-001
2.046103e+003, 6.012963e-001
2.048031e+003, 6.007742e-001
2.049960e+003, 6.021176e-001
2.051888e+003, 6.044508e-001
2.053817e+003, 6.044565e-001
2.055745e+003, 6.039168e-001
2.057674e+003, 6.056722e-001
2.059602e+003, 6.048601e-001
2.061531e+003, 6.029735e-001
2.063459e+003, 6.014541e-001
2.065388e+003, 6.015201e-001
2.067316e+003, 6.044739e-001
2.069245e+003, 6.067080e-001
2.071173e+003, 6.073837e-001
2.073102e+003, 6.068837e-001
2.075030e+003, 6.076318e-001
2.076958e+003, 6.077840e-001
2.078887e+003, 6.080465e-001
2.080815e+003, 6.088710e-001
2.082744e+003, 6.081272e-001
2.084672e+003, 6.093189e-001
2.086601e+003, 6.104884e-001
2.088529e+003, 6.104788e-001
2.090458e+003, 6.101773e-001
2.092386e+003, 6.107134e-001
2.094315e+003, 6.111310e-001
2.096243e+003, 6.115079e-001
2.098172e+003, 6.121486e-001
2.100100e+003, 6.127592e-001
2.102029e+003, 6.135799e-001
2.103957e+003, 6.139104e-001
2.105885e+003, 6.140748e-001
2.107814e+003, 6.141034e-001
2.109742e+003, 6.138629e-001
2.111671e+003, 6.141223e-001
2.113599e+003, 6.138607e-001
2.115528e+003, 6.146005e-001
2.117456e+003, 6.150110e-001
2.119385e+003, 6.151276e-001
2.121313e+003, 6.152462e-001
2.123242e+003, 6.171421e-001
2.125170e+003, 6.183527e-001
2.127099e+003, 6.177617e-001
2.129027e+003, 6.188983e-001
2.130956e+003, 6.199468e-001
2.132884e+003, 6.196479e-001
2.134813e+003, 6.194264e-001
2.136741e+003, 6.196760e-001
2.138669e+003, 6.190882e-001
2.140598e+003, 6.177824e-001
2.142526e+003, 6.177092e-001
2.144455e+003, 6.190057e-001
2.146383e+003, 6.195440e-001
2.148312e+003, 6.213301e-001
2.150240e+003, 6.199367e-001
2.152169e+003, 6.188571e-001
2.154097e+003, 6.221841e-001
2.156026e+003, 6.229836e-001
2.157954e+003, 6.217029e-001
2.159883e+003, 6.227489e-001
2.161811e+003, 6.220903e-001
2.163740e+003, 6.208410e-001
2.165668e+003, 6.224919e-001
2.167596e+003, 6.227614e-001
2.169525e+003, 6.219922e-001
2.171453e+003, 6.207535e-001
2.173382e+003, 6.223834e-001
2.175310e+003, 6.227869e-001
2.177239e+003, 6.239964e-001
2.179167e+003, 6.250301e-001
2.181096e+003, 6.246658e-001
2.183024e+003, 6.243511e-001
2.184953e+003, 6.248274e-001
2.186881e+003, 6.244900e-001
2.188810e+003, 6.249119e-001
2.190738e+003, 6.240546e-001
2.192667e+003, 6.225343e-001
2.194595e+003, 6.236774e-001
2.196523e+003, 6.261594e-001
2.198452e+003, 6.265990e-001
2.200380e+003, 6.275164e-001
2.202309e+003, 6.287033e-001
2.204237e+003, 6.288003e-001
2.206166e+003, 6.273512e-001
2.208094e+003, 6.266544e-001
2.210023e+003, 6.278485e-001
2.211951e+003, 6.271926e-001
2.213880e+003, 6.271989e-001
2.215808e+003, 6.289231e-001
2.217737e+003, 6.306232e-001
2.219665e+003, 6.319413e-001
2.221594e+003, 6.308055e-001
2.223522e+003, 6.288461e-001
2.225450e+003, 6.286944e-001
2.227379e+003, 6.303970e-001
2.229307e+003, 6.331019e-001
2.231236e+003, 6.325577e-001
2.233164e+003, 6.318640e-001
2.235093e+003, 6.339644e-001
2.237021e+003, 6.348181e-001
2.238950e+003, 6.359367e-001
2.240878e+003, 6.359130e-001
2.242807e+003, 6.349736e-001
2.244735e+003, 6.348333e-001
2.246664e+003, 6.356572e-001
2.248592e+003, 6.373482e-001
2.250521e+003, 6.375687e-001
2.252449e+003, 6.371248e-001
2.254377e+003, 6.361684e-001
2.256306e+003, 6.358177e-001
2.258234e+003, 6.359313e-001
2.260163e+003, 6.360650e-001
2.262091e+003, 6.370513e-001
2.264020e+003, 6.369938e-001
2.265948e+003, 6.366681e-001
2.267877e+003, 6.362492e-001
2.269805e+003, 6.381218e-001
2.271734e+003, 6.404136e-001
2.273662e+003, 6.422646e-001
2.275591e+003, 6.427769e-001
2.277519e+003, 6.419464e-001
2.279448e+003, 6.415571e-001
2.281376e+003, 6.410812e-001
2.283304e+003, 6.405628e-001
2.285233e+003, 6.410376e-001
2.287161e+003, 6.411623e-001
2.289090e+003, 6.414232e-001
2.291018e+003, 6.423283e-001
2.292947e+003, 6.421113e-001
2.294875e+003, 6.417367e-001
2.296804e+003, 6.425375e-001
2.298732e+003, 6.432206e-001
2.300661e+003, 6.449627e-001
2.302589e+003, 6.458043e-001
2.304518e+003, 6.456074e-001
2.306446e+003, 6.449907e-001
2.308375e+003, 6.452122e-001
2.310303e+003, 6.455035e-001
2.312231e+003, 6.458534e-001
2.314160e+003, 6.465834e-001
2.316088e+003, 6.473163e-001
2.318017e+003, 6.480027e-001
2.319945e+003, 6.487069e-001
2.321874e+003, 6.488882e-001
2.323802e+003, 6.492178e-001
2.325731e+003, 6.497310e-001
2.327659e+003, 6.503643e-001
2.329588e+003, 6.507095e-001
2.331516e+003, 6.507696e-001
2.333445e+003, 6.511596e-001
2.335373e+003, 6.514642e-001
2.337302e+003, 6.511579e-001
2.339230e+003, 6.511040e-001
2.341158e+003, 6.517574e-001
2.343087e+003, 6.528729e-001
2.345015e+003, 6.531392e-001
2.346944e+003, 6.537643e-001
2.348872e+003, 6.534420e-001
2.350801e+003, 6.534511e-001
2.352729e+003, 6.532786e-001
2.354658e+003, 6.531639e-001
2.356586e+003, 6.537727e-001
2.358515e+003, 6.536213e-001
2.360443e+003, 6.537745e-001
2.362372e+003, 6.546822e-001
2.364300e+003, 6.557003e-001
2.366229e+003, 6.558669e-001
2.368157e+003, 6.556631e-001
2.370085e+003, 6.557522e-001
2.372014e+003, 6.561610e-001
2.373942e+003, 6.561943e-001
2.375871e+003, 6.564497e-001
2.377799e+003, 6.564582e-001
2.379728e+003, 6.563731e-001
2.381656e+003, 6.565601e-001
2.383585e+003, 6.569068e-001
2.385513e+003, 6.577313e-001
2.387442e+003, 6.579614e-001
2.389370e+003, 6.580867e-001
2.391299e+003, 6.580631e-001
2.393227e+003, 6.584623e-001
2.395156e+003, 6.583798e-001
2.397084e+003, 6.574908e-001
2.399012e+003, 6.571534e-001
2.400941e+003, 6.574938e-001
2.402869e+003, 6.574137e-001
2.404798e+003, 6.575292e-001
2.406726e+003, 6.585329e-001
2.408655e+003, 6.589588e-001
2.410583e+003, 6.594672e-001
2.412512e+003, 6.600533e-001
2.414440e+003, 6.600065e-001
2.416369e+003, 6.603279e-001
2.418297e+003, 6.606783e-001
2.420226e+003, 6.597757e-001
2.422154e+003, 6.594879e-001
2.424083e+003, 6.606504e-001
2.426011e+003, 6.610359e-001
2.427939e+003, 6.611773e-001
2.429868e+003, 6.613759e-001
2.431796e+003, 6.619921e-001
2.433725e+003, 6.612343e-001
2.435653e+003, 6.612479e-001
2.437582e+003, 6.611719e-001
2.439510e+003, 6.615553e-001
2.441439e+003, 6.623828e-001
2.443367e+003, 6.634573e-001
2.445296e+003, 6.634735e-001
2.447224e+003, 6.629618e-001
2.449153e+003, 6.630623e-001
2.451081e+003, 6.631669e-001
2.453010e+003, 6.638479e-001
2.454938e+003, 6.649104e-001
2.456866e+003, 6.655154e-001
2.458795e+003, 6.651242e-001
2.460723e+003, 6.645860e-001
2.462652e+003, 6.648118e-001
2.464580e+003, 6.660950e-001
2.466509e+003, 6.666422e-001
2.468437e+003, 6.663563e-001
2.470366e+003, 6.663074e-001
2.472294e+003, 6.661580e-001
2.474223e+003, 6.661550e-001
2.476151e+003, 6.666490e-001
2.478080e+003, 6.671116e-001
2.480008e+003, 6.675322e-001
2.481937e+003, 6.680354e-001
2.483865e+003, 6.679427e-001
2.485793e+003, 6.685549e-001
2.487722e+003, 6.686420e-001
2.489650e+003, 6.687919e-001
2.491579e+003, 6.692913e-001
2.493507e+003, 6.694787e-001
2.495436e+003, 6.701254e-001
2.497364e+003, 6.704299e-001
2.499293e+003, 6.702044e-001
2.501221e+003, 6.701609e-001
2.503150e+003, 6.702286e-001
2.505078e+003, 6.706216e-001
2.507007e+003, 6.712648e-001
2.508935e+003, 6.714577e-001
2.510864e+003, 6.717001e-001
2.512792e+003, 6.723052e-001
2.514720e+003, 6.731677e-001
2.516649e+003, 6.734403e-001
2.518577e+003, 6.732244e-001
2.520506e+003, 6.736801e-001
2.522434e+003, 6.741125e-001
2.524363e+003, 6.740589e-001
2.526291e+003, 6.740121e-001
2.528220e+003, 6.740026e-001
2.530148e+003, 6.743684e-001
2.532077e+003, 6.753089e-001
2.534005e+003, 6.757875e-001
2.535934e+003, 6.755149e-001
2.537862e+003, 6.752797e-001
2.539791e+003, 6.759744e-001
2.541719e+003, 6.760170e-001
2.543647e+003, 6.760843e-001
2.545576e+003, 6.769655e-001
2.547504e+003, 6.775772e-001
2.549433e+003, 6.777343e-001
2.551361e+003, 6.778465e-001
2.553290e+003, 6.785496e-001
2.555218e+003, 6.792186e-001
2.557147e+003, 6.791973e-001
2.559075e+003, 6.788067e-001
2.561004e+003, 6.792546e-001
2.562932e+003, 6.797009e-001
2.564861e+003, 6.798319e-001
2.566789e+003, 6.802523e-001
2.568718e+003, 6.801034e-001
2.570646e+003, 6.803077e-001
2.572574e+003, 6.810564e-001
2.574503e+003, 6.811820e-001
2.576431e+003, 6.819406e-001
2.578360e+003, 6.831726e-001
2.580288e+003, 6.839929e-001
2.582217e+003, 6.833659e-001
2.584145e+003, 6.833224e-001
2.586074e+003, 6.845056e-001
2.588002e+003, 6.851352e-001
2.589931e+003, 6.849682e-001
2.591859e+003, 6.852551e-001
2.593788e+003, 6.852535e-001
2.595716e+003, 6.855975e-001
2.597645e+003, 6.860005e-001
2.599573e+003, 6.866270e-001
2.601501e+003, 6.875232e-001
2.603430e+003, 6.878063e-001
2.605358e+003, 6.881299e-001
2.607287e+003, 6.885172e-001
2.609215e+003, 6.885787e-001
2.611144e+003, 6.892033e-001
2.613072e+003, 6.896068e-001
2.615001e+003, 6.900526e-001
2.616929e+003, 6.907321e-001
2.618858e+003, 6.910732e-001
2.620786e+003, 6.914333e-001
2.622715e+003, 6.920717e-001
2.624643e+003, 6.926016e-001
2.626572e+003, 6.931531e-001
2.628500e+003, 6.932437e-001
2.630428e+003, 6.939668e-001
2.632357e+003, 6.942695e-001
2.634285e+003, 6.944388e-001
2.636214e+003, 6.947750e-001
2.638142e+003, 6.954901e-001
2.640071e+003, 6.965624e-001
2.641999e+003, 6.972076e-001
2.643928e+003, 6.968726e-001
2.645856e+003, 6.970897e-001
2.647785e+003, 6.979789e-001
2.649713e+003, 6.987526e-001
2.651642e+003, 6.991037e-001
2.653570e+003, 6.993289e-001
2.655499e+003, 6.998513e-001
2.657427e+003, 7.005042e-001
2.659355e+003, 7.009690e-001
2.661284e+003, 7.014932e-001
2.663212e+003, 7.017662e-001
2.665141e+003, 7.016791e-001
2.667069e+003, 7.020729e-001
2.668998e+003, 7.026606e-001
2.670926e+003, 7.028951e-001
2.672855e+003, 7.030219e-001
2.674783e+003, 7.033068e-001
2.676712e+003, 7.035933e-001
2.678640e+003, 7.034746e-001
2.680569e+003, 7.038175e-001
2.682497e+003, 7.043832e-001
2.684426e+003, 7.046970e-001
2.686354e+003, 7.048596e-001
2.688282e+003, 7.049109e-001
2.690211e+003, 7.051107e-001
2.692139e+003, 7.057542e-001
2.694068e+003, 7.062281e-001
2.695996e+003, 7.063823e-001
2.697925e+003, 7.065668e-001
2.699853e+003, 7.064562e-001
2.701782e+003, 7.068801e-001
2.703710e+003, 7.076402e-001
2.705639e+003, 7.077457e-001
2.707567e+003, 7.075325e-001
2.709496e+003, 7.076462e-001
2.711424e+003, 7.080676e-001
2.713353e+003, 7.084180e-001
2.715281e+003, 7.087598e-001
2.717209e+003, 7.092057e-001
2.719138e+003, 7.092475e-001
2.721066e+003, 7.092510e-001
2.722995e+003, 7.094522e-001
2.724923e+003, 7.097384e-001
2.726852e+003, 7.099419e-001
2.728780e+003, 7.103022e-001
2.730709e+003, 7.106776e-001
2.732637e+003, 7.111663e-001
2.734566e+003, 7.113667e-001
2.736494e+003, 7.112935e-001
2.738423e+003, 7.114820e-001
2.740351e+003, 7.118626e-001
2.742280e+003, 7.120626e-001
2.744208e+003, 7.124161e-001
2.746136e+003, 7.128525e-001
2.748065e+003, 7.131991e-001
2.749993e+003, 7.132877e-001
2.751922e+003, 7.130029e-001
2.753850e+003, 7.131202e-001
2.755779e+003, 7.133654e-001
2.757707e+003, 7.136458e-001
2.759636e+003, 7.139986e-001
2.761564e+003, 7.144763e-001
2.763493e+003, 7.147299e-001
2.765421e+003, 7.146704e-001
2.767350e+003, 7.146752e-001
2.769278e+003, 7.152052e-001
2.771207e+003, 7.158749e-001
2.773135e+003, 7.164655e-001
2.775063e+003, 7.163974e-001
2.776992e+003, 7.162868e-001
2.778920e+003, 7.163652e-001
2.780849e+003, 7.162681e-001
2.782777e+003, 7.166332e-001
2.784706e+003, 7.171407e-001
2.786634e+003, 7.173802e-001
2.788563e+003, 7.173995e-001
2.790491e+003, 7.178329e-001
2.792420e+003, 7.184855e-001
2.794348e+003, 7.189289e-001
2.796277e+003, 7.190382e-001
2.798205e+003, 7.189087e-001
2.800134e+003, 7.189678e-001
2.802062e+003, 7.192924e-001
2.803990e+003, 7.199623e-001
2.805919e+003, 7.202066e-001
2.807847e+003, 7.201908e-001
2.809776e+003, 7.204936e-001
2.811704e+003, 7.207727e-001
2.813633e+003, 7.212241e-001
2.815561e+003, 7.215120e-001
2.817490e+003, 7.217833e-001
2.819418e+003, 7.221259e-001
2.821347e+003, 7.226381e-001
2.823275e+003, 7.229462e-001
2.825204e+003, 7.231374e-001
2.827132e+003, 7.235013e-001
2.829061e+003, 7.242352e-001
2.830989e+003, 7.247809e-001
2.832917e+003, 7.250684e-001
2.834846e+003, 7.257787e-001
2.836774e+003, 7.259906e-001
2.838703e+003, 7.264192e-001
2.840631e+003, 7.271115e-001
2.842560e+003, 7.277104e-001
2.844488e+003, 7.279065e-001
2.846417e+003, 7.277837e-001
2.848345e+003, 7.275450e-001
2.850274e+003, 7.275702e-001
2.852202e+003, 7.276025e-001
2.854131e+003, 7.274473e-001
2.856059e+003, 7.270909e-001
2.857988e+003, 7.270406e-001
2.859916e+003, 7.269000e-001
2.861844e+003, 7.264948e-001
2.863773e+003, 7.270218e-001
2.865701e+003, 7.276968e-001
2.867630e+003, 7.276168e-001
2.869558e+003, 7.274945e-001
2.871487e+003, 7.278600e-001
2.873415e+003, 7.283843e-001
2.875344e+003, 7.285784e-001
2.877272e+003, 7.286850e-001
2.879201e+003, 7.289410e-001
2.881129e+003, 7.292963e-001
2.883058e+003, 7.297967e-001
2.884986e+003, 7.302684e-001
2.886915e+003, 7.309698e-001
2.888843e+003, 7.316891e-001
2.890771e+003, 7.319049e-001
2.892700e+003, 7.321172e-001
2.894628e+003, 7.326759e-001
2.896557e+003, 7.334284e-001
2.898485e+003, 7.340383e-001
2.900414e+003, 7.346363e-001
2.902342e+003, 7.345507e-001
2.904271e+003, 7.350491e-001
2.906199e+003, 7.359412e-001
2.908128e+003, 7.361107e-001
2.910056e+003, 7.358544e-001
2.911985e+003, 7.358006e-001
2.913913e+003, 7.359311e-001
2.915842e+003, 7.362221e-001
2.917770e+003, 7.363415e-001
2.919698e+003, 7.362145e-001
2.921627e+003, 7.360157e-001
2.923555e+003, 7.354560e-001
2.925484e+003, 7.346227e-001
2.927412e+003, 7.336607e-001
2.929341e+003, 7.330182e-001
2.931269e+003, 7.330056e-001
2.933198e+003, 7.330326e-001
2.935126e+003, 7.319446e-001
2.937055e+003, 7.312493e-001
2.938983e+003, 7.315233e-001
2.940912e+003, 7.321146e-001
2.942840e+003, 7.324376e-001
2.944769e+003, 7.327674e-001
2.946697e+003, 7.328481e-001
2.948625e+003, 7.329351e-001
2.950554e+003, 7.332662e-001
2.952482e+003, 7.337776e-001
2.954411e+003, 7.336725e-001
2.956339e+003, 7.330426e-001
2.958268e+003, 7.326077e-001
2.960196e+003, 7.327979e-001
2.962125e+003, 7.330868e-001
2.964053e+003, 7.326726e-001
2.965982e+003, 7.322721e-001
2.967910e+003, 7.324064e-001
2.969839e+003, 7.324578e-001
2.971767e+003, 7.320084e-001
2.973696e+003, 7.323356e-001
2.975624e+003, 7.332700e-001
2.977552e+003, 7.341241e-001
2.979481e+003, 7.341466e-001
2.981409e+003, 7.339564e-001
2.983338e+003, 7.339675e-001
2.985266e+003, 7.345535e-001
2.987195e+003, 7.349931e-001
2.989123e+003, 7.348532e-001
2.991052e+003, 7.352932e-001
2.992980e+003, 7.359266e-001
2.994909e+003, 7.360665e-001
2.996837e+003, 7.365342e-001
2.998766e+003, 7.367123e-001
3.000694e+003, 7.364153e-001
3.002623e+003, 7.364785e-001
3.004551e+003, 7.366838e-001
3.006479e+003, 7.365174e-001
3.008408e+003, 7.371125e-001
3.010336e+003, 7.383928e-001
3.012265e+003, 7.385522e-001
3.014193e+003, 7.381518e-001
3.016122e+003, 7.385090e-001
3.018050e+003, 7.389145e-001
3.019979e+003, 7.390106e-001
3.021907e+003, 7.393210e-001
3.023836e+003, 7.400081e-001
3.025764e+003, 7.400748e-001
3.027693e+003, 7.396296e-001
3.029621e+003, 7.400869e-001
3.031550e+003, 7.407075e-001
3.033478e+003, 7.415093e-001
3.035406e+003, 7.416316e-001
3.037335e+003, 7.412856e-001
3.039263e+003, 7.415796e-001
3.041192e+003, 7.420010e-001
3.043120e+003, 7.419817e-001
3.045049e+003, 7.419192e-001
3.046977e+003, 7.418272e-001
3.048906e+003, 7.421125e-001
3.050834e+003, 7.426149e-001
3.052763e+003, 7.427553e-001
3.054691e+003, 7.425815e-001
3.056620e+003, 7.422295e-001
3.058548e+003, 7.427208e-001
3.060477e+003, 7.435628e-001
3.062405e+003, 7.435319e-001
3.064333e+003, 7.444990e-001
3.066262e+003, 7.451417e-001
3.068190e+003, 7.451787e-001
3.070119e+003, 7.451853e-001
3.072047e+003, 7.450201e-001
3.073976e+003, 7.452942e-001
3.075904e+003, 7.453572e-001
3.077833e+003, 7.455521e-001
3.079761e+003, 7.462485e-001
3.081690e+003, 7.469368e-001
3.083618e+003, 7.470180e-001
3.085547e+003, 7.463983e-001
3.087475e+003, 7.466921e-001
3.089404e+003, 7.477435e-001
3.091332e+003, 7.480562e-001
3.093260e+003, 7.479715e-001
3.095189e+003, 7.485472e-001
3.097117e+003, 7.492269e-001
3.099046e+003, 7.491820e-001
3.100974e+003, 7.492414e-001
3.102903e+003, 7.486535e-001
3.104831e+003, 7.486418e-001
3.106760e+003, 7.488774e-001
3.108688e+003, 7.492523e-001
3.110617e+003, 7.497073e-001
3.112545e+003, 7.497953e-001
3.114474e+003, 7.504581e-001
3.116402e+003, 7.510612e-001
3.118331e+003, 7.509058e-001
3.120259e+003, 7.506849e-001
3.122188e+003, 7.506745e-001
3.124116e+003, 7.510927e-001
3.126044e+003, 7.517865e-001
3.127973e+003, 7.522104e-001
3.129901e+003, 7.525251e-001
3.131830e+003, 7.525833e-001
3.133758e+003, 7.527592e-001
3.135687e+003, 7.532528e-001
3.137615e+003, 7.529807e-001
3.139544e+003, 7.525072e-001
3.141472e+003, 7.524943e-001
3.143401e+003, 7.531706e-001
3.145329e+003, 7.537152e-001
3.147258e+003, 7.536740e-001
3.149186e+003, 7.541825e-001
3.151115e+003, 7.548398e-001
3.153043e+003, 7.548506e-001
3.154971e+003, 7.542963e-001
3.156900e+003, 7.547968e-001
3.158828e+003, 7.557062e-001
3.160757e+003, 7.558830e-001
3.162685e+003, 7.560154e-001
3.164614e+003, 7.564375e-001
3.166542e+003, 7.571900e-001
3.168471e+003, 7.578661e-001
3.170399e+003, 7.578168e-001
3.172328e+003, 7.576846e-001
3.174256e+003, 7.576610e-001
3.176185e+003, 7.569482e-001
3.178113e+003, 7.573534e-001
3.180042e+003, 7.579616e-001
3.181970e+003, 7.581323e-001
3.183898e+003, 7.589803e-001
3.185827e+003, 7.593700e-001
3.187755e+003, 7.598513e-001
3.189684e+003, 7.605063e-001
3.191612e+003, 7.605373e-001
3.193541e+003, 7.602676e-001
3.195469e+003, 7.596261e-001
3.197398e+003, 7.596332e-001
3.199326e+003, 7.600928e-001
3.201255e+003, 7.602767e-001
3.203183e+003, 7.609652e-001
3.205112e+003, 7.618647e-001
3.207040e+003, 7.621260e-001
3.208969e+003, 7.619122e-001
3.210897e+003, 7.618772e-001
3.212825e+003, 7.622235e-001
3.214754e+003, 7.625668e-001
3.216682e+003, 7.626355e-001
3.218611e+003, 7.623833e-001
3.220539e+003, 7.633635e-001
3.222468e+003, 7.646118e-001
3.224396e+003, 7.642847e-001
3.226325e+003, 7.642051e-001
3.228253e+003, 7.641292e-001
3.230182e+003, 7.642206e-001
3.232110e+003, 7.649300e-001
3.234039e+003, 7.654067e-001
3.235967e+003, 7.661634e-001
3.237896e+003, 7.664701e-001
3.239824e+003, 7.661576e-001
3.241752e+003, 7.660105e-001
3.243681e+003, 7.661337e-001
3.245609e+003, 7.672217e-001
3.247538e+003, 7.673490e-001
3.249466e+003, 7.671579e-001
3.251395e+003, 7.670040e-001
3.253323e+003, 7.673026e-001
3.255252e+003, 7.687358e-001
3.257180e+003, 7.696143e-001
3.259109e+003, 7.698049e-001
3.261037e+003, 7.690966e-001
3.262966e+003, 7.689936e-001
3.264894e+003, 7.694487e-001
3.266823e+003, 7.698662e-001
3.268751e+003, 7.704605e-001
3.270679e+003, 7.707658e-001
3.272608e+003, 7.705684e-001
3.274536e+003, 7.705685e-001
3.276465e+003, 7.707995e-001
3.278393e+003, 7.711788e-001
3.280322e+003, 7.715309e-001
3.282250e+003, 7.713264e-001
3.284179e+003, 7.713881e-001
3.286107e+003, 7.718794e-001
3.288036e+003, 7.722654e-001
3.289964e+003, 7.726271e-001
3.291893e+003, 7.736515e-001
3.293821e+003, 7.738116e-001
3.295750e+003, 7.734579e-001
3.297678e+003, 7.733657e-001
3.299606e+003, 7.736318e-001
3.301535e+003, 7.743549e-001
3.303463e+003, 7.750090e-001
3.305392e+003, 7.750861e-001
3.307320e+003, 7.747860e-001
3.309249e+003, 7.749628e-001
3.311177e+003, 7.755471e-001
3.313106e+003, 7.759494e-001
3.315034e+003, 7.747858e-001
3.316963e+003, 7.741450e-001
3.318891e+003, 7.752860e-001
3.320820e+003, 7.762178e-001
3.322748e+003, 7.766846e-001
3.324677e+003, 7.768128e-001
3.326605e+003, 7.765865e-001
3.328533e+003, 7.767106e-001
3.330462e+003, 7.774127e-001
3.332390e+003, 7.779633e-001
3.334319e+003, 7.776707e-001
3.336247e+003, 7.778952e-001
3.338176e+003, 7.786063e-001
3.340104e+003, 7.790413e-001
3.342033e+003, 7.785811e-001
3.343961e+003, 7.790651e-001
3.345890e+003, 7.796215e-001
3.347818e+003, 7.789690e-001
3.349747e+003, 7.791321e-001
3.351675e+003, 7.804227e-001
3.353604e+003, 7.800004e-001
3.355532e+003, 7.791045e-001
3.357460e+003, 7.790231e-001
3.359389e+003, 7.795330e-001
3.361317e+003, 7.800789e-001
3.363246e+003, 7.801097e-001
3.365174e+003, 7.802317e-001
3.367103e+003, 7.807996e-001
3.369031e+003, 7.808612e-001
3.370960e+003, 7.800534e-001
3.372888e+003, 7.803217e-001
3.374817e+003, 7.808761e-001
3.376745e+003, 7.813540e-001
3.378674e+003, 7.813230e-001
3.380602e+003, 7.813917e-001
3.382531e+003, 7.818571e-001
3.384459e+003, 7.819760e-001
3.386387e+003, 7.824290e-001
3.388316e+003, 7.828336e-001
3.390244e+003, 7.832228e-001
3.392173e+003, 7.837157e-001
3.394101e+003, 7.835055e-001
3.396030e+003, 7.830748e-001
3.397958e+003, 7.829796e-001
3.399887e+003, 7.829973e-001
3.401815e+003, 7.837864e-001
3.403744e+003, 7.850904e-001
3.405672e+003, 7.849923e-001
3.407601e+003, 7.848281e-001
3.409529e+003, 7.845384e-001
3.411458e+003, 7.845583e-001
3.413386e+003, 7.852522e-001
3.415314e+003, 7.848409e-001
3.417243e+003, 7.850031e-001
3.419171e+003, 7.862182e-001
3.421100e+003, 7.864166e-001
3.423028e+003, 7.861648e-001
3.424957e+003, 7.859847e-001
3.426885e+003, 7.864752e-001
3.428814e+003, 7.866004e-001
3.430742e+003, 7.866006e-001
3.432671e+003, 7.877346e-001
3.434599e+003, 7.878032e-001
3.436528e+003, 7.869442e-001
3.438456e+003, 7.872051e-001
3.440385e+003, 7.884725e-001
3.442313e+003, 7.890427e-001
3.444241e+003, 7.889436e-001
3.446170e+003, 7.886485e-001
3.448098e+003, 7.883688e-001
3.450027e+003, 7.889914e-001
3.451955e+003, 7.895081e-001
3.453884e+003, 7.896910e-001
3.455812e+003, 7.902254e-001
3.457741e+003, 7.900349e-001
3.459669e+003, 7.898615e-001
3.461598e+003, 7.898055e-001
3.463526e+003, 7.900186e-001
3.465455e+003, 7.909846e-001
3.467383e+003, 7.920126e-001
3.469312e+003, 7.921906e-001
3.471240e+003, 7.920783e-001
3.473168e+003, 7.918926e-001
3.475097e+003, 7.922266e-001
3.477025e+003, 7.923812e-001
3.478954e+003, 7.919708e-001
3.480882e+003, 7.929761e-001
3.482811e+003, 7.943361e-001
3.484739e+003, 7.932784e-001
3.486668e+003, 7.928341e-001
3.488596e+003, 7.940214e-001
3.490525e+003, 7.947528e-001
3.492453e+003, 7.949536e-001
3.494382e+003, 7.948400e-001
3.496310e+003, 7.951301e-001
3.498239e+003, 7.957693e-001
3.500167e+003, 7.957005e-001
3.502095e+003, 7.944049e-001
3.504024e+003, 7.942266e-001
3.505952e+003, 7.946583e-001
3.507881e+003, 7.950011e-001
3.509809e+003, 7.963263e-001
3.511738e+003, 7.971341e-001
3.513666e+003, 7.971641e-001
3.515595e+003, 7.970818e-001
3.517523e+003, 7.966455e-001
3.519452e+003, 7.969387e-001
3.521380e+003, 7.976761e-001
3.523309e+003, 7.974017e-001
3.525237e+003, 7.966614e-001
3.527166e+003, 7.971508e-001
3.529094e+003, 7.977836e-001
3.531022e+003, 7.980353e-001
3.532951e+003, 7.981659e-001
3.534879e+003, 7.989945e-001
3.536808e+003, 7.994747e-001
3.538736e+003, 7.988425e-001
3.540665e+003, 7.984992e-001
3.542593e+003, 7.988582e-001
3.544522e+003, 7.994175e-001
3.546450e+003, 7.992411e-001
3.548379e+003, 7.989286e-001
3.550307e+003, 7.995194e-001
3.552236e+003, 8.003314e-001
3.554164e+003, 8.007966e-001
3.556093e+003, 8.007709e-001
3.558021e+003, 8.007552e-001
3.559949e+003, 8.006228e-001
3.561878e+003, 8.002430e-001
3.563806e+003, 8.004124e-001
3.565735e+003, 8.008282e-001
3.567663e+003, 8.014737e-001
3.569592e+003, 8.018501e-001
3.571520e+003, 8.018358e-001
3.573449e+003, 8.017209e-001
3.575377e+003, 8.019273e-001
3.577306e+003, 8.023440e-001
3.579234e+003, 8.025355e-001
3.581163e+003, 8.024655e-001
3.583091e+003, 8.025462e-001
3.585020e+003, 8.030058e-001
3.586948e+003, 8.035569e-001
3.588876e+003, 8.032539e-001
3.590805e+003, 8.033477e-001
3.592733e+003, 8.038108e-001
3.594662e+003, 8.041127e-001
3.596590e+003, 8.040602e-001
3.598519e+003, 8.039342e-001
3.600447e+003, 8.036165e-001
3.602376e+003, 8.042243e-001
3.604304e+003, 8.049629e-001
3.606233e+003, 8.050442e-001
3.608161e+003, 8.051411e-001
3.610090e+003, 8.053809e-001
3.612018e+003, 8.059893e-001
3.613947e+003, 8.065278e-001
3.615875e+003, 8.065233e-001
3.617803e+003, 8.062421e-001
3.619732e+003, 8.059390e-001
3.621660e+003, 8.055141e-001
3.623589e+003, 8.065650e-001
3.625517e+003, 8.074253e-001
3.627446e+003, 8.080176e-001
3.629374e+003, 8.083734e-001
3.631303e+003, 8.078234e-001
3.633231e+003, 8.067284e-001
3.635160e+003, 8.064783e-001
3.637088e+003, 8.081990e-001
3.639017e+003, 8.093517e-001
3.640945e+003, 8.096931e-001
3.642874e+003, 8.102191e-001
3.644802e+003, 8.101594e-001
3.646730e+003, 8.102179e-001
3.648659e+003, 8.112312e-001
3.650587e+003, 8.113397e-001
3.652516e+003, 8.111131e-001
3.654444e+003, 8.112173e-001
3.656373e+003, 8.114017e-001
3.658301e+003, 8.118420e-001
3.660230e+003, 8.125604e-001
3.662158e+003, 8.132094e-001
3.664087e+003, 8.125465e-001
3.666015e+003, 8.120295e-001
3.667944e+003, 8.128640e-001
3.669872e+003, 8.136721e-001
3.671801e+003, 8.138778e-001
3.673729e+003, 8.151292e-001
3.675657e+003, 8.147752e-001
3.677586e+003, 8.132274e-001
3.679514e+003, 8.130885e-001
3.681443e+003, 8.137138e-001
3.683371e+003, 8.141072e-001
3.685300e+003, 8.149485e-001
3.687228e+003, 8.155973e-001
3.689157e+003, 8.154883e-001
3.691085e+003, 8.167814e-001
3.693014e+003, 8.165725e-001
3.694942e+003, 8.151837e-001
3.696871e+003, 8.160310e-001
3.698799e+003, 8.168457e-001
3.700728e+003, 8.165188e-001
3.702656e+003, 8.168712e-001
3.704584e+003, 8.166724e-001
3.706513e+003, 8.168094e-001
3.708441e+003, 8.175197e-001
3.710370e+003, 8.183502e-001
3.712298e+003, 8.195307e-001
3.714227e+003, 8.195117e-001
3.716155e+003, 8.196988e-001
3.718084e+003, 8.201156e-001
3.720012e+003, 8.202398e-001
3.721941e+003, 8.201897e-001
3.723869e+003, 8.205025e-001
3.725798e+003, 8.212211e-001
3.727726e+003, 8.212354e-001
3.729655e+003, 8.213089e-001
3.731583e+003, 8.231220e-001
3.733511e+003, 8.239786e-001
3.735440e+003, 8.235919e-001
3.737368e+003, 8.223795e-001
3.739297e+003, 8.224829e-001
3.741225e+003, 8.231112e-001
3.743154e+003, 8.247159e-001
3.745082e+003, 8.251206e-001
3.747011e+003, 8.229996e-001
3.748939e+003, 8.238782e-001
3.750868e+003, 8.256238e-001
3.752796e+003, 8.251892e-001
3.754725e+003, 8.238502e-001
3.756653e+003, 8.237976e-001
3.758582e+003, 8.241612e-001
3.760510e+003, 8.241460e-001
3.762438e+003, 8.232490e-001
3.764367e+003, 8.229774e-001
3.766295e+003, 8.240011e-001
3.768224e+003, 8.246587e-001
3.770152e+003, 8.237188e-001
3.772081e+003, 8.233761e-001
3.774009e+003, 8.247542e-001
3.775938e+003, 8.257375e-001
3.777866e+003, 8.260289e-001
3.779795e+003, 8.263759e-001
3.781723e+003, 8.261675e-001
3.783652e+003, 8.268337e-001
3.785580e+003, 8.266019e-001
3.787509e+003, 8.258047e-001
3.789437e+003, 8.261141e-001
3.791365e+003, 8.266704e-001
3.793294e+003, 8.268561e-001
3.795222e+003, 8.273633e-001
3.797151e+003, 8.283229e-001
3.799079e+003, 8.287371e-001
3.801008e+003, 8.297679e-001
3.802936e+003, 8.297174e-001
3.804865e+003, 8.294930e-001
3.806793e+003, 8.299125e-001
3.808722e+003, 8.297463e-001
3.810650e+003, 8.292800e-001
3.812579e+003, 8.293008e-001
3.814507e+003, 8.300957e-001
3.816436e+003, 8.310047e-001
3.818364e+003, 8.305736e-001
3.820292e+003, 8.316447e-001
3.822221e+003, 8.325087e-001
3.824149e+003, 8.311674e-001
3.826078e+003, 8.302779e-001
3.828006e+003, 8.306558e-001
3.829935e+003, 8.313116e-001
3.831863e+003, 8.319263e-001
3.833792e+003, 8.324452e-001
3.835720e+003, 8.327544e-001
3.837649e+003, 8.329687e-001
3.839577e+003, 8.331406e-001
3.841506e+003, 8.340242e-001
3.843434e+003, 8.341367e-001
3.845363e+003, 8.328911e-001
3.847291e+003, 8.334193e-001
3.849219e+003, 8.336138e-001
3.851148e+003, 8.338742e-001
3.853076e+003, 8.352665e-001
3.855005e+003, 8.353494e-001
3.856933e+003, 8.342063e-001
3.858862e+003, 8.337362e-001
3.860790e+003, 8.335038e-001
3.862719e+003, 8.335234e-001
3.864647e+003, 8.347330e-001
3.866576e+003, 8.364919e-001
3.868504e+003, 8.369211e-001
3.870433e+003, 8.361787e-001
3.872361e+003, 8.357940e-001
3.874290e+003, 8.361539e-001
3.876218e+003, 8.361979e-001
3.878146e+003, 8.362061e-001
3.880075e+003, 8.361392e-001
3.882003e+003, 8.355029e-001
3.883932e+003, 8.354399e-001
3.885860e+003, 8.372713e-001
3.887789e+003, 8.372457e-001
3.889717e+003, 8.374546e-001
3.891646e+003, 8.375389e-001
3.893574e+003, 8.376402e-001
3.895503e+003, 8.374799e-001
3.897431e+003, 8.381109e-001
3.899360e+003, 8.378805e-001
3.901288e+003, 8.375607e-001
3.903217e+003, 8.379694e-001
3.905145e+003, 8.392198e-001
3.907073e+003, 8.395482e-001
3.909002e+003, 8.390386e-001
3.910930e+003, 8.389191e-001
3.912859e+003, 8.390443e-001
3.914787e+003, 8.389423e-001
3.916716e+003, 8.393357e-001
3.918644e+003, 8.401676e-001
3.920573e+003, 8.404557e-001
3.922501e+003, 8.399730e-001
3.924430e+003, 8.396814e-001
3.926358e+003, 8.400091e-001
3.928287e+003, 8.408217e-001
3.930215e+003, 8.408660e-001
3.932144e+003, 8.408513e-001
3.934072e+003, 8.414475e-001
3.936000e+003, 8.416368e-001
3.937929e+003, 8.418024e-001
3.939857e+003, 8.420361e-001
3.941786e+003, 8.419480e-001
3.943714e+003, 8.421481e-001
3.945643e+003, 8.425606e-001
3.947571e+003, 8.423685e-001
3.949500e+003, 8.419607e-001
3.951428e+003, 8.422409e-001
3.953357e+003, 8.436148e-001
3.955285e+003, 8.431855e-001
3.957214e+003, 8.430607e-001
3.959142e+003, 8.433300e-001
3.961071e+003, 8.429140e-001
3.962999e+003, 8.435036e-001
3.964927e+003, 8.442362e-001
3.966856e+003, 8.442476e-001
3.968784e+003, 8.443437e-001
3.970713e+003, 8.442166e-001
3.972641e+003, 8.443477e-001
3.974570e+003, 8.445151e-001
3.976498e+003, 8.442069e-001
3.978427e+003, 8.442629e-001
3.980355e+003, 8.444186e-001
3.982284e+003, 8.439530e-001
3.984212e+003, 8.441196e-001
3.986141e+003, 8.446246e-001
3.988069e+003, 8.449004e-001
3.989998e+003, 8.450971e-001
3.991926e+003, 8.456517e-001
3.993854e+003, 8.460832e-001
3.995783e+003, 8.460559e-001
3.997711e+003, 8.461677e-001
3.999640e+003, 8.466346e-001
4.001568e+003, 0.000000e+000
##END=



