##NAMES=Strontianite
##RRUFFID=R050476
##IDEAL CHEMISTRY=SrCO_3_
##LOCALITY=Fidalgo Island, Puget Sound, Washington, USA
##OWNER=RRUFF
##SOURCE=California Institute of Technology
##DESCRIPTION=Aggregate of colorless spheres
##STATUS=The identification of this mineral has been confirmed by X-ray diffraction and chemical analysis
##URL=rruff.info/R050476
##MEASURED CHEMISTRY=(Sr_0.86_Ca_0.14_)CO_3_
3.721941e+002, 0.000000e+000
3.741225e+002, 1.388014e-002
3.760510e+002, 1.541073e-002
3.779795e+002, 1.990572e-002
3.799079e+002, 1.918557e-002
3.818364e+002, 1.374980e-002
3.837649e+002, 1.169443e-002
3.856933e+002, 1.085414e-002
3.876218e+002, 8.125242e-003
3.895503e+002, 7.655142e-003
3.914787e+002, 8.832418e-003
3.934072e+002, 9.005150e-003
3.953357e+002, 7.153673e-003
3.972641e+002, 5.365542e-003
3.991926e+002, 6.426291e-003
4.011211e+002, 7.508690e-003
4.030495e+002, 6.756508e-003
4.049780e+002, 7.077307e-003
4.069065e+002, 7.989204e-003
4.088349e+002, 7.833374e-003
4.107634e+002, 7.687808e-003
4.126919e+002, 6.166558e-003
4.146203e+002, 4.567970e-003
4.165488e+002, 5.498678e-003
4.184773e+002, 6.166115e-003
4.204057e+002, 6.175250e-003
4.223342e+002, 5.234246e-003
4.242627e+002, 5.138419e-003
4.261911e+002, 5.981559e-003
4.281196e+002, 6.080385e-003
4.300481e+002, 6.055089e-003
4.319765e+002, 5.219452e-003
4.339050e+002, 4.686816e-003
4.358335e+002, 4.952556e-003
4.377619e+002, 4.892700e-003
4.396904e+002, 4.718783e-003
4.416189e+002, 4.602035e-003
4.435473e+002, 4.911766e-003
4.454758e+002, 5.010768e-003
4.474043e+002, 4.569463e-003
4.493327e+002, 3.977204e-003
4.512612e+002, 3.775583e-003
4.531897e+002, 4.306927e-003
4.551181e+002, 4.900491e-003
4.570466e+002, 5.199688e-003
4.589751e+002, 4.867143e-003
4.609035e+002, 4.023130e-003
4.628320e+002, 4.111982e-003
4.647605e+002, 4.303500e-003
4.666889e+002, 4.528523e-003
4.686174e+002, 4.703440e-003
4.705459e+002, 4.774690e-003
4.724743e+002, 4.716776e-003
4.744028e+002, 4.441622e-003
4.763313e+002, 4.248670e-003
4.782597e+002, 4.103694e-003
4.801882e+002, 4.124055e-003
4.821167e+002, 3.984470e-003
4.840451e+002, 4.016918e-003
4.859736e+002, 3.954958e-003
4.879021e+002, 4.092217e-003
4.898305e+002, 4.541592e-003
4.917590e+002, 4.591400e-003
4.936875e+002, 4.406000e-003
4.956159e+002, 4.397348e-003
4.975444e+002, 4.406887e-003
4.994729e+002, 4.519420e-003
5.014013e+002, 4.303987e-003
5.033298e+002, 4.068390e-003
5.052583e+002, 4.157450e-003
5.071867e+002, 4.257306e-003
5.091152e+002, 4.345444e-003
5.110437e+002, 4.660049e-003
5.129721e+002, 4.503830e-003
5.149006e+002, 4.360516e-003
5.168290e+002, 4.565132e-003
5.187575e+002, 4.541262e-003
5.206860e+002, 4.164585e-003
5.226144e+002, 4.088345e-003
5.245429e+002, 4.384034e-003
5.264714e+002, 4.474462e-003
5.283998e+002, 4.462305e-003
5.303283e+002, 4.379943e-003
5.322568e+002, 4.127597e-003
5.341852e+002, 4.279046e-003
5.361137e+002, 4.661373e-003
5.380422e+002, 4.748339e-003
5.399706e+002, 4.455384e-003
5.418991e+002, 4.328327e-003
5.438276e+002, 4.681698e-003
5.457560e+002, 4.816249e-003
5.476845e+002, 4.806804e-003
5.496130e+002, 4.687743e-003
5.515414e+002, 4.665653e-003
5.534699e+002, 4.596527e-003
5.553984e+002, 4.605659e-003
5.573268e+002, 4.994547e-003
5.592553e+002, 5.269006e-003
5.611838e+002, 5.066850e-003
5.631122e+002, 4.949138e-003
5.650407e+002, 5.319590e-003
5.669692e+002, 5.178418e-003
5.688976e+002, 4.873700e-003
5.708261e+002, 4.912696e-003
5.727546e+002, 5.162932e-003
5.746830e+002, 5.163421e-003
5.766115e+002, 4.894463e-003
5.785400e+002, 4.958612e-003
5.804684e+002, 5.353711e-003
5.823969e+002, 5.339686e-003
5.843254e+002, 5.204618e-003
5.862538e+002, 5.473292e-003
5.881823e+002, 5.818705e-003
5.901108e+002, 5.887257e-003
5.920392e+002, 5.925848e-003
5.939677e+002, 5.989722e-003
5.958962e+002, 6.111929e-003
5.978246e+002, 6.239588e-003
5.997531e+002, 6.342515e-003
6.016816e+002, 6.416455e-003
6.036100e+002, 6.368774e-003
6.055385e+002, 6.385174e-003
6.074670e+002, 6.557789e-003
6.093954e+002, 6.798718e-003
6.113239e+002, 6.759056e-003
6.132524e+002, 6.512174e-003
6.151808e+002, 6.520621e-003
6.171093e+002, 6.537520e-003
6.190378e+002, 6.588322e-003
6.209662e+002, 6.649608e-003
6.228947e+002, 6.713036e-003
6.248232e+002, 6.793655e-003
6.267516e+002, 6.772273e-003
6.286801e+002, 6.808233e-003
6.306086e+002, 6.969533e-003
6.325370e+002, 6.928657e-003
6.344655e+002, 6.802808e-003
6.363940e+002, 6.784929e-003
6.383224e+002, 6.964527e-003
6.402509e+002, 7.041742e-003
6.421794e+002, 7.017496e-003
6.441078e+002, 7.043800e-003
6.460363e+002, 7.132223e-003
6.479648e+002, 7.211747e-003
6.498932e+002, 7.236878e-003
6.518217e+002, 7.356731e-003
6.537502e+002, 7.446399e-003
6.556786e+002, 7.465265e-003
6.576071e+002, 7.409369e-003
6.595356e+002, 7.327501e-003
6.614641e+002, 7.361765e-003
6.633925e+002, 7.665125e-003
6.653210e+002, 7.953451e-003
6.672495e+002, 8.019936e-003
6.691779e+002, 7.859721e-003
6.711064e+002, 7.776225e-003
6.730349e+002, 7.937329e-003
6.749633e+002, 8.060097e-003
6.768918e+002, 8.206233e-003
6.788203e+002, 8.630476e-003
6.807487e+002, 8.884882e-003
6.826772e+002, 9.074432e-003
6.846057e+002, 9.625350e-003
6.865341e+002, 1.039233e-002
6.884626e+002, 1.127912e-002
6.903911e+002, 1.309088e-002
6.923195e+002, 1.731269e-002
6.942480e+002, 2.649194e-002
6.961765e+002, 3.882083e-002
6.981049e+002, 4.744893e-002
7.000334e+002, 4.960954e-002
7.019619e+002, 4.681082e-002
7.038903e+002, 4.840477e-002
7.058188e+002, 5.381910e-002
7.077473e+002, 4.638625e-002
7.096757e+002, 2.902224e-002
7.116042e+002, 1.706095e-002
7.135327e+002, 1.168381e-002
7.154611e+002, 8.803831e-003
7.173896e+002, 6.981086e-003
7.193181e+002, 6.286339e-003
7.212465e+002, 6.087228e-003
7.231750e+002, 6.030705e-003
7.251035e+002, 5.967862e-003
7.270319e+002, 6.091037e-003
7.289604e+002, 6.174424e-003
7.308889e+002, 6.173966e-003
7.328173e+002, 6.174288e-003
7.347458e+002, 6.318494e-003
7.366743e+002, 6.364607e-003
7.386027e+002, 6.153597e-003
7.405312e+002, 6.237606e-003
7.424597e+002, 6.459064e-003
7.443881e+002, 6.529871e-003
7.463166e+002, 6.578331e-003
7.482451e+002, 6.650996e-003
7.501735e+002, 6.726671e-003
7.521020e+002, 6.800165e-003
7.540305e+002, 6.839414e-003
7.559589e+002, 6.828696e-003
7.578874e+002, 6.878116e-003
7.598159e+002, 6.940557e-003
7.617443e+002, 6.973380e-003
7.636728e+002, 6.975529e-003
7.656013e+002, 7.141078e-003
7.675297e+002, 7.320255e-003
7.694582e+002, 7.507775e-003
7.713867e+002, 7.482836e-003
7.733151e+002, 7.448410e-003
7.752436e+002, 7.540608e-003
7.771721e+002, 7.734904e-003
7.791005e+002, 7.903893e-003
7.810290e+002, 8.058134e-003
7.829575e+002, 8.206156e-003
7.848859e+002, 8.273395e-003
7.868144e+002, 8.183051e-003
7.887429e+002, 8.289069e-003
7.906713e+002, 8.478709e-003
7.925998e+002, 8.710602e-003
7.945283e+002, 8.937089e-003
7.964567e+002, 9.111260e-003
7.983852e+002, 9.231192e-003
8.003137e+002, 9.428152e-003
8.022421e+002, 9.592433e-003
8.041706e+002, 9.629240e-003
8.060991e+002, 9.708429e-003
8.080275e+002, 1.009913e-002
8.099560e+002, 1.042003e-002
8.118845e+002, 1.062178e-002
8.138129e+002, 1.102039e-002
8.157414e+002, 1.142520e-002
8.176699e+002, 1.192066e-002
8.195983e+002, 1.248234e-002
8.215268e+002, 1.315775e-002
8.234553e+002, 1.393035e-002
8.253837e+002, 1.473663e-002
8.273122e+002, 1.590427e-002
8.292407e+002, 1.747735e-002
8.311691e+002, 1.940028e-002
8.330976e+002, 2.208055e-002
8.350261e+002, 2.572764e-002
8.369545e+002, 3.091864e-002
8.388830e+002, 3.917434e-002
8.408115e+002, 5.257798e-002
8.427399e+002, 6.196003e-002
8.446684e+002, 6.101815e-002
8.465969e+002, 6.881120e-002
8.485253e+002, 9.025197e-002
8.504538e+002, 1.188648e-001
8.523823e+002, 1.503211e-001
8.543107e+002, 1.738800e-001
8.562392e+002, 1.789754e-001
8.581677e+002, 1.668843e-001
8.600961e+002, 1.447534e-001
8.620246e+002, 1.178935e-001
8.639531e+002, 8.953600e-002
8.658815e+002, 6.281698e-002
8.678100e+002, 4.111879e-002
8.697385e+002, 2.675264e-002
8.716669e+002, 1.931105e-002
8.735954e+002, 1.599291e-002
8.755239e+002, 1.421942e-002
8.774523e+002, 1.311346e-002
8.793808e+002, 1.245852e-002
8.813093e+002, 1.180359e-002
8.832377e+002, 1.119311e-002
8.851662e+002, 1.056825e-002
8.870947e+002, 1.014391e-002
8.890231e+002, 9.933708e-003
8.909516e+002, 9.824788e-003
8.928801e+002, 9.852426e-003
8.948085e+002, 9.909715e-003
8.967370e+002, 1.043081e-002
8.986655e+002, 1.071259e-002
9.005939e+002, 1.006780e-002
9.025224e+002, 9.317990e-003
9.044509e+002, 9.097126e-003
9.063793e+002, 9.110069e-003
9.083078e+002, 9.134934e-003
9.102363e+002, 9.171893e-003
9.121647e+002, 9.317768e-003
9.140932e+002, 9.336413e-003
9.160217e+002, 9.342221e-003
9.179501e+002, 9.511720e-003
9.198786e+002, 9.461133e-003
9.218071e+002, 9.297299e-003
9.237355e+002, 9.317219e-003
9.256640e+002, 9.478271e-003
9.275925e+002, 9.544564e-003
9.295209e+002, 9.502725e-003
9.314494e+002, 9.439031e-003
9.333779e+002, 9.522620e-003
9.353063e+002, 9.604611e-003
9.372348e+002, 9.727259e-003
9.391633e+002, 9.927034e-003
9.410917e+002, 9.951188e-003
9.430202e+002, 9.875191e-003
9.449487e+002, 1.000035e-002
9.468771e+002, 1.019770e-002
9.488056e+002, 1.018338e-002
9.507341e+002, 1.017970e-002
9.526625e+002, 1.034010e-002
9.545910e+002, 1.043689e-002
9.565195e+002, 1.055585e-002
9.584479e+002, 1.063066e-002
9.603764e+002, 1.061754e-002
9.623049e+002, 1.061646e-002
9.642333e+002, 1.068362e-002
9.661618e+002, 1.077356e-002
9.680903e+002, 1.091998e-002
9.700187e+002, 1.111102e-002
9.719472e+002, 1.121334e-002
9.738757e+002, 1.132062e-002
9.758041e+002, 1.146414e-002
9.777326e+002, 1.148916e-002
9.796611e+002, 1.164574e-002
9.815895e+002, 1.175639e-002
9.835180e+002, 1.177640e-002
9.854465e+002, 1.180627e-002
9.873749e+002, 1.205974e-002
9.893034e+002, 1.224374e-002
9.912319e+002, 1.223199e-002
9.931603e+002, 1.235784e-002
9.950888e+002, 1.250977e-002
9.970173e+002, 1.256996e-002
9.989457e+002, 1.267769e-002
1.000874e+003, 1.274841e-002
1.002803e+003, 1.277277e-002
1.004731e+003, 1.283045e-002
1.006660e+003, 1.293670e-002
1.008588e+003, 1.313152e-002
1.010517e+003, 1.333701e-002
1.012445e+003, 1.356204e-002
1.014373e+003, 1.376542e-002
1.016302e+003, 1.393993e-002
1.018230e+003, 1.415153e-002
1.020159e+003, 1.438559e-002
1.022087e+003, 1.454948e-002
1.024016e+003, 1.465299e-002
1.025944e+003, 1.473072e-002
1.027873e+003, 1.485258e-002
1.029801e+003, 1.506858e-002
1.031730e+003, 1.525391e-002
1.033658e+003, 1.543525e-002
1.035587e+003, 1.566350e-002
1.037515e+003, 1.578145e-002
1.039443e+003, 1.599427e-002
1.041372e+003, 1.622210e-002
1.043300e+003, 1.644725e-002
1.045229e+003, 1.669771e-002
1.047157e+003, 1.683234e-002
1.049086e+003, 1.708513e-002
1.051014e+003, 1.735139e-002
1.052943e+003, 1.755028e-002
1.054871e+003, 1.787584e-002
1.056800e+003, 1.828230e-002
1.058728e+003, 1.872712e-002
1.060657e+003, 1.916446e-002
1.062585e+003, 1.965811e-002
1.064514e+003, 2.040466e-002
1.066442e+003, 2.203427e-002
1.068370e+003, 2.555888e-002
1.070299e+003, 3.303917e-002
1.072227e+003, 3.949530e-002
1.074156e+003, 3.449481e-002
1.076084e+003, 2.530235e-002
1.078013e+003, 2.095719e-002
1.079941e+003, 1.969494e-002
1.081870e+003, 1.926708e-002
1.083798e+003, 1.919447e-002
1.085727e+003, 1.928820e-002
1.087655e+003, 1.925685e-002
1.089584e+003, 1.914646e-002
1.091512e+003, 1.904976e-002
1.093441e+003, 1.910183e-002
1.095369e+003, 1.935150e-002
1.097297e+003, 1.958331e-002
1.099226e+003, 1.974006e-002
1.101154e+003, 2.012919e-002
1.103083e+003, 2.014953e-002
1.105011e+003, 2.023685e-002
1.106940e+003, 2.044692e-002
1.108868e+003, 2.035083e-002
1.110797e+003, 2.029850e-002
1.112725e+003, 2.053081e-002
1.114654e+003, 2.091350e-002
1.116582e+003, 2.135670e-002
1.118511e+003, 2.175980e-002
1.120439e+003, 2.214306e-002
1.122368e+003, 2.249139e-002
1.124296e+003, 2.291515e-002
1.126224e+003, 2.339526e-002
1.128153e+003, 2.370926e-002
1.130081e+003, 2.382493e-002
1.132010e+003, 2.398621e-002
1.133938e+003, 2.413845e-002
1.135867e+003, 2.419760e-002
1.137795e+003, 2.439967e-002
1.139724e+003, 2.460534e-002
1.141652e+003, 2.469866e-002
1.143581e+003, 2.487832e-002
1.145509e+003, 2.510735e-002
1.147438e+003, 2.533975e-002
1.149366e+003, 2.563536e-002
1.151295e+003, 2.597040e-002
1.153223e+003, 2.623499e-002
1.155151e+003, 2.665055e-002
1.157080e+003, 2.714645e-002
1.159008e+003, 2.743463e-002
1.160937e+003, 2.745681e-002
1.162865e+003, 2.753359e-002
1.164794e+003, 2.764780e-002
1.166722e+003, 2.776091e-002
1.168651e+003, 2.780386e-002
1.170579e+003, 2.763477e-002
1.172508e+003, 2.761479e-002
1.174436e+003, 2.775409e-002
1.176365e+003, 2.786988e-002
1.178293e+003, 2.787162e-002
1.180222e+003, 2.796502e-002
1.182150e+003, 2.832448e-002
1.184078e+003, 2.873872e-002
1.186007e+003, 2.917019e-002
1.187935e+003, 2.956126e-002
1.189864e+003, 2.987714e-002
1.191792e+003, 3.010965e-002
1.193721e+003, 3.035444e-002
1.195649e+003, 3.059505e-002
1.197578e+003, 3.087400e-002
1.199506e+003, 3.106921e-002
1.201435e+003, 3.111240e-002
1.203363e+003, 3.122714e-002
1.205292e+003, 3.148886e-002
1.207220e+003, 3.177013e-002
1.209149e+003, 3.220783e-002
1.211077e+003, 3.264653e-002
1.213005e+003, 3.309279e-002
1.214934e+003, 3.352250e-002
1.216862e+003, 3.403666e-002
1.218791e+003, 3.465818e-002
1.220719e+003, 3.526659e-002
1.222648e+003, 3.586843e-002
1.224576e+003, 3.649030e-002
1.226505e+003, 3.703029e-002
1.228433e+003, 3.750550e-002
1.230362e+003, 3.800305e-002
1.232290e+003, 3.866638e-002
1.234219e+003, 3.929078e-002
1.236147e+003, 3.990524e-002
1.238076e+003, 4.062098e-002
1.240004e+003, 4.135700e-002
1.241932e+003, 4.205733e-002
1.243861e+003, 4.276277e-002
1.245789e+003, 4.343193e-002
1.247718e+003, 4.420227e-002
1.249646e+003, 4.513091e-002
1.251575e+003, 4.586031e-002
1.253503e+003, 4.653772e-002
1.255432e+003, 4.747374e-002
1.257360e+003, 4.831852e-002
1.259289e+003, 4.901961e-002
1.261217e+003, 4.988535e-002
1.263146e+003, 5.069507e-002
1.265074e+003, 5.150433e-002
1.267003e+003, 5.249947e-002
1.268931e+003, 5.354632e-002
1.270859e+003, 5.462879e-002
1.272788e+003, 5.569943e-002
1.274716e+003, 5.676204e-002
1.276645e+003, 5.774625e-002
1.278573e+003, 5.885119e-002
1.280502e+003, 6.008543e-002
1.282430e+003, 6.138873e-002
1.284359e+003, 6.264105e-002
1.286287e+003, 6.395212e-002
1.288216e+003, 6.523578e-002
1.290144e+003, 6.649511e-002
1.292073e+003, 6.782907e-002
1.294001e+003, 6.924634e-002
1.295930e+003, 7.057416e-002
1.297858e+003, 7.192520e-002
1.299786e+003, 7.334872e-002
1.301715e+003, 7.474678e-002
1.303643e+003, 7.617068e-002
1.305572e+003, 7.778907e-002
1.307500e+003, 7.955016e-002
1.309429e+003, 8.127846e-002
1.311357e+003, 8.317894e-002
1.313286e+003, 8.504468e-002
1.315214e+003, 8.679827e-002
1.317143e+003, 8.877801e-002
1.319071e+003, 9.059022e-002
1.321000e+003, 9.260326e-002
1.322928e+003, 9.484349e-002
1.324857e+003, 9.690551e-002
1.326785e+003, 9.891499e-002
1.328714e+003, 1.009047e-001
1.330642e+003, 1.030235e-001
1.332570e+003, 1.054051e-001
1.334499e+003, 1.078097e-001
1.336427e+003, 1.101783e-001
1.338356e+003, 1.127906e-001
1.340284e+003, 1.154920e-001
1.342213e+003, 1.181297e-001
1.344141e+003, 1.209775e-001
1.346070e+003, 1.239196e-001
1.347998e+003, 1.271255e-001
1.349927e+003, 1.304592e-001
1.351855e+003, 1.338513e-001
1.353784e+003, 1.373127e-001
1.355712e+003, 1.411467e-001
1.357641e+003, 1.449792e-001
1.359569e+003, 1.487355e-001
1.361497e+003, 1.528643e-001
1.363426e+003, 1.570338e-001
1.365354e+003, 1.613190e-001
1.367283e+003, 1.658962e-001
1.369211e+003, 1.705846e-001
1.371140e+003, 1.753932e-001
1.373068e+003, 1.802665e-001
1.374997e+003, 1.853141e-001
1.376925e+003, 1.905275e-001
1.378854e+003, 1.959416e-001
1.380782e+003, 2.013302e-001
1.382711e+003, 2.065888e-001
1.384639e+003, 2.117385e-001
1.386568e+003, 2.168066e-001
1.388496e+003, 2.220413e-001
1.390424e+003, 2.276165e-001
1.392353e+003, 2.335522e-001
1.394281e+003, 2.397056e-001
1.396210e+003, 2.457903e-001
1.398138e+003, 2.517241e-001
1.400067e+003, 2.573713e-001
1.401995e+003, 2.626911e-001
1.403924e+003, 2.682564e-001
1.405852e+003, 2.744137e-001
1.407781e+003, 2.808214e-001
1.409709e+003, 2.875540e-001
1.411638e+003, 2.946083e-001
1.413566e+003, 3.020222e-001
1.415495e+003, 3.095499e-001
1.417423e+003, 3.172920e-001
1.419351e+003, 3.254188e-001
1.421280e+003, 3.336758e-001
1.423208e+003, 3.417185e-001
1.425137e+003, 3.496874e-001
1.427065e+003, 3.570774e-001
1.428994e+003, 3.638077e-001
1.430922e+003, 3.700508e-001
1.432851e+003, 3.753617e-001
1.434779e+003, 3.789651e-001
1.436708e+003, 3.809873e-001
1.438636e+003, 3.814081e-001
1.440565e+003, 3.804872e-001
1.442493e+003, 3.787092e-001
1.444422e+003, 3.762241e-001
1.446350e+003, 3.730533e-001
1.448278e+003, 3.688433e-001
1.450207e+003, 3.635023e-001
1.452135e+003, 3.570198e-001
1.454064e+003, 3.493629e-001
1.455992e+003, 3.409020e-001
1.457921e+003, 3.320168e-001
1.459849e+003, 3.230536e-001
1.461778e+003, 3.137081e-001
1.463706e+003, 3.040594e-001
1.465635e+003, 2.944751e-001
1.467563e+003, 2.852718e-001
1.469492e+003, 2.761909e-001
1.471420e+003, 2.674058e-001
1.473349e+003, 2.588416e-001
1.475277e+003, 2.504058e-001
1.477205e+003, 2.422143e-001
1.479134e+003, 2.343123e-001
1.481062e+003, 2.266297e-001
1.482991e+003, 2.190944e-001
1.484919e+003, 2.116715e-001
1.486848e+003, 2.044552e-001
1.488776e+003, 1.973936e-001
1.490705e+003, 1.906486e-001
1.492633e+003, 1.841079e-001
1.494562e+003, 1.775654e-001
1.496490e+003, 1.711815e-001
1.498419e+003, 1.650095e-001
1.500347e+003, 1.589203e-001
1.502276e+003, 1.529322e-001
1.504204e+003, 1.470605e-001
1.506132e+003, 1.412433e-001
1.508061e+003, 1.354827e-001
1.509989e+003, 1.298841e-001
1.511918e+003, 1.244631e-001
1.513846e+003, 1.190902e-001
1.515775e+003, 1.137194e-001
1.517703e+003, 1.085609e-001
1.519632e+003, 1.033660e-001
1.521560e+003, 9.823781e-002
1.523489e+003, 9.337202e-002
1.525417e+003, 8.875645e-002
1.527346e+003, 8.406310e-002
1.529274e+003, 7.936852e-002
1.531203e+003, 7.488857e-002
1.533131e+003, 7.043874e-002
1.535059e+003, 6.596558e-002
1.536988e+003, 6.176869e-002
1.538916e+003, 5.768497e-002
1.540845e+003, 5.347219e-002
1.542773e+003, 4.933151e-002
1.544702e+003, 4.557083e-002
1.546630e+003, 4.197792e-002
1.548559e+003, 3.834719e-002
1.550487e+003, 3.486419e-002
1.552416e+003, 3.130010e-002
1.554344e+003, 2.773554e-002
1.556273e+003, 2.460338e-002
1.558201e+003, 2.181340e-002
1.560130e+003, 1.924480e-002
1.562058e+003, 1.717023e-002
1.563986e+003, 1.553300e-002
1.565915e+003, 1.395452e-002
1.567843e+003, 1.249627e-002
1.569772e+003, 1.144760e-002
1.571700e+003, 1.070451e-002
1.573629e+003, 9.946009e-003
1.575557e+003, 9.262051e-003
1.577486e+003, 8.822511e-003
1.579414e+003, 8.475355e-003
1.581343e+003, 8.091408e-003
1.583271e+003, 7.874069e-003
1.585200e+003, 7.695714e-003
1.587128e+003, 7.518709e-003
1.589057e+003, 7.226101e-003
1.590985e+003, 7.062454e-003
1.592913e+003, 7.015456e-003
1.594842e+003, 6.957652e-003
1.596770e+003, 6.856465e-003
1.598699e+003, 6.710796e-003
1.600627e+003, 6.439629e-003
1.602556e+003, 6.137526e-003
1.604484e+003, 6.089081e-003
1.606413e+003, 6.046251e-003
1.608341e+003, 5.812892e-003
1.610270e+003, 5.610931e-003
1.612198e+003, 5.413970e-003
1.614127e+003, 5.088730e-003
1.616055e+003, 4.746305e-003
1.617984e+003, 4.606145e-003
1.619912e+003, 4.509423e-003
1.621840e+003, 4.291894e-003
1.623769e+003, 4.090897e-003
1.625697e+003, 4.011024e-003
1.627626e+003, 3.700681e-003
1.629554e+003, 3.531943e-003
1.631483e+003, 3.537046e-003
1.633411e+003, 3.438324e-003
1.635340e+003, 3.338231e-003
1.637268e+003, 3.316442e-003
1.639197e+003, 3.001638e-003
1.641125e+003, 2.655553e-003
1.643054e+003, 2.746492e-003
1.644982e+003, 2.870646e-003
1.646911e+003, 2.613649e-003
1.648839e+003, 2.297600e-003
1.650767e+003, 1.963231e-003
1.652696e+003, 1.791972e-003
1.654624e+003, 1.693051e-003
1.656553e+003, 1.699811e-003
1.658481e+003, 1.601933e-003
1.660410e+003, 1.544965e-003
1.662338e+003, 1.577616e-003
1.664267e+003, 1.481303e-003
1.666195e+003, 1.375096e-003
1.668124e+003, 1.313007e-003
1.670052e+003, 1.161760e-003
1.671981e+003, 1.033048e-003
1.673909e+003, 1.000082e-003
1.675838e+003, 1.047998e-003
1.677766e+003, 9.765570e-004
1.679694e+003, 7.674416e-004
1.681623e+003, 7.471275e-004
1.683551e+003, 7.103492e-004
1.685480e+003, 7.207221e-004
1.687408e+003, 6.575806e-004
1.689337e+003, 4.654081e-004
1.691265e+003, 3.350182e-004
1.693194e+003, 8.410223e-005
1.695122e+003, -7.958327e-005
1.697051e+003, -1.294866e-004
1.698979e+003, -4.802008e-004
1.700908e+003, -7.490679e-004
1.702836e+003, -8.025035e-004
1.704765e+003, -9.195248e-004
1.706693e+003, -9.809390e-004
1.708621e+003, -1.059614e-003
1.710550e+003, -1.114915e-003
1.712478e+003, -1.210895e-003
1.714407e+003, -1.302426e-003
1.716335e+003, -1.430421e-003
1.718264e+003, -1.405718e-003
1.720192e+003, -1.399558e-003
1.722121e+003, -1.498057e-003
1.724049e+003, -1.671772e-003
1.725978e+003, -1.800878e-003
1.727906e+003, -1.871253e-003
1.729835e+003, -1.952866e-003
1.731763e+003, -2.091299e-003
1.733692e+003, -2.350849e-003
1.735620e+003, -2.298541e-003
1.737548e+003, -2.161608e-003
1.739477e+003, -2.305086e-003
1.741405e+003, -2.321447e-003
1.743334e+003, -2.484091e-003
1.745262e+003, -2.816573e-003
1.747191e+003, -2.852906e-003
1.749119e+003, -2.539008e-003
1.751048e+003, -2.273738e-003
1.752976e+003, -1.929110e-003
1.754905e+003, -1.470225e-003
1.756833e+003, -9.897593e-004
1.758762e+003, -2.370837e-004
1.760690e+003, 1.137752e-003
1.762619e+003, 3.171870e-003
1.764547e+003, 5.823239e-003
1.766475e+003, 8.526339e-003
1.768404e+003, 1.114199e-002
1.770332e+003, 1.323864e-002
1.772261e+003, 1.412878e-002
1.774189e+003, 1.379355e-002
1.776118e+003, 1.263681e-002
1.778046e+003, 1.049910e-002
1.779975e+003, 7.743031e-003
1.781903e+003, 5.230839e-003
1.783832e+003, 3.053017e-003
1.785760e+003, 1.321314e-003
1.787689e+003, 8.399742e-005
1.789617e+003, -7.974352e-004
1.791546e+003, -1.270300e-003
1.793474e+003, -1.644455e-003
1.795402e+003, -1.721255e-003
1.797331e+003, -1.613523e-003
1.799259e+003, -1.655769e-003
1.801188e+003, -1.782300e-003
1.803116e+003, -1.860205e-003
1.805045e+003, -1.854319e-003
1.806973e+003, -2.023767e-003
1.808902e+003, -2.324421e-003
1.810830e+003, -2.224834e-003
1.812759e+003, -1.991245e-003
1.814687e+003, -2.020892e-003
1.816616e+003, -2.147127e-003
1.818544e+003, -2.141534e-003
1.820473e+003, -2.002065e-003
1.822401e+003, -1.724605e-003
1.824329e+003, -1.889085e-003
1.826258e+003, -2.049711e-003
1.828186e+003, -2.254857e-003
1.830115e+003, -2.351619e-003
1.832043e+003, -2.109302e-003
1.833972e+003, -1.919802e-003
1.835900e+003, -1.906164e-003
1.837829e+003, -1.646720e-003
1.839757e+003, -1.627642e-003
1.841686e+003, -1.727145e-003
1.843614e+003, -1.843418e-003
1.845543e+003, -1.756878e-003
1.847471e+003, -1.793773e-003
1.849400e+003, -2.111438e-003
1.851328e+003, -2.224798e-003
1.853256e+003, -1.801228e-003
1.855185e+003, -1.695273e-003
1.857113e+003, -1.736578e-003
1.859042e+003, -1.724736e-003
1.860970e+003, -1.775625e-003
1.862899e+003, -1.701090e-003
1.864827e+003, -1.585751e-003
1.866756e+003, -1.565908e-003
1.868684e+003, -1.621473e-003
1.870613e+003, -1.878824e-003
1.872541e+003, -1.903974e-003
1.874470e+003, -1.668022e-003
1.876398e+003, -1.253245e-003
1.878327e+003, -1.540144e-003
1.880255e+003, -1.632010e-003
1.882183e+003, -1.629950e-003
1.884112e+003, -1.803374e-003
1.886040e+003, -1.893010e-003
1.887969e+003, -1.578894e-003
1.889897e+003, -1.458937e-003
1.891826e+003, -1.500283e-003
1.893754e+003, -1.363319e-003
1.895683e+003, -1.555943e-003
1.897611e+003, -1.703423e-003
1.899540e+003, -1.309296e-003
1.901468e+003, -1.342769e-003
1.903397e+003, -1.308806e-003
1.905325e+003, -1.129780e-003
1.907254e+003, -1.051403e-003
1.909182e+003, -1.211029e-003
1.911110e+003, -9.125498e-004
1.913039e+003, -8.994775e-004
1.914967e+003, -1.178838e-003
1.916896e+003, -1.518199e-003
1.918824e+003, -1.303418e-003
1.920753e+003, -1.162952e-003
1.922681e+003, -1.412763e-003
1.924610e+003, -1.857216e-003
1.926538e+003, -2.251775e-003
1.928467e+003, -1.900976e-003
1.930395e+003, -1.181054e-003
1.932324e+003, -1.181466e-003
1.934252e+003, -1.741302e-003
1.936181e+003, -1.751041e-003
1.938109e+003, -1.700940e-003
1.940037e+003, -1.863894e-003
1.941966e+003, -1.036414e-003
1.943894e+003, -1.174841e-003
1.945823e+003, -1.595682e-003
1.947751e+003, -8.428832e-004
1.949680e+003, -8.302941e-004
1.951608e+003, -1.737504e-003
1.953537e+003, -2.048708e-003
1.955465e+003, -1.949052e-003
1.957394e+003, -1.761553e-003
1.959322e+003, -2.085408e-003
1.961251e+003, -2.124475e-003
1.963179e+003, -1.263662e-003
1.965108e+003, -9.873722e-004
1.967036e+003, -5.073085e-004
1.968964e+003, -1.069393e-003
1.970893e+003, -1.882331e-003
1.972821e+003, -1.554206e-003
1.974750e+003, -1.640628e-003
1.976678e+003, -6.434469e-004
1.978607e+003, 1.216000e-003
1.980535e+003, 1.367695e-004
1.982464e+003, -4.997989e-004
1.984392e+003, 8.018110e-004
1.986321e+003, 1.342152e-003
1.988249e+003, 7.802907e-004
1.990178e+003, 4.609300e-004
1.992106e+003, 3.788284e-004
1.994035e+003, 1.684812e-005
1.995963e+003, -5.669164e-004
1.997891e+003, -5.731534e-004
1.999820e+003, -9.812865e-005
2.001748e+003, -3.989257e-004
2.003677e+003, -9.970698e-004
2.005605e+003, -1.554216e-004
2.007534e+003, 2.669099e-004
2.009462e+003, 1.251743e-005
2.011391e+003, 4.544405e-004
2.013319e+003, 3.415588e-005
2.015248e+003, -3.462178e-004
2.017176e+003, -5.711381e-004
2.019105e+003, -7.660842e-004
2.021033e+003, -6.667850e-004
2.022962e+003, -7.455141e-004
2.024890e+003, -8.168108e-004
2.026818e+003, 2.257426e-004
2.028747e+003, -4.412599e-004
2.030675e+003, 1.066523e-004
2.032604e+003, 5.115244e-004
2.034532e+003, -2.318952e-005
2.036461e+003, 5.307244e-004
2.038389e+003, 1.622583e-003
2.040318e+003, 1.202747e-003
2.042246e+003, 5.245811e-004
2.044175e+003, 7.541748e-004
2.046103e+003, 1.232294e-003
2.048031e+003, 5.621226e-004
2.049960e+003, 1.225571e-003
2.051888e+003, 1.032238e-003
2.053817e+003, 4.936443e-004
2.055745e+003, 1.730292e-004
2.057674e+003, 4.561661e-004
2.059602e+003, 4.109169e-004
2.061531e+003, 4.854517e-004
2.063459e+003, 7.289918e-004
2.065388e+003, 4.986165e-004
2.067316e+003, 5.527478e-004
2.069245e+003, 6.912380e-004
2.071173e+003, 5.447835e-004
2.073102e+003, 6.643421e-004
2.075030e+003, 8.610754e-004
2.076958e+003, 1.431035e-003
2.078887e+003, 1.423671e-003
2.080815e+003, 1.168698e-003
2.082744e+003, 7.901613e-004
2.084672e+003, 1.638575e-004
2.086601e+003, 2.295395e-005
2.088529e+003, 2.990686e-004
2.090458e+003, 7.715278e-004
2.092386e+003, 7.238772e-004
2.094315e+003, 7.876752e-004
2.096243e+003, 6.449283e-004
2.098172e+003, 3.042047e-004
2.100100e+003, 2.529758e-004
2.102029e+003, 3.575768e-004
2.103957e+003, 1.028491e-003
2.105885e+003, 1.220856e-003
2.107814e+003, 2.390949e-004
2.109742e+003, 4.667999e-004
2.111671e+003, 1.058460e-003
2.113599e+003, 1.138727e-003
2.115528e+003, 1.028673e-003
2.117456e+003, 5.016397e-004
2.119385e+003, -2.449782e-004
2.121313e+003, -3.718873e-004
2.123242e+003, 3.027726e-004
2.125170e+003, 2.462053e-004
2.127099e+003, -6.949005e-005
2.129027e+003, -4.781597e-004
2.130956e+003, -7.510966e-004
2.132884e+003, -5.326360e-004
2.134813e+003, 1.003076e-004
2.136741e+003, 3.986124e-004
2.138669e+003, -5.160210e-004
2.140598e+003, -1.061308e-003
2.142526e+003, -5.721499e-004
2.144455e+003, -1.695024e-003
2.146383e+003, -2.103085e-003
2.148312e+003, -1.575001e-003
2.150240e+003, -1.321322e-003
2.152169e+003, -1.070962e-003
2.154097e+003, -6.373663e-004
2.156026e+003, -1.302834e-003
2.157954e+003, 4.019260e-004
2.159883e+003, 3.901416e-003
2.161811e+003, 3.728548e-003
2.163740e+003, 2.588541e-003
2.165668e+003, 2.701665e-003
2.167596e+003, 2.834594e-003
2.169525e+003, 2.898621e-003
2.171453e+003, 3.273022e-003
2.173382e+003, 2.289906e-003
2.175310e+003, 8.966285e-004
2.177239e+003, 2.604638e-004
2.179167e+003, 5.859052e-004
2.181096e+003, 7.597744e-004
2.183024e+003, 1.712786e-003
2.184953e+003, 2.861430e-003
2.186881e+003, 1.939492e-003
2.188810e+003, 1.310180e-003
2.190738e+003, 1.408960e-003
2.192667e+003, 1.657323e-003
2.194595e+003, 2.097612e-003
2.196523e+003, 2.117034e-003
2.198452e+003, 1.872677e-003
2.200380e+003, 8.515743e-004
2.202309e+003, 4.422168e-005
2.204237e+003, 4.133960e-004
2.206166e+003, 1.823219e-003
2.208094e+003, 2.072094e-003
2.210023e+003, 1.462358e-003
2.211951e+003, 1.430970e-003
2.213880e+003, 1.084575e-003
2.215808e+003, 6.561461e-004
2.217737e+003, 5.464980e-004
2.219665e+003, 8.477015e-004
2.221594e+003, 1.482621e-003
2.223522e+003, 1.921715e-003
2.225450e+003, 9.474835e-004
2.227379e+003, 6.915500e-005
2.229307e+003, 4.799522e-004
2.231236e+003, 8.020272e-004
2.233164e+003, 7.644347e-004
2.235093e+003, 1.318010e-003
2.237021e+003, 1.918974e-003
2.238950e+003, 1.250161e-003
2.240878e+003, 2.414146e-004
2.242807e+003, 6.979027e-004
2.244735e+003, 1.198580e-003
2.246664e+003, 8.089138e-004
2.248592e+003, 3.345100e-004
2.250521e+003, 5.539050e-004
2.252449e+003, 6.833520e-004
2.254377e+003, 9.828284e-004
2.256306e+003, 1.024755e-003
2.258234e+003, 1.028852e-003
2.260163e+003, 1.192947e-003
2.262091e+003, 1.256628e-003
2.264020e+003, 1.227805e-003
2.265948e+003, 1.036500e-003
2.267877e+003, 1.032417e-003
2.269805e+003, 1.301729e-003
2.271734e+003, 1.589211e-003
2.273662e+003, 1.846997e-003
2.275591e+003, 1.645229e-003
2.277519e+003, 1.676255e-003
2.279448e+003, 1.650211e-003
2.281376e+003, 1.535540e-003
2.283304e+003, 2.086871e-003
2.285233e+003, 2.772003e-003
2.287161e+003, 2.579434e-003
2.289090e+003, 2.064036e-003
2.291018e+003, 1.943997e-003
2.292947e+003, 1.998693e-003
2.294875e+003, 1.610427e-003
2.296804e+003, 1.540817e-003
2.298732e+003, 1.799984e-003
2.300661e+003, 1.786373e-003
2.302589e+003, 1.521469e-003
2.304518e+003, 1.535285e-003
2.306446e+003, 1.762922e-003
2.308375e+003, 1.853126e-003
2.310303e+003, 1.753524e-003
2.312231e+003, 1.953630e-003
2.314160e+003, 1.843329e-003
2.316088e+003, 1.661825e-003
2.318017e+003, 1.736143e-003
2.319945e+003, 2.145780e-003
2.321874e+003, 2.595289e-003
2.323802e+003, 2.729689e-003
2.325731e+003, 2.267207e-003
2.327659e+003, 1.374217e-003
2.329588e+003, 8.396205e-004
2.331516e+003, 9.615555e-004
2.333445e+003, 1.168538e-003
2.335373e+003, 1.651325e-003
2.337302e+003, 1.449707e-003
2.339230e+003, 8.694707e-004
2.341158e+003, 9.526429e-004
2.343087e+003, 9.483766e-004
2.345015e+003, 7.664864e-004
2.346944e+003, 6.402743e-004
2.348872e+003, 8.924506e-004
2.350801e+003, 1.006933e-003
2.352729e+003, 7.456818e-004
2.354658e+003, 8.467041e-004
2.356586e+003, 8.185613e-004
2.358515e+003, 5.205139e-004
2.360443e+003, 5.913677e-004
2.362372e+003, 7.535944e-004
2.364300e+003, 8.340203e-004
2.366229e+003, 6.953537e-004
2.368157e+003, 5.896101e-004
2.370085e+003, 3.870711e-004
2.372014e+003, 1.318113e-004
2.373942e+003, 2.648765e-004
2.375871e+003, 1.789511e-004
2.377799e+003, 1.147977e-004
2.379728e+003, -5.677184e-006
2.381656e+003, -5.539606e-005
2.383585e+003, -4.738559e-005
2.385513e+003, -3.517295e-005
2.387442e+003, 1.825918e-004
2.389370e+003, 1.729997e-004
2.391299e+003, 1.499204e-004
2.393227e+003, 1.043605e-004
2.395156e+003, 2.348562e-004
2.397084e+003, 2.818383e-004
2.399012e+003, 1.373660e-004
2.400941e+003, 4.695472e-004
2.402869e+003, 5.291876e-004
2.404798e+003, 3.735301e-004
2.406726e+003, 7.866571e-004
2.408655e+003, 1.319188e-003
2.410583e+003, 8.997493e-004
2.412512e+003, 6.630413e-004
2.414440e+003, 9.034308e-004
2.416369e+003, 9.067167e-004
2.418297e+003, 9.874802e-004
2.420226e+003, 1.043654e-003
2.422154e+003, 8.490470e-004
2.424083e+003, 1.008896e-003
2.426011e+003, 1.127902e-003
2.427939e+003, 6.963416e-004
2.429868e+003, 7.744812e-004
2.431796e+003, 9.814594e-004
2.433725e+003, 7.443193e-004
2.435653e+003, 7.313415e-004
2.437582e+003, 8.570417e-004
2.439510e+003, 1.015560e-003
2.441439e+003, 1.060575e-003
2.443367e+003, 1.104770e-003
2.445296e+003, 1.587283e-003
2.447224e+003, 1.614765e-003
2.449153e+003, 1.298223e-003
2.451081e+003, 1.637156e-003
2.453010e+003, 1.848485e-003
2.454938e+003, 2.001590e-003
2.456866e+003, 2.568515e-003
2.458795e+003, 3.105905e-003
2.460723e+003, 3.474003e-003
2.462652e+003, 3.613364e-003
2.464580e+003, 4.079898e-003
2.466509e+003, 4.936128e-003
2.468437e+003, 5.128577e-003
2.470366e+003, 5.214340e-003
2.472294e+003, 5.704680e-003
2.474223e+003, 6.515230e-003
2.476151e+003, 7.473121e-003
2.478080e+003, 8.369374e-003
2.480008e+003, 8.317505e-003
2.481937e+003, 8.759813e-003
2.483865e+003, 9.165539e-003
2.485793e+003, 9.655136e-003
2.487722e+003, 1.001207e-002
2.489650e+003, 9.832433e-003
2.491579e+003, 9.258533e-003
2.493507e+003, 8.890113e-003
2.495436e+003, 8.879482e-003
2.497364e+003, 8.778143e-003
2.499293e+003, 8.012880e-003
2.501221e+003, 7.156873e-003
2.503150e+003, 6.743114e-003
2.505078e+003, 7.111262e-003
2.507007e+003, 7.009886e-003
2.508935e+003, 6.400825e-003
2.510864e+003, 5.814502e-003
2.512792e+003, 5.613578e-003
2.514720e+003, 5.532043e-003
2.516649e+003, 5.444685e-003
2.518577e+003, 4.903352e-003
2.520506e+003, 4.644311e-003
2.522434e+003, 4.238260e-003
2.524363e+003, 3.986020e-003
2.526291e+003, 4.059805e-003
2.528220e+003, 4.356048e-003
2.530148e+003, 3.675304e-003
2.532077e+003, 3.327723e-003
2.534005e+003, 3.395191e-003
2.535934e+003, 3.164329e-003
2.537862e+003, 3.097838e-003
2.539791e+003, 2.836082e-003
2.541719e+003, 2.134785e-003
2.543647e+003, 2.334022e-003
2.545576e+003, 2.677827e-003
2.547504e+003, 2.490929e-003
2.549433e+003, 1.863522e-003
2.551361e+003, 1.748588e-003
2.553290e+003, 1.858883e-003
2.555218e+003, 1.914141e-003
2.557147e+003, 1.994182e-003
2.559075e+003, 2.542271e-003
2.561004e+003, 2.722127e-003
2.562932e+003, 2.179234e-003
2.564861e+003, 2.086105e-003
2.566789e+003, 2.116474e-003
2.568718e+003, 1.893134e-003
2.570646e+003, 2.154814e-003
2.572574e+003, 2.302225e-003
2.574503e+003, 1.897996e-003
2.576431e+003, 1.766539e-003
2.578360e+003, 2.041365e-003
2.580288e+003, 2.150218e-003
2.582217e+003, 2.258728e-003
2.584145e+003, 2.154376e-003
2.586074e+003, 2.015453e-003
2.588002e+003, 1.983798e-003
2.589931e+003, 2.382941e-003
2.591859e+003, 2.374732e-003
2.593788e+003, 2.173006e-003
2.595716e+003, 1.915703e-003
2.597645e+003, 1.844361e-003
2.599573e+003, 1.888783e-003
2.601501e+003, 1.452512e-003
2.603430e+003, 1.400038e-003
2.605358e+003, 1.751183e-003
2.607287e+003, 1.748673e-003
2.609215e+003, 1.749533e-003
2.611144e+003, 1.876998e-003
2.613072e+003, 1.860085e-003
2.615001e+003, 1.767644e-003
2.616929e+003, 1.567400e-003
2.618858e+003, 1.314768e-003
2.620786e+003, 1.096501e-003
2.622715e+003, 1.060253e-003
2.624643e+003, 9.437002e-004
2.626572e+003, 7.361541e-004
2.628500e+003, 8.955783e-004
2.630428e+003, 8.212243e-004
2.632357e+003, 8.804823e-004
2.634285e+003, 7.084458e-004
2.636214e+003, 2.374376e-004
2.638142e+003, 3.054593e-004
2.640071e+003, 5.125502e-004
2.641999e+003, 5.389359e-004
2.643928e+003, 9.028513e-004
2.645856e+003, 1.012484e-003
2.647785e+003, 9.286651e-004
2.649713e+003, 5.630838e-004
2.651642e+003, 5.441552e-004
2.653570e+003, 7.138961e-004
2.655499e+003, 7.701468e-004
2.657427e+003, 6.599570e-004
2.659355e+003, 4.082217e-004
2.661284e+003, 1.599679e-004
2.663212e+003, -4.650312e-005
2.665141e+003, -4.624591e-004
2.667069e+003, -5.865451e-004
2.668998e+003, -5.498449e-004
2.670926e+003, -3.920709e-004
2.672855e+003, -2.010194e-004
2.674783e+003, -2.841014e-004
2.676712e+003, -2.045018e-004
2.678640e+003, 8.476332e-005
2.680569e+003, 1.078301e-004
2.682497e+003, -3.537448e-005
2.684426e+003, -8.529596e-005
2.686354e+003, -1.753361e-004
2.688282e+003, -1.963909e-004
2.690211e+003, -2.939387e-004
2.692139e+003, -3.517576e-004
2.694068e+003, -3.753006e-004
2.695996e+003, -3.946794e-004
2.697925e+003, -3.347295e-004
2.699853e+003, -5.299132e-004
2.701782e+003, -5.479192e-004
2.703710e+003, -3.690316e-004
2.705639e+003, -2.766234e-004
2.707567e+003, -3.553878e-004
2.709496e+003, -4.390152e-004
2.711424e+003, -5.274249e-004
2.713353e+003, -5.478396e-004
2.715281e+003, -6.855385e-004
2.717209e+003, -5.362895e-004
2.719138e+003, -3.838368e-004
2.721066e+003, -5.545337e-004
2.722995e+003, -5.146150e-004
2.724923e+003, -2.790464e-004
2.726852e+003, -4.175316e-004
2.728780e+003, -4.414167e-004
2.730709e+003, -4.824286e-004
2.732637e+003, -5.909196e-004
2.734566e+003, -5.282132e-004
2.736494e+003, -4.086751e-004
2.738423e+003, -7.122379e-004
2.740351e+003, -7.753516e-004
2.742280e+003, -6.673819e-004
2.744208e+003, -7.132883e-004
2.746136e+003, -1.009386e-003
2.748065e+003, -1.030292e-003
2.749993e+003, -7.620534e-004
2.751922e+003, -4.700435e-004
2.753850e+003, -5.147003e-004
2.755779e+003, -6.854510e-004
2.757707e+003, -9.986667e-004
2.759636e+003, -1.037919e-003
2.761564e+003, -1.053820e-003
2.763493e+003, -1.202204e-003
2.765421e+003, -9.344413e-004
2.767350e+003, -5.964097e-004
2.769278e+003, -6.117743e-004
2.771207e+003, -8.454687e-004
2.773135e+003, -9.090443e-004
2.775063e+003, -1.000542e-003
2.776992e+003, -1.123323e-003
2.778920e+003, -1.194658e-003
2.780849e+003, -1.183245e-003
2.782777e+003, -1.300953e-003
2.784706e+003, -1.328122e-003
2.786634e+003, -1.228414e-003
2.788563e+003, -1.438957e-003
2.790491e+003, -1.398394e-003
2.792420e+003, -1.347975e-003
2.794348e+003, -1.355842e-003
2.796277e+003, -1.422208e-003
2.798205e+003, -1.528849e-003
2.800134e+003, -1.612834e-003
2.802062e+003, -1.420792e-003
2.803990e+003, -1.269106e-003
2.805919e+003, -1.173478e-003
2.807847e+003, -1.481246e-003
2.809776e+003, -1.540843e-003
2.811704e+003, -1.292420e-003
2.813633e+003, -1.481691e-003
2.815561e+003, -1.496590e-003
2.817490e+003, -1.306550e-003
2.819418e+003, -1.523552e-003
2.821347e+003, -1.687787e-003
2.823275e+003, -1.399779e-003
2.825204e+003, -1.392413e-003
2.827132e+003, -1.512190e-003
2.829061e+003, -1.455922e-003
2.830989e+003, -1.262303e-003
2.832917e+003, -1.103182e-003
2.834846e+003, -1.156391e-003
2.836774e+003, -1.336525e-003
2.838703e+003, -1.341755e-003
2.840631e+003, -1.503523e-003
2.842560e+003, -2.129298e-003
2.844488e+003, -2.587826e-003
2.846417e+003, -3.260539e-003
2.848345e+003, -4.270079e-003
2.850274e+003, -4.756253e-003
2.852202e+003, -5.308389e-003
2.854131e+003, -5.552451e-003
2.856059e+003, -4.931623e-003
2.857988e+003, -4.403529e-003
2.859916e+003, -3.676475e-003
2.861844e+003, -2.662189e-003
2.863773e+003, -2.125864e-003
2.865701e+003, -2.054021e-003
2.867630e+003, -1.927810e-003
2.869558e+003, -1.657759e-003
2.871487e+003, -1.162593e-003
2.873415e+003, -9.036714e-004
2.875344e+003, -6.844352e-004
2.877272e+003, -4.061592e-004
2.879201e+003, -1.717180e-005
2.881129e+003, 2.100198e-006
2.883058e+003, -2.106201e-004
2.884986e+003, -1.756844e-004
2.886915e+003, -6.188735e-005
2.888843e+003, -1.287355e-004
2.890771e+003, -5.625987e-004
2.892700e+003, -1.118226e-003
2.894628e+003, -1.893961e-003
2.896557e+003, -2.071346e-003
2.898485e+003, -1.895909e-003
2.900414e+003, -2.009915e-003
2.902342e+003, -2.679613e-003
2.904271e+003, -3.388330e-003
2.906199e+003, -3.757863e-003
2.908128e+003, -3.822610e-003
2.910056e+003, -4.118789e-003
2.911985e+003, -4.647470e-003
2.913913e+003, -4.980455e-003
2.915842e+003, -5.803304e-003
2.917770e+003, -6.682584e-003
2.919698e+003, -7.262628e-003
2.921627e+003, -7.886371e-003
2.923555e+003, -8.055992e-003
2.925484e+003, -7.823663e-003
2.927412e+003, -7.306024e-003
2.929341e+003, -6.472223e-003
2.931269e+003, -5.933974e-003
2.933198e+003, -5.530454e-003
2.935126e+003, -5.236784e-003
2.937055e+003, -4.833493e-003
2.938983e+003, -4.532886e-003
2.940912e+003, -3.952261e-003
2.942840e+003, -3.135913e-003
2.944769e+003, -2.818676e-003
2.946697e+003, -2.578213e-003
2.948625e+003, -2.438025e-003
2.950554e+003, -2.761098e-003
2.952482e+003, -3.142089e-003
2.954411e+003, -3.240130e-003
2.956339e+003, -3.695141e-003
2.958268e+003, -3.458366e-003
2.960196e+003, -2.461787e-003
2.962125e+003, -2.178984e-003
2.964053e+003, -1.946642e-003
2.965982e+003, -1.981369e-003
2.967910e+003, -2.304771e-003
2.969839e+003, -2.408617e-003
2.971767e+003, -2.116675e-003
2.973696e+003, -1.828024e-003
2.975624e+003, -1.458079e-003
2.977552e+003, -1.638860e-003
2.979481e+003, -1.611920e-003
2.981409e+003, -1.372992e-003
2.983338e+003, -9.730109e-004
2.985266e+003, -7.916632e-004
2.987195e+003, -1.232184e-003
2.989123e+003, -1.188254e-003
2.991052e+003, -1.028111e-003
2.992980e+003, -1.149561e-003
2.994909e+003, -1.118673e-003
2.996837e+003, -1.125446e-003
2.998766e+003, -1.248571e-003
3.000694e+003, -1.050103e-003
3.002623e+003, -8.456808e-004
3.004551e+003, -6.801673e-004
3.006479e+003, -4.259916e-004
3.008408e+003, -7.687109e-004
3.010336e+003, -7.014154e-004
3.012265e+003, -5.066296e-004
3.014193e+003, -1.270060e-003
3.016122e+003, -2.293827e-003
3.018050e+003, -1.654558e-003
3.019979e+003, -7.066624e-004
3.021907e+003, -7.043116e-004
3.023836e+003, -5.287064e-004
3.025764e+003, -3.212805e-004
3.027693e+003, -2.746466e-004
3.029621e+003, -1.413325e-004
3.031550e+003, -1.454399e-004
3.033478e+003, -8.090918e-005
3.035406e+003, 2.292310e-004
3.037335e+003, 4.233563e-004
3.039263e+003, 2.829053e-004
3.041192e+003, 6.935596e-004
3.043120e+003, 1.053699e-003
3.045049e+003, 1.099504e-003
3.046977e+003, 9.713770e-004
3.048906e+003, 5.920235e-004
3.050834e+003, 7.530048e-004
3.052763e+003, 1.413014e-003
3.054691e+003, 8.108728e-004
3.056620e+003, 4.658803e-006
3.058548e+003, 8.877490e-004
3.060477e+003, 1.577088e-003
3.062405e+003, 1.606426e-003
3.064333e+003, 1.598695e-003
3.066262e+003, 1.482118e-003
3.068190e+003, 1.555821e-003
3.070119e+003, 1.676573e-003
3.072047e+003, 1.637064e-003
3.073976e+003, 1.407844e-003
3.075904e+003, 1.011809e-003
3.077833e+003, 1.515481e-003
3.079761e+003, 2.240844e-003
3.081690e+003, 2.131073e-003
3.083618e+003, 1.968168e-003
3.085547e+003, 1.849305e-003
3.087475e+003, 2.459410e-003
3.089404e+003, 2.505352e-003
3.091332e+003, 1.806822e-003
3.093260e+003, 1.696805e-003
3.095189e+003, 2.214985e-003
3.097117e+003, 2.827689e-003
3.099046e+003, 3.033413e-003
3.100974e+003, 3.186380e-003
3.102903e+003, 2.903650e-003
3.104831e+003, 2.475916e-003
3.106760e+003, 2.702808e-003
3.108688e+003, 3.008680e-003
3.110617e+003, 3.239266e-003
3.112545e+003, 3.071020e-003
3.114474e+003, 3.253834e-003
3.116402e+003, 3.235043e-003
3.118331e+003, 3.083252e-003
3.120259e+003, 3.362896e-003
3.122188e+003, 3.828316e-003
3.124116e+003, 3.781165e-003
3.126044e+003, 3.385018e-003
3.127973e+003, 3.472308e-003
3.129901e+003, 3.864607e-003
3.131830e+003, 3.873752e-003
3.133758e+003, 4.182523e-003
3.135687e+003, 4.468077e-003
3.137615e+003, 4.153571e-003
3.139544e+003, 4.133169e-003
3.141472e+003, 4.399984e-003
3.143401e+003, 4.076401e-003
3.145329e+003, 3.928702e-003
3.147258e+003, 4.329939e-003
3.149186e+003, 4.369125e-003
3.151115e+003, 3.988808e-003
3.153043e+003, 4.045735e-003
3.154971e+003, 4.626663e-003
3.156900e+003, 5.321737e-003
3.158828e+003, 5.486598e-003
3.160757e+003, 4.920372e-003
3.162685e+003, 4.791814e-003
3.164614e+003, 5.124860e-003
3.166542e+003, 4.917479e-003
3.168471e+003, 4.482035e-003
3.170399e+003, 4.077803e-003
3.172328e+003, 4.214389e-003
3.174256e+003, 4.826549e-003
3.176185e+003, 4.939530e-003
3.178113e+003, 4.758233e-003
3.180042e+003, 4.410136e-003
3.181970e+003, 4.664880e-003
3.183898e+003, 4.844916e-003
3.185827e+003, 4.143172e-003
3.187755e+003, 4.859052e-003
3.189684e+003, 5.678354e-003
3.191612e+003, 5.233014e-003
3.193541e+003, 4.997637e-003
3.195469e+003, 5.297261e-003
3.197398e+003, 5.465307e-003
3.199326e+003, 5.580567e-003
3.201255e+003, 5.642292e-003
3.203183e+003, 5.398693e-003
3.205112e+003, 5.181916e-003
3.207040e+003, 5.004792e-003
3.208969e+003, 4.875169e-003
3.210897e+003, 5.157631e-003
3.212825e+003, 5.302524e-003
3.214754e+003, 5.402262e-003
3.216682e+003, 4.973417e-003
3.218611e+003, 4.764290e-003
3.220539e+003, 5.149450e-003
3.222468e+003, 5.411902e-003
3.224396e+003, 5.605417e-003
3.226325e+003, 5.564336e-003
3.228253e+003, 5.937349e-003
3.230182e+003, 5.774845e-003
3.232110e+003, 5.411540e-003
3.234039e+003, 5.479097e-003
3.235967e+003, 5.330493e-003
3.237896e+003, 5.171925e-003
3.239824e+003, 5.559920e-003
3.241752e+003, 6.104894e-003
3.243681e+003, 5.536434e-003
3.245609e+003, 5.305680e-003
3.247538e+003, 5.143371e-003
3.249466e+003, 4.789760e-003
3.251395e+003, 5.382617e-003
3.253323e+003, 6.197816e-003
3.255252e+003, 6.450246e-003
3.257180e+003, 6.060243e-003
3.259109e+003, 5.389968e-003
3.261037e+003, 5.564431e-003
3.262966e+003, 5.850174e-003
3.264894e+003, 5.257613e-003
3.266823e+003, 5.104713e-003
3.268751e+003, 5.215341e-003
3.270679e+003, 5.524529e-003
3.272608e+003, 5.779160e-003
3.274536e+003, 6.010596e-003
3.276465e+003, 6.148131e-003
3.278393e+003, 5.725681e-003
3.280322e+003, 5.763534e-003
3.282250e+003, 5.720188e-003
3.284179e+003, 5.766815e-003
3.286107e+003, 5.646343e-003
3.288036e+003, 5.676126e-003
3.289964e+003, 5.812546e-003
3.291893e+003, 6.077068e-003
3.293821e+003, 5.887522e-003
3.295750e+003, 5.576851e-003
3.297678e+003, 5.299988e-003
3.299606e+003, 5.528610e-003
3.301535e+003, 5.544360e-003
3.303463e+003, 5.771444e-003
3.305392e+003, 5.980018e-003
3.307320e+003, 5.614362e-003
3.309249e+003, 5.748525e-003
3.311177e+003, 6.529210e-003
3.313106e+003, 6.521765e-003
3.315034e+003, 6.025038e-003
3.316963e+003, 5.548092e-003
3.318891e+003, 5.501201e-003
3.320820e+003, 5.569897e-003
3.322748e+003, 5.551580e-003
3.324677e+003, 5.820450e-003
3.326605e+003, 6.174359e-003
3.328533e+003, 6.065742e-003
3.330462e+003, 5.809085e-003
3.332390e+003, 5.753028e-003
3.334319e+003, 5.753474e-003
3.336247e+003, 6.089235e-003
3.338176e+003, 6.336248e-003
3.340104e+003, 5.620019e-003
3.342033e+003, 5.004318e-003
3.343961e+003, 4.921265e-003
3.345890e+003, 5.450137e-003
3.347818e+003, 6.009100e-003
3.349747e+003, 6.348735e-003
3.351675e+003, 5.939972e-003
3.353604e+003, 5.886266e-003
3.355532e+003, 6.169094e-003
3.357460e+003, 5.790948e-003
3.359389e+003, 5.708674e-003
3.361317e+003, 5.425408e-003
3.363246e+003, 4.705236e-003
3.365174e+003, 4.763866e-003
3.367103e+003, 5.295785e-003
3.369031e+003, 5.695250e-003
3.370960e+003, 6.143842e-003
3.372888e+003, 5.583748e-003
3.374817e+003, 5.769916e-003
3.376745e+003, 6.476883e-003
3.378674e+003, 6.049757e-003
3.380602e+003, 5.703115e-003
3.382531e+003, 5.848367e-003
3.384459e+003, 6.028137e-003
3.386387e+003, 5.525677e-003
3.388316e+003, 5.359346e-003
3.390244e+003, 5.755243e-003
3.392173e+003, 5.804216e-003
3.394101e+003, 5.744404e-003
3.396030e+003, 5.669273e-003
3.397958e+003, 5.654862e-003
3.399887e+003, 5.365324e-003
3.401815e+003, 5.143603e-003
3.403744e+003, 5.479511e-003
3.405672e+003, 5.356786e-003
3.407601e+003, 5.567318e-003
3.409529e+003, 5.966732e-003
3.411458e+003, 5.833355e-003
3.413386e+003, 5.728107e-003
3.415314e+003, 5.575150e-003
3.417243e+003, 5.672634e-003
3.419171e+003, 6.006925e-003
3.421100e+003, 6.122993e-003
3.423028e+003, 5.837313e-003
3.424957e+003, 5.830804e-003
3.426885e+003, 5.074635e-003
3.428814e+003, 4.823524e-003
3.430742e+003, 5.088673e-003
3.432671e+003, 5.393887e-003
3.434599e+003, 5.904117e-003
3.436528e+003, 5.710247e-003
3.438456e+003, 4.939047e-003
3.440385e+003, 5.048987e-003
3.442313e+003, 4.930969e-003
3.444241e+003, 4.828626e-003
3.446170e+003, 4.973842e-003
3.448098e+003, 5.291546e-003
3.450027e+003, 5.259058e-003
3.451955e+003, 4.960732e-003
3.453884e+003, 4.544009e-003
3.455812e+003, 4.570780e-003
3.457741e+003, 4.976863e-003
3.459669e+003, 4.640503e-003
3.461598e+003, 4.370327e-003
3.463526e+003, 4.904708e-003
3.465455e+003, 5.868395e-003
3.467383e+003, 5.536297e-003
3.469312e+003, 5.011625e-003
3.471240e+003, 5.063572e-003
3.473168e+003, 4.717945e-003
3.475097e+003, 4.586354e-003
3.477025e+003, 4.671294e-003
3.478954e+003, 4.415361e-003
3.480882e+003, 3.971376e-003
3.482811e+003, 3.868174e-003
3.484739e+003, 4.181161e-003
3.486668e+003, 3.876975e-003
3.488596e+003, 3.621291e-003
3.490525e+003, 4.155398e-003
3.492453e+003, 4.378644e-003
3.494382e+003, 4.725041e-003
3.496310e+003, 4.570428e-003
3.498239e+003, 4.592713e-003
3.500167e+003, 4.658760e-003
3.502095e+003, 4.287280e-003
3.504024e+003, 3.704692e-003
3.505952e+003, 3.669933e-003
3.507881e+003, 3.867353e-003
3.509809e+003, 3.281513e-003
3.511738e+003, 3.378705e-003
3.513666e+003, 3.553841e-003
3.515595e+003, 3.882046e-003
3.517523e+003, 3.753430e-003
3.519452e+003, 3.289360e-003
3.521380e+003, 2.970109e-003
3.523309e+003, 3.477006e-003
3.525237e+003, 3.396610e-003
3.527166e+003, 3.302777e-003
3.529094e+003, 3.561943e-003
3.531022e+003, 4.116093e-003
3.532951e+003, 4.187595e-003
3.534879e+003, 3.683189e-003
3.536808e+003, 2.995216e-003
3.538736e+003, 3.304916e-003
3.540665e+003, 3.565861e-003
3.542593e+003, 3.234411e-003
3.544522e+003, 3.312085e-003
3.546450e+003, 3.141494e-003
3.548379e+003, 2.984046e-003
3.550307e+003, 3.111080e-003
3.552236e+003, 2.688253e-003
3.554164e+003, 2.467946e-003
3.556093e+003, 2.476602e-003
3.558021e+003, 2.375455e-003
3.559949e+003, 2.156905e-003
3.561878e+003, 2.444696e-003
3.563806e+003, 3.434482e-003
3.565735e+003, 3.325276e-003
3.567663e+003, 2.637287e-003
3.569592e+003, 2.911706e-003
3.571520e+003, 2.906521e-003
3.573449e+003, 2.447539e-003
3.575377e+003, 2.490982e-003
3.577306e+003, 3.452362e-003
3.579234e+003, 3.736180e-003
3.581163e+003, 3.487480e-003
3.583091e+003, 3.629295e-003
3.585020e+003, 3.216843e-003
3.586948e+003, 2.894429e-003
3.588876e+003, 2.586145e-003
3.590805e+003, 2.390074e-003
3.592733e+003, 1.989027e-003
3.594662e+003, 1.464257e-003
3.596590e+003, 1.957991e-003
3.598519e+003, 1.962622e-003
3.600447e+003, 1.874927e-003
3.602376e+003, 2.439975e-003
3.604304e+003, 2.549892e-003
3.606233e+003, 2.612416e-003
3.608161e+003, 2.163728e-003
3.610090e+003, 1.501791e-003
3.612018e+003, 1.510500e-003
3.613947e+003, 1.523772e-003
3.615875e+003, 2.173873e-003
3.617803e+003, 2.736673e-003
3.619732e+003, 2.235643e-003
3.621660e+003, 2.317832e-003
3.623589e+003, 2.649884e-003
3.625517e+003, 2.753579e-003
3.627446e+003, 2.562652e-003
3.629374e+003, 2.615809e-003
3.631303e+003, 2.154352e-003
3.633231e+003, 2.556490e-003
3.635160e+003, 2.765125e-003
3.637088e+003, 2.217882e-003
3.639017e+003, 2.240188e-003
3.640945e+003, 1.888770e-003
3.642874e+003, 1.554333e-003
3.644802e+003, 1.763939e-003
3.646730e+003, 2.071429e-003
3.648659e+003, 2.211137e-003
3.650587e+003, 2.107291e-003
3.652516e+003, 2.027819e-003
3.654444e+003, 2.124916e-003
3.656373e+003, 1.677001e-003
3.658301e+003, 1.196836e-003
3.660230e+003, 1.137026e-003
3.662158e+003, 1.528431e-003
3.664087e+003, 1.566301e-003
3.666015e+003, 1.064432e-003
3.667944e+003, 1.349110e-003
3.669872e+003, 2.333221e-003
3.671801e+003, 2.038526e-003
3.673729e+003, 1.881402e-003
3.675657e+003, 1.989451e-003
3.677586e+003, 2.450643e-003
3.679514e+003, 2.237283e-003
3.681443e+003, 2.194359e-003
3.683371e+003, 2.077578e-003
3.685300e+003, 2.478775e-003
3.687228e+003, 3.044016e-003
3.689157e+003, 2.614084e-003
3.691085e+003, 1.565967e-003
3.693014e+003, 1.602061e-003
3.694942e+003, 1.770188e-003
3.696871e+003, 1.401801e-003
3.698799e+003, 1.979766e-003
3.700728e+003, 2.114379e-003
3.702656e+003, 2.029368e-003
3.704584e+003, 2.546577e-003
3.706513e+003, 2.406575e-003
3.708441e+003, 2.492125e-003
3.710370e+003, 2.222066e-003
3.712298e+003, 1.895613e-003
3.714227e+003, 2.215379e-003
3.716155e+003, 2.348713e-003
3.718084e+003, 3.010861e-003
3.720012e+003, 3.645181e-003
3.721941e+003, 2.960487e-003
3.723869e+003, 2.887484e-003
3.725798e+003, 3.620165e-003
3.727726e+003, 3.749302e-003
3.729655e+003, 3.382908e-003
3.731583e+003, 2.419633e-003
3.733511e+003, 1.993143e-003
3.735440e+003, 2.436761e-003
3.737368e+003, 2.764101e-003
3.739297e+003, 3.028411e-003
3.741225e+003, 3.557135e-003
3.743154e+003, 3.178041e-003
3.745082e+003, 2.724561e-003
3.747011e+003, 3.157183e-003
3.748939e+003, 3.230871e-003
3.750868e+003, 3.067044e-003
3.752796e+003, 2.812380e-003
3.754725e+003, 2.789648e-003
3.756653e+003, 3.147598e-003
3.758582e+003, 2.923382e-003
3.760510e+003, 2.904162e-003
3.762438e+003, 3.418266e-003
3.764367e+003, 3.366399e-003
3.766295e+003, 2.965387e-003
3.768224e+003, 2.371744e-003
3.770152e+003, 1.839361e-003
3.772081e+003, 2.359151e-003
3.774009e+003, 3.404218e-003
3.775938e+003, 2.821326e-003
3.777866e+003, 2.420936e-003
3.779795e+003, 2.592131e-003
3.781723e+003, 3.006281e-003
3.783652e+003, 3.839730e-003
3.785580e+003, 3.712573e-003
3.787509e+003, 2.613385e-003
3.789437e+003, 2.078441e-003
3.791365e+003, 2.756219e-003
3.793294e+003, 3.349572e-003
3.795222e+003, 2.936386e-003
3.797151e+003, 3.056737e-003
3.799079e+003, 4.227514e-003
3.801008e+003, 4.044691e-003
3.802936e+003, 3.209608e-003
3.804865e+003, 2.809600e-003
3.806793e+003, 2.967831e-003
3.808722e+003, 3.086155e-003
3.810650e+003, 2.448647e-003
3.812579e+003, 1.985647e-003
3.814507e+003, 2.014491e-003
3.816436e+003, 2.695533e-003
3.818364e+003, 2.586395e-003
3.820292e+003, 2.471196e-003
3.822221e+003, 2.370218e-003
3.824149e+003, 2.302006e-003
3.826078e+003, 2.111865e-003
3.828006e+003, 1.695792e-003
3.829935e+003, 1.372114e-003
3.831863e+003, 1.249552e-003
3.833792e+003, 1.828697e-003
3.835720e+003, 2.688404e-003
3.837649e+003, 2.883103e-003
3.839577e+003, 2.836507e-003
3.841506e+003, 3.017463e-003
3.843434e+003, 3.092210e-003
3.845363e+003, 2.747614e-003
3.847291e+003, 1.824161e-003
3.849219e+003, 1.854187e-003
3.851148e+003, 2.230730e-003
3.853076e+003, 2.265597e-003
3.855005e+003, 2.432376e-003
3.856933e+003, 2.506032e-003
3.858862e+003, 2.574513e-003
3.860790e+003, 2.566831e-003
3.862719e+003, 2.577471e-003
3.864647e+003, 2.769218e-003
3.866576e+003, 2.517686e-003
3.868504e+003, 1.954972e-003
3.870433e+003, 1.985606e-003
3.872361e+003, 2.492927e-003
3.874290e+003, 2.772526e-003
3.876218e+003, 2.866148e-003
3.878146e+003, 2.888813e-003
3.880075e+003, 2.848009e-003
3.882003e+003, 2.703966e-003
3.883932e+003, 3.224070e-003
3.885860e+003, 3.597879e-003
3.887789e+003, 2.697416e-003
3.889717e+003, 1.525363e-003
3.891646e+003, 1.769291e-003
3.893574e+003, 1.646967e-003
3.895503e+003, 1.835908e-003
3.897431e+003, 3.073035e-003
3.899360e+003, 2.811820e-003
3.901288e+003, 1.799166e-003
3.903217e+003, 2.199119e-003
3.905145e+003, 3.061359e-003
3.907073e+003, 3.026038e-003
3.909002e+003, 2.593566e-003
3.910930e+003, 2.713991e-003
3.912859e+003, 2.464076e-003
3.914787e+003, 2.073555e-003
3.916716e+003, 2.829926e-003
3.918644e+003, 2.899990e-003
3.920573e+003, 1.923021e-003
3.922501e+003, 1.669871e-003
3.924430e+003, 1.402454e-003
3.926358e+003, 1.821147e-003
3.928287e+003, 2.245436e-003
3.930215e+003, 2.148483e-003
3.932144e+003, 1.989611e-003
3.934072e+003, 1.908241e-003
3.936000e+003, 1.595205e-003
3.937929e+003, 1.210887e-003
3.939857e+003, 1.821919e-003
3.941786e+003, 2.002336e-003
3.943714e+003, 1.913703e-003
3.945643e+003, 2.779196e-003
3.947571e+003, 3.301404e-003
3.949500e+003, 3.036218e-003
3.951428e+003, 3.109708e-003
3.953357e+003, 2.684787e-003
3.955285e+003, 1.389609e-003
3.957214e+003, 4.432376e-004
3.959142e+003, 6.727036e-004
3.961071e+003, 1.968245e-003
3.962999e+003, 2.386641e-003
3.964927e+003, 1.715943e-003
3.966856e+003, 1.750986e-003
3.968784e+003, 1.557423e-003
3.970713e+003, 1.977251e-003
3.972641e+003, 2.516487e-003
3.974570e+003, 2.671363e-003
3.976498e+003, 2.000842e-003
3.978427e+003, 1.199727e-003
3.980355e+003, 1.601565e-003
3.982284e+003, 1.332012e-003
3.984212e+003, 1.893178e-003
3.986141e+003, 1.930588e-003
3.988069e+003, 1.514864e-003
3.989998e+003, 1.752334e-003
3.991926e+003, 1.646336e-003
3.993854e+003, 1.269798e-003
3.995783e+003, 1.194627e-003
3.997711e+003, 1.509777e-003
3.999640e+003, 2.567831e-003
##END=



