##NAMES=Tennantite-(Zn)
##RRUFFID=R050558
##IDEAL CHEMISTRY=Cu^1+^_6_(Cu^1+^_4_Zn^2+^_2_)As^3+^_4_S^2-^_13_
##LOCALITY=Casaplaca mine, Huarochiri Province, Lima Department, Peru
##OWNER=RRUFF
##SOURCE=Dave Bunk Minerals
##DESCRIPTION=Group of black tetrahedra
##STATUS=The identification of this mineral has been confirmed by X-ray diffraction and chemical analysis
##URL=rruff.info/R050558
##MEASURED CHEMISTRY=(Cu_10.07_Zn_1.83_Fe_0.10_)_Σ=12_(As_2.97_Sb_1.03_)_Σ=4_S_13.00_ ; = light phase. Dark phase = (Cu_10.09_Zn_1.80_Fe_0.11_)_Σ=12_(As_2.85_Sb_1.15_)_Σ=4_S_13.00_
399.1926, 0.1432919
401.1211, 0.1468821
403.0496, 0.1475882
404.9780, 0.1501504
406.9065, 0.1613467
408.8350, 0.1659222
410.7634, 0.1721563
412.6919, 0.1815759
414.6204, 0.1795488
416.5488, 0.1783961
418.4773, 0.1810626
420.4058, 0.1841442
422.3342, 0.1860382
424.2627, 0.1864901
426.1912, 0.1880649
428.1196, 0.1914124
430.0481, 0.1956745
431.9766, 0.2001136
433.9050, 0.2004519
435.8335, 0.2010331
437.7620, 0.2037181
439.6904, 0.2063900
441.6189, 0.2069435
443.5474, 0.2090988
445.4758, 0.2134888
447.4043, 0.2168996
449.3328, 0.2156601
451.2612, 0.2160640
453.1897, 0.2207942
455.1182, 0.2223041
457.0466, 0.2206287
458.9751, 0.2236125
460.9036, 0.2268873
462.8320, 0.2261389
464.7605, 0.2274226
466.6890, 0.2305711
468.6174, 0.2308490
470.5459, 0.2314823
472.4744, 0.2326640
474.4028, 0.2319290
476.3313, 0.2325122
478.2598, 0.2342169
480.1882, 0.2360112
482.1167, 0.2351318
484.0452, 0.2359485
485.9736, 0.2380131
487.9021, 0.2397501
489.8306, 0.2418674
491.7590, 0.2422927
493.6875, 0.2411634
495.6160, 0.2407217
497.5444, 0.2419358
499.4729, 0.2434027
501.4014, 0.2456367
503.3298, 0.2487338
505.2583, 0.2486586
507.1868, 0.2470693
509.1152, 0.2467821
511.0437, 0.2484491
512.9722, 0.2493209
514.9006, 0.2509786
516.8291, 0.2530877
518.7576, 0.2535450
520.6860, 0.2535276
522.6145, 0.2525055
524.5430, 0.2510661
526.4714, 0.2513949
528.3999, 0.2530252
530.3284, 0.2546897
532.2568, 0.2558732
534.1853, 0.2572490
536.1138, 0.2570124
538.0422, 0.2567280
539.9707, 0.2566210
541.8992, 0.2563993
543.8276, 0.2570264
545.7561, 0.2584743
547.6846, 0.2590489
549.6130, 0.2589379
551.5415, 0.2601418
553.4700, 0.2607636
555.3984, 0.2606391
557.3269, 0.2613880
559.2554, 0.2624965
561.1838, 0.2635204
563.1123, 0.2639825
565.0408, 0.2636568
566.9692, 0.2634627
568.8977, 0.2638343
570.8262, 0.2641432
572.7546, 0.2649575
574.6831, 0.2669442
576.6116, 0.2702498
578.5400, 0.2714228
580.4685, 0.2707851
582.3970, 0.2728229
584.3254, 0.2747533
586.2539, 0.2749656
588.1824, 0.2770127
590.1108, 0.2805488
592.0393, 0.2825941
593.9678, 0.2828844
595.8962, 0.2826081
597.8247, 0.2810330
599.7532, 0.2790002
601.6816, 0.2787433
603.6101, 0.2780212
605.5386, 0.2777831
607.4670, 0.2784173
609.3955, 0.2789741
611.3240, 0.2793447
613.2524, 0.2809782
615.1809, 0.2819524
617.1094, 0.2816801
619.0378, 0.2818231
620.9663, 0.2831959
622.8948, 0.2841302
624.8232, 0.2846448
626.7517, 0.2841716
628.6802, 0.2832735
630.6086, 0.2831162
632.5371, 0.2826164
634.4656, 0.2809860
636.3940, 0.2810192
638.3225, 0.2820272
640.2510, 0.2825343
642.1794, 0.2828552
644.1079, 0.2831318
646.0364, 0.2840563
647.9648, 0.2846556
649.8933, 0.2850676
651.8218, 0.2855192
653.7502, 0.2858900
655.6787, 0.2868584
657.6072, 0.2874520
659.5356, 0.2882009
661.4641, 0.2892546
663.3926, 0.2900547
665.3210, 0.2901388
667.2495, 0.2900893
669.1780, 0.2910556
671.1064, 0.2919615
673.0349, 0.2917634
674.9634, 0.2910691
676.8918, 0.2904735
678.8203, 0.2894913
680.7488, 0.2884310
682.6772, 0.2873372
684.6057, 0.2869840
686.5342, 0.2871741
688.4626, 0.2873482
690.3911, 0.2876719
692.3196, 0.2881594
694.2480, 0.2887273
696.1765, 0.2895535
698.1050, 0.2903025
700.0334, 0.2902599
701.9619, 0.2905774
703.8904, 0.2914027
705.8188, 0.2928878
707.7473, 0.2939155
709.6758, 0.2940924
711.6042, 0.2942099
713.5327, 0.2951385
715.4612, 0.2955327
717.3896, 0.2956358
719.3181, 0.2962991
721.2466, 0.2973300
723.1750, 0.2978113
725.1035, 0.2974906
727.0320, 0.2983124
728.9604, 0.2997374
730.8889, 0.3001067
732.8174, 0.3002272
734.7458, 0.3011036
736.6743, 0.3014510
738.6028, 0.3019443
740.5313, 0.3033775
742.4597, 0.3039052
744.3882, 0.3042372
746.3167, 0.3051434
748.2451, 0.3058638
750.1736, 0.3065438
752.1021, 0.3071136
754.0305, 0.3077021
755.9590, 0.3081719
757.8875, 0.3087744
759.8159, 0.3103570
761.7444, 0.3110667
763.6729, 0.3114289
765.6013, 0.3124167
767.5298, 0.3136459
769.4583, 0.3140897
771.3867, 0.3146133
773.3152, 0.3150734
775.2437, 0.3155000
777.1721, 0.3168226
779.1006, 0.3175314
781.0291, 0.3177041
782.9575, 0.3181294
784.8860, 0.3192474
786.8145, 0.3204188
788.7429, 0.3210351
790.6714, 0.3211942
792.5999, 0.3211812
794.5283, 0.3217199
796.4568, 0.3226623
798.3853, 0.3234772
800.3137, 0.3235052
802.2422, 0.3236457
804.1707, 0.3237652
806.0991, 0.3237580
808.0276, 0.3236003
809.9561, 0.3238753
811.8845, 0.3239539
813.8130, 0.3231688
815.7415, 0.3228345
817.6699, 0.3231601
819.5984, 0.3234283
821.5269, 0.3234472
823.4553, 0.3234271
825.3838, 0.3231860
827.3123, 0.3227728
829.2407, 0.3228078
831.1692, 0.3227369
833.0977, 0.3227817
835.0261, 0.3231243
836.9546, 0.3230577
838.8831, 0.3232121
840.8115, 0.3233522
842.7400, 0.3230755
844.6685, 0.3227426
846.5969, 0.3230214
848.5254, 0.3234979
850.4539, 0.3235959
852.3823, 0.3233368
854.3108, 0.3233118
856.2393, 0.3231989
858.1677, 0.3240485
860.0962, 0.3243904
862.0247, 0.3246468
863.9531, 0.3249909
865.8816, 0.3249044
867.8101, 0.3242670
869.7385, 0.3242619
871.6670, 0.3240471
873.5955, 0.3240694
875.5239, 0.3247954
877.4524, 0.3250211
879.3809, 0.3245458
881.3093, 0.3239156
883.2378, 0.3240975
885.1663, 0.3250073
887.0947, 0.3255116
889.0232, 0.3251638
890.9517, 0.3249972
892.8801, 0.3246896
894.8085, 0.3247206
896.7370, 0.3247117
898.6655, 0.3247539
900.5939, 0.3253739
902.5224, 0.3259135
904.4509, 0.3253336
906.3793, 0.3252995
908.3078, 0.3254704
910.2363, 0.3252899
912.1647, 0.3250632
914.0932, 0.3253606
916.0217, 0.3261347
917.9501, 0.3263718
919.8786, 0.3259114
921.8071, 0.3257032
923.7355, 0.3258432
925.6640, 0.3259795
927.5925, 0.3261890
929.5209, 0.3262710
931.4494, 0.3265195
933.3779, 0.3270763
935.3063, 0.3272759
937.2348, 0.3271390
939.1633, 0.3271899
941.0917, 0.3282118
943.0202, 0.3291174
944.9487, 0.3293572
946.8771, 0.3294277
948.8056, 0.3296384
950.7341, 0.3300740
952.6625, 0.3309121
954.5910, 0.3317398
956.5195, 0.3324809
958.4479, 0.3331543
960.3764, 0.3336166
962.3049, 0.3342369
964.2333, 0.3348394
966.1618, 0.3355871
968.0903, 0.3361618
970.0187, 0.3371892
971.9472, 0.3380876
973.8757, 0.3383446
975.8041, 0.3389621
977.7326, 0.3396523
979.6611, 0.3403115
981.5895, 0.3408076
983.5180, 0.3415297
985.4465, 0.3425923
987.3749, 0.3434216
989.3034, 0.3437826
991.2319, 0.3441445
993.1603, 0.3449431
995.0888, 0.3458384
997.0173, 0.3462619
998.9457, 0.3469838
1000.874, 0.3484654
1002.803, 0.3497511
1004.731, 0.3505045
1006.660, 0.3518791
1008.588, 0.3536944
1010.517, 0.3556232
1012.445, 0.3568929
1014.373, 0.3574032
1016.302, 0.3579557
1018.230, 0.3586968
1020.159, 0.3593350
1022.087, 0.3591939
1024.016, 0.3586859
1025.944, 0.3583378
1027.873, 0.3586222
1029.801, 0.3597104
1031.730, 0.3611276
1033.658, 0.3626700
1035.587, 0.3640213
1037.515, 0.3651217
1039.444, 0.3669734
1041.372, 0.3690338
1043.301, 0.3702537
1045.229, 0.3715297
1047.157, 0.3726378
1049.086, 0.3736693
1051.014, 0.3748722
1052.943, 0.3762578
1054.871, 0.3773847
1056.800, 0.3783452
1058.728, 0.3797677
1060.657, 0.3817628
1062.585, 0.3831103
1064.514, 0.3841045
1066.442, 0.3848680
1068.371, 0.3858388
1070.299, 0.3865367
1072.228, 0.3864275
1074.156, 0.3870063
1076.084, 0.3880944
1078.013, 0.3890788
1079.941, 0.3893913
1081.870, 0.3896431
1083.798, 0.3901513
1085.727, 0.3901372
1087.655, 0.3902873
1089.584, 0.3909452
1091.512, 0.3914624
1093.441, 0.3916136
1095.369, 0.3922506
1097.298, 0.3929646
1099.226, 0.3932979
1101.155, 0.3937280
1103.083, 0.3934356
1105.011, 0.3935593
1106.940, 0.3942478
1108.868, 0.3942147
1110.797, 0.3941166
1112.725, 0.3943170
1114.654, 0.3941866
1116.582, 0.3932807
1118.511, 0.3924414
1120.439, 0.3918998
1122.368, 0.3912779
1124.296, 0.3901147
1126.225, 0.3893893
1128.153, 0.3889354
1130.082, 0.3878365
1132.010, 0.3869233
1133.938, 0.3859553
1135.867, 0.3851010
1137.795, 0.3848511
1139.724, 0.3844513
1141.652, 0.3834351
1143.581, 0.3829693
1145.509, 0.3822089
1147.438, 0.3814152
1149.366, 0.3810891
1151.295, 0.3803432
1153.223, 0.3791298
1155.152, 0.3785285
1157.080, 0.3778817
1159.009, 0.3769428
1160.937, 0.3761438
1162.865, 0.3748680
1164.794, 0.3738731
1166.722, 0.3730226
1168.651, 0.3720589
1170.579, 0.3710525
1172.508, 0.3696924
1174.436, 0.3683925
1176.365, 0.3677837
1178.293, 0.3673530
1180.222, 0.3663994
1182.150, 0.3655580
1184.079, 0.3644321
1186.007, 0.3641744
1187.936, 0.3637324
1189.864, 0.3630229
1191.792, 0.3624110
1193.721, 0.3617733
1195.649, 0.3609964
1197.578, 0.3603146
1199.506, 0.3593253
1201.435, 0.3575833
1203.363, 0.3560104
1205.292, 0.3549023
1207.220, 0.3536267
1209.149, 0.3526635
1211.077, 0.3511874
1213.006, 0.3493140
1214.934, 0.3476237
1216.863, 0.3464638
1218.791, 0.3456040
1220.719, 0.3445666
1222.648, 0.3433841
1224.576, 0.3422517
1226.505, 0.3414631
1228.433, 0.3409685
1230.362, 0.3406958
1232.290, 0.3399455
1234.219, 0.3395197
1236.147, 0.3390867
1238.076, 0.3389294
1240.004, 0.3391635
1241.933, 0.3392259
1243.861, 0.3393100
1245.790, 0.3394846
1247.718, 0.3397827
1249.646, 0.3403976
1251.575, 0.3412393
1253.503, 0.3417515
1255.432, 0.3419743
1257.360, 0.3424853
1259.289, 0.3428689
1261.217, 0.3433600
1263.146, 0.3437159
1265.074, 0.3439203
1267.003, 0.3445912
1268.931, 0.3451802
1270.860, 0.3458538
1272.788, 0.3465880
1274.717, 0.3470650
1276.645, 0.3472646
1278.573, 0.3478153
1280.502, 0.3484170
1282.430, 0.3487923
1284.359, 0.3488628
1286.287, 0.3492155
1288.216, 0.3498537
1290.144, 0.3503084
1292.073, 0.3507733
1294.001, 0.3511741
1295.930, 0.3515915
1297.858, 0.3519278
1299.787, 0.3523484
1301.715, 0.3527983
1303.644, 0.3530665
1305.572, 0.3530785
1307.500, 0.3532543
1309.429, 0.3538586
1311.357, 0.3545450
1313.286, 0.3549280
1315.214, 0.3550315
1317.143, 0.3553271
1319.071, 0.3557857
1321.000, 0.3561445
1322.928, 0.3566919
1324.857, 0.3568054
1326.785, 0.3571449
1328.714, 0.3576106
1330.642, 0.3580609
1332.571, 0.3583919
1334.499, 0.3585572
1336.427, 0.3589873
1338.356, 0.3594368
1340.284, 0.3596808
1342.213, 0.3602735
1344.141, 0.3607537
1346.070, 0.3608318
1347.998, 0.3612954
1349.927, 0.3619407
1351.855, 0.3625909
1353.784, 0.3629437
1355.712, 0.3631512
1357.641, 0.3635132
1359.569, 0.3639542
1361.498, 0.3645054
1363.426, 0.3648197
1365.354, 0.3651231
1367.283, 0.3656104
1369.211, 0.3660198
1371.140, 0.3662026
1373.068, 0.3663850
1374.997, 0.3668895
1376.925, 0.3674573
1378.854, 0.3676903
1380.782, 0.3680050
1382.711, 0.3683115
1384.639, 0.3683291
1386.568, 0.3684981
1388.496, 0.3685564
1390.424, 0.3686441
1392.353, 0.3691946
1394.281, 0.3694791
1396.210, 0.3695895
1398.138, 0.3698803
1400.067, 0.3703671
1401.995, 0.3709642
1403.924, 0.3712524
1405.852, 0.3716502
1407.781, 0.3720353
1409.709, 0.3721008
1411.638, 0.3724759
1413.566, 0.3726903
1415.495, 0.3724512
1417.423, 0.3728831
1419.351, 0.3736742
1421.280, 0.3738843
1423.208, 0.3741541
1425.137, 0.3745022
1427.065, 0.3750488
1428.994, 0.3752983
1430.922, 0.3755978
1432.851, 0.3759407
1434.779, 0.3764691
1436.708, 0.3767418
1438.636, 0.3772573
1440.565, 0.3779547
1442.493, 0.3782642
1444.422, 0.3786052
1446.350, 0.3791333
1448.278, 0.3797917
1450.207, 0.3798866
1452.135, 0.3800886
1454.064, 0.3806529
1455.992, 0.3818046
1457.921, 0.3819453
1459.849, 0.3816743
1461.778, 0.3816318
1463.706, 0.3816712
1465.635, 0.3817268
1467.563, 0.3815021
1469.492, 0.3813934
1471.420, 0.3815088
1473.349, 0.3817265
1475.277, 0.3818837
1477.205, 0.3823616
1479.134, 0.3826021
1481.062, 0.3827022
1482.991, 0.3828468
1484.919, 0.3829115
1486.848, 0.3834457
1488.776, 0.3840064
1490.705, 0.3841655
1492.633, 0.3842633
1494.562, 0.3849267
1496.490, 0.3855835
1498.419, 0.3856143
1500.347, 0.3856046
1502.276, 0.3859801
1504.204, 0.3863129
1506.132, 0.3870658
1508.061, 0.3872075
1509.989, 0.3870050
1511.918, 0.3872859
1513.846, 0.3874269
1515.775, 0.3875135
1517.703, 0.3874400
1519.632, 0.3876301
1521.560, 0.3883587
1523.489, 0.3888260
1525.417, 0.3891880
1527.346, 0.3894744
1529.274, 0.3892984
1531.203, 0.3893398
1533.131, 0.3898879
1535.059, 0.3899941
1536.988, 0.3901730
1538.916, 0.3906386
1540.845, 0.3908077
1542.773, 0.3908327
1544.702, 0.3910946
1546.630, 0.3913857
1548.559, 0.3916686
1550.487, 0.3920330
1552.416, 0.3926376
1554.344, 0.3930804
1556.273, 0.3931077
1558.201, 0.3934924
1560.130, 0.3937785
1562.058, 0.3937486
1563.986, 0.3938087
1565.915, 0.3939469
1567.843, 0.3945113
1569.772, 0.3947191
1571.700, 0.3948340
1573.629, 0.3954361
1575.557, 0.3961614
1577.486, 0.3964384
1579.414, 0.3968033
1581.343, 0.3972776
1583.271, 0.3973539
1585.200, 0.3973471
1587.128, 0.3974190
1589.057, 0.3978618
1590.985, 0.3981513
1592.913, 0.3978388
1594.842, 0.3979096
1596.770, 0.3987481
1598.699, 0.3992720
1600.627, 0.3993547
1602.556, 0.3998147
1604.484, 0.4000347
1606.413, 0.3999808
1608.341, 0.4003933
1610.270, 0.4007838
1612.198, 0.4013466
1614.127, 0.4016359
1616.055, 0.4020739
1617.984, 0.4026867
1619.912, 0.4026571
1621.840, 0.4026814
1623.769, 0.4027694
1625.697, 0.4026334
1627.626, 0.4031448
1629.554, 0.4034988
1631.483, 0.4037979
1633.411, 0.4041242
1635.340, 0.4041465
1637.268, 0.4042625
1639.197, 0.4042872
1641.125, 0.4044301
1643.054, 0.4046726
1644.982, 0.4049987
1646.911, 0.4047655
1648.839, 0.4049083
1650.767, 0.4052285
1652.696, 0.4054022
1654.624, 0.4053662
1656.553, 0.4052363
1658.481, 0.4050783
1660.410, 0.4051301
1662.338, 0.4053953
1664.267, 0.4050727
1666.195, 0.4046499
1668.124, 0.4050523
1670.052, 0.4054265
1671.981, 0.4054140
1673.909, 0.4054758
1675.838, 0.4052113
1677.766, 0.4049124
1679.694, 0.4051193
1681.623, 0.4054051
1683.551, 0.4056800
1685.480, 0.4056562
1687.408, 0.4056260
1689.337, 0.4057519
1691.265, 0.4056341
1693.194, 0.4058286
1695.122, 0.4062478
1697.051, 0.4067148
1698.979, 0.4076965
1700.908, 0.4082164
1702.836, 0.4076889
1704.765, 0.4079293
1706.693, 0.4086893
1708.621, 0.4090543
1710.550, 0.4091607
1712.478, 0.4092492
1714.407, 0.4095529
1716.335, 0.4097670
1718.264, 0.4095418
1720.192, 0.4090604
1722.121, 0.4092032
1724.049, 0.4095677
1725.978, 0.4101708
1727.906, 0.4107698
1729.835, 0.4111972
1731.763, 0.4114421
1733.692, 0.4119850
1735.620, 0.4118646
1737.548, 0.4117907
1739.477, 0.4121590
1741.405, 0.4119276
1743.334, 0.4121228
1745.262, 0.4117084
1747.191, 0.4113168
1749.119, 0.4117758
1751.048, 0.4115798
1752.976, 0.4102741
1754.905, 0.4099455
1756.833, 0.4105679
1758.762, 0.4109569
1760.690, 0.4110352
1762.619, 0.4111006
1764.547, 0.4112470
1766.475, 0.4111649
1768.404, 0.4111850
1770.332, 0.4116236
1772.261, 0.4117536
1774.189, 0.4119409
1776.118, 0.4123775
1778.046, 0.4124831
1779.975, 0.4129245
1781.903, 0.4125835
1783.832, 0.4123796
1785.760, 0.4126047
1787.689, 0.4132345
1789.617, 0.4136391
1791.546, 0.4136266
1793.474, 0.4135427
1795.402, 0.4136512
1797.331, 0.4137969
1799.259, 0.4142742
1801.188, 0.4146928
1803.116, 0.4149404
1805.045, 0.4142958
1806.973, 0.4139715
1808.902, 0.4145826
1810.830, 0.4151998
1812.759, 0.4151727
1814.687, 0.4149122
1816.616, 0.4144268
1818.544, 0.4153872
1820.473, 0.4158934
1822.401, 0.4158148
1824.329, 0.4159241
1826.258, 0.4159209
1828.186, 0.4168023
1830.115, 0.4172119
1832.043, 0.4162708
1833.972, 0.4155542
1835.900, 0.4162166
1837.829, 0.4164970
1839.757, 0.4170285
1841.686, 0.4170431
1843.614, 0.4167370
1845.543, 0.4173196
1847.471, 0.4173354
1849.400, 0.4171945
1851.328, 0.4170669
1853.256, 0.4176685
1855.185, 0.4179417
1857.113, 0.4186663
1859.042, 0.4186213
1860.970, 0.4170610
1862.899, 0.4173396
1864.827, 0.4188395
1866.756, 0.4184907
1868.684, 0.4174552
1870.613, 0.4182636
1872.541, 0.4197746
1874.470, 0.4199150
1876.398, 0.4203402
1878.327, 0.4206700
1880.255, 0.4204863
1882.183, 0.4206205
1884.112, 0.4207885
1886.040, 0.4214581
1887.969, 0.4211807
1889.897, 0.4207905
1891.826, 0.4211258
1893.754, 0.4220762
1895.683, 0.4220281
1897.611, 0.4209934
1899.540, 0.4204277
1901.468, 0.4203477
1903.397, 0.4199846
1905.325, 0.4202859
1907.254, 0.4201159
1909.182, 0.4200541
1911.110, 0.4210042
1913.039, 0.4217582
1914.967, 0.4212663
1916.896, 0.4215524
1918.824, 0.4223464
1920.753, 0.4221087
1922.681, 0.4210564
1924.610, 0.4210467
1926.538, 0.4219473
1928.467, 0.4217952
1930.395, 0.4213952
1932.324, 0.4205880
1934.252, 0.4199967
1936.181, 0.4200005
1938.109, 0.4192410
1940.037, 0.4183268
1941.966, 0.4185229
1943.894, 0.4203713
1945.823, 0.4205303
1947.751, 0.4181508
1949.680, 0.4169081
1951.608, 0.4166377
1953.537, 0.4162692
1955.465, 0.4154259
1957.394, 0.4132642
1959.322, 0.4123874
1961.251, 0.4141578
1963.179, 0.4162318
1965.108, 0.4129645
1967.036, 0.4111150
1968.964, 0.4128053
1970.893, 0.4114178
1972.821, 0.4111119
1974.750, 0.4103010
1976.678, 0.4112516
1978.607, 0.4109289
1980.535, 0.4116492
1982.464, 0.4142355
1984.392, 0.4153938
1986.321, 0.4151106
1988.249, 0.4159590
1990.178, 0.4166621
1992.106, 0.4162424
1994.035, 0.4161212
1995.963, 0.4188253
1997.891, 0.4186717
1999.820, 0.4173061
2001.748, 0.4164704
2003.677, 0.4160863
2005.605, 0.4158979
2007.534, 0.4145618
2009.462, 0.4133517
2011.391, 0.4160511
2013.319, 0.4150687
2015.248, 0.4131044
2017.176, 0.4130355
2019.105, 0.4121197
2021.033, 0.4103385
2022.962, 0.4128678
2024.890, 0.4126678
2026.818, 0.4124467
2028.747, 0.4143316
2030.675, 0.4158493
2032.604, 0.4147040
2034.532, 0.4171363
2036.461, 0.4199011
2038.389, 0.4210911
2040.318, 0.4216132
2042.246, 0.4217385
2044.175, 0.4205556
2046.103, 0.4200218
2048.032, 0.4221049
2049.960, 0.4270898
2051.889, 0.4301223
2053.817, 0.4299404
2055.746, 0.4291497
2057.674, 0.4298357
2059.603, 0.4288976
2061.531, 0.4281006
2063.459, 0.4290866
2065.388, 0.4309226
2067.316, 0.4336267
2069.245, 0.4348762
2071.173, 0.4324257
2073.102, 0.4304332
2075.030, 0.4325687
2076.959, 0.4347887
2078.887, 0.4334196
2080.816, 0.4328310
2082.744, 0.4337209
2084.673, 0.4343590
2086.601, 0.4352651
2088.530, 0.4355047
2090.458, 0.4351406
2092.386, 0.4354346
2094.315, 0.4357835
2096.243, 0.4362373
2098.172, 0.4357581
2100.100, 0.4345251
2102.029, 0.4365156
2103.957, 0.4390234
2105.886, 0.4389532
2107.814, 0.4359603
2109.743, 0.4353316
2111.671, 0.4359344
2113.600, 0.4368606
2115.528, 0.4368614
2117.457, 0.4372215
2119.385, 0.4380215
2121.313, 0.4370500
2123.242, 0.4378489
2125.170, 0.4372136
2127.099, 0.4362261
2129.027, 0.4360652
2130.956, 0.4344962
2132.884, 0.4328114
2134.813, 0.4323712
2136.741, 0.4318341
2138.670, 0.4290181
2140.598, 0.4284135
2142.527, 0.4316097
2144.455, 0.4329167
2146.384, 0.4309064
2148.312, 0.4284236
2150.240, 0.4277932
2152.169, 0.4225807
2154.097, 0.4206285
2156.026, 0.4188332
2157.954, 0.4176373
2159.883, 0.4181526
2161.811, 0.4208802
2163.740, 0.4225998
2165.668, 0.4265839
2167.597, 0.4318835
2169.525, 0.4312480
2171.454, 0.4284223
2173.382, 0.4261996
2175.311, 0.4254893
2177.239, 0.4257894
2179.167, 0.4278109
2181.096, 0.4295620
2183.024, 0.4280865
2184.953, 0.4267535
2186.881, 0.4270046
2188.810, 0.4310616
2190.738, 0.4347093
2192.667, 0.4359350
2194.595, 0.4356231
2196.524, 0.4336697
2198.452, 0.4340470
2200.381, 0.4364001
2202.309, 0.4376650
2204.238, 0.4394299
2206.166, 0.4414496
2208.094, 0.4411216
2210.023, 0.4383187
2211.951, 0.4367816
2213.880, 0.4381965
2215.808, 0.4424889
2217.737, 0.4440559
2219.665, 0.4434602
2221.594, 0.4429131
2223.522, 0.4432317
2225.451, 0.4442408
2227.379, 0.4430415
2229.308, 0.4431095
2231.236, 0.4438427
2233.165, 0.4421938
2235.093, 0.4416033
2237.021, 0.4444430
2238.950, 0.4456910
2240.878, 0.4453080
2242.807, 0.4452502
2244.735, 0.4461453
2246.664, 0.4473146
2248.592, 0.4476468
2250.521, 0.4476686
2252.449, 0.4493288
2254.378, 0.4495598
2256.306, 0.4488910
2258.235, 0.4504625
2260.163, 0.4499447
2262.092, 0.4513648
2264.020, 0.4529837
2265.948, 0.4527491
2267.877, 0.4532787
2269.805, 0.4543208
2271.734, 0.4542334
2273.662, 0.4550064
2275.591, 0.4545341
2277.519, 0.4538710
2279.448, 0.4546567
2281.376, 0.4570330
2283.305, 0.4574309
2285.233, 0.4578046
2287.162, 0.4584186
2289.090, 0.4582984
2291.019, 0.4593042
2292.947, 0.4605573
2294.875, 0.4618531
2296.804, 0.4609922
2298.732, 0.4606334
2300.661, 0.4620642
2302.589, 0.4622046
2304.518, 0.4618570
2306.446, 0.4622580
2308.375, 0.4630635
2310.303, 0.4638589
2312.232, 0.4652689
2314.160, 0.4656186
2316.089, 0.4656909
2318.017, 0.4660120
2319.946, 0.4666708
2321.874, 0.4665765
2323.802, 0.4666676
2325.731, 0.4680208
2327.659, 0.4684005
2329.588, 0.4671200
2331.516, 0.4668060
2333.445, 0.4670983
2335.373, 0.4667214
2337.302, 0.4665237
2339.230, 0.4670671
2341.159, 0.4677354
2343.087, 0.4677548
2345.016, 0.4674087
2346.944, 0.4670318
2348.873, 0.4670087
2350.801, 0.4677218
2352.729, 0.4685265
2354.658, 0.4686787
2356.586, 0.4693565
2358.515, 0.4693787
2360.443, 0.4698819
2362.372, 0.4693990
2364.300, 0.4680351
2366.229, 0.4680812
2368.157, 0.4681987
2370.086, 0.4681078
2372.014, 0.4682583
2373.942, 0.4689287
2375.871, 0.4689310
2377.799, 0.4691049
2379.728, 0.4694655
2381.656, 0.4689479
2383.585, 0.4683335
2385.513, 0.4684122
2387.442, 0.4694034
2389.370, 0.4695879
2391.299, 0.4693275
2393.227, 0.4691594
2395.156, 0.4681143
2397.084, 0.4664987
2399.012, 0.4663029
2400.941, 0.4684919
2402.869, 0.4691764
2404.798, 0.4689396
2406.726, 0.4687674
2408.655, 0.4688776
2410.583, 0.4696257
2412.512, 0.4700509
2414.440, 0.4704525
2416.369, 0.4706948
2418.297, 0.4713501
2420.226, 0.4716932
2422.154, 0.4715470
2424.083, 0.4712225
2426.011, 0.4711547
2427.939, 0.4722598
2429.868, 0.4724734
2431.796, 0.4716869
2433.725, 0.4720643
2435.653, 0.4724268
2437.582, 0.4714854
2439.510, 0.4710151
2441.439, 0.4723019
2443.367, 0.4741822
2445.296, 0.4746716
2447.224, 0.4737751
2449.153, 0.4737329
2451.081, 0.4752187
2453.010, 0.4747968
2454.938, 0.4738155
2456.866, 0.4739369
2458.795, 0.4734956
2460.723, 0.4742411
2462.652, 0.4745671
2464.580, 0.4728685
2466.509, 0.4718131
2468.437, 0.4725377
2470.366, 0.4735657
2472.294, 0.4752451
2474.223, 0.4751031
2476.151, 0.4742429
2478.080, 0.4744881
2480.008, 0.4752936
2481.937, 0.4748771
2483.865, 0.4736362
2485.793, 0.4749064
2487.722, 0.4766972
2489.650, 0.4760879
2491.579, 0.4762036
2493.507, 0.4764321
2495.436, 0.4760099
2497.364, 0.4769208
2499.293, 0.4771900
2501.221, 0.4768593
2503.150, 0.4773563
2505.078, 0.4787681
2507.007, 0.4786579
2508.935, 0.4777020
2510.864, 0.4761665
2512.792, 0.4770267
2514.720, 0.4786133
2516.649, 0.4781174
2518.577, 0.4779038
2520.506, 0.4787692
2522.434, 0.4778848
2524.363, 0.4779015
2526.291, 0.4803528
2528.220, 0.4827788
2530.148, 0.4834560
2532.077, 0.4821219
2534.005, 0.4806865
2535.934, 0.4807650
2537.862, 0.4820291
2539.791, 0.4827663
2541.719, 0.4803271
2543.647, 0.4798670
2545.576, 0.4807947
2547.504, 0.4809250
2549.433, 0.4824759
2551.361, 0.4826218
2553.290, 0.4822516
2555.218, 0.4836450
2557.147, 0.4822267
2559.075, 0.4819755
2561.004, 0.4833159
2562.932, 0.4823782
2564.861, 0.4811274
2566.789, 0.4824817
2568.718, 0.4830281
2570.646, 0.4833055
2572.574, 0.4838906
2574.503, 0.4842621
2576.431, 0.4838541
2578.360, 0.4829677
2580.288, 0.4833859
2582.217, 0.4849397
2584.145, 0.4852934
2586.074, 0.4866530
2588.002, 0.4879602
2589.931, 0.4873737
2591.859, 0.4854206
2593.788, 0.4845165
2595.716, 0.4854558
2597.645, 0.4883563
2599.573, 0.4898197
2601.501, 0.4882493
2603.430, 0.4872706
2605.358, 0.4882285
2607.287, 0.4885056
2609.215, 0.4879745
2611.144, 0.4882810
2613.072, 0.4893832
2615.001, 0.4907061
2616.929, 0.4912557
2618.858, 0.4905220
2620.786, 0.4907930
2622.715, 0.4898898
2624.643, 0.4895116
2626.572, 0.4912741
2628.500, 0.4919732
2630.428, 0.4914573
2632.357, 0.4924472
2634.285, 0.4929534
2636.214, 0.4929485
2638.142, 0.4932630
2640.071, 0.4935929
2641.999, 0.4945276
2643.928, 0.4949867
2645.856, 0.4942759
2647.785, 0.4944915
2649.713, 0.4953552
2651.642, 0.4948142
2653.570, 0.4944698
2655.499, 0.4959136
2657.427, 0.4968023
2659.355, 0.4964100
2661.284, 0.4972398
2663.212, 0.4973063
2665.141, 0.4960335
2667.069, 0.4970330
2668.998, 0.4985011
2670.926, 0.4986357
2672.855, 0.4983493
2674.783, 0.4988256
2676.712, 0.4983658
2678.640, 0.4977222
2680.569, 0.4967863
2682.497, 0.4963681
2684.426, 0.4971476
2686.354, 0.4978141
2688.282, 0.4981537
2690.211, 0.4988723
2692.139, 0.4985638
2694.068, 0.4979311
2695.996, 0.4975553
2697.925, 0.4991251
2699.853, 0.4998946
2701.782, 0.5000345
2703.710, 0.4992346
2705.639, 0.4989398
2707.567, 0.4999331
2709.496, 0.5004143
2711.424, 0.5000082
2713.353, 0.4999515
2715.281, 0.5013263
2717.209, 0.5025594
2719.138, 0.5035352
2721.066, 0.5037417
2722.995, 0.5027518
2724.923, 0.5021694
2726.852, 0.5023385
2728.780, 0.5025260
2730.709, 0.5020912
2732.637, 0.5020952
2734.566, 0.5030550
2736.494, 0.5029978
2738.423, 0.5029405
2740.351, 0.5030319
2742.280, 0.5025162
2744.208, 0.5025634
2746.136, 0.5026221
2748.065, 0.5035622
2749.993, 0.5039305
2751.922, 0.5041455
2753.850, 0.5036788
2755.779, 0.5043414
2757.707, 0.5060484
2759.636, 0.5060769
2761.564, 0.5062427
2763.493, 0.5063950
2765.421, 0.5056033
2767.350, 0.5056359
2769.278, 0.5064735
2771.207, 0.5065104
2773.135, 0.5059115
2775.063, 0.5052462
2776.992, 0.5064522
2778.920, 0.5064397
2780.849, 0.5065007
2782.777, 0.5078847
2784.706, 0.5078374
2786.634, 0.5071275
2788.563, 0.5082656
2790.491, 0.5085996
2792.420, 0.5079079
2794.348, 0.5087695
2796.277, 0.5097477
2798.205, 0.5095797
2800.134, 0.5094585
2802.062, 0.5095653
2803.990, 0.5099695
2805.919, 0.5101894
2807.847, 0.5105473
2809.776, 0.5111666
2811.704, 0.5109665
2813.633, 0.5114204
2815.561, 0.5114967
2817.490, 0.5113313
2819.418, 0.5120534
2821.347, 0.5128843
2823.275, 0.5132626
2825.204, 0.5129274
2827.132, 0.5132005
2829.061, 0.5144548
2830.989, 0.5134601
2832.917, 0.5135327
2834.846, 0.5139790
2836.774, 0.5132372
2838.703, 0.5122641
2840.631, 0.5132111
2842.560, 0.5145019
2844.488, 0.5159568
2846.417, 0.5167373
2848.345, 0.5150926
2850.274, 0.5148263
2852.202, 0.5144220
2854.131, 0.5137970
2856.059, 0.5145840
2857.988, 0.5147014
2859.916, 0.5140992
2861.844, 0.5139809
2863.773, 0.5141637
2865.701, 0.5152008
2867.630, 0.5157813
2869.558, 0.5155118
2871.487, 0.5148605
2873.415, 0.5145292
2875.344, 0.5166886
2877.272, 0.5182537
2879.201, 0.5185245
2881.129, 0.5186148
2883.058, 0.5180660
2884.986, 0.5179887
2886.915, 0.5168329
2888.843, 0.5168805
2890.771, 0.5195387
2892.700, 0.5201209
2894.628, 0.5185752
2896.557, 0.5181836
2898.485, 0.5177141
2900.414, 0.5188097
2902.342, 0.5211510
2904.271, 0.5199258
2906.199, 0.5198150
2908.128, 0.5218379
2910.056, 0.5234329
2911.985, 0.5241342
2913.913, 0.5236259
2915.842, 0.5229096
2917.770, 0.5218467
2919.698, 0.5208503
2921.627, 0.5212603
2923.555, 0.5217867
2925.484, 0.5194789
2927.412, 0.5184937
2929.341, 0.5177977
2931.269, 0.5157238
2933.198, 0.5156937
2935.126, 0.5177003
2937.055, 0.5177521
2938.983, 0.5156955
2940.912, 0.5155823
2942.840, 0.5178486
2944.769, 0.5198717
2946.697, 0.5208345
2948.625, 0.5196108
2950.554, 0.5194108
2952.482, 0.5192696
2954.411, 0.5194983
2956.339, 0.5204554
2958.268, 0.5202138
2960.196, 0.5190335
2962.125, 0.5183235
2964.053, 0.5188408
2965.982, 0.5180673
2967.910, 0.5178124
2969.839, 0.5191370
2971.767, 0.5210255
2973.696, 0.5220909
2975.624, 0.5207364
2977.552, 0.5203679
2979.481, 0.5218816
2981.409, 0.5219948
2983.338, 0.5214046
2985.266, 0.5206696
2987.195, 0.5206349
2989.123, 0.5206253
2991.052, 0.5210297
2992.980, 0.5210338
2994.909, 0.5218053
2996.837, 0.5239661
2998.766, 0.5232477
3000.694, 0.5226172
3002.623, 0.5228806
3004.551, 0.5226758
3006.479, 0.5236713
3008.408, 0.5250764
3010.336, 0.5246789
3012.265, 0.5243081
3014.193, 0.5249897
3016.122, 0.5247750
3018.050, 0.5234872
3019.979, 0.5231704
3021.907, 0.5247253
3023.836, 0.5261329
3025.764, 0.5255688
3027.693, 0.5256252
3029.621, 0.5272402
3031.550, 0.5276631
3033.478, 0.5273488
3035.406, 0.5272676
3037.335, 0.5273029
3039.263, 0.5253052
3041.192, 0.5258008
3043.120, 0.5270944
3045.049, 0.5278665
3046.977, 0.5277587
3048.906, 0.5275699
3050.834, 0.5281752
3052.763, 0.5268446
3054.691, 0.5264475
3056.620, 0.5260761
3058.548, 0.5263981
3060.477, 0.5290655
3062.405, 0.5294313
3064.333, 0.5284989
3066.262, 0.5287776
3068.190, 0.5290858
3070.119, 0.5294295
3072.047, 0.5300675
3073.976, 0.5294335
3075.904, 0.5302100
3077.833, 0.5297675
3079.761, 0.5304546
3081.690, 0.5316429
3083.618, 0.5312135
3085.547, 0.5305505
3087.475, 0.5315710
3089.404, 0.5313869
3091.332, 0.5306095
3093.260, 0.5307065
3095.189, 0.5307503
3097.117, 0.5316268
3099.046, 0.5329251
3100.974, 0.5328593
3102.903, 0.5315911
3104.831, 0.5324870
3106.760, 0.5342774
3108.688, 0.5334594
3110.617, 0.5324642
3112.545, 0.5324429
3114.474, 0.5331534
3116.402, 0.5348958
3118.331, 0.5346437
3120.259, 0.5343759
3122.188, 0.5341383
3124.116, 0.5331115
3126.044, 0.5321884
3127.973, 0.5331618
3129.901, 0.5352801
3131.830, 0.5351640
3133.758, 0.5347850
3135.687, 0.5353140
3137.615, 0.5359519
3139.544, 0.5381852
3141.472, 0.5383028
3143.401, 0.5376441
3145.329, 0.5376958
3147.258, 0.5375193
3149.186, 0.5376654
3151.115, 0.5364890
3153.043, 0.5362306
3154.971, 0.5366275
3156.900, 0.5376540
3158.828, 0.5359497
3160.757, 0.5352142
3162.685, 0.5376666
3164.614, 0.5390610
3166.542, 0.5405051
3168.471, 0.5381877
3170.399, 0.5372308
3172.328, 0.5399289
3174.256, 0.5386256
3176.185, 0.5366043
3178.113, 0.5375493
3180.042, 0.5400325
3181.970, 0.5402450
3183.898, 0.5384922
3185.827, 0.5368798
3187.755, 0.5379351
3189.684, 0.5386401
3191.612, 0.5382267
3193.541, 0.5392889
3195.469, 0.5396683
3197.398, 0.5377784
3199.326, 0.5363423
3201.255, 0.5356520
3203.183, 0.5373687
3205.112, 0.5368362
3207.040, 0.5362650
3208.969, 0.5404801
3210.897, 0.5421790
3212.825, 0.5412431
3214.754, 0.5426176
3216.682, 0.5426907
3218.611, 0.5409854
3220.539, 0.5400277
3222.468, 0.5405173
3224.396, 0.5416298
3226.325, 0.5428934
3228.253, 0.5454438
3230.182, 0.5444730
3232.110, 0.5422320
3234.039, 0.5419727
3235.967, 0.5431297
3237.896, 0.5463921
3239.824, 0.5461283
3241.752, 0.5455469
3243.681, 0.5449697
3245.609, 0.5444819
3247.538, 0.5451156
3249.466, 0.5452501
3251.395, 0.5431184
3253.323, 0.5433449
3255.252, 0.5431740
3257.180, 0.5431646
3259.109, 0.5435491
3261.037, 0.5452517
3262.966, 0.5462487
3264.894, 0.5444399
3266.823, 0.5429489
3268.751, 0.5434027
3270.679, 0.5446892
3272.608, 0.5454059
3274.536, 0.5449001
3276.465, 0.5451890
3278.393, 0.5457910
3280.322, 0.5442362
3282.250, 0.5457993
3284.179, 0.5462053
3286.107, 0.5462657
3288.036, 0.5482327
3289.964, 0.5473781
3291.893, 0.5487890
3293.821, 0.5500116
3295.750, 0.5476617
3297.678, 0.5466287
3299.606, 0.5461136
3301.535, 0.5446785
3303.463, 0.5448115
3305.392, 0.5480641
3307.320, 0.5490062
3309.249, 0.5474992
3311.177, 0.5460047
3313.106, 0.5487246
3315.034, 0.5489962
3316.963, 0.5485559
3318.891, 0.5461177
3320.820, 0.5463280
3322.748, 0.5484933
3324.677, 0.5485682
3326.605, 0.5471256
3328.533, 0.5456845
3330.462, 0.5474159
3332.390, 0.5487678
3334.319, 0.5487558
3336.247, 0.5483131
3338.176, 0.5480210
3340.104, 0.5498844
3342.033, 0.5491067
3343.961, 0.5460088
3345.890, 0.5452646
3347.818, 0.5452641
3349.747, 0.5464200
3351.675, 0.5472022
3353.604, 0.5466505
3355.532, 0.5474181
3357.460, 0.5488979
3359.389, 0.5482305
3361.317, 0.5486755
3363.246, 0.5501447
3365.174, 0.5486215
3367.103, 0.5477443
3369.031, 0.5471636
3370.960, 0.5450011
3372.888, 0.5442896
3374.817, 0.5439597
3376.745, 0.5424308
3378.674, 0.5419841
3380.602, 0.5424568
3382.531, 0.5457520
3384.459, 0.5472723
3386.387, 0.5459294
3388.316, 0.5448606
3390.244, 0.5459855
3392.173, 0.5453031
3394.101, 0.5431508
3396.030, 0.5434118
3397.958, 0.5444919
3399.887, 0.5469363
3401.815, 0.5465522
3403.744, 0.5451268
3405.672, 0.5443596
3407.601, 0.5462471
3409.529, 0.5446172
3411.458, 0.5437197
3413.386, 0.5444643
3415.314, 0.5437114
3417.243, 0.5455793
3419.171, 0.5446932
3421.100, 0.5438417
3423.028, 0.5433348
3424.957, 0.5432345
3426.885, 0.5461966
3428.814, 0.5461167
3430.742, 0.5439762
3432.671, 0.5465589
3434.599, 0.5467362
3436.528, 0.5440602
3438.456, 0.5455832
3440.385, 0.5467970
3442.313, 0.5459483
3444.241, 0.5449662
3446.170, 0.5438675
3448.098, 0.5436243
3450.027, 0.5440470
3451.955, 0.5450675
3453.884, 0.5452496
3455.812, 0.5450425
3457.741, 0.5452666
3459.669, 0.5462690
3461.598, 0.5470262
3463.526, 0.5460641
3465.455, 0.5471525
3467.383, 0.5472025
3469.312, 0.5451287
3471.240, 0.5442916
3473.168, 0.5452943
3475.097, 0.5461118
3477.025, 0.5451725
3478.954, 0.5440586
3480.882, 0.5457723
3482.811, 0.5474056
3484.739, 0.5462400
3486.668, 0.5444235
3488.596, 0.5431044
3490.525, 0.5422488
3492.453, 0.5422751
3494.382, 0.5463777
3496.310, 0.5465666
3498.239, 0.5459176
3500.167, 0.5483159
3502.095, 0.5484459
3504.024, 0.5458396
3505.952, 0.5446413
3507.881, 0.5444799
3509.809, 0.5440401
3511.738, 0.5431938
3513.666, 0.5467758
3515.595, 0.5458111
3517.523, 0.5426720
3519.452, 0.5451449
3521.380, 0.5454812
3523.309, 0.5435776
3525.237, 0.5449349
3527.166, 0.5487271
3529.094, 0.5488008
3531.022, 0.5465980
3532.951, 0.5456460
3534.879, 0.5467961
3536.808, 0.5476934
3538.736, 0.5477098
3540.665, 0.5468268
3542.593, 0.5452813
3544.522, 0.5446965
3546.450, 0.5448452
3548.379, 0.5444443
3550.307, 0.5440506
3552.236, 0.5444706
3554.164, 0.5454163
3556.093, 0.5448485
3558.021, 0.5441320
3559.949, 0.5433329
3561.878, 0.5432659
3563.806, 0.5446305
3565.735, 0.5448514
3567.663, 0.5458635
3569.592, 0.5439034
3571.520, 0.5444161
3573.449, 0.5441130
3575.377, 0.5459045
3577.306, 0.5473105
3579.234, 0.5489848
3581.163, 0.5500341
3583.091, 0.5518290
3585.020, 0.5531127
3586.948, 0.5492648
3588.876, 0.5451846
3590.805, 0.5458177
3592.733, 0.5471418
3594.662, 0.5448012
3596.590, 0.5432045
3598.519, 0.5453418
3600.447, 0.5439603
3602.376, 0.5440539
3604.304, 0.5480127
3606.233, 0.5502416
3608.161, 0.5484778
3610.090, 0.5514762
3612.018, 0.5511895
3613.947, 0.5460444
3615.875, 0.5470514
3617.803, 0.5496069
3619.732, 0.5507417
3621.660, 0.5489517
3623.589, 0.5505029
3625.517, 0.5540813
3627.446, 0.5528384
3629.374, 0.5509983
3631.303, 0.5523475
3633.231, 0.5549338
3635.160, 0.5569438
3637.088, 0.5535699
3639.017, 0.5488990
3640.945, 0.5503684
3642.874, 0.5520442
3644.802, 0.5521675
3646.730, 0.5518438
3648.659, 0.5547245
3650.587, 0.5539286
3652.516, 0.5513163
3654.444, 0.5503109
3656.373, 0.5511804
3658.301, 0.5521580
3660.230, 0.5542741
3662.158, 0.5563197
3664.087, 0.5575035
3666.015, 0.5561106
3667.944, 0.5542700
3669.872, 0.5513017
3671.801, 0.5526879
3673.729, 0.5567909
3675.657, 0.5584444
3677.586, 0.5584009
3679.514, 0.5565336
3681.443, 0.5554632
3683.371, 0.5544249
3685.300, 0.5562826
3687.228, 0.5583661
3689.157, 0.5567919
3691.085, 0.5550563
3693.014, 0.5573050
3694.942, 0.5609243
3696.871, 0.5612438
3698.799, 0.5590240
3700.728, 0.5570634
3702.656, 0.5546383
3704.584, 0.5536481
3706.513, 0.5554174
3708.441, 0.5580922
3710.370, 0.5568951
3712.298, 0.5567275
3714.227, 0.5614879
3716.155, 0.5627300
3718.084, 0.5660937
3720.012, 0.5653247
3721.941, 0.5606694
3723.869, 0.5604786
3725.798, 0.5619776
3727.726, 0.5605483
3729.655, 0.5608239
3731.583, 0.5623263
3733.511, 0.5626678
3735.440, 0.5605671
3737.368, 0.5604267
3739.297, 0.5621826
3741.225, 0.5597173
3743.154, 0.5594392
3745.082, 0.5645640
3747.011, 0.5661009
3748.939, 0.5651370
3750.868, 0.5642588
3752.796, 0.5649640
3754.725, 0.5685210
3756.653, 0.5688078
3758.582, 0.5613079
3760.510, 0.5607361
3762.438, 0.5655776
3764.367, 0.5659274
3766.295, 0.5708632
3768.224, 0.5708200
3770.152, 0.5664048
3772.081, 0.5658088
3774.009, 0.5673774
3775.938, 0.5675767
3777.866, 0.5687054
3779.795, 0.5699103
3781.723, 0.5697427
3783.652, 0.5683679
3785.580, 0.5676262
3787.509, 0.5690538
3789.437, 0.5698995
3791.365, 0.5677482
3793.294, 0.5661532
3795.222, 0.5672916
3797.151, 0.5710101
3799.079, 0.5713670
3801.008, 0.5692669
3802.936, 0.5695071
3804.865, 0.5675450
3806.793, 0.5664728
3808.722, 0.5684327
3810.650, 0.5711198
3812.579, 0.5669149
3814.507, 0.5639842
3816.436, 0.5668883
3818.364, 0.5714355
3820.292, 0.5702321
3822.221, 0.5662265
3824.149, 0.5660700
3826.078, 0.5667487
3828.006, 0.5676724
3829.935, 0.5733891
3831.863, 0.5723326
3833.792, 0.5739263
3835.720, 0.5791830
3837.649, 0.5767173
3839.577, 0.5723720
3841.506, 0.5712813
3843.434, 0.5699067
3845.363, 0.5708804
3847.291, 0.5745323
3849.219, 0.5749003
3851.148, 0.5755919
3853.076, 0.5768012
3855.005, 0.5740548
3856.933, 0.5689039
3858.862, 0.5707676
3860.790, 0.5737192
3862.719, 0.5740342
3864.647, 0.5775549
3866.576, 0.5778123
3868.504, 0.5743077
3870.433, 0.5751372
3872.361, 0.5756010
3874.290, 0.5759904
3876.218, 0.5761163
3878.146, 0.5762953
3880.075, 0.5741070
3882.003, 0.5729010
3883.932, 0.5759485
3885.860, 0.5774674
3887.789, 0.5815677
3889.717, 0.5770401
3891.646, 0.5723806
3893.574, 0.5759611
3895.503, 0.5773718
3897.431, 0.5761212
3899.360, 0.5784510
3901.288, 0.5777355
3903.217, 0.5769472
3905.145, 0.5785814
3907.073, 0.5783526
3909.002, 0.5767158
3910.930, 0.5780200
3912.859, 0.5802435
3914.787, 0.5788301
3916.716, 0.5812898
3918.644, 0.5859458
3920.573, 0.5844216
3922.501, 0.5828164
3924.430, 0.5849440
3926.358, 0.5835019
3928.287, 0.5818205
3930.215, 0.5825251
3932.144, 0.5819739
3934.072, 0.5811006
3936.000, 0.5810188
3937.929, 0.5751388
3939.857, 0.5741978
3941.786, 0.5795609
3943.714, 0.5809333
3945.643, 0.5812789
3947.571, 0.5825914
3949.500, 0.5829867
3951.428, 0.5844555
3953.357, 0.5854268
3955.285, 0.5863084
3957.214, 0.5843005
3959.142, 0.5811778
3961.071, 0.5773957
3962.999, 0.5776140
3964.927, 0.5825610
3966.856, 0.5871211
3968.784, 0.5882560
3970.713, 0.5877470
3972.641, 0.5861287
3974.570, 0.5847909
3976.498, 0.5842503
3978.427, 0.5828162
3980.355, 0.5830840
3982.284, 0.5859635
3984.212, 0.5875188
3986.141, 0.5852183
3988.069, 0.5831191
3989.998, 0.5875095
3991.926, 0.5872356
3993.854, 0.5824523
3995.783, 0.5821506
3997.711, 0.5844362
3999.640, 0.5847181
##END=



