##NAMES=Thomsonite-Ca
##RRUFFID=R050091
##IDEAL CHEMISTRY=NaCa_2_(Al_5_Si_5_)O_20_&#183;6H_2_O
##LOCALITY=Amudikha River, near Mirny, Yakutia, Siberia, Russia
##OWNER=RRUFF
##SOURCE=Rock Currier
##DESCRIPTION=Radial groups of colorless bladed crystals
##STATUS=The identification of this mineral has been confirmed by X-ray diffraction and chemical analysis
##URL=rruff.info/R050091
##MEASURED CHEMISTRY=(Na_0.94_[box]_0.06_)_Σ=1_(Ca_1.71_Na_0.29_)_Σ=2_(Si_5.35_Al_4.65_)O_20_·7.09H_2_O
3.991926e+002, 1.832801e-001
4.011211e+002, 1.871399e-001
4.030496e+002, 1.880396e-001
4.049780e+002, 1.916020e-001
4.069065e+002, 1.920334e-001
4.088350e+002, 1.920785e-001
4.107634e+002, 1.904203e-001
4.126919e+002, 1.881052e-001
4.146204e+002, 1.879082e-001
4.165488e+002, 1.797910e-001
4.184773e+002, 1.725103e-001
4.204058e+002, 1.677184e-001
4.223342e+002, 1.609871e-001
4.242627e+002, 1.559003e-001
4.261912e+002, 1.538463e-001
4.281196e+002, 1.537021e-001
4.300481e+002, 1.556770e-001
4.319766e+002, 1.579645e-001
4.339050e+002, 1.563776e-001
4.358335e+002, 1.500205e-001
4.377620e+002, 1.399962e-001
4.396904e+002, 1.281266e-001
4.416189e+002, 1.173573e-001
4.435474e+002, 1.078616e-001
4.454758e+002, 9.794624e-002
4.474043e+002, 8.801698e-002
4.493328e+002, 8.070719e-002
4.512612e+002, 7.521378e-002
4.531897e+002, 7.218690e-002
4.551182e+002, 7.117383e-002
4.570466e+002, 7.045387e-002
4.589751e+002, 7.107940e-002
4.609036e+002, 7.230314e-002
4.628320e+002, 7.256149e-002
4.647605e+002, 7.241609e-002
4.666890e+002, 7.224467e-002
4.686174e+002, 7.198440e-002
4.705459e+002, 7.270359e-002
4.724744e+002, 7.306191e-002
4.744028e+002, 7.272932e-002
4.763313e+002, 7.249843e-002
4.782598e+002, 7.378014e-002
4.801882e+002, 7.525848e-002
4.821167e+002, 7.593651e-002
4.840452e+002, 7.702706e-002
4.859736e+002, 7.910202e-002
4.879021e+002, 8.125281e-002
4.898306e+002, 8.376615e-002
4.917590e+002, 8.655153e-002
4.936875e+002, 8.929177e-002
4.956160e+002, 9.251999e-002
4.975444e+002, 9.526914e-002
4.994729e+002, 9.695095e-002
5.014014e+002, 9.894923e-002
5.033298e+002, 1.013709e-001
5.052583e+002, 1.036030e-001
5.071868e+002, 1.047570e-001
5.091152e+002, 1.056825e-001
5.110437e+002, 1.066051e-001
5.129722e+002, 1.081081e-001
5.149006e+002, 1.099926e-001
5.168291e+002, 1.116632e-001
5.187576e+002, 1.127177e-001
5.206860e+002, 1.140973e-001
5.226145e+002, 1.165098e-001
5.245430e+002, 1.184845e-001
5.264714e+002, 1.196241e-001
5.283999e+002, 1.212335e-001
5.303284e+002, 1.229500e-001
5.322568e+002, 1.241733e-001
5.341853e+002, 1.253858e-001
5.361138e+002, 1.269026e-001
5.380422e+002, 1.274997e-001
5.399707e+002, 1.270762e-001
5.418992e+002, 1.270947e-001
5.438276e+002, 1.267289e-001
5.457561e+002, 1.259243e-001
5.476846e+002, 1.247786e-001
5.496130e+002, 1.234334e-001
5.515415e+002, 1.229819e-001
5.534700e+002, 1.229336e-001
5.553984e+002, 1.225277e-001
5.573269e+002, 1.231125e-001
5.592554e+002, 1.240085e-001
5.611838e+002, 1.249102e-001
5.631123e+002, 1.268230e-001
5.650408e+002, 1.293580e-001
5.669692e+002, 1.314190e-001
5.688977e+002, 1.340618e-001
5.708262e+002, 1.378942e-001
5.727546e+002, 1.413039e-001
5.746831e+002, 1.441348e-001
5.766116e+002, 1.469555e-001
5.785400e+002, 1.491225e-001
5.804685e+002, 1.512820e-001
5.823970e+002, 1.534538e-001
5.843254e+002, 1.546787e-001
5.862539e+002, 1.541336e-001
5.881824e+002, 1.524678e-001
5.901108e+002, 1.496290e-001
5.920393e+002, 1.451636e-001
5.939678e+002, 1.397294e-001
5.958962e+002, 1.335378e-001
5.978247e+002, 1.268724e-001
5.997532e+002, 1.211445e-001
6.016816e+002, 1.168810e-001
6.036101e+002, 1.138538e-001
6.055386e+002, 1.120873e-001
6.074670e+002, 1.118252e-001
6.093955e+002, 1.128140e-001
6.113240e+002, 1.152147e-001
6.132524e+002, 1.186044e-001
6.151809e+002, 1.227801e-001
6.171094e+002, 1.276869e-001
6.190378e+002, 1.331232e-001
6.209663e+002, 1.381178e-001
6.228948e+002, 1.413769e-001
6.248232e+002, 1.435532e-001
6.267517e+002, 1.445937e-001
6.286802e+002, 1.440101e-001
6.306086e+002, 1.422074e-001
6.325371e+002, 1.391681e-001
6.344656e+002, 1.352415e-001
6.363940e+002, 1.303763e-001
6.383225e+002, 1.241730e-001
6.402510e+002, 1.175963e-001
6.421794e+002, 1.110307e-001
6.441079e+002, 1.041693e-001
6.460364e+002, 9.816667e-002
6.479648e+002, 9.359856e-002
6.498933e+002, 9.103677e-002
6.518218e+002, 9.010302e-002
6.537502e+002, 9.024871e-002
6.556787e+002, 9.157755e-002
6.576072e+002, 9.377658e-002
6.595356e+002, 9.593658e-002
6.614641e+002, 9.683328e-002
6.633926e+002, 9.644600e-002
6.653210e+002, 9.515440e-002
6.672495e+002, 9.252871e-002
6.691780e+002, 8.883330e-002
6.711064e+002, 8.524698e-002
6.730349e+002, 8.181244e-002
6.749634e+002, 7.810868e-002
6.768918e+002, 7.474469e-002
6.788203e+002, 7.219295e-002
6.807488e+002, 7.026266e-002
6.826772e+002, 6.872342e-002
6.846057e+002, 6.716124e-002
6.865342e+002, 6.607009e-002
6.884626e+002, 6.561450e-002
6.903911e+002, 6.550520e-002
6.923196e+002, 6.544043e-002
6.942480e+002, 6.553456e-002
6.961765e+002, 6.553631e-002
6.981050e+002, 6.510536e-002
7.000334e+002, 6.456237e-002
7.019619e+002, 6.391312e-002
7.038904e+002, 6.295262e-002
7.058188e+002, 6.187065e-002
7.077473e+002, 6.079917e-002
7.096758e+002, 5.964347e-002
7.116042e+002, 5.832659e-002
7.135327e+002, 5.700571e-002
7.154612e+002, 5.580812e-002
7.173896e+002, 5.475856e-002
7.193181e+002, 5.331156e-002
7.212466e+002, 5.181236e-002
7.231750e+002, 5.094247e-002
7.251035e+002, 5.025067e-002
7.270320e+002, 4.953700e-002
7.289604e+002, 4.892290e-002
7.308889e+002, 4.847173e-002
7.328174e+002, 4.835382e-002
7.347458e+002, 4.840026e-002
7.366743e+002, 4.814002e-002
7.386028e+002, 4.795084e-002
7.405313e+002, 4.736880e-002
7.424597e+002, 4.646506e-002
7.443882e+002, 4.514626e-002
7.463167e+002, 4.333369e-002
7.482451e+002, 4.101770e-002
7.501736e+002, 3.876610e-002
7.521021e+002, 3.672977e-002
7.540305e+002, 3.470287e-002
7.559590e+002, 3.256513e-002
7.578875e+002, 3.063002e-002
7.598159e+002, 2.911546e-002
7.617444e+002, 2.774339e-002
7.636729e+002, 2.666493e-002
7.656013e+002, 2.588302e-002
7.675298e+002, 2.516940e-002
7.694583e+002, 2.465144e-002
7.713867e+002, 2.426622e-002
7.733152e+002, 2.387548e-002
7.752437e+002, 2.365168e-002
7.771721e+002, 2.329772e-002
7.791006e+002, 2.292072e-002
7.810291e+002, 2.278616e-002
7.829575e+002, 2.265078e-002
7.848860e+002, 2.245310e-002
7.868145e+002, 2.247638e-002
7.887429e+002, 2.252201e-002
7.906714e+002, 2.237373e-002
7.925999e+002, 2.204224e-002
7.945283e+002, 2.194181e-002
7.964568e+002, 2.197631e-002
7.983853e+002, 2.187925e-002
8.003137e+002, 2.194162e-002
8.022422e+002, 2.214813e-002
8.041707e+002, 2.239572e-002
8.060991e+002, 2.250898e-002
8.080276e+002, 2.281106e-002
8.099561e+002, 2.315204e-002
8.118845e+002, 2.349667e-002
8.138130e+002, 2.419945e-002
8.157415e+002, 2.499681e-002
8.176699e+002, 2.551139e-002
8.195984e+002, 2.596298e-002
8.215269e+002, 2.640569e-002
8.234553e+002, 2.683103e-002
8.253838e+002, 2.748106e-002
8.273123e+002, 2.832993e-002
8.292407e+002, 2.893356e-002
8.311692e+002, 2.956980e-002
8.330977e+002, 3.034391e-002
8.350261e+002, 3.135632e-002
8.369546e+002, 3.247818e-002
8.388831e+002, 3.348183e-002
8.408115e+002, 3.474545e-002
8.427400e+002, 3.615686e-002
8.446685e+002, 3.752543e-002
8.465969e+002, 3.901665e-002
8.485254e+002, 4.059055e-002
8.504539e+002, 4.244276e-002
8.523823e+002, 4.440263e-002
8.543108e+002, 4.642700e-002
8.562393e+002, 4.848539e-002
8.581677e+002, 5.105871e-002
8.600962e+002, 5.366376e-002
8.620247e+002, 5.642616e-002
8.639531e+002, 5.933674e-002
8.658816e+002, 6.231501e-002
8.678101e+002, 6.555496e-002
8.697385e+002, 6.932227e-002
8.716670e+002, 7.364390e-002
8.735955e+002, 7.857507e-002
8.755239e+002, 8.402376e-002
8.774524e+002, 9.031469e-002
8.793809e+002, 9.728795e-002
8.813093e+002, 1.051192e-001
8.832378e+002, 1.140197e-001
8.851663e+002, 1.239051e-001
8.870947e+002, 1.342839e-001
8.890232e+002, 1.451132e-001
8.909517e+002, 1.562718e-001
8.928801e+002, 1.670110e-001
8.948085e+002, 1.760954e-001
8.967370e+002, 1.827583e-001
8.986655e+002, 1.881474e-001
9.005939e+002, 1.946116e-001
9.025224e+002, 2.039280e-001
9.044509e+002, 2.158905e-001
9.063793e+002, 2.290436e-001
9.083078e+002, 2.414688e-001
9.102363e+002, 2.509650e-001
9.121647e+002, 2.567036e-001
9.140932e+002, 2.594767e-001
9.160217e+002, 2.604596e-001
9.179501e+002, 2.607834e-001
9.198786e+002, 2.616855e-001
9.218071e+002, 2.643119e-001
9.237355e+002, 2.696331e-001
9.256640e+002, 2.778720e-001
9.275925e+002, 2.873940e-001
9.295209e+002, 2.960396e-001
9.314494e+002, 3.022468e-001
9.333779e+002, 3.054212e-001
9.353063e+002, 3.052462e-001
9.372348e+002, 3.019672e-001
9.391633e+002, 2.965361e-001
9.410917e+002, 2.897785e-001
9.430202e+002, 2.825957e-001
9.449487e+002, 2.759728e-001
9.468771e+002, 2.702904e-001
9.488056e+002, 2.660211e-001
9.507341e+002, 2.638707e-001
9.526625e+002, 2.637852e-001
9.545910e+002, 2.649557e-001
9.565195e+002, 2.664357e-001
9.584479e+002, 2.676546e-001
9.603764e+002, 2.684550e-001
9.623049e+002, 2.684839e-001
9.642333e+002, 2.671444e-001
9.661618e+002, 2.646684e-001
9.680903e+002, 2.616195e-001
9.700187e+002, 2.591403e-001
9.719472e+002, 2.573255e-001
9.738757e+002, 2.560818e-001
9.758041e+002, 2.557490e-001
9.777326e+002, 2.559788e-001
9.796611e+002, 2.560719e-001
9.815895e+002, 2.557372e-001
9.835180e+002, 2.550402e-001
9.854465e+002, 2.538538e-001
9.873749e+002, 2.523040e-001
9.893034e+002, 2.504820e-001
9.912319e+002, 2.483688e-001
9.931603e+002, 2.459294e-001
9.950888e+002, 2.429582e-001
9.970173e+002, 2.389107e-001
9.989457e+002, 2.335231e-001
1.000874e+003, 2.269525e-001
1.002803e+003, 2.194888e-001
1.004731e+003, 2.111607e-001
1.006660e+003, 2.022520e-001
1.008588e+003, 1.931780e-001
1.010517e+003, 1.845816e-001
1.012445e+003, 1.766333e-001
1.014373e+003, 1.688678e-001
1.016302e+003, 1.612828e-001
1.018230e+003, 1.539935e-001
1.020159e+003, 1.467147e-001
1.022087e+003, 1.396274e-001
1.024016e+003, 1.331442e-001
1.025944e+003, 1.270167e-001
1.027873e+003, 1.213706e-001
1.029801e+003, 1.166399e-001
1.031730e+003, 1.127122e-001
1.033658e+003, 1.092339e-001
1.035587e+003, 1.066698e-001
1.037515e+003, 1.049885e-001
1.039444e+003, 1.040848e-001
1.041372e+003, 1.040747e-001
1.043301e+003, 1.047740e-001
1.045229e+003, 1.062462e-001
1.047157e+003, 1.084202e-001
1.049086e+003, 1.107581e-001
1.051014e+003, 1.131259e-001
1.052943e+003, 1.149559e-001
1.054871e+003, 1.157243e-001
1.056800e+003, 1.153481e-001
1.058728e+003, 1.139896e-001
1.060657e+003, 1.117249e-001
1.062585e+003, 1.086846e-001
1.064514e+003, 1.049449e-001
1.066442e+003, 1.012336e-001
1.068371e+003, 9.733920e-002
1.070299e+003, 9.336422e-002
1.072228e+003, 8.957185e-002
1.074156e+003, 8.582036e-002
1.076084e+003, 8.211218e-002
1.078013e+003, 7.866604e-002
1.079941e+003, 7.545624e-002
1.081870e+003, 7.215691e-002
1.083798e+003, 6.891109e-002
1.085727e+003, 6.581350e-002
1.087655e+003, 6.276184e-002
1.089584e+003, 5.974700e-002
1.091512e+003, 5.682971e-002
1.093441e+003, 5.389097e-002
1.095369e+003, 5.129982e-002
1.097298e+003, 4.886366e-002
1.099226e+003, 4.643996e-002
1.101155e+003, 4.406128e-002
1.103083e+003, 4.187272e-002
1.105011e+003, 3.959710e-002
1.106940e+003, 3.745956e-002
1.108868e+003, 3.572904e-002
1.110797e+003, 3.402722e-002
1.112725e+003, 3.213225e-002
1.114654e+003, 3.044165e-002
1.116582e+003, 2.889001e-002
1.118511e+003, 2.754572e-002
1.120439e+003, 2.643970e-002
1.122368e+003, 2.533637e-002
1.124296e+003, 2.449624e-002
1.126225e+003, 2.394070e-002
1.128153e+003, 2.305375e-002
1.130082e+003, 2.216170e-002
1.132010e+003, 2.138634e-002
1.133938e+003, 2.053066e-002
1.135867e+003, 1.958415e-002
1.137795e+003, 1.879844e-002
1.139724e+003, 1.813336e-002
1.141652e+003, 1.748136e-002
1.143581e+003, 1.689687e-002
1.145509e+003, 1.633515e-002
1.147438e+003, 1.568558e-002
1.149366e+003, 1.512616e-002
1.151295e+003, 1.474992e-002
1.153223e+003, 1.433290e-002
1.155152e+003, 1.388997e-002
1.157080e+003, 1.348640e-002
1.159009e+003, 1.322734e-002
1.160937e+003, 1.271733e-002
1.162865e+003, 1.227145e-002
1.164794e+003, 1.186815e-002
1.166722e+003, 1.141446e-002
1.168651e+003, 1.116638e-002
1.170579e+003, 1.099025e-002
1.172508e+003, 1.060795e-002
1.174436e+003, 1.026427e-002
1.176365e+003, 1.013865e-002
1.178293e+003, 9.800481e-003
1.180222e+003, 9.467253e-003
1.182150e+003, 9.168768e-003
1.184079e+003, 8.823151e-003
1.186007e+003, 8.535023e-003
1.187936e+003, 8.306923e-003
1.189864e+003, 8.307668e-003
1.191792e+003, 8.224190e-003
1.193721e+003, 7.846954e-003
1.195649e+003, 7.591428e-003
1.197578e+003, 7.419975e-003
1.199506e+003, 7.196251e-003
1.201435e+003, 6.904104e-003
1.203363e+003, 6.772500e-003
1.205292e+003, 6.830489e-003
1.207220e+003, 6.615173e-003
1.209149e+003, 6.334265e-003
1.211077e+003, 6.185669e-003
1.213006e+003, 6.036045e-003
1.214934e+003, 5.921095e-003
1.216863e+003, 5.810712e-003
1.218791e+003, 5.739615e-003
1.220719e+003, 5.674774e-003
1.222648e+003, 5.569673e-003
1.224576e+003, 5.495965e-003
1.226505e+003, 5.406207e-003
1.228433e+003, 5.417339e-003
1.230362e+003, 5.432844e-003
1.232290e+003, 5.265177e-003
1.234219e+003, 5.073236e-003
1.236147e+003, 4.940061e-003
1.238076e+003, 4.890968e-003
1.240004e+003, 4.962317e-003
1.241933e+003, 5.085587e-003
1.243861e+003, 4.956039e-003
1.245790e+003, 4.722325e-003
1.247718e+003, 4.506812e-003
1.249646e+003, 4.446854e-003
1.251575e+003, 4.428714e-003
1.253503e+003, 4.393080e-003
1.255432e+003, 4.403403e-003
1.257360e+003, 4.239467e-003
1.259289e+003, 4.062533e-003
1.261217e+003, 4.235626e-003
1.263146e+003, 4.258383e-003
1.265074e+003, 4.206591e-003
1.267003e+003, 4.354189e-003
1.268931e+003, 4.232042e-003
1.270860e+003, 4.043315e-003
1.272788e+003, 4.129451e-003
1.274717e+003, 4.453969e-003
1.276645e+003, 4.399009e-003
1.278573e+003, 4.133838e-003
1.280502e+003, 4.050742e-003
1.282430e+003, 4.175505e-003
1.284359e+003, 4.024236e-003
1.286287e+003, 3.937861e-003
1.288216e+003, 4.120206e-003
1.290144e+003, 4.181886e-003
1.292073e+003, 3.950312e-003
1.294001e+003, 3.855525e-003
1.295930e+003, 4.085273e-003
1.297858e+003, 4.075066e-003
1.299787e+003, 3.815006e-003
1.301715e+003, 3.627464e-003
1.303644e+003, 3.837285e-003
1.305572e+003, 4.116366e-003
1.307500e+003, 4.050317e-003
1.309429e+003, 3.857809e-003
1.311357e+003, 3.832169e-003
1.313286e+003, 3.758648e-003
1.315214e+003, 3.767019e-003
1.317143e+003, 3.876933e-003
1.319071e+003, 3.813968e-003
1.321000e+003, 3.735302e-003
1.322928e+003, 3.770405e-003
1.324857e+003, 3.761673e-003
1.326785e+003, 3.768166e-003
1.328714e+003, 3.876019e-003
1.330642e+003, 3.823856e-003
1.332571e+003, 3.811219e-003
1.334499e+003, 3.930468e-003
1.336427e+003, 3.965796e-003
1.338356e+003, 3.863656e-003
1.340284e+003, 3.862250e-003
1.342213e+003, 3.992009e-003
1.344141e+003, 3.961737e-003
1.346070e+003, 3.675929e-003
1.347998e+003, 3.628296e-003
1.349927e+003, 3.687857e-003
1.351855e+003, 3.728601e-003
1.353784e+003, 3.848411e-003
1.355712e+003, 3.808815e-003
1.357641e+003, 3.665113e-003
1.359569e+003, 3.778801e-003
1.361498e+003, 3.839372e-003
1.363426e+003, 3.771744e-003
1.365354e+003, 3.757456e-003
1.367283e+003, 3.897958e-003
1.369211e+003, 3.963876e-003
1.371140e+003, 3.945448e-003
1.373068e+003, 4.065594e-003
1.374997e+003, 4.158327e-003
1.376925e+003, 4.085328e-003
1.378854e+003, 4.191202e-003
1.380782e+003, 4.184117e-003
1.382711e+003, 3.995853e-003
1.384639e+003, 3.966281e-003
1.386568e+003, 4.165702e-003
1.388496e+003, 4.292279e-003
1.390424e+003, 4.252167e-003
1.392353e+003, 4.264662e-003
1.394281e+003, 4.289086e-003
1.396210e+003, 4.491059e-003
1.398138e+003, 4.737474e-003
1.400067e+003, 4.765516e-003
1.401995e+003, 4.701340e-003
1.403924e+003, 4.522573e-003
1.405852e+003, 4.487208e-003
1.407781e+003, 4.746783e-003
1.409709e+003, 4.991287e-003
1.411638e+003, 5.028579e-003
1.413566e+003, 4.888037e-003
1.415495e+003, 4.823323e-003
1.417423e+003, 4.826959e-003
1.419351e+003, 4.870878e-003
1.421280e+003, 5.089755e-003
1.423208e+003, 5.121909e-003
1.425137e+003, 5.044389e-003
1.427065e+003, 5.064277e-003
1.428994e+003, 5.144114e-003
1.430922e+003, 5.109895e-003
1.432851e+003, 4.899403e-003
1.434779e+003, 4.957126e-003
1.436708e+003, 5.168955e-003
1.438636e+003, 5.128840e-003
1.440565e+003, 4.920536e-003
1.442493e+003, 4.820669e-003
1.444422e+003, 5.023486e-003
1.446350e+003, 5.023865e-003
1.448278e+003, 4.968891e-003
1.450207e+003, 5.045544e-003
1.452135e+003, 5.090814e-003
1.454064e+003, 5.010204e-003
1.455992e+003, 4.585820e-003
1.457921e+003, 4.355214e-003
1.459849e+003, 4.624570e-003
1.461778e+003, 4.757934e-003
1.463706e+003, 4.586959e-003
1.465635e+003, 4.491661e-003
1.467563e+003, 4.569905e-003
1.469492e+003, 4.626571e-003
1.471420e+003, 4.685044e-003
1.473349e+003, 4.752561e-003
1.475277e+003, 4.848761e-003
1.477205e+003, 4.887304e-003
1.479134e+003, 4.785541e-003
1.481062e+003, 4.760436e-003
1.482991e+003, 4.949820e-003
1.484919e+003, 4.870289e-003
1.486848e+003, 4.743645e-003
1.488776e+003, 4.696380e-003
1.490705e+003, 4.588290e-003
1.492633e+003, 4.733406e-003
1.494562e+003, 4.966732e-003
1.496490e+003, 4.975190e-003
1.498419e+003, 4.837880e-003
1.500347e+003, 4.897848e-003
1.502276e+003, 4.986248e-003
1.504204e+003, 4.698911e-003
1.506132e+003, 4.303848e-003
1.508061e+003, 4.526833e-003
1.509989e+003, 4.770908e-003
1.511918e+003, 4.797640e-003
1.513846e+003, 4.863637e-003
1.515775e+003, 4.925137e-003
1.517703e+003, 4.942195e-003
1.519632e+003, 4.862848e-003
1.521560e+003, 4.771207e-003
1.523489e+003, 4.902956e-003
1.525417e+003, 5.032144e-003
1.527346e+003, 5.309384e-003
1.529274e+003, 5.576025e-003
1.531203e+003, 5.543202e-003
1.533131e+003, 5.513866e-003
1.535059e+003, 5.659082e-003
1.536988e+003, 5.448253e-003
1.538916e+003, 5.169165e-003
1.540845e+003, 5.409630e-003
1.542773e+003, 5.786975e-003
1.544702e+003, 6.086270e-003
1.546630e+003, 6.360607e-003
1.548559e+003, 6.383508e-003
1.550487e+003, 6.288567e-003
1.552416e+003, 6.408597e-003
1.554344e+003, 6.419002e-003
1.556273e+003, 6.493241e-003
1.558201e+003, 6.378433e-003
1.560130e+003, 6.535011e-003
1.562058e+003, 6.927196e-003
1.563986e+003, 7.012816e-003
1.565915e+003, 7.133870e-003
1.567843e+003, 7.511492e-003
1.569772e+003, 7.617293e-003
1.571700e+003, 7.596266e-003
1.573629e+003, 7.600103e-003
1.575557e+003, 7.779152e-003
1.577486e+003, 8.133924e-003
1.579414e+003, 8.400230e-003
1.581343e+003, 8.697396e-003
1.583271e+003, 9.134865e-003
1.585200e+003, 9.461325e-003
1.587128e+003, 9.864284e-003
1.589057e+003, 1.051333e-002
1.590985e+003, 1.118567e-002
1.592913e+003, 1.174110e-002
1.594842e+003, 1.253446e-002
1.596770e+003, 1.322914e-002
1.598699e+003, 1.352711e-002
1.600627e+003, 1.371283e-002
1.602556e+003, 1.396107e-002
1.604484e+003, 1.402712e-002
1.606413e+003, 1.376836e-002
1.608341e+003, 1.338421e-002
1.610270e+003, 1.273705e-002
1.612198e+003, 1.222704e-002
1.614127e+003, 1.175169e-002
1.616055e+003, 1.108868e-002
1.617984e+003, 1.070972e-002
1.619912e+003, 1.088469e-002
1.621840e+003, 1.082932e-002
1.623769e+003, 1.038062e-002
1.625697e+003, 1.019630e-002
1.627626e+003, 1.049006e-002
1.629554e+003, 1.058366e-002
1.631483e+003, 1.038298e-002
1.633411e+003, 1.035626e-002
1.635340e+003, 1.034611e-002
1.637268e+003, 1.044650e-002
1.639197e+003, 1.063989e-002
1.641125e+003, 1.095058e-002
1.643054e+003, 1.157681e-002
1.644982e+003, 1.177882e-002
1.646911e+003, 1.152124e-002
1.648839e+003, 1.166355e-002
1.650767e+003, 1.185790e-002
1.652696e+003, 1.167213e-002
1.654624e+003, 1.197306e-002
1.656553e+003, 1.243241e-002
1.658481e+003, 1.295512e-002
1.660410e+003, 1.346647e-002
1.662338e+003, 1.408120e-002
1.664267e+003, 1.474526e-002
1.666195e+003, 1.562585e-002
1.668124e+003, 1.673563e-002
1.670052e+003, 1.804772e-002
1.671981e+003, 1.973725e-002
1.673909e+003, 2.139672e-002
1.675838e+003, 2.306377e-002
1.677766e+003, 2.446617e-002
1.679694e+003, 2.488681e-002
1.681623e+003, 2.411209e-002
1.683551e+003, 2.203144e-002
1.685480e+003, 1.936053e-002
1.687408e+003, 1.670147e-002
1.689337e+003, 1.402953e-002
1.691265e+003, 1.176075e-002
1.693194e+003, 9.712454e-003
1.695122e+003, 8.019181e-003
1.697051e+003, 7.087762e-003
1.698979e+003, 6.183563e-003
1.700908e+003, 5.269110e-003
1.702836e+003, 5.128942e-003
1.704765e+003, 4.942525e-003
1.706693e+003, 4.605088e-003
1.708621e+003, 4.200362e-003
1.710550e+003, 3.670529e-003
1.712478e+003, 3.354441e-003
1.714407e+003, 3.195780e-003
1.716335e+003, 2.872128e-003
1.718264e+003, 2.575078e-003
1.720192e+003, 2.518717e-003
1.722121e+003, 2.798069e-003
1.724049e+003, 2.718295e-003
1.725978e+003, 2.265000e-003
1.727906e+003, 2.043546e-003
1.729835e+003, 1.876933e-003
1.731763e+003, 1.684908e-003
1.733692e+003, 1.119500e-003
1.735620e+003, 1.269237e-003
1.737548e+003, 1.614894e-003
1.739477e+003, 1.260511e-003
1.741405e+003, 9.750047e-004
1.743334e+003, 1.043874e-003
1.745262e+003, 8.736421e-004
1.747191e+003, 7.723180e-004
1.749119e+003, 1.047164e-003
1.751048e+003, 1.052385e-003
1.752976e+003, 1.247079e-003
1.754905e+003, 1.270234e-003
1.756833e+003, 1.047585e-003
1.758762e+003, 1.174034e-003
1.760690e+003, 1.255956e-003
1.762619e+003, 1.141689e-003
1.764547e+003, 1.150140e-003
1.766475e+003, 1.236457e-003
1.768404e+003, 1.327782e-003
1.770332e+003, 1.162194e-003
1.772261e+003, 6.668441e-004
1.774189e+003, 6.399757e-004
1.776118e+003, 9.909044e-004
1.778046e+003, 1.341337e-003
1.779975e+003, 1.216311e-003
1.781903e+003, 8.759061e-004
1.783832e+003, 7.731316e-004
1.785760e+003, 8.024569e-004
1.787689e+003, 1.006316e-003
1.789617e+003, 8.199203e-004
1.791546e+003, 6.492662e-004
1.793474e+003, 8.099683e-004
1.795402e+003, 7.459315e-004
1.797331e+003, 6.571442e-004
1.799259e+003, 8.232637e-004
1.801188e+003, 8.420096e-004
1.803116e+003, 7.906400e-004
1.805045e+003, 6.804965e-004
1.806973e+003, 5.153705e-004
1.808902e+003, 2.215555e-004
1.810830e+003, 2.195711e-004
1.812759e+003, 2.107929e-004
1.814687e+003, -2.356979e-005
1.816616e+003, 1.359850e-004
1.818544e+003, 4.479474e-004
1.820473e+003, 4.528283e-004
1.822401e+003, 3.829845e-004
1.824329e+003, 1.064550e-004
1.826258e+003, -1.415952e-005
1.828186e+003, 2.246446e-004
1.830115e+003, 5.061338e-004
1.832043e+003, 3.193011e-004
1.833972e+003, -8.543368e-005
1.835900e+003, 5.554045e-005
1.837829e+003, 3.579584e-004
1.839757e+003, 1.953962e-004
1.841686e+003, -1.030603e-004
1.843614e+003, -5.161633e-005
1.845543e+003, 9.325961e-005
1.847471e+003, 7.835453e-006
1.849400e+003, -1.790346e-004
1.851328e+003, -2.065119e-004
1.853256e+003, -1.062866e-004
1.855185e+003, -3.992702e-004
1.857113e+003, -6.198980e-004
1.859042e+003, -7.969255e-004
1.860970e+003, -1.001070e-003
1.862899e+003, -9.861405e-004
1.864827e+003, -4.459957e-004
1.866756e+003, -4.570278e-004
1.868684e+003, -4.915964e-004
1.870613e+003, -3.998647e-004
1.872541e+003, -5.027801e-004
1.874470e+003, -4.365695e-004
1.876398e+003, 7.591634e-005
1.878327e+003, -3.555421e-004
1.880255e+003, -6.685838e-004
1.882183e+003, -7.177478e-004
1.884112e+003, -8.004379e-004
1.886040e+003, -7.662326e-004
1.887969e+003, -7.490790e-004
1.889897e+003, -6.582472e-004
1.891826e+003, -1.304918e-003
1.893754e+003, -1.852422e-003
1.895683e+003, -1.457007e-003
1.897611e+003, -1.146680e-003
1.899540e+003, -1.040487e-003
1.901468e+003, -1.100376e-003
1.903397e+003, -9.285216e-004
1.905325e+003, -3.137022e-004
1.907254e+003, -3.058706e-004
1.909182e+003, -4.786685e-004
1.911110e+003, -5.793282e-004
1.913039e+003, -9.131540e-004
1.914967e+003, -9.694676e-004
1.916896e+003, -7.835272e-004
1.918824e+003, -1.414118e-003
1.920753e+003, -1.665764e-003
1.922681e+003, -1.335360e-003
1.924610e+003, -1.759604e-003
1.926538e+003, -1.913596e-003
1.928467e+003, -1.263330e-003
1.930395e+003, -1.280177e-003
1.932324e+003, -1.888041e-003
1.934252e+003, -1.701968e-003
1.936181e+003, -1.603782e-003
1.938109e+003, -2.197153e-003
1.940037e+003, -2.713951e-003
1.941966e+003, -2.870310e-003
1.943894e+003, -2.837855e-003
1.945823e+003, -2.634060e-003
1.947751e+003, -2.841106e-003
1.949680e+003, -3.643836e-003
1.951608e+003, -3.703520e-003
1.953537e+003, -3.772847e-003
1.955465e+003, -4.964181e-003
1.957394e+003, -4.231446e-003
1.959322e+003, -3.533146e-003
1.961251e+003, -4.470530e-003
1.963179e+003, -4.578128e-003
1.965108e+003, -4.910135e-003
1.967036e+003, -6.779731e-003
1.968964e+003, -8.245759e-003
1.970893e+003, -7.558599e-003
1.972821e+003, -6.595756e-003
1.974750e+003, -5.529674e-003
1.976678e+003, -4.323054e-003
1.978607e+003, -3.678707e-003
1.980535e+003, -2.507215e-003
1.982464e+003, -2.895995e-003
1.984392e+003, -3.768351e-003
1.986321e+003, -3.265336e-003
1.988249e+003, -2.797352e-003
1.990178e+003, -3.510702e-003
1.992106e+003, -4.018700e-003
1.994035e+003, -3.486644e-003
1.995963e+003, -3.594674e-003
1.997891e+003, -4.215177e-003
1.999820e+003, -4.285580e-003
2.001748e+003, -4.916812e-003
2.003677e+003, -4.088431e-003
2.005605e+003, -3.750012e-003
2.007534e+003, -4.557237e-003
2.009462e+003, -4.881733e-003
2.011391e+003, -3.287958e-003
2.013319e+003, -3.190686e-003
2.015248e+003, -4.858404e-003
2.017176e+003, -5.828223e-003
2.019105e+003, -4.746342e-003
2.021033e+003, -4.634577e-003
2.022962e+003, -6.089869e-003
2.024890e+003, -5.657477e-003
2.026818e+003, -4.461644e-003
2.028747e+003, -4.705691e-003
2.030675e+003, -4.941631e-003
2.032604e+003, -3.657646e-003
2.034532e+003, -1.898043e-003
2.036461e+003, -1.610471e-003
2.038389e+003, -2.504487e-003
2.040318e+003, -2.827684e-003
2.042246e+003, -2.163273e-003
2.044175e+003, -1.566269e-003
2.046103e+003, -1.188070e-003
2.048032e+003, 3.762930e-004
2.049960e+003, 8.150820e-007
2.051889e+003, -1.688701e-003
2.053817e+003, -1.619442e-003
2.055746e+003, -1.976896e-003
2.057674e+003, -1.998206e-003
2.059603e+003, -1.055778e-003
2.061531e+003, -1.108548e-003
2.063459e+003, -1.123379e-003
2.065388e+003, -4.901318e-004
2.067316e+003, -2.739524e-004
2.069245e+003, -7.417451e-004
2.071173e+003, -5.195572e-004
2.073102e+003, 4.045390e-004
2.075030e+003, 1.432117e-003
2.076959e+003, 1.574760e-003
2.078887e+003, 3.761048e-004
2.080816e+003, 5.459401e-004
2.082744e+003, 1.386294e-003
2.084673e+003, 1.476755e-003
2.086601e+003, 9.942588e-004
2.088530e+003, 5.616742e-004
2.090458e+003, 1.166503e-004
2.092386e+003, -2.946444e-005
2.094315e+003, 1.632063e-003
2.096243e+003, 2.111091e-003
2.098172e+003, 9.202958e-004
2.100100e+003, -4.849933e-005
2.102029e+003, -5.193619e-004
2.103957e+003, -1.111848e-004
2.105886e+003, -1.376587e-004
2.107814e+003, -7.238888e-004
2.109743e+003, -4.715230e-004
2.111671e+003, 2.593388e-004
2.113600e+003, 4.787241e-004
2.115528e+003, -5.081819e-005
2.117457e+003, -8.392203e-004
2.119385e+003, -1.080391e-003
2.121313e+003, -1.007168e-004
2.123242e+003, 3.573145e-004
2.125170e+003, -1.553466e-003
2.127099e+003, -2.317975e-003
2.129027e+003, -1.996968e-003
2.130956e+003, -2.962872e-003
2.132884e+003, -3.308980e-003
2.134813e+003, -2.970773e-003
2.136741e+003, -1.982797e-003
2.138670e+003, -2.207938e-003
2.140598e+003, -3.567496e-003
2.142527e+003, -3.158611e-003
2.144455e+003, -1.664597e-003
2.146384e+003, -2.057812e-003
2.148312e+003, -3.834528e-003
2.150240e+003, -3.384819e-003
2.152169e+003, -2.096302e-003
2.154097e+003, -4.492251e-003
2.156026e+003, -7.096252e-003
2.157954e+003, -5.268285e-003
2.159883e+003, -2.776336e-004
2.161811e+003, 1.900966e-003
2.163740e+003, 1.952662e-003
2.165668e+003, 5.556376e-004
2.167597e+003, -1.001373e-003
2.169525e+003, 4.185363e-004
2.171454e+003, 1.742920e-003
2.173382e+003, 1.868920e-004
2.175311e+003, -5.783836e-004
2.177239e+003, 1.139211e-003
2.179167e+003, 8.847757e-004
2.181096e+003, 1.811914e-003
2.183024e+003, 3.702684e-003
2.184953e+003, 2.957796e-003
2.186881e+003, 2.944270e-003
2.188810e+003, 3.777735e-003
2.190738e+003, 3.139452e-003
2.192667e+003, 1.917688e-003
2.194595e+003, 1.686098e-003
2.196524e+003, 1.846314e-003
2.198452e+003, 1.886253e-003
2.200381e+003, 2.810630e-003
2.202309e+003, 3.406673e-003
2.204238e+003, 2.420453e-003
2.206166e+003, 6.821852e-004
2.208094e+003, 1.090237e-003
2.210023e+003, 2.754794e-003
2.211951e+003, 2.894215e-003
2.213880e+003, 2.311692e-003
2.215808e+003, 2.783874e-003
2.217737e+003, 3.517782e-003
2.219665e+003, 2.782377e-003
2.221594e+003, 1.820039e-003
2.223522e+003, 2.127993e-003
2.225451e+003, 2.629390e-003
2.227379e+003, 2.960298e-003
2.229308e+003, 3.945009e-003
2.231236e+003, 4.444787e-003
2.233165e+003, 4.854949e-003
2.235093e+003, 5.385723e-003
2.237021e+003, 5.044892e-003
2.238950e+003, 3.329797e-003
2.240878e+003, 2.073244e-003
2.242807e+003, 4.142471e-003
2.244735e+003, 4.813504e-003
2.246664e+003, 3.302428e-003
2.248592e+003, 3.230134e-003
2.250521e+003, 4.207792e-003
2.252449e+003, 4.468677e-003
2.254378e+003, 4.507997e-003
2.256306e+003, 5.103638e-003
2.258235e+003, 5.294025e-003
2.260163e+003, 4.212132e-003
2.262092e+003, 4.247192e-003
2.264020e+003, 5.460782e-003
2.265948e+003, 5.701696e-003
2.267877e+003, 4.403721e-003
2.269805e+003, 3.804123e-003
2.271734e+003, 4.543762e-003
2.273662e+003, 5.279673e-003
2.275591e+003, 4.894824e-003
2.277519e+003, 4.774226e-003
2.279448e+003, 4.764077e-003
2.281376e+003, 5.413486e-003
2.283305e+003, 5.820705e-003
2.285233e+003, 5.284770e-003
2.287162e+003, 5.062902e-003
2.289090e+003, 5.410590e-003
2.291019e+003, 5.657357e-003
2.292947e+003, 5.417414e-003
2.294875e+003, 5.400718e-003
2.296804e+003, 5.507563e-003
2.298732e+003, 4.984329e-003
2.300661e+003, 4.729366e-003
2.302589e+003, 5.035325e-003
2.304518e+003, 5.174543e-003
2.306446e+003, 4.972408e-003
2.308375e+003, 5.065196e-003
2.310303e+003, 5.195074e-003
2.312232e+003, 5.069501e-003
2.314160e+003, 5.595598e-003
2.316089e+003, 5.370476e-003
2.318017e+003, 5.107737e-003
2.319946e+003, 5.011321e-003
2.321874e+003, 5.419315e-003
2.323802e+003, 5.223572e-003
2.325731e+003, 4.493381e-003
2.327659e+003, 3.954275e-003
2.329588e+003, 3.619281e-003
2.331516e+003, 3.719194e-003
2.333445e+003, 3.770771e-003
2.335373e+003, 3.248362e-003
2.337302e+003, 3.413435e-003
2.339230e+003, 3.884296e-003
2.341159e+003, 3.738701e-003
2.343087e+003, 3.655993e-003
2.345016e+003, 3.156548e-003
2.346944e+003, 2.961810e-003
2.348873e+003, 3.209753e-003
2.350801e+003, 3.483716e-003
2.352729e+003, 3.587955e-003
2.354658e+003, 3.419681e-003
2.356586e+003, 2.966304e-003
2.358515e+003, 2.774226e-003
2.360443e+003, 2.645222e-003
2.362372e+003, 2.522612e-003
2.364300e+003, 2.666117e-003
2.366229e+003, 2.838331e-003
2.368157e+003, 2.430155e-003
2.370086e+003, 2.529117e-003
2.372014e+003, 2.666226e-003
2.373942e+003, 2.573921e-003
2.375871e+003, 2.600240e-003
2.377799e+003, 2.507731e-003
2.379728e+003, 2.536244e-003
2.381656e+003, 2.673267e-003
2.383585e+003, 2.969001e-003
2.385513e+003, 3.067481e-003
2.387442e+003, 3.178504e-003
2.389370e+003, 3.775804e-003
2.391299e+003, 3.416373e-003
2.393227e+003, 2.602859e-003
2.395156e+003, 2.741411e-003
2.397084e+003, 3.169512e-003
2.399012e+003, 2.952027e-003
2.400941e+003, 2.590354e-003
2.402869e+003, 2.030769e-003
2.404798e+003, 1.942348e-003
2.406726e+003, 2.279590e-003
2.408655e+003, 2.916513e-003
2.410583e+003, 3.377013e-003
2.412512e+003, 3.024193e-003
2.414440e+003, 2.423764e-003
2.416369e+003, 2.379156e-003
2.418297e+003, 2.583776e-003
2.420226e+003, 2.949421e-003
2.422154e+003, 2.945332e-003
2.424083e+003, 2.943892e-003
2.426011e+003, 2.808966e-003
2.427939e+003, 2.981975e-003
2.429868e+003, 3.386421e-003
2.431796e+003, 3.049902e-003
2.433725e+003, 2.693227e-003
2.435653e+003, 2.784688e-003
2.437582e+003, 2.863665e-003
2.439510e+003, 3.233393e-003
2.441439e+003, 3.754574e-003
2.443367e+003, 3.376971e-003
2.445296e+003, 3.119163e-003
2.447224e+003, 3.938846e-003
2.449153e+003, 4.046783e-003
2.451081e+003, 3.011212e-003
2.453010e+003, 2.661767e-003
2.454938e+003, 2.965376e-003
2.456866e+003, 3.509394e-003
2.458795e+003, 3.912905e-003
2.460723e+003, 3.757311e-003
2.462652e+003, 2.927891e-003
2.464580e+003, 2.773221e-003
2.466509e+003, 3.124911e-003
2.468437e+003, 2.851365e-003
2.470366e+003, 2.419278e-003
2.472294e+003, 2.439475e-003
2.474223e+003, 2.959569e-003
2.476151e+003, 3.103638e-003
2.478080e+003, 2.658926e-003
2.480008e+003, 2.179286e-003
2.481937e+003, 2.619290e-003
2.483865e+003, 2.813487e-003
2.485793e+003, 2.627489e-003
2.487722e+003, 2.693319e-003
2.489650e+003, 2.489839e-003
2.491579e+003, 3.055417e-003
2.493507e+003, 3.241650e-003
2.495436e+003, 2.509050e-003
2.497364e+003, 2.156149e-003
2.499293e+003, 2.837770e-003
2.501221e+003, 2.713085e-003
2.503150e+003, 2.774878e-003
2.505078e+003, 3.243788e-003
2.507007e+003, 2.984956e-003
2.508935e+003, 2.677117e-003
2.510864e+003, 3.505228e-003
2.512792e+003, 3.702555e-003
2.514720e+003, 3.239309e-003
2.516649e+003, 2.998528e-003
2.518577e+003, 2.975973e-003
2.520506e+003, 3.207393e-003
2.522434e+003, 3.406851e-003
2.524363e+003, 3.264061e-003
2.526291e+003, 3.166736e-003
2.528220e+003, 2.885229e-003
2.530148e+003, 2.870703e-003
2.532077e+003, 3.150177e-003
2.534005e+003, 3.403781e-003
2.535934e+003, 3.628825e-003
2.537862e+003, 3.486904e-003
2.539791e+003, 3.391040e-003
2.541719e+003, 2.968272e-003
2.543647e+003, 2.711283e-003
2.545576e+003, 2.934634e-003
2.547504e+003, 3.563831e-003
2.549433e+003, 3.444756e-003
2.551361e+003, 3.079474e-003
2.553290e+003, 3.418229e-003
2.555218e+003, 3.818591e-003
2.557147e+003, 3.423052e-003
2.559075e+003, 2.734783e-003
2.561004e+003, 2.777591e-003
2.562932e+003, 3.134742e-003
2.564861e+003, 3.380015e-003
2.566789e+003, 3.118735e-003
2.568718e+003, 3.469789e-003
2.570646e+003, 4.010889e-003
2.572574e+003, 3.835205e-003
2.574503e+003, 3.831404e-003
2.576431e+003, 3.567044e-003
2.578360e+003, 3.528320e-003
2.580288e+003, 3.724633e-003
2.582217e+003, 3.313810e-003
2.584145e+003, 3.235221e-003
2.586074e+003, 3.673837e-003
2.588002e+003, 4.102516e-003
2.589931e+003, 4.220044e-003
2.591859e+003, 4.477854e-003
2.593788e+003, 4.673187e-003
2.595716e+003, 4.177415e-003
2.597645e+003, 4.083247e-003
2.599573e+003, 3.740113e-003
2.601501e+003, 3.848403e-003
2.603430e+003, 3.493488e-003
2.605358e+003, 3.677070e-003
2.607287e+003, 4.100832e-003
2.609215e+003, 3.957845e-003
2.611144e+003, 3.663535e-003
2.613072e+003, 3.360616e-003
2.615001e+003, 3.562468e-003
2.616929e+003, 3.681048e-003
2.618858e+003, 3.377108e-003
2.620786e+003, 4.018445e-003
2.622715e+003, 4.531423e-003
2.624643e+003, 4.403359e-003
2.626572e+003, 4.479460e-003
2.628500e+003, 4.356412e-003
2.630428e+003, 4.183942e-003
2.632357e+003, 4.327345e-003
2.634285e+003, 4.439689e-003
2.636214e+003, 4.325181e-003
2.638142e+003, 3.856383e-003
2.640071e+003, 3.494396e-003
2.641999e+003, 3.780425e-003
2.643928e+003, 4.413639e-003
2.645856e+003, 4.884528e-003
2.647785e+003, 4.758580e-003
2.649713e+003, 4.425060e-003
2.651642e+003, 4.442833e-003
2.653570e+003, 4.323738e-003
2.655499e+003, 4.322022e-003
2.657427e+003, 4.281059e-003
2.659355e+003, 3.729322e-003
2.661284e+003, 3.296952e-003
2.663212e+003, 3.510421e-003
2.665141e+003, 3.891419e-003
2.667069e+003, 4.527589e-003
2.668998e+003, 4.562558e-003
2.670926e+003, 4.295789e-003
2.672855e+003, 3.679219e-003
2.674783e+003, 3.345940e-003
2.676712e+003, 3.760601e-003
2.678640e+003, 3.798127e-003
2.680569e+003, 3.676116e-003
2.682497e+003, 3.713356e-003
2.684426e+003, 3.426154e-003
2.686354e+003, 3.361218e-003
2.688282e+003, 3.752998e-003
2.690211e+003, 4.129098e-003
2.692139e+003, 3.879646e-003
2.694068e+003, 3.722568e-003
2.695996e+003, 4.066891e-003
2.697925e+003, 3.613205e-003
2.699853e+003, 3.400627e-003
2.701782e+003, 3.360680e-003
2.703710e+003, 3.448162e-003
2.705639e+003, 4.030429e-003
2.707567e+003, 4.620926e-003
2.709496e+003, 4.882107e-003
2.711424e+003, 4.537497e-003
2.713353e+003, 3.928979e-003
2.715281e+003, 3.483672e-003
2.717209e+003, 3.946036e-003
2.719138e+003, 4.107043e-003
2.721066e+003, 4.084534e-003
2.722995e+003, 4.267518e-003
2.724923e+003, 4.180745e-003
2.726852e+003, 4.097570e-003
2.728780e+003, 4.289380e-003
2.730709e+003, 4.257723e-003
2.732637e+003, 4.573361e-003
2.734566e+003, 4.976503e-003
2.736494e+003, 4.739751e-003
2.738423e+003, 4.338322e-003
2.740351e+003, 3.894009e-003
2.742280e+003, 4.014717e-003
2.744208e+003, 4.439115e-003
2.746136e+003, 4.357849e-003
2.748065e+003, 4.175954e-003
2.749993e+003, 4.232194e-003
2.751922e+003, 4.709715e-003
2.753850e+003, 5.215857e-003
2.755779e+003, 5.224646e-003
2.757707e+003, 5.175625e-003
2.759636e+003, 5.570979e-003
2.761564e+003, 5.699717e-003
2.763493e+003, 5.272470e-003
2.765421e+003, 5.332383e-003
2.767350e+003, 5.093899e-003
2.769278e+003, 4.691701e-003
2.771207e+003, 4.966193e-003
2.773135e+003, 5.238356e-003
2.775063e+003, 5.198133e-003
2.776992e+003, 5.055098e-003
2.778920e+003, 5.414461e-003
2.780849e+003, 5.451354e-003
2.782777e+003, 5.617696e-003
2.784706e+003, 5.716146e-003
2.786634e+003, 5.558139e-003
2.788563e+003, 5.520216e-003
2.790491e+003, 5.724398e-003
2.792420e+003, 5.932144e-003
2.794348e+003, 6.058970e-003
2.796277e+003, 5.817537e-003
2.798205e+003, 5.891608e-003
2.800134e+003, 6.026199e-003
2.802062e+003, 5.988082e-003
2.803990e+003, 5.868407e-003
2.805919e+003, 6.297581e-003
2.807847e+003, 6.659572e-003
2.809776e+003, 6.549760e-003
2.811704e+003, 6.458535e-003
2.813633e+003, 6.351722e-003
2.815561e+003, 6.230327e-003
2.817490e+003, 6.025274e-003
2.819418e+003, 6.080657e-003
2.821347e+003, 6.418847e-003
2.823275e+003, 6.553202e-003
2.825204e+003, 6.738856e-003
2.827132e+003, 6.872693e-003
2.829061e+003, 6.630904e-003
2.830989e+003, 6.640234e-003
2.832917e+003, 6.988989e-003
2.834846e+003, 7.299284e-003
2.836774e+003, 7.368642e-003
2.838703e+003, 7.304863e-003
2.840631e+003, 6.934851e-003
2.842560e+003, 6.470138e-003
2.844488e+003, 6.523418e-003
2.846417e+003, 6.086566e-003
2.848345e+003, 5.845924e-003
2.850274e+003, 5.510797e-003
2.852202e+003, 5.352212e-003
2.854131e+003, 5.967453e-003
2.856059e+003, 6.622162e-003
2.857988e+003, 6.664716e-003
2.859916e+003, 6.723803e-003
2.861844e+003, 6.912547e-003
2.863773e+003, 6.636232e-003
2.865701e+003, 7.205094e-003
2.867630e+003, 7.589119e-003
2.869558e+003, 7.325347e-003
2.871487e+003, 7.043667e-003
2.873415e+003, 7.218360e-003
2.875344e+003, 7.820909e-003
2.877272e+003, 7.456189e-003
2.879201e+003, 7.084367e-003
2.881129e+003, 7.965281e-003
2.883058e+003, 8.677422e-003
2.884986e+003, 8.225804e-003
2.886915e+003, 7.767486e-003
2.888843e+003, 8.306849e-003
2.890771e+003, 8.423764e-003
2.892700e+003, 7.909399e-003
2.894628e+003, 7.348923e-003
2.896557e+003, 7.119833e-003
2.898485e+003, 7.326160e-003
2.900414e+003, 7.799068e-003
2.902342e+003, 7.940698e-003
2.904271e+003, 7.676793e-003
2.906199e+003, 8.215823e-003
2.908128e+003, 8.242419e-003
2.910056e+003, 7.902130e-003
2.911985e+003, 8.160606e-003
2.913913e+003, 7.962057e-003
2.915842e+003, 7.535631e-003
2.917770e+003, 8.182269e-003
2.919698e+003, 8.350486e-003
2.921627e+003, 7.947871e-003
2.923555e+003, 7.630506e-003
2.925484e+003, 7.278968e-003
2.927412e+003, 6.755034e-003
2.929341e+003, 6.885171e-003
2.931269e+003, 6.910015e-003
2.933198e+003, 7.271575e-003
2.935126e+003, 6.973573e-003
2.937055e+003, 6.814559e-003
2.938983e+003, 8.343300e-003
2.940912e+003, 8.800332e-003
2.942840e+003, 7.997336e-003
2.944769e+003, 8.383393e-003
2.946697e+003, 8.862179e-003
2.948625e+003, 9.045172e-003
2.950554e+003, 9.300699e-003
2.952482e+003, 9.500030e-003
2.954411e+003, 9.027724e-003
2.956339e+003, 8.892559e-003
2.958268e+003, 9.747861e-003
2.960196e+003, 9.914330e-003
2.962125e+003, 9.422493e-003
2.964053e+003, 9.533502e-003
2.965982e+003, 1.022530e-002
2.967910e+003, 1.096011e-002
2.969839e+003, 1.165438e-002
2.971767e+003, 1.160561e-002
2.973696e+003, 1.153888e-002
2.975624e+003, 1.210535e-002
2.977552e+003, 1.267917e-002
2.979481e+003, 1.327802e-002
2.981409e+003, 1.327144e-002
2.983338e+003, 1.272777e-002
2.985266e+003, 1.229026e-002
2.987195e+003, 1.236045e-002
2.989123e+003, 1.296531e-002
2.991052e+003, 1.316328e-002
2.992980e+003, 1.344769e-002
2.994909e+003, 1.372118e-002
2.996837e+003, 1.411251e-002
2.998766e+003, 1.397636e-002
3.000694e+003, 1.398454e-002
3.002623e+003, 1.427191e-002
3.004551e+003, 1.408392e-002
3.006479e+003, 1.346748e-002
3.008408e+003, 1.363767e-002
3.010336e+003, 1.387785e-002
3.012265e+003, 1.390742e-002
3.014193e+003, 1.427421e-002
3.016122e+003, 1.442428e-002
3.018050e+003, 1.462017e-002
3.019979e+003, 1.523555e-002
3.021907e+003, 1.549277e-002
3.023836e+003, 1.520707e-002
3.025764e+003, 1.504517e-002
3.027693e+003, 1.573522e-002
3.029621e+003, 1.675281e-002
3.031550e+003, 1.705081e-002
3.033478e+003, 1.638247e-002
3.035406e+003, 1.591599e-002
3.037335e+003, 1.636917e-002
3.039263e+003, 1.685876e-002
3.041192e+003, 1.709718e-002
3.043120e+003, 1.732601e-002
3.045049e+003, 1.777132e-002
3.046977e+003, 1.759237e-002
3.048906e+003, 1.793288e-002
3.050834e+003, 1.839976e-002
3.052763e+003, 1.858658e-002
3.054691e+003, 1.855132e-002
3.056620e+003, 1.849709e-002
3.058548e+003, 1.855018e-002
3.060477e+003, 1.961632e-002
3.062405e+003, 2.012183e-002
3.064333e+003, 1.927374e-002
3.066262e+003, 1.972651e-002
3.068190e+003, 1.996603e-002
3.070119e+003, 1.950583e-002
3.072047e+003, 1.948317e-002
3.073976e+003, 1.981717e-002
3.075904e+003, 2.036440e-002
3.077833e+003, 2.105143e-002
3.079761e+003, 2.156386e-002
3.081690e+003, 2.141622e-002
3.083618e+003, 2.128314e-002
3.085547e+003, 2.231522e-002
3.087475e+003, 2.319946e-002
3.089404e+003, 2.291039e-002
3.091332e+003, 2.255142e-002
3.093260e+003, 2.311520e-002
3.095189e+003, 2.320651e-002
3.097117e+003, 2.289400e-002
3.099046e+003, 2.323427e-002
3.100974e+003, 2.377026e-002
3.102903e+003, 2.442173e-002
3.104831e+003, 2.415494e-002
3.106760e+003, 2.471826e-002
3.108688e+003, 2.576755e-002
3.110617e+003, 2.616756e-002
3.112545e+003, 2.613100e-002
3.114474e+003, 2.665977e-002
3.116402e+003, 2.662372e-002
3.118331e+003, 2.600598e-002
3.120259e+003, 2.597875e-002
3.122188e+003, 2.641046e-002
3.124116e+003, 2.699666e-002
3.126044e+003, 2.774183e-002
3.127973e+003, 2.767930e-002
3.129901e+003, 2.742776e-002
3.131830e+003, 2.799707e-002
3.133758e+003, 2.864480e-002
3.135687e+003, 2.906198e-002
3.137615e+003, 2.860733e-002
3.139544e+003, 2.815629e-002
3.141472e+003, 2.818623e-002
3.143401e+003, 2.821523e-002
3.145329e+003, 2.957025e-002
3.147258e+003, 3.009678e-002
3.149186e+003, 2.956215e-002
3.151115e+003, 3.039241e-002
3.153043e+003, 3.153767e-002
3.154971e+003, 3.199519e-002
3.156900e+003, 3.196613e-002
3.158828e+003, 3.258810e-002
3.160757e+003, 3.301409e-002
3.162685e+003, 3.296822e-002
3.164614e+003, 3.323666e-002
3.166542e+003, 3.357157e-002
3.168471e+003, 3.404683e-002
3.170399e+003, 3.478456e-002
3.172328e+003, 3.563669e-002
3.174256e+003, 3.557038e-002
3.176185e+003, 3.515168e-002
3.178113e+003, 3.489241e-002
3.180042e+003, 3.561705e-002
3.181970e+003, 3.635979e-002
3.183898e+003, 3.668469e-002
3.185827e+003, 3.741492e-002
3.187755e+003, 3.778172e-002
3.189684e+003, 3.827680e-002
3.191612e+003, 3.882491e-002
3.193541e+003, 3.873987e-002
3.195469e+003, 3.896526e-002
3.197398e+003, 3.916300e-002
3.199326e+003, 3.853680e-002
3.201255e+003, 3.950955e-002
3.203183e+003, 4.038063e-002
3.205112e+003, 4.038275e-002
3.207040e+003, 4.167239e-002
3.208969e+003, 4.176647e-002
3.210897e+003, 4.179847e-002
3.212825e+003, 4.239311e-002
3.214754e+003, 4.296636e-002
3.216682e+003, 4.321473e-002
3.218611e+003, 4.345570e-002
3.220539e+003, 4.406087e-002
3.222468e+003, 4.452302e-002
3.224396e+003, 4.478416e-002
3.226325e+003, 4.466857e-002
3.228253e+003, 4.499976e-002
3.230182e+003, 4.592058e-002
3.232110e+003, 4.739791e-002
3.234039e+003, 4.805000e-002
3.235967e+003, 4.699130e-002
3.237896e+003, 4.680245e-002
3.239824e+003, 4.730163e-002
3.241752e+003, 4.725747e-002
3.243681e+003, 4.719256e-002
3.245609e+003, 4.803453e-002
3.247538e+003, 4.931435e-002
3.249466e+003, 5.042414e-002
3.251395e+003, 5.069793e-002
3.253323e+003, 5.012621e-002
3.255252e+003, 5.012005e-002
3.257180e+003, 4.988185e-002
3.259109e+003, 5.054803e-002
3.261037e+003, 5.124325e-002
3.262966e+003, 5.149026e-002
3.264894e+003, 5.068126e-002
3.266823e+003, 5.119153e-002
3.268751e+003, 5.219999e-002
3.270679e+003, 5.142017e-002
3.272608e+003, 5.129039e-002
3.274536e+003, 5.175375e-002
3.276465e+003, 5.245011e-002
3.278393e+003, 5.250036e-002
3.280322e+003, 5.201089e-002
3.282250e+003, 5.160332e-002
3.284179e+003, 5.165767e-002
3.286107e+003, 5.168597e-002
3.288036e+003, 5.128925e-002
3.289964e+003, 5.141380e-002
3.291893e+003, 5.149403e-002
3.293821e+003, 5.041868e-002
3.295750e+003, 4.975766e-002
3.297678e+003, 4.930831e-002
3.299606e+003, 4.864467e-002
3.301535e+003, 4.979257e-002
3.303463e+003, 5.036299e-002
3.305392e+003, 4.985788e-002
3.307320e+003, 4.938569e-002
3.309249e+003, 4.899454e-002
3.311177e+003, 4.927557e-002
3.313106e+003, 4.834317e-002
3.315034e+003, 4.827828e-002
3.316963e+003, 4.950726e-002
3.318891e+003, 4.946354e-002
3.320820e+003, 4.878337e-002
3.322748e+003, 4.890076e-002
3.324677e+003, 4.929783e-002
3.326605e+003, 4.859645e-002
3.328533e+003, 4.752595e-002
3.330462e+003, 4.686907e-002
3.332390e+003, 4.756836e-002
3.334319e+003, 4.880992e-002
3.336247e+003, 4.937275e-002
3.338176e+003, 4.957262e-002
3.340104e+003, 4.860561e-002
3.342033e+003, 4.829970e-002
3.343961e+003, 4.934339e-002
3.345890e+003, 5.007716e-002
3.347818e+003, 5.039321e-002
3.349747e+003, 5.010777e-002
3.351675e+003, 4.963508e-002
3.353604e+003, 4.918417e-002
3.355532e+003, 4.988421e-002
3.357460e+003, 5.020923e-002
3.359389e+003, 4.914963e-002
3.361317e+003, 4.889738e-002
3.363246e+003, 4.916168e-002
3.365174e+003, 4.998291e-002
3.367103e+003, 4.981657e-002
3.369031e+003, 4.902322e-002
3.370960e+003, 4.877410e-002
3.372888e+003, 4.937487e-002
3.374817e+003, 5.029634e-002
3.376745e+003, 5.045744e-002
3.378674e+003, 5.038070e-002
3.380602e+003, 4.942674e-002
3.382531e+003, 4.872254e-002
3.384459e+003, 4.922904e-002
3.386387e+003, 4.845267e-002
3.388316e+003, 4.820715e-002
3.390244e+003, 4.835508e-002
3.392173e+003, 4.895217e-002
3.394101e+003, 4.870367e-002
3.396030e+003, 4.819273e-002
3.397958e+003, 4.765683e-002
3.399887e+003, 4.772390e-002
3.401815e+003, 4.820192e-002
3.403744e+003, 4.876371e-002
3.405672e+003, 4.791234e-002
3.407601e+003, 4.637647e-002
3.409529e+003, 4.610457e-002
3.411458e+003, 4.662352e-002
3.413386e+003, 4.640981e-002
3.415314e+003, 4.526035e-002
3.417243e+003, 4.513860e-002
3.419171e+003, 4.482600e-002
3.421100e+003, 4.372969e-002
3.423028e+003, 4.354386e-002
3.424957e+003, 4.354444e-002
3.426885e+003, 4.397063e-002
3.428814e+003, 4.403481e-002
3.430742e+003, 4.321446e-002
3.432671e+003, 4.251792e-002
3.434599e+003, 4.166970e-002
3.436528e+003, 4.127771e-002
3.438456e+003, 4.168076e-002
3.440385e+003, 4.221507e-002
3.442313e+003, 4.206838e-002
3.444241e+003, 4.138926e-002
3.446170e+003, 4.065053e-002
3.448098e+003, 4.044520e-002
3.450027e+003, 4.058562e-002
3.451955e+003, 4.111619e-002
3.453884e+003, 4.025395e-002
3.455812e+003, 4.051839e-002
3.457741e+003, 4.157421e-002
3.459669e+003, 4.120453e-002
3.461598e+003, 4.059364e-002
3.463526e+003, 3.936078e-002
3.465455e+003, 3.941652e-002
3.467383e+003, 3.967010e-002
3.469312e+003, 3.941543e-002
3.471240e+003, 3.920949e-002
3.473168e+003, 3.895244e-002
3.475097e+003, 3.743469e-002
3.477025e+003, 3.714099e-002
3.478954e+003, 3.710938e-002
3.480882e+003, 3.642621e-002
3.482811e+003, 3.613516e-002
3.484739e+003, 3.673674e-002
3.486668e+003, 3.677317e-002
3.488596e+003, 3.673974e-002
3.490525e+003, 3.574620e-002
3.492453e+003, 3.446465e-002
3.494382e+003, 3.443275e-002
3.496310e+003, 3.387580e-002
3.498239e+003, 3.302879e-002
3.500167e+003, 3.218498e-002
3.502095e+003, 3.285424e-002
3.504024e+003, 3.303618e-002
3.505952e+003, 3.205629e-002
3.507881e+003, 3.154804e-002
3.509809e+003, 3.057362e-002
3.511738e+003, 2.999411e-002
3.513666e+003, 3.076485e-002
3.515595e+003, 3.143607e-002
3.517523e+003, 3.124381e-002
3.519452e+003, 3.171461e-002
3.521380e+003, 3.102182e-002
3.523309e+003, 3.049863e-002
3.525237e+003, 3.016790e-002
3.527166e+003, 2.927283e-002
3.529094e+003, 2.987989e-002
3.531022e+003, 2.937962e-002
3.532951e+003, 2.888384e-002
3.534879e+003, 2.917211e-002
3.536808e+003, 2.933076e-002
3.538736e+003, 2.953631e-002
3.540665e+003, 2.879103e-002
3.542593e+003, 2.764644e-002
3.544522e+003, 2.741662e-002
3.546450e+003, 2.663448e-002
3.548379e+003, 2.616755e-002
3.550307e+003, 2.600793e-002
3.552236e+003, 2.570751e-002
3.554164e+003, 2.577955e-002
3.556093e+003, 2.575436e-002
3.558021e+003, 2.431985e-002
3.559949e+003, 2.407171e-002
3.561878e+003, 2.255080e-002
3.563806e+003, 2.096906e-002
3.565735e+003, 2.153415e-002
3.567663e+003, 2.162335e-002
3.569592e+003, 2.060488e-002
3.571520e+003, 1.959509e-002
3.573449e+003, 1.864862e-002
3.575377e+003, 1.866552e-002
3.577306e+003, 1.881583e-002
3.579234e+003, 1.752649e-002
3.581163e+003, 1.762282e-002
3.583091e+003, 1.873186e-002
3.585020e+003, 1.834153e-002
3.586948e+003, 1.796085e-002
3.588876e+003, 1.625955e-002
3.590805e+003, 1.514759e-002
3.592733e+003, 1.430191e-002
3.594662e+003, 1.378379e-002
3.596590e+003, 1.334100e-002
3.598519e+003, 1.342969e-002
3.600447e+003, 1.324883e-002
3.602376e+003, 1.249581e-002
3.604304e+003, 1.157125e-002
3.606233e+003, 1.099614e-002
3.608161e+003, 1.126173e-002
3.610090e+003, 1.081963e-002
3.612018e+003, 9.548167e-003
3.613947e+003, 1.027460e-002
3.615875e+003, 1.007351e-002
3.617803e+003, 8.914744e-003
3.619732e+003, 8.519454e-003
3.621660e+003, 8.180171e-003
3.623589e+003, 7.084338e-003
3.625517e+003, 6.193594e-003
3.627446e+003, 5.178438e-003
3.629374e+003, 5.059819e-003
3.631303e+003, 5.867706e-003
3.633231e+003, 6.036975e-003
3.635160e+003, 4.909237e-003
3.637088e+003, 4.726412e-003
3.639017e+003, 5.486042e-003
3.640945e+003, 5.840301e-003
3.642874e+003, 5.627277e-003
3.644802e+003, 4.067098e-003
3.646730e+003, 2.451260e-003
3.648659e+003, 2.034636e-003
3.650587e+003, 2.225629e-003
3.652516e+003, 3.126916e-003
3.654444e+003, 2.949136e-003
3.656373e+003, 1.950629e-003
3.658301e+003, 2.977266e-003
3.660230e+003, 3.279347e-003
3.662158e+003, 3.143559e-003
3.664087e+003, 2.825439e-003
3.666015e+003, 2.584060e-003
3.667944e+003, 2.279660e-003
3.669872e+003, 1.720076e-003
3.671801e+003, 2.565472e-003
3.673729e+003, 1.823759e-003
3.675657e+003, -4.020979e-004
3.677586e+003, -3.357923e-004
3.679514e+003, 1.913660e-003
3.681443e+003, 2.582839e-003
3.683371e+003, 1.471563e-003
3.685300e+003, 1.072109e-003
3.687228e+003, -5.265560e-005
3.689157e+003, 1.572041e-004
3.691085e+003, 3.427228e-004
3.693014e+003, 2.489086e-004
3.694942e+003, 1.294590e-003
3.696871e+003, 1.218403e-003
3.698799e+003, 5.222967e-004
3.700728e+003, 4.590324e-004
3.702656e+003, -5.232846e-004
3.704584e+003, -9.912518e-004
3.706513e+003, -7.765969e-004
3.708441e+003, -1.401524e-003
3.710370e+003, -4.701752e-004
3.712298e+003, 8.899295e-004
3.714227e+003, 1.394833e-003
3.716155e+003, 9.062540e-004
3.718084e+003, -5.563766e-004
3.720012e+003, -8.332626e-004
3.721941e+003, 1.027313e-004
3.723869e+003, 7.340714e-004
3.725798e+003, -8.147727e-006
3.727726e+003, -2.408356e-004
3.729655e+003, -4.224599e-004
3.731583e+003, -8.113857e-004
3.733511e+003, -3.713238e-004
3.735440e+003, -1.736403e-004
3.737368e+003, 5.143646e-004
3.739297e+003, 1.526645e-003
3.741225e+003, 4.421083e-004
3.743154e+003, -1.248460e-003
3.745082e+003, -1.047848e-003
3.747011e+003, 5.900849e-004
3.748939e+003, 2.473358e-004
3.750868e+003, -1.153917e-003
3.752796e+003, -2.496662e-004
3.754725e+003, -5.265391e-004
3.756653e+003, -6.764954e-004
3.758582e+003, 8.344866e-004
3.760510e+003, -7.164394e-005
3.762438e+003, 5.014787e-004
3.764367e+003, 5.143373e-004
3.766295e+003, -4.244893e-004
3.768224e+003, -4.604060e-004
3.770152e+003, 4.858874e-004
3.772081e+003, 1.345383e-003
3.774009e+003, 1.937265e-003
3.775938e+003, 8.149323e-004
3.777866e+003, -9.524378e-004
3.779795e+003, -3.565192e-004
3.781723e+003, 7.394587e-004
3.783652e+003, -1.642308e-005
3.785580e+003, -2.386789e-004
3.787509e+003, 2.010560e-004
3.789437e+003, -5.988092e-004
3.791365e+003, -6.701893e-004
3.793294e+003, -1.033076e-003
3.795222e+003, -1.478672e-003
3.797151e+003, -5.768864e-004
3.799079e+003, 1.450384e-003
3.801008e+003, 1.723797e-003
3.802936e+003, 7.130995e-004
3.804865e+003, 1.352155e-003
3.806793e+003, 7.661919e-004
3.808722e+003, 1.027952e-003
3.810650e+003, 1.064986e-003
3.812579e+003, 3.188779e-004
3.814507e+003, 7.073032e-004
3.816436e+003, 1.216427e-003
3.818364e+003, 7.801659e-004
3.820292e+003, -3.328765e-004
3.822221e+003, -9.009657e-004
3.824149e+003, 8.726243e-004
3.826078e+003, 1.598875e-003
3.828006e+003, 1.065648e-003
3.829935e+003, 5.344669e-004
3.831863e+003, -1.462574e-004
3.833792e+003, -6.834028e-004
3.835720e+003, -1.118380e-004
3.837649e+003, 6.035955e-004
3.839577e+003, -5.688340e-004
3.841506e+003, -1.401070e-003
3.843434e+003, -7.332389e-004
3.845363e+003, -9.810420e-004
3.847291e+003, -1.075299e-003
3.849219e+003, -5.642701e-004
3.851148e+003, -6.954278e-005
3.853076e+003, -1.029964e-003
3.855005e+003, -1.282193e-003
3.856933e+003, 8.913571e-004
3.858862e+003, 1.348311e-003
3.860790e+003, -7.876963e-004
3.862719e+003, -7.065980e-004
3.864647e+003, -4.958698e-004
3.866576e+003, -9.390587e-005
3.868504e+003, -7.896545e-004
3.870433e+003, -1.422255e-003
3.872361e+003, -7.240087e-004
3.874290e+003, -1.072582e-003
3.876218e+003, -1.313118e-003
3.878146e+003, -7.166131e-004
3.880075e+003, -5.828019e-004
3.882003e+003, -5.616182e-004
3.883932e+003, -2.226328e-005
3.885860e+003, -5.085027e-004
3.887789e+003, -1.475868e-003
3.889717e+003, -8.510515e-004
3.891646e+003, -7.258098e-004
3.893574e+003, -2.650945e-004
3.895503e+003, 2.957338e-004
3.897431e+003, -2.266214e-004
3.899360e+003, 9.108953e-005
3.901288e+003, 1.246319e-003
3.903217e+003, 7.243990e-004
3.905145e+003, -6.245955e-004
3.907073e+003, -5.982454e-004
3.909002e+003, 9.217923e-004
3.910930e+003, 4.060381e-004
3.912859e+003, -6.349013e-004
3.914787e+003, -1.606641e-003
3.916716e+003, -2.663396e-003
3.918644e+003, -3.308106e-003
3.920573e+003, -2.736315e-003
3.922501e+003, -1.205809e-003
3.924430e+003, 6.608218e-004
3.926358e+003, 1.727641e-003
3.928287e+003, 1.524204e-003
3.930215e+003, 1.766098e-003
3.932144e+003, 1.448503e-003
3.934072e+003, 6.855267e-004
3.936000e+003, 8.670923e-004
3.937929e+003, 2.657844e-003
3.939857e+003, 3.029721e-003
3.941786e+003, 1.832486e-003
3.943714e+003, 1.677071e-003
3.945643e+003, 1.127046e-003
3.947571e+003, 1.723227e-003
3.949500e+003, 2.230044e-003
3.951428e+003, 6.454595e-004
3.953357e+003, 1.041408e-004
3.955285e+003, -7.561683e-005
3.957214e+003, -1.018489e-003
3.959142e+003, -1.060020e-003
3.961071e+003, -4.268911e-004
3.962999e+003, -1.175186e-004
3.964927e+003, 9.903196e-004
3.966856e+003, 5.640927e-004
3.968784e+003, 7.337960e-005
3.970713e+003, 7.945771e-004
3.972641e+003, 1.482655e-003
3.974570e+003, 9.139775e-005
3.976498e+003, -1.763068e-003
3.978427e+003, -1.187039e-003
3.980355e+003, -8.911826e-004
3.982284e+003, 6.699036e-004
3.984212e+003, 2.255592e-003
3.986141e+003, 2.013230e-003
3.988069e+003, 2.524010e-003
3.989998e+003, 3.229199e-003
3.991926e+003, 2.892746e-003
3.993854e+003, 1.921871e-003
3.995783e+003, 8.209196e-004
3.997711e+003, -3.928329e-004
3.999640e+003, -3.930224e-004
##END=



