##NAMES=Trilithionite
##RRUFFID=R050486
##IDEAL CHEMISTRY=KLi_1.5_Al_1.5_(Si_3_Al)O_10_F_2_
##LOCALITY=Cotopaxie, Colorado, USA
##OWNER=RRUFF
##SOURCE=California Institute of Technology
##DESCRIPTION=Microcrystalline massive, no visible indication of foliation, polytype 1M
##STATUS=The identification of this mineral has been confirmed by X-ray diffraction and chemical analysis
##URL=rruff.info/R050486
##MEASURED CHEMISTRY=(K_0.98_Ca_0.02_)(Li_0.53_Al_0.47_)_3_(Si_0.79_Al_0.21_)_4_O_10_(OH)_2_
3.991926e+002, 2.625709e-001
4.011211e+002, 2.705351e-001
4.030495e+002, 2.685816e-001
4.049780e+002, 2.752648e-001
4.069065e+002, 2.772761e-001
4.088349e+002, 2.749213e-001
4.107634e+002, 2.810998e-001
4.126919e+002, 2.782041e-001
4.146203e+002, 2.701363e-001
4.165488e+002, 2.666791e-001
4.184773e+002, 2.680409e-001
4.204057e+002, 2.702087e-001
4.223342e+002, 2.672878e-001
4.242627e+002, 2.652423e-001
4.261911e+002, 2.648578e-001
4.281196e+002, 2.660342e-001
4.300481e+002, 2.689421e-001
4.319765e+002, 2.699593e-001
4.339050e+002, 2.722297e-001
4.358335e+002, 2.737298e-001
4.377619e+002, 2.729335e-001
4.396904e+002, 2.740159e-001
4.416189e+002, 2.764042e-001
4.435473e+002, 2.793859e-001
4.454758e+002, 2.827486e-001
4.474043e+002, 2.847206e-001
4.493327e+002, 2.860111e-001
4.512612e+002, 2.907238e-001
4.531897e+002, 2.953803e-001
4.551181e+002, 2.985092e-001
4.570466e+002, 3.013948e-001
4.589751e+002, 3.044880e-001
4.609035e+002, 3.081761e-001
4.628320e+002, 3.096548e-001
4.647605e+002, 3.087610e-001
4.666889e+002, 3.074756e-001
4.686174e+002, 3.071044e-001
4.705459e+002, 3.072646e-001
4.724743e+002, 3.030114e-001
4.744028e+002, 2.966275e-001
4.763313e+002, 2.901224e-001
4.782597e+002, 2.846490e-001
4.801882e+002, 2.795744e-001
4.821167e+002, 2.732647e-001
4.840451e+002, 2.666499e-001
4.859736e+002, 2.608967e-001
4.879021e+002, 2.550203e-001
4.898305e+002, 2.491867e-001
4.917590e+002, 2.440131e-001
4.936875e+002, 2.401701e-001
4.956159e+002, 2.369284e-001
4.975444e+002, 2.352658e-001
4.994729e+002, 2.343837e-001
5.014013e+002, 2.338977e-001
5.033298e+002, 2.340807e-001
5.052583e+002, 2.347365e-001
5.071867e+002, 2.359287e-001
5.091152e+002, 2.361023e-001
5.110437e+002, 2.380309e-001
5.129721e+002, 2.403605e-001
5.149006e+002, 2.417916e-001
5.168290e+002, 2.439673e-001
5.187575e+002, 2.461710e-001
5.206860e+002, 2.472479e-001
5.226144e+002, 2.487821e-001
5.245429e+002, 2.502926e-001
5.264714e+002, 2.509039e-001
5.283998e+002, 2.507384e-001
5.303283e+002, 2.496656e-001
5.322568e+002, 2.462572e-001
5.341852e+002, 2.406363e-001
5.361137e+002, 2.350180e-001
5.380422e+002, 2.288096e-001
5.399706e+002, 2.211226e-001
5.418991e+002, 2.142396e-001
5.438276e+002, 2.067207e-001
5.457560e+002, 1.984725e-001
5.476845e+002, 1.904824e-001
5.496130e+002, 1.835714e-001
5.515414e+002, 1.768679e-001
5.534699e+002, 1.708936e-001
5.553984e+002, 1.645312e-001
5.573268e+002, 1.574825e-001
5.592553e+002, 1.512856e-001
5.611838e+002, 1.456654e-001
5.631122e+002, 1.403099e-001
5.650407e+002, 1.355219e-001
5.669692e+002, 1.314133e-001
5.688976e+002, 1.277685e-001
5.708261e+002, 1.250164e-001
5.727546e+002, 1.226538e-001
5.746830e+002, 1.210725e-001
5.766115e+002, 1.192802e-001
5.785400e+002, 1.174855e-001
5.804684e+002, 1.159135e-001
5.823969e+002, 1.141318e-001
5.843254e+002, 1.114915e-001
5.862538e+002, 1.090854e-001
5.881823e+002, 1.066689e-001
5.901108e+002, 1.035569e-001
5.920392e+002, 1.007325e-001
5.939677e+002, 9.824982e-002
5.958962e+002, 9.590583e-002
5.978246e+002, 9.377641e-002
5.997531e+002, 9.192673e-002
6.016816e+002, 9.061355e-002
6.036100e+002, 8.973920e-002
6.055385e+002, 8.890615e-002
6.074670e+002, 8.792810e-002
6.093954e+002, 8.671088e-002
6.113239e+002, 8.588782e-002
6.132524e+002, 8.503757e-002
6.151808e+002, 8.421946e-002
6.171093e+002, 8.356483e-002
6.190378e+002, 8.291779e-002
6.209662e+002, 8.200941e-002
6.228947e+002, 8.115206e-002
6.248232e+002, 8.046154e-002
6.267516e+002, 8.005799e-002
6.286801e+002, 7.980265e-002
6.306086e+002, 7.967350e-002
6.325370e+002, 7.934147e-002
6.344655e+002, 7.892781e-002
6.363940e+002, 7.892041e-002
6.383224e+002, 7.909101e-002
6.402509e+002, 7.878368e-002
6.421794e+002, 7.839029e-002
6.441078e+002, 7.866868e-002
6.460363e+002, 7.886300e-002
6.479648e+002, 7.873165e-002
6.498932e+002, 7.838048e-002
6.518217e+002, 7.812760e-002
6.537502e+002, 7.786901e-002
6.556786e+002, 7.779464e-002
6.576071e+002, 7.770699e-002
6.595356e+002, 7.774930e-002
6.614641e+002, 7.834136e-002
6.633925e+002, 7.912768e-002
6.653210e+002, 8.003868e-002
6.672495e+002, 8.104069e-002
6.691779e+002, 8.205803e-002
6.711064e+002, 8.331688e-002
6.730349e+002, 8.472298e-002
6.749633e+002, 8.579686e-002
6.768918e+002, 8.657698e-002
6.788203e+002, 8.732516e-002
6.807487e+002, 8.815482e-002
6.826772e+002, 8.879479e-002
6.846057e+002, 8.938337e-002
6.865341e+002, 8.996902e-002
6.884626e+002, 9.025539e-002
6.903911e+002, 9.022885e-002
6.923195e+002, 9.026483e-002
6.942480e+002, 8.985867e-002
6.961765e+002, 8.958659e-002
6.981049e+002, 8.924523e-002
7.000334e+002, 8.865519e-002
7.019619e+002, 8.787351e-002
7.038903e+002, 8.751502e-002
7.058188e+002, 8.721019e-002
7.077473e+002, 8.705326e-002
7.096757e+002, 8.704974e-002
7.116042e+002, 8.719683e-002
7.135327e+002, 8.758193e-002
7.154611e+002, 8.834583e-002
7.173896e+002, 8.919137e-002
7.193181e+002, 9.016533e-002
7.212465e+002, 9.108873e-002
7.231750e+002, 9.210438e-002
7.251035e+002, 9.321851e-002
7.270319e+002, 9.391752e-002
7.289604e+002, 9.479492e-002
7.308889e+002, 9.582580e-002
7.328173e+002, 9.692361e-002
7.347458e+002, 9.798041e-002
7.366743e+002, 9.929913e-002
7.386027e+002, 1.009393e-001
7.405312e+002, 1.023237e-001
7.424597e+002, 1.034750e-001
7.443881e+002, 1.046874e-001
7.463166e+002, 1.057335e-001
7.482451e+002, 1.061291e-001
7.501735e+002, 1.062409e-001
7.521020e+002, 1.056088e-001
7.540305e+002, 1.042797e-001
7.559589e+002, 1.027541e-001
7.578874e+002, 1.004489e-001
7.598159e+002, 9.763101e-002
7.617443e+002, 9.460042e-002
7.636728e+002, 9.141950e-002
7.656013e+002, 8.834685e-002
7.675297e+002, 8.571354e-002
7.694582e+002, 8.320906e-002
7.713867e+002, 8.091448e-002
7.733151e+002, 7.900508e-002
7.752436e+002, 7.779590e-002
7.771721e+002, 7.717121e-002
7.791005e+002, 7.691117e-002
7.810290e+002, 7.685775e-002
7.829575e+002, 7.731719e-002
7.848859e+002, 7.804938e-002
7.868144e+002, 7.893430e-002
7.887429e+002, 8.006492e-002
7.906713e+002, 8.179622e-002
7.925998e+002, 8.374803e-002
7.945283e+002, 8.576775e-002
7.964567e+002, 8.838034e-002
7.983852e+002, 9.105173e-002
8.003137e+002, 9.365370e-002
8.022421e+002, 9.619785e-002
8.041706e+002, 9.860611e-002
8.060991e+002, 1.006445e-001
8.080275e+002, 1.025928e-001
8.099560e+002, 1.047691e-001
8.118845e+002, 1.070722e-001
8.138129e+002, 1.092983e-001
8.157414e+002, 1.121575e-001
8.176699e+002, 1.152448e-001
8.195983e+002, 1.184848e-001
8.215268e+002, 1.216976e-001
8.234553e+002, 1.244956e-001
8.253837e+002, 1.263305e-001
8.273122e+002, 1.273074e-001
8.292407e+002, 1.269916e-001
8.311691e+002, 1.251071e-001
8.330976e+002, 1.218952e-001
8.350261e+002, 1.183201e-001
8.369545e+002, 1.144842e-001
8.388830e+002, 1.114115e-001
8.408115e+002, 1.096368e-001
8.427399e+002, 1.089270e-001
8.446684e+002, 1.091159e-001
8.465969e+002, 1.101655e-001
8.485253e+002, 1.116868e-001
8.504538e+002, 1.137081e-001
8.523823e+002, 1.164349e-001
8.543107e+002, 1.197437e-001
8.562392e+002, 1.235305e-001
8.581677e+002, 1.282934e-001
8.600961e+002, 1.335093e-001
8.620246e+002, 1.391352e-001
8.639531e+002, 1.452462e-001
8.658815e+002, 1.517016e-001
8.678100e+002, 1.583395e-001
8.697385e+002, 1.647668e-001
8.716669e+002, 1.708813e-001
8.735954e+002, 1.767603e-001
8.755239e+002, 1.824499e-001
8.774523e+002, 1.881256e-001
8.793808e+002, 1.937609e-001
8.813093e+002, 1.996280e-001
8.832377e+002, 2.058300e-001
8.851662e+002, 2.121124e-001
8.870947e+002, 2.186148e-001
8.890231e+002, 2.254890e-001
8.909516e+002, 2.326700e-001
8.928801e+002, 2.402798e-001
8.948085e+002, 2.480795e-001
8.967370e+002, 2.559924e-001
8.986655e+002, 2.642639e-001
9.005939e+002, 2.725128e-001
9.025224e+002, 2.800586e-001
9.044509e+002, 2.868182e-001
9.063793e+002, 2.924163e-001
9.083078e+002, 2.969324e-001
9.102363e+002, 3.001438e-001
9.121647e+002, 3.019269e-001
9.140932e+002, 3.029964e-001
9.160217e+002, 3.040352e-001
9.179501e+002, 3.051189e-001
9.198786e+002, 3.061509e-001
9.218071e+002, 3.074030e-001
9.237355e+002, 3.088806e-001
9.256640e+002, 3.104367e-001
9.275925e+002, 3.123223e-001
9.295209e+002, 3.143188e-001
9.314494e+002, 3.159401e-001
9.333779e+002, 3.172871e-001
9.353063e+002, 3.186402e-001
9.372348e+002, 3.201642e-001
9.391633e+002, 3.218865e-001
9.410917e+002, 3.235686e-001
9.430202e+002, 3.255378e-001
9.449487e+002, 3.281831e-001
9.468771e+002, 3.313445e-001
9.488056e+002, 3.354689e-001
9.507341e+002, 3.408046e-001
9.526625e+002, 3.466245e-001
9.545910e+002, 3.527880e-001
9.565195e+002, 3.594048e-001
9.584479e+002, 3.665606e-001
9.603764e+002, 3.741189e-001
9.623049e+002, 3.819389e-001
9.642333e+002, 3.899311e-001
9.661618e+002, 3.979302e-001
9.680903e+002, 4.055266e-001
9.700187e+002, 4.125391e-001
9.719472e+002, 4.186944e-001
9.738757e+002, 4.234091e-001
9.758041e+002, 4.266194e-001
9.777326e+002, 4.286238e-001
9.796611e+002, 4.294525e-001
9.815895e+002, 4.292034e-001
9.835180e+002, 4.277308e-001
9.854465e+002, 4.253463e-001
9.873749e+002, 4.219676e-001
9.893034e+002, 4.175771e-001
9.912319e+002, 4.124290e-001
9.931603e+002, 4.072241e-001
9.950888e+002, 4.018593e-001
9.970173e+002, 3.960652e-001
9.989457e+002, 3.901708e-001
1.000874e+003, 3.842540e-001
1.002803e+003, 3.786429e-001
1.004731e+003, 3.733173e-001
1.006660e+003, 3.677404e-001
1.008588e+003, 3.623701e-001
1.010517e+003, 3.571160e-001
1.012445e+003, 3.519552e-001
1.014373e+003, 3.465862e-001
1.016302e+003, 3.410799e-001
1.018230e+003, 3.352087e-001
1.020159e+003, 3.289566e-001
1.022087e+003, 3.223094e-001
1.024016e+003, 3.152749e-001
1.025944e+003, 3.080545e-001
1.027873e+003, 3.004489e-001
1.029801e+003, 2.921748e-001
1.031730e+003, 2.832144e-001
1.033658e+003, 2.736522e-001
1.035587e+003, 2.636340e-001
1.037515e+003, 2.533631e-001
1.039443e+003, 2.426398e-001
1.041372e+003, 2.316939e-001
1.043300e+003, 2.209590e-001
1.045229e+003, 2.108842e-001
1.047157e+003, 2.016776e-001
1.049086e+003, 1.936346e-001
1.051014e+003, 1.869192e-001
1.052943e+003, 1.813661e-001
1.054871e+003, 1.770353e-001
1.056800e+003, 1.734837e-001
1.058728e+003, 1.704736e-001
1.060657e+003, 1.676679e-001
1.062585e+003, 1.649083e-001
1.064514e+003, 1.619802e-001
1.066442e+003, 1.588479e-001
1.068370e+003, 1.556001e-001
1.070299e+003, 1.523021e-001
1.072227e+003, 1.489020e-001
1.074156e+003, 1.453474e-001
1.076084e+003, 1.415274e-001
1.078013e+003, 1.377798e-001
1.079941e+003, 1.341970e-001
1.081870e+003, 1.304140e-001
1.083798e+003, 1.264886e-001
1.085727e+003, 1.227306e-001
1.087655e+003, 1.192841e-001
1.089584e+003, 1.159928e-001
1.091512e+003, 1.124708e-001
1.093441e+003, 1.089116e-001
1.095369e+003, 1.055228e-001
1.097297e+003, 1.022548e-001
1.099226e+003, 9.900237e-002
1.101154e+003, 9.583297e-002
1.103083e+003, 9.275919e-002
1.105011e+003, 8.987013e-002
1.106940e+003, 8.693769e-002
1.108868e+003, 8.393753e-002
1.110797e+003, 8.088748e-002
1.112725e+003, 7.802669e-002
1.114654e+003, 7.523267e-002
1.116582e+003, 7.255603e-002
1.118511e+003, 6.982309e-002
1.120439e+003, 6.699993e-002
1.122368e+003, 6.411533e-002
1.124296e+003, 6.141680e-002
1.126224e+003, 5.874256e-002
1.128153e+003, 5.597896e-002
1.130081e+003, 5.341338e-002
1.132010e+003, 5.102298e-002
1.133938e+003, 4.852009e-002
1.135867e+003, 4.616248e-002
1.137795e+003, 4.403896e-002
1.139724e+003, 4.204340e-002
1.141652e+003, 4.012973e-002
1.143581e+003, 3.828748e-002
1.145509e+003, 3.660003e-002
1.147438e+003, 3.506049e-002
1.149366e+003, 3.374175e-002
1.151295e+003, 3.257658e-002
1.153223e+003, 3.130350e-002
1.155151e+003, 3.010892e-002
1.157080e+003, 2.897690e-002
1.159008e+003, 2.786272e-002
1.160937e+003, 2.679392e-002
1.162865e+003, 2.560056e-002
1.164794e+003, 2.432843e-002
1.166722e+003, 2.312268e-002
1.168651e+003, 2.208221e-002
1.170579e+003, 2.105699e-002
1.172508e+003, 2.015197e-002
1.174436e+003, 1.924013e-002
1.176365e+003, 1.836167e-002
1.178293e+003, 1.764859e-002
1.180222e+003, 1.682841e-002
1.182150e+003, 1.607159e-002
1.184078e+003, 1.533381e-002
1.186007e+003, 1.461877e-002
1.187935e+003, 1.402903e-002
1.189864e+003, 1.344030e-002
1.191792e+003, 1.288619e-002
1.193721e+003, 1.248204e-002
1.195649e+003, 1.190800e-002
1.197578e+003, 1.131650e-002
1.199506e+003, 1.072246e-002
1.201435e+003, 1.013038e-002
1.203363e+003, 9.553446e-003
1.205292e+003, 9.181574e-003
1.207220e+003, 8.974844e-003
1.209149e+003, 8.662448e-003
1.211077e+003, 8.183866e-003
1.213005e+003, 7.847250e-003
1.214934e+003, 7.712300e-003
1.216862e+003, 7.457877e-003
1.218791e+003, 7.164852e-003
1.220719e+003, 6.982734e-003
1.222648e+003, 6.784027e-003
1.224576e+003, 6.567867e-003
1.226505e+003, 6.495037e-003
1.228433e+003, 6.397368e-003
1.230362e+003, 6.221796e-003
1.232290e+003, 6.075199e-003
1.234219e+003, 5.974747e-003
1.236147e+003, 5.985408e-003
1.238076e+003, 6.020853e-003
1.240004e+003, 6.084749e-003
1.241932e+003, 6.072616e-003
1.243861e+003, 6.047217e-003
1.245789e+003, 6.046661e-003
1.247718e+003, 5.959897e-003
1.249646e+003, 5.817519e-003
1.251575e+003, 5.719728e-003
1.253503e+003, 5.759445e-003
1.255432e+003, 5.708003e-003
1.257360e+003, 5.615558e-003
1.259289e+003, 5.573091e-003
1.261217e+003, 5.584640e-003
1.263146e+003, 5.634241e-003
1.265074e+003, 5.905719e-003
1.267003e+003, 6.052105e-003
1.268931e+003, 6.181599e-003
1.270859e+003, 6.511379e-003
1.272788e+003, 6.853985e-003
1.274716e+003, 7.190741e-003
1.276645e+003, 7.614563e-003
1.278573e+003, 8.008386e-003
1.280502e+003, 8.355221e-003
1.282430e+003, 8.584347e-003
1.284359e+003, 8.573862e-003
1.286287e+003, 8.370989e-003
1.288216e+003, 8.144160e-003
1.290144e+003, 7.949282e-003
1.292073e+003, 7.633598e-003
1.294001e+003, 7.271274e-003
1.295930e+003, 6.804419e-003
1.297858e+003, 6.407487e-003
1.299786e+003, 6.146975e-003
1.301715e+003, 5.979318e-003
1.303643e+003, 5.829564e-003
1.305572e+003, 5.709480e-003
1.307500e+003, 5.662205e-003
1.309429e+003, 5.663659e-003
1.311357e+003, 5.567830e-003
1.313286e+003, 5.335984e-003
1.315214e+003, 5.060804e-003
1.317143e+003, 4.828236e-003
1.319071e+003, 4.778881e-003
1.321000e+003, 4.778669e-003
1.322928e+003, 4.666368e-003
1.324857e+003, 4.434026e-003
1.326785e+003, 4.333942e-003
1.328714e+003, 4.305875e-003
1.330642e+003, 4.256651e-003
1.332570e+003, 4.306576e-003
1.334499e+003, 4.304959e-003
1.336427e+003, 4.359358e-003
1.338356e+003, 4.396289e-003
1.340284e+003, 4.341824e-003
1.342213e+003, 4.245620e-003
1.344141e+003, 4.248484e-003
1.346070e+003, 4.323229e-003
1.347998e+003, 4.402050e-003
1.349927e+003, 4.443321e-003
1.351855e+003, 4.499716e-003
1.353784e+003, 4.489373e-003
1.355712e+003, 4.390318e-003
1.357641e+003, 4.383972e-003
1.359569e+003, 4.561135e-003
1.361497e+003, 4.664720e-003
1.363426e+003, 4.688320e-003
1.365354e+003, 4.616533e-003
1.367283e+003, 4.603479e-003
1.369211e+003, 4.672938e-003
1.371140e+003, 4.810348e-003
1.373068e+003, 4.976375e-003
1.374997e+003, 5.019164e-003
1.376925e+003, 5.052716e-003
1.378854e+003, 5.103798e-003
1.380782e+003, 5.079523e-003
1.382711e+003, 5.074297e-003
1.384639e+003, 5.160777e-003
1.386568e+003, 5.356734e-003
1.388496e+003, 5.482662e-003
1.390424e+003, 5.461418e-003
1.392353e+003, 5.437266e-003
1.394281e+003, 5.631618e-003
1.396210e+003, 5.849760e-003
1.398138e+003, 5.961366e-003
1.400067e+003, 5.976730e-003
1.401995e+003, 5.958295e-003
1.403924e+003, 6.141216e-003
1.405852e+003, 6.287734e-003
1.407781e+003, 6.379847e-003
1.409709e+003, 6.485135e-003
1.411638e+003, 6.432957e-003
1.413566e+003, 6.341586e-003
1.415495e+003, 6.457031e-003
1.417423e+003, 6.638236e-003
1.419351e+003, 6.645062e-003
1.421280e+003, 6.415881e-003
1.423208e+003, 6.424474e-003
1.425137e+003, 6.441596e-003
1.427065e+003, 6.362100e-003
1.428994e+003, 6.365993e-003
1.430922e+003, 6.542319e-003
1.432851e+003, 6.653796e-003
1.434779e+003, 6.930612e-003
1.436708e+003, 7.236577e-003
1.438636e+003, 7.141013e-003
1.440565e+003, 6.852869e-003
1.442493e+003, 6.566149e-003
1.444422e+003, 6.313621e-003
1.446350e+003, 6.074737e-003
1.448278e+003, 5.980459e-003
1.450207e+003, 5.968515e-003
1.452135e+003, 5.816326e-003
1.454064e+003, 5.779699e-003
1.455992e+003, 6.231891e-003
1.457921e+003, 6.290179e-003
1.459849e+003, 5.727494e-003
1.461778e+003, 5.308553e-003
1.463706e+003, 5.325515e-003
1.465635e+003, 5.280670e-003
1.467563e+003, 4.942449e-003
1.469492e+003, 4.660544e-003
1.471420e+003, 4.601728e-003
1.473349e+003, 4.321751e-003
1.475277e+003, 3.862055e-003
1.477205e+003, 3.595047e-003
1.479134e+003, 3.471814e-003
1.481062e+003, 3.434304e-003
1.482991e+003, 3.368929e-003
1.484919e+003, 3.343724e-003
1.486848e+003, 3.432647e-003
1.488776e+003, 3.426833e-003
1.490705e+003, 3.171731e-003
1.492633e+003, 3.002217e-003
1.494562e+003, 3.261153e-003
1.496490e+003, 3.464170e-003
1.498419e+003, 3.264174e-003
1.500347e+003, 3.146187e-003
1.502276e+003, 3.129127e-003
1.504204e+003, 3.408829e-003
1.506132e+003, 3.934798e-003
1.508061e+003, 3.651405e-003
1.509989e+003, 3.215824e-003
1.511918e+003, 3.202870e-003
1.513846e+003, 3.162105e-003
1.515775e+003, 3.190412e-003
1.517703e+003, 3.390964e-003
1.519632e+003, 3.675153e-003
1.521560e+003, 3.795855e-003
1.523489e+003, 3.664885e-003
1.525417e+003, 3.715782e-003
1.527346e+003, 3.758148e-003
1.529274e+003, 3.825429e-003
1.531203e+003, 3.865267e-003
1.533131e+003, 4.004021e-003
1.535059e+003, 4.101413e-003
1.536988e+003, 4.409463e-003
1.538916e+003, 4.986199e-003
1.540845e+003, 5.179552e-003
1.542773e+003, 5.055972e-003
1.544702e+003, 4.978276e-003
1.546630e+003, 4.906124e-003
1.548559e+003, 5.128776e-003
1.550487e+003, 5.366864e-003
1.552416e+003, 5.339700e-003
1.554344e+003, 5.508895e-003
1.556273e+003, 5.874490e-003
1.558201e+003, 6.424758e-003
1.560130e+003, 6.363047e-003
1.562058e+003, 5.747749e-003
1.563986e+003, 5.584677e-003
1.565915e+003, 5.650592e-003
1.567843e+003, 5.704453e-003
1.569772e+003, 5.759272e-003
1.571700e+003, 5.613197e-003
1.573629e+003, 5.689640e-003
1.575557e+003, 6.043504e-003
1.577486e+003, 5.970833e-003
1.579414e+003, 5.788093e-003
1.581343e+003, 5.928718e-003
1.583271e+003, 5.981848e-003
1.585200e+003, 5.795225e-003
1.587128e+003, 5.704838e-003
1.589057e+003, 5.916086e-003
1.590985e+003, 6.114241e-003
1.592913e+003, 6.156450e-003
1.594842e+003, 6.161905e-003
1.596770e+003, 6.162605e-003
1.598699e+003, 6.290490e-003
1.600627e+003, 6.496089e-003
1.602556e+003, 6.519201e-003
1.604484e+003, 6.529974e-003
1.606413e+003, 6.648697e-003
1.608341e+003, 6.703786e-003
1.610270e+003, 6.927464e-003
1.612198e+003, 7.161008e-003
1.614127e+003, 7.506131e-003
1.616055e+003, 8.035026e-003
1.617984e+003, 8.084450e-003
1.619912e+003, 7.935059e-003
1.621840e+003, 8.233229e-003
1.623769e+003, 8.643189e-003
1.625697e+003, 8.837273e-003
1.627626e+003, 8.977804e-003
1.629554e+003, 9.169279e-003
1.631483e+003, 9.238106e-003
1.633411e+003, 9.507468e-003
1.635340e+003, 9.928511e-003
1.637268e+003, 9.811159e-003
1.639197e+003, 9.599828e-003
1.641125e+003, 9.634732e-003
1.643054e+003, 9.858991e-003
1.644982e+003, 1.012330e-002
1.646911e+003, 1.006083e-002
1.648839e+003, 9.841378e-003
1.650767e+003, 1.008536e-002
1.652696e+003, 1.056249e-002
1.654624e+003, 9.929323e-003
1.656553e+003, 9.264165e-003
1.658481e+003, 9.146870e-003
1.660410e+003, 9.212769e-003
1.662338e+003, 9.078930e-003
1.664267e+003, 8.749189e-003
1.666195e+003, 8.597512e-003
1.668124e+003, 8.688426e-003
1.670052e+003, 8.410391e-003
1.671981e+003, 7.960291e-003
1.673909e+003, 7.971426e-003
1.675838e+003, 7.861543e-003
1.677766e+003, 7.378778e-003
1.679694e+003, 7.317767e-003
1.681623e+003, 7.289450e-003
1.683551e+003, 7.529795e-003
1.685480e+003, 7.389133e-003
1.687408e+003, 6.900423e-003
1.689337e+003, 6.748080e-003
1.691265e+003, 6.671629e-003
1.693194e+003, 6.676457e-003
1.695122e+003, 7.132941e-003
1.697051e+003, 7.155416e-003
1.698979e+003, 7.490340e-003
1.700908e+003, 7.840732e-003
1.702836e+003, 7.460260e-003
1.704765e+003, 7.333722e-003
1.706693e+003, 7.284166e-003
1.708621e+003, 7.191991e-003
1.710550e+003, 7.083029e-003
1.712478e+003, 7.009388e-003
1.714407e+003, 6.832206e-003
1.716335e+003, 7.085969e-003
1.718264e+003, 6.942729e-003
1.720192e+003, 6.310912e-003
1.722121e+003, 6.018921e-003
1.724049e+003, 5.963300e-003
1.725978e+003, 5.923050e-003
1.727906e+003, 5.768171e-003
1.729835e+003, 5.559381e-003
1.731763e+003, 5.413743e-003
1.733692e+003, 5.095668e-003
1.735620e+003, 4.247072e-003
1.737548e+003, 3.555842e-003
1.739477e+003, 3.176664e-003
1.741405e+003, 2.874495e-003
1.743334e+003, 2.514511e-003
1.745262e+003, 2.166251e-003
1.747191e+003, 1.817552e-003
1.749119e+003, 1.643079e-003
1.751048e+003, 1.677283e-003
1.752976e+003, 1.488289e-003
1.754905e+003, 1.459172e-003
1.756833e+003, 1.700811e-003
1.758762e+003, 1.502095e-003
1.760690e+003, 1.524618e-003
1.762619e+003, 1.794745e-003
1.764547e+003, 1.731612e-003
1.766475e+003, 1.637255e-003
1.768404e+003, 1.604232e-003
1.770332e+003, 1.589533e-003
1.772261e+003, 1.678424e-003
1.774189e+003, 1.560500e-003
1.776118e+003, 1.475981e-003
1.778046e+003, 1.408066e-003
1.779975e+003, 1.405232e-003
1.781903e+003, 1.406233e-003
1.783832e+003, 1.480778e-003
1.785760e+003, 1.297811e-003
1.787689e+003, 1.196629e-003
1.789617e+003, 1.425777e-003
1.791546e+003, 1.548652e-003
1.793474e+003, 1.547475e-003
1.795402e+003, 1.357543e-003
1.797331e+003, 1.136056e-003
1.799259e+003, 1.151140e-003
1.801188e+003, 1.256074e-003
1.803116e+003, 1.263478e-003
1.805045e+003, 1.211832e-003
1.806973e+003, 1.033332e-003
1.808902e+003, 8.406297e-004
1.810830e+003, 1.021993e-003
1.812759e+003, 1.065138e-003
1.814687e+003, 7.704030e-004
1.816616e+003, 6.399667e-004
1.818544e+003, 6.668364e-004
1.820473e+003, 6.829565e-004
1.822401e+003, 8.659906e-004
1.824329e+003, 9.667783e-004
1.826258e+003, 8.341221e-004
1.828186e+003, 7.008243e-004
1.830115e+003, 6.398023e-004
1.832043e+003, 6.336324e-004
1.833972e+003, 4.959009e-004
1.835900e+003, 2.838613e-004
1.837829e+003, 3.595371e-004
1.839757e+003, 5.049722e-004
1.841686e+003, 5.982614e-004
1.843614e+003, 7.534040e-004
1.845543e+003, 6.058637e-004
1.847471e+003, 1.894514e-004
1.849400e+003, 1.631955e-004
1.851328e+003, 1.803237e-004
1.853256e+003, -4.704951e-005
1.855185e+003, -7.696349e-005
1.857113e+003, 3.893779e-006
1.859042e+003, 9.872687e-005
1.860970e+003, 4.631917e-006
1.862899e+003, -2.388049e-004
1.864827e+003, -6.812410e-004
1.866756e+003, -5.290718e-004
1.868684e+003, -4.590554e-005
1.870613e+003, -2.262152e-005
1.872541e+003, -1.287593e-005
1.874470e+003, -2.913629e-004
1.876398e+003, -5.917433e-004
1.878327e+003, -7.230724e-004
1.880255e+003, -7.105608e-004
1.882183e+003, -9.408700e-004
1.884112e+003, -1.280520e-003
1.886040e+003, -1.432753e-003
1.887969e+003, -1.100066e-003
1.889897e+003, -7.846243e-004
1.891826e+003, -7.131186e-004
1.893754e+003, -5.081341e-004
1.895683e+003, -4.704857e-004
1.897611e+003, -7.164949e-004
1.899540e+003, -7.848913e-004
1.901468e+003, -8.967430e-004
1.903397e+003, -1.000794e-003
1.905325e+003, -6.593384e-004
1.907254e+003, -4.831589e-004
1.909182e+003, -1.055803e-003
1.911110e+003, -1.287081e-003
1.913039e+003, -4.942188e-004
1.914967e+003, 1.170149e-005
1.916896e+003, -3.345233e-004
1.918824e+003, -1.052535e-003
1.920753e+003, -1.257352e-003
1.922681e+003, -1.089824e-003
1.924610e+003, -1.742464e-003
1.926538e+003, -1.735969e-003
1.928467e+003, -1.164480e-003
1.930395e+003, -1.278442e-003
1.932324e+003, -1.057356e-003
1.934252e+003, -1.283554e-003
1.936181e+003, -2.130376e-003
1.938109e+003, -1.907608e-003
1.940037e+003, -1.404233e-003
1.941966e+003, -1.371617e-003
1.943894e+003, -1.547053e-003
1.945823e+003, -1.399782e-003
1.947751e+003, -1.987502e-003
1.949680e+003, -2.384227e-003
1.951608e+003, -2.667715e-003
1.953537e+003, -2.395063e-003
1.955465e+003, -2.246364e-003
1.957394e+003, -1.699928e-003
1.959322e+003, -9.163148e-004
1.961251e+003, -9.073075e-004
1.963179e+003, -1.734650e-003
1.965108e+003, -2.090479e-003
1.967036e+003, -2.514513e-003
1.968964e+003, -2.389998e-003
1.970893e+003, -1.401766e-003
1.972821e+003, -7.984247e-004
1.974750e+003, -5.996269e-004
1.976678e+003, -1.199152e-003
1.978607e+003, -1.400247e-003
1.980535e+003, -9.141336e-004
1.982464e+003, -1.419720e-003
1.984392e+003, -1.091016e-003
1.986321e+003, -1.025755e-003
1.988249e+003, -1.812990e-003
1.990178e+003, -2.472196e-003
1.992106e+003, -1.000757e-003
1.994035e+003, -3.912309e-004
1.995963e+003, -7.821503e-004
1.997891e+003, -9.133616e-004
1.999820e+003, -1.349499e-003
2.001748e+003, -2.102098e-003
2.003677e+003, -3.436062e-003
2.005605e+003, -3.373013e-003
2.007534e+003, -1.815768e-003
2.009462e+003, -8.930597e-004
2.011391e+003, -1.359960e-003
2.013319e+003, -7.687435e-004
2.015248e+003, 2.597747e-004
2.017176e+003, 1.487932e-004
2.019105e+003, -8.525741e-004
2.021033e+003, -1.280707e-003
2.022962e+003, -1.323699e-003
2.024890e+003, -1.409920e-003
2.026818e+003, -1.086086e-003
2.028747e+003, 4.617074e-004
2.030675e+003, 7.949825e-004
2.032604e+003, 3.249682e-004
2.034532e+003, -5.563479e-004
2.036461e+003, -1.567631e-003
2.038389e+003, -1.314824e-003
2.040318e+003, -4.844870e-004
2.042246e+003, -9.257249e-004
2.044175e+003, -2.075338e-003
2.046103e+003, -1.592211e-003
2.048031e+003, -7.057614e-004
2.049960e+003, 2.719397e-004
2.051888e+003, 5.465085e-004
2.053817e+003, 2.299198e-004
2.055745e+003, -7.085660e-004
2.057674e+003, -6.465609e-004
2.059602e+003, -5.070495e-004
2.061531e+003, -8.564631e-004
2.063459e+003, -1.327433e-003
2.065388e+003, -1.880975e-003
2.067316e+003, -2.181788e-003
2.069245e+003, -1.498145e-003
2.071173e+003, -6.546553e-004
2.073102e+003, -6.037294e-004
2.075030e+003, -3.003979e-004
2.076958e+003, -2.947641e-004
2.078887e+003, -5.438861e-004
2.080815e+003, -2.659580e-004
2.082744e+003, -2.547447e-004
2.084672e+003, 3.291881e-004
2.086601e+003, -3.466848e-006
2.088529e+003, -2.414421e-004
2.090458e+003, -4.240354e-004
2.092386e+003, -4.613474e-004
2.094315e+003, -5.215222e-004
2.096243e+003, -2.639103e-004
2.098172e+003, 3.679141e-004
2.100100e+003, 7.431228e-004
2.102029e+003, 2.800070e-004
2.103957e+003, 3.018433e-004
2.105885e+003, 9.808572e-004
2.107814e+003, 1.011909e-003
2.109742e+003, 9.321840e-005
2.111671e+003, -1.805262e-004
2.113599e+003, 4.929001e-005
2.115528e+003, -1.374446e-004
2.117456e+003, -6.976128e-004
2.119385e+003, -7.472928e-004
2.121313e+003, -3.735931e-004
2.123242e+003, 4.541539e-004
2.125170e+003, 3.572081e-004
2.127099e+003, -3.962803e-004
2.129027e+003, 3.946822e-004
2.130956e+003, 7.960971e-004
2.132884e+003, 7.517324e-004
2.134813e+003, 5.307281e-004
2.136741e+003, -4.281616e-005
2.138669e+003, -7.953495e-006
2.140598e+003, 1.146425e-003
2.142526e+003, 2.178546e-003
2.144455e+003, 1.819932e-003
2.146383e+003, 1.712477e-003
2.148312e+003, 1.614814e-003
2.150240e+003, 3.322391e-004
2.152169e+003, 7.198257e-004
2.154097e+003, 2.033308e-003
2.156026e+003, 3.224873e-003
2.157954e+003, 5.016138e-003
2.159883e+003, 4.879297e-003
2.161811e+003, 2.660277e-003
2.163740e+003, 2.024682e-003
2.165668e+003, 3.657445e-003
2.167596e+003, 3.777954e-003
2.169525e+003, 3.819102e-003
2.171453e+003, 3.190038e-003
2.173382e+003, 2.968661e-003
2.175310e+003, 2.316496e-003
2.177239e+003, 1.920514e-003
2.179167e+003, 2.678066e-003
2.181096e+003, 3.819106e-003
2.183024e+003, 4.100290e-003
2.184953e+003, 3.169019e-003
2.186881e+003, 2.580700e-003
2.188810e+003, 3.388431e-003
2.190738e+003, 2.963420e-003
2.192667e+003, 1.687844e-003
2.194595e+003, 1.816083e-003
2.196523e+003, 3.034542e-003
2.198452e+003, 3.292011e-003
2.200380e+003, 3.143280e-003
2.202309e+003, 2.947559e-003
2.204237e+003, 3.077470e-003
2.206166e+003, 2.292374e-003
2.208094e+003, 1.667104e-003
2.210023e+003, 2.668282e-003
2.211951e+003, 3.035424e-003
2.213880e+003, 2.153181e-003
2.215808e+003, 2.360363e-003
2.217737e+003, 3.193321e-003
2.219665e+003, 4.241495e-003
2.221594e+003, 3.987616e-003
2.223522e+003, 3.339985e-003
2.225450e+003, 2.856315e-003
2.227379e+003, 2.445765e-003
2.229307e+003, 2.479084e-003
2.231236e+003, 2.330691e-003
2.233164e+003, 2.638769e-003
2.235093e+003, 3.704387e-003
2.237021e+003, 4.227769e-003
2.238950e+003, 4.189672e-003
2.240878e+003, 3.673295e-003
2.242807e+003, 3.322182e-003
2.244735e+003, 3.339817e-003
2.246664e+003, 2.910465e-003
2.248592e+003, 3.027025e-003
2.250521e+003, 3.562192e-003
2.252449e+003, 3.265012e-003
2.254377e+003, 2.768618e-003
2.256306e+003, 2.757946e-003
2.258234e+003, 2.973878e-003
2.260163e+003, 2.832979e-003
2.262091e+003, 2.701460e-003
2.264020e+003, 2.775033e-003
2.265948e+003, 2.769710e-003
2.267877e+003, 2.669481e-003
2.269805e+003, 2.724513e-003
2.271734e+003, 2.942836e-003
2.273662e+003, 3.452370e-003
2.275591e+003, 3.561729e-003
2.277519e+003, 3.622471e-003
2.279448e+003, 3.151366e-003
2.281376e+003, 2.691103e-003
2.283304e+003, 2.512048e-003
2.285233e+003, 2.804862e-003
2.287161e+003, 2.961035e-003
2.289090e+003, 2.652952e-003
2.291018e+003, 2.667312e-003
2.292947e+003, 2.891396e-003
2.294875e+003, 2.508743e-003
2.296804e+003, 2.067587e-003
2.298732e+003, 1.933050e-003
2.300661e+003, 2.459075e-003
2.302589e+003, 2.749971e-003
2.304518e+003, 2.510514e-003
2.306446e+003, 2.149913e-003
2.308375e+003, 2.042023e-003
2.310303e+003, 2.125127e-003
2.312231e+003, 2.177539e-003
2.314160e+003, 2.350374e-003
2.316088e+003, 2.448378e-003
2.318017e+003, 2.711747e-003
2.319945e+003, 2.758200e-003
2.321874e+003, 2.578820e-003
2.323802e+003, 2.540595e-003
2.325731e+003, 2.396722e-003
2.327659e+003, 2.291046e-003
2.329588e+003, 2.149394e-003
2.331516e+003, 1.982954e-003
2.333445e+003, 2.041878e-003
2.335373e+003, 2.281148e-003
2.337302e+003, 2.464131e-003
2.339230e+003, 2.396499e-003
2.341158e+003, 2.251531e-003
2.343087e+003, 2.243774e-003
2.345015e+003, 2.380040e-003
2.346944e+003, 2.518554e-003
2.348872e+003, 2.117100e-003
2.350801e+003, 1.958549e-003
2.352729e+003, 1.931714e-003
2.354658e+003, 2.204129e-003
2.356586e+003, 2.442612e-003
2.358515e+003, 2.292546e-003
2.360443e+003, 2.416829e-003
2.362372e+003, 2.577151e-003
2.364300e+003, 2.843042e-003
2.366229e+003, 2.995452e-003
2.368157e+003, 2.765462e-003
2.370085e+003, 2.546984e-003
2.372014e+003, 2.309297e-003
2.373942e+003, 2.149445e-003
2.375871e+003, 2.124666e-003
2.377799e+003, 2.127962e-003
2.379728e+003, 2.077936e-003
2.381656e+003, 2.016202e-003
2.383585e+003, 2.048541e-003
2.385513e+003, 2.269321e-003
2.387442e+003, 2.344307e-003
2.389370e+003, 2.299100e-003
2.391299e+003, 2.132931e-003
2.393227e+003, 2.326657e-003
2.395156e+003, 2.506662e-003
2.397084e+003, 2.083833e-003
2.399012e+003, 1.824277e-003
2.400941e+003, 2.054250e-003
2.402869e+003, 1.728188e-003
2.404798e+003, 1.786004e-003
2.406726e+003, 1.915771e-003
2.408655e+003, 1.649359e-003
2.410583e+003, 1.992837e-003
2.412512e+003, 2.104472e-003
2.414440e+003, 2.207186e-003
2.416369e+003, 2.640850e-003
2.418297e+003, 2.404116e-003
2.420226e+003, 2.223430e-003
2.422154e+003, 2.303571e-003
2.424083e+003, 2.422962e-003
2.426011e+003, 2.020027e-003
2.427939e+003, 2.128991e-003
2.429868e+003, 2.627473e-003
2.431796e+003, 2.827213e-003
2.433725e+003, 2.312823e-003
2.435653e+003, 1.933208e-003
2.437582e+003, 1.706846e-003
2.439510e+003, 1.963303e-003
2.441439e+003, 2.019769e-003
2.443367e+003, 2.170598e-003
2.445296e+003, 2.390520e-003
2.447224e+003, 2.175034e-003
2.449153e+003, 2.166245e-003
2.451081e+003, 2.489395e-003
2.453010e+003, 2.316209e-003
2.454938e+003, 1.859910e-003
2.456866e+003, 2.028696e-003
2.458795e+003, 2.698682e-003
2.460723e+003, 2.793559e-003
2.462652e+003, 2.422458e-003
2.464580e+003, 2.242243e-003
2.466509e+003, 2.343651e-003
2.468437e+003, 2.511686e-003
2.470366e+003, 2.563518e-003
2.472294e+003, 1.951172e-003
2.474223e+003, 1.508727e-003
2.476151e+003, 1.506194e-003
2.478080e+003, 2.082936e-003
2.480008e+003, 2.653159e-003
2.481937e+003, 2.238075e-003
2.483865e+003, 1.850222e-003
2.485793e+003, 1.783733e-003
2.487722e+003, 2.284043e-003
2.489650e+003, 2.826478e-003
2.491579e+003, 2.477847e-003
2.493507e+003, 2.497060e-003
2.495436e+003, 2.462335e-003
2.497364e+003, 1.986654e-003
2.499293e+003, 1.879739e-003
2.501221e+003, 2.043151e-003
2.503150e+003, 2.517186e-003
2.505078e+003, 2.609529e-003
2.507007e+003, 1.852534e-003
2.508935e+003, 1.197401e-003
2.510864e+003, 1.480504e-003
2.512792e+003, 1.712647e-003
2.514720e+003, 1.863353e-003
2.516649e+003, 2.406874e-003
2.518577e+003, 2.403274e-003
2.520506e+003, 2.059927e-003
2.522434e+003, 2.065831e-003
2.524363e+003, 2.309344e-003
2.526291e+003, 2.291454e-003
2.528220e+003, 2.024873e-003
2.530148e+003, 1.843743e-003
2.532077e+003, 1.782705e-003
2.534005e+003, 1.734610e-003
2.535934e+003, 1.998324e-003
2.537862e+003, 2.241117e-003
2.539791e+003, 2.206219e-003
2.541719e+003, 2.167132e-003
2.543647e+003, 2.111838e-003
2.545576e+003, 1.998095e-003
2.547504e+003, 1.980323e-003
2.549433e+003, 1.914189e-003
2.551361e+003, 2.130733e-003
2.553290e+003, 2.328975e-003
2.555218e+003, 2.015857e-003
2.557147e+003, 1.517794e-003
2.559075e+003, 1.604434e-003
2.561004e+003, 2.181737e-003
2.562932e+003, 2.384762e-003
2.564861e+003, 1.968404e-003
2.566789e+003, 1.534712e-003
2.568718e+003, 1.729761e-003
2.570646e+003, 2.112916e-003
2.572574e+003, 2.252846e-003
2.574503e+003, 2.413241e-003
2.576431e+003, 2.610792e-003
2.578360e+003, 2.391679e-003
2.580288e+003, 2.469268e-003
2.582217e+003, 2.417264e-003
2.584145e+003, 2.093817e-003
2.586074e+003, 2.493751e-003
2.588002e+003, 2.722674e-003
2.589931e+003, 2.714807e-003
2.591859e+003, 2.515930e-003
2.593788e+003, 2.243835e-003
2.595716e+003, 2.369079e-003
2.597645e+003, 2.525467e-003
2.599573e+003, 2.288943e-003
2.601501e+003, 2.480386e-003
2.603430e+003, 2.855559e-003
2.605358e+003, 2.718698e-003
2.607287e+003, 2.109167e-003
2.609215e+003, 2.126574e-003
2.611144e+003, 2.806664e-003
2.613072e+003, 3.119315e-003
2.615001e+003, 3.086585e-003
2.616929e+003, 3.141373e-003
2.618858e+003, 2.961332e-003
2.620786e+003, 3.068751e-003
2.622715e+003, 3.099848e-003
2.624643e+003, 2.731931e-003
2.626572e+003, 2.794129e-003
2.628500e+003, 2.958048e-003
2.630428e+003, 3.199551e-003
2.632357e+003, 3.246502e-003
2.634285e+003, 3.317397e-003
2.636214e+003, 3.244583e-003
2.638142e+003, 3.188491e-003
2.640071e+003, 3.354597e-003
2.641999e+003, 3.313767e-003
2.643928e+003, 3.283399e-003
2.645856e+003, 3.497755e-003
2.647785e+003, 3.506289e-003
2.649713e+003, 3.493609e-003
2.651642e+003, 3.536406e-003
2.653570e+003, 3.472663e-003
2.655499e+003, 3.339805e-003
2.657427e+003, 3.474250e-003
2.659355e+003, 3.646378e-003
2.661284e+003, 3.484407e-003
2.663212e+003, 3.340575e-003
2.665141e+003, 3.410194e-003
2.667069e+003, 3.370301e-003
2.668998e+003, 3.310465e-003
2.670926e+003, 3.343743e-003
2.672855e+003, 3.415524e-003
2.674783e+003, 3.381442e-003
2.676712e+003, 3.322424e-003
2.678640e+003, 3.568606e-003
2.680569e+003, 3.737870e-003
2.682497e+003, 3.762478e-003
2.684426e+003, 3.769915e-003
2.686354e+003, 3.622266e-003
2.688282e+003, 3.649172e-003
2.690211e+003, 3.802909e-003
2.692139e+003, 3.642854e-003
2.694068e+003, 3.711369e-003
2.695996e+003, 3.936529e-003
2.697925e+003, 3.978991e-003
2.699853e+003, 3.898729e-003
2.701782e+003, 3.873209e-003
2.703710e+003, 3.993361e-003
2.705639e+003, 4.107647e-003
2.707567e+003, 4.119852e-003
2.709496e+003, 4.140971e-003
2.711424e+003, 4.118590e-003
2.713353e+003, 4.154543e-003
2.715281e+003, 4.206434e-003
2.717209e+003, 4.204277e-003
2.719138e+003, 4.236542e-003
2.721066e+003, 4.187800e-003
2.722995e+003, 4.132902e-003
2.724923e+003, 4.261683e-003
2.726852e+003, 4.432442e-003
2.728780e+003, 4.309992e-003
2.730709e+003, 4.366620e-003
2.732637e+003, 4.636886e-003
2.734566e+003, 4.703290e-003
2.736494e+003, 4.701588e-003
2.738423e+003, 4.826519e-003
2.740351e+003, 4.812787e-003
2.742280e+003, 4.835885e-003
2.744208e+003, 5.026182e-003
2.746136e+003, 5.134234e-003
2.748065e+003, 5.201675e-003
2.749993e+003, 5.132932e-003
2.751922e+003, 5.416409e-003
2.753850e+003, 5.448241e-003
2.755779e+003, 5.432436e-003
2.757707e+003, 5.229106e-003
2.759636e+003, 5.285099e-003
2.761564e+003, 5.502949e-003
2.763493e+003, 5.581565e-003
2.765421e+003, 5.523446e-003
2.767350e+003, 5.364170e-003
2.769278e+003, 5.576960e-003
2.771207e+003, 5.883540e-003
2.773135e+003, 5.827426e-003
2.775063e+003, 5.824375e-003
2.776992e+003, 5.801509e-003
2.778920e+003, 5.694071e-003
2.780849e+003, 5.795588e-003
2.782777e+003, 5.817960e-003
2.784706e+003, 6.009473e-003
2.786634e+003, 6.486657e-003
2.788563e+003, 6.607363e-003
2.790491e+003, 6.728987e-003
2.792420e+003, 6.759790e-003
2.794348e+003, 6.873104e-003
2.796277e+003, 6.881492e-003
2.798205e+003, 6.938724e-003
2.800134e+003, 7.198736e-003
2.802062e+003, 7.158692e-003
2.803990e+003, 6.974482e-003
2.805919e+003, 7.120951e-003
2.807847e+003, 7.176370e-003
2.809776e+003, 6.829916e-003
2.811704e+003, 6.913292e-003
2.813633e+003, 7.174200e-003
2.815561e+003, 7.568889e-003
2.817490e+003, 7.963485e-003
2.819418e+003, 7.919774e-003
2.821347e+003, 8.033670e-003
2.823275e+003, 8.113370e-003
2.825204e+003, 8.123354e-003
2.827132e+003, 8.303628e-003
2.829061e+003, 8.666450e-003
2.830989e+003, 8.925440e-003
2.832917e+003, 9.089244e-003
2.834846e+003, 9.523095e-003
2.836774e+003, 9.955231e-003
2.838703e+003, 1.001928e-002
2.840631e+003, 1.039515e-002
2.842560e+003, 1.097603e-002
2.844488e+003, 1.137463e-002
2.846417e+003, 1.200280e-002
2.848345e+003, 1.285875e-002
2.850274e+003, 1.344854e-002
2.852202e+003, 1.384099e-002
2.854131e+003, 1.389692e-002
2.856059e+003, 1.383484e-002
2.857988e+003, 1.350105e-002
2.859916e+003, 1.312400e-002
2.861844e+003, 1.279913e-002
2.863773e+003, 1.245848e-002
2.865701e+003, 1.233529e-002
2.867630e+003, 1.230957e-002
2.869558e+003, 1.223202e-002
2.871487e+003, 1.246354e-002
2.873415e+003, 1.252405e-002
2.875344e+003, 1.241208e-002
2.877272e+003, 1.248917e-002
2.879201e+003, 1.239223e-002
2.881129e+003, 1.232834e-002
2.883058e+003, 1.247871e-002
2.884986e+003, 1.257221e-002
2.886915e+003, 1.271957e-002
2.888843e+003, 1.315754e-002
2.890771e+003, 1.357805e-002
2.892700e+003, 1.347017e-002
2.894628e+003, 1.375734e-002
2.896557e+003, 1.423670e-002
2.898485e+003, 1.462512e-002
2.900414e+003, 1.504122e-002
2.902342e+003, 1.533620e-002
2.904271e+003, 1.607139e-002
2.906199e+003, 1.687138e-002
2.908128e+003, 1.723594e-002
2.910056e+003, 1.767674e-002
2.911985e+003, 1.829579e-002
2.913913e+003, 1.904641e-002
2.915842e+003, 1.987319e-002
2.917770e+003, 2.095015e-002
2.919698e+003, 2.140261e-002
2.921627e+003, 2.184381e-002
2.923555e+003, 2.242777e-002
2.925484e+003, 2.274153e-002
2.927412e+003, 2.235818e-002
2.929341e+003, 2.175332e-002
2.931269e+003, 2.089136e-002
2.933198e+003, 2.015184e-002
2.935126e+003, 1.913170e-002
2.937055e+003, 1.831457e-002
2.938983e+003, 1.810498e-002
2.940912e+003, 1.774336e-002
2.942840e+003, 1.721618e-002
2.944769e+003, 1.702576e-002
2.946697e+003, 1.693570e-002
2.948625e+003, 1.741257e-002
2.950554e+003, 1.801432e-002
2.952482e+003, 1.856423e-002
2.954411e+003, 1.841183e-002
2.956339e+003, 1.827044e-002
2.958268e+003, 1.843430e-002
2.960196e+003, 1.844115e-002
2.962125e+003, 1.788800e-002
2.964053e+003, 1.706433e-002
2.965982e+003, 1.700010e-002
2.967910e+003, 1.702124e-002
2.969839e+003, 1.614622e-002
2.971767e+003, 1.560688e-002
2.973696e+003, 1.552029e-002
2.975624e+003, 1.500453e-002
2.977552e+003, 1.474571e-002
2.979481e+003, 1.454622e-002
2.981409e+003, 1.458952e-002
2.983338e+003, 1.462695e-002
2.985266e+003, 1.440678e-002
2.987195e+003, 1.417552e-002
2.989123e+003, 1.451115e-002
2.991052e+003, 1.495774e-002
2.992980e+003, 1.482006e-002
2.994909e+003, 1.490310e-002
2.996837e+003, 1.499476e-002
2.998766e+003, 1.516898e-002
3.000694e+003, 1.527530e-002
3.002623e+003, 1.525344e-002
3.004551e+003, 1.515912e-002
3.006479e+003, 1.512310e-002
3.008408e+003, 1.527470e-002
3.010336e+003, 1.538755e-002
3.012265e+003, 1.521850e-002
3.014193e+003, 1.561982e-002
3.016122e+003, 1.636670e-002
3.018050e+003, 1.632149e-002
3.019979e+003, 1.598175e-002
3.021907e+003, 1.582464e-002
3.023836e+003, 1.609793e-002
3.025764e+003, 1.679476e-002
3.027693e+003, 1.723188e-002
3.029621e+003, 1.731204e-002
3.031550e+003, 1.743269e-002
3.033478e+003, 1.751143e-002
3.035406e+003, 1.763368e-002
3.037335e+003, 1.765999e-002
3.039263e+003, 1.732775e-002
3.041192e+003, 1.710488e-002
3.043120e+003, 1.697084e-002
3.045049e+003, 1.745904e-002
3.046977e+003, 1.792695e-002
3.048906e+003, 1.793914e-002
3.050834e+003, 1.807192e-002
3.052763e+003, 1.826159e-002
3.054691e+003, 1.862001e-002
3.056620e+003, 1.851020e-002
3.058548e+003, 1.823100e-002
3.060477e+003, 1.835346e-002
3.062405e+003, 1.871168e-002
3.064333e+003, 1.910709e-002
3.066262e+003, 1.938929e-002
3.068190e+003, 1.942308e-002
3.070119e+003, 1.941684e-002
3.072047e+003, 1.975637e-002
3.073976e+003, 1.973241e-002
3.075904e+003, 1.973562e-002
3.077833e+003, 2.000770e-002
3.079761e+003, 2.017626e-002
3.081690e+003, 2.027152e-002
3.083618e+003, 2.049980e-002
3.085547e+003, 2.063513e-002
3.087475e+003, 2.100349e-002
3.089404e+003, 2.129936e-002
3.091332e+003, 2.172694e-002
3.093260e+003, 2.196865e-002
3.095189e+003, 2.202208e-002
3.097117e+003, 2.187332e-002
3.099046e+003, 2.197661e-002
3.100974e+003, 2.216912e-002
3.102903e+003, 2.218176e-002
3.104831e+003, 2.222581e-002
3.106760e+003, 2.287101e-002
3.108688e+003, 2.334708e-002
3.110617e+003, 2.335226e-002
3.112545e+003, 2.336654e-002
3.114474e+003, 2.333591e-002
3.116402e+003, 2.365085e-002
3.118331e+003, 2.396711e-002
3.120259e+003, 2.416044e-002
3.122188e+003, 2.420119e-002
3.124116e+003, 2.445508e-002
3.126044e+003, 2.481286e-002
3.127973e+003, 2.470672e-002
3.129901e+003, 2.457043e-002
3.131830e+003, 2.477781e-002
3.133758e+003, 2.533215e-002
3.135687e+003, 2.518159e-002
3.137615e+003, 2.509259e-002
3.139544e+003, 2.567999e-002
3.141472e+003, 2.620330e-002
3.143401e+003, 2.633260e-002
3.145329e+003, 2.636653e-002
3.147258e+003, 2.672847e-002
3.149186e+003, 2.671722e-002
3.151115e+003, 2.655817e-002
3.153043e+003, 2.678025e-002
3.154971e+003, 2.698460e-002
3.156900e+003, 2.725300e-002
3.158828e+003, 2.705105e-002
3.160757e+003, 2.723454e-002
3.162685e+003, 2.781899e-002
3.164614e+003, 2.800826e-002
3.166542e+003, 2.853126e-002
3.168471e+003, 2.887842e-002
3.170399e+003, 2.879754e-002
3.172328e+003, 2.872033e-002
3.174256e+003, 2.894959e-002
3.176185e+003, 2.888231e-002
3.178113e+003, 2.895989e-002
3.180042e+003, 2.937790e-002
3.181970e+003, 2.980032e-002
3.183898e+003, 2.986022e-002
3.185827e+003, 2.972594e-002
3.187755e+003, 3.036167e-002
3.189684e+003, 3.049092e-002
3.191612e+003, 2.980648e-002
3.193541e+003, 2.963263e-002
3.195469e+003, 3.053724e-002
3.197398e+003, 3.092383e-002
3.199326e+003, 3.064416e-002
3.201255e+003, 3.087150e-002
3.203183e+003, 3.112444e-002
3.205112e+003, 3.150543e-002
3.207040e+003, 3.165843e-002
3.208969e+003, 3.194781e-002
3.210897e+003, 3.267344e-002
3.212825e+003, 3.292459e-002
3.214754e+003, 3.273926e-002
3.216682e+003, 3.318199e-002
3.218611e+003, 3.352215e-002
3.220539e+003, 3.296258e-002
3.222468e+003, 3.255599e-002
3.224396e+003, 3.284046e-002
3.226325e+003, 3.334731e-002
3.228253e+003, 3.343463e-002
3.230182e+003, 3.322131e-002
3.232110e+003, 3.317529e-002
3.234039e+003, 3.376859e-002
3.235967e+003, 3.455907e-002
3.237896e+003, 3.460597e-002
3.239824e+003, 3.414042e-002
3.241752e+003, 3.429249e-002
3.243681e+003, 3.465723e-002
3.245609e+003, 3.522674e-002
3.247538e+003, 3.593385e-002
3.249466e+003, 3.593501e-002
3.251395e+003, 3.549254e-002
3.253323e+003, 3.523909e-002
3.255252e+003, 3.536328e-002
3.257180e+003, 3.571992e-002
3.259109e+003, 3.609942e-002
3.261037e+003, 3.616923e-002
3.262966e+003, 3.662838e-002
3.264894e+003, 3.654337e-002
3.266823e+003, 3.627137e-002
3.268751e+003, 3.650028e-002
3.270679e+003, 3.688426e-002
3.272608e+003, 3.724650e-002
3.274536e+003, 3.721101e-002
3.276465e+003, 3.727197e-002
3.278393e+003, 3.736998e-002
3.280322e+003, 3.699385e-002
3.282250e+003, 3.702611e-002
3.284179e+003, 3.717366e-002
3.286107e+003, 3.730604e-002
3.288036e+003, 3.728034e-002
3.289964e+003, 3.791643e-002
3.291893e+003, 3.850821e-002
3.293821e+003, 3.822289e-002
3.295750e+003, 3.836463e-002
3.297678e+003, 3.890706e-002
3.299606e+003, 3.941668e-002
3.301535e+003, 3.972313e-002
3.303463e+003, 3.930005e-002
3.305392e+003, 3.899675e-002
3.307320e+003, 3.920241e-002
3.309249e+003, 3.933832e-002
3.311177e+003, 3.956369e-002
3.313106e+003, 3.989777e-002
3.315034e+003, 4.002561e-002
3.316963e+003, 3.990363e-002
3.318891e+003, 4.045185e-002
3.320820e+003, 4.102220e-002
3.322748e+003, 4.155392e-002
3.324677e+003, 4.164508e-002
3.326605e+003, 4.100044e-002
3.328533e+003, 4.131667e-002
3.330462e+003, 4.142240e-002
3.332390e+003, 4.099201e-002
3.334319e+003, 4.086145e-002
3.336247e+003, 4.091536e-002
3.338176e+003, 4.136872e-002
3.340104e+003, 4.144047e-002
3.342033e+003, 4.116310e-002
3.343961e+003, 4.140576e-002
3.345890e+003, 4.213729e-002
3.347818e+003, 4.222602e-002
3.349747e+003, 4.179171e-002
3.351675e+003, 4.146339e-002
3.353604e+003, 4.159338e-002
3.355532e+003, 4.225285e-002
3.357460e+003, 4.274642e-002
3.359389e+003, 4.240496e-002
3.361317e+003, 4.216934e-002
3.363246e+003, 4.239086e-002
3.365174e+003, 4.285788e-002
3.367103e+003, 4.313546e-002
3.369031e+003, 4.314285e-002
3.370960e+003, 4.371435e-002
3.372888e+003, 4.387871e-002
3.374817e+003, 4.418247e-002
3.376745e+003, 4.380147e-002
3.378674e+003, 4.354847e-002
3.380602e+003, 4.414450e-002
3.382531e+003, 4.413266e-002
3.384459e+003, 4.385720e-002
3.386387e+003, 4.397450e-002
3.388316e+003, 4.447044e-002
3.390244e+003, 4.441903e-002
3.392173e+003, 4.456400e-002
3.394101e+003, 4.495894e-002
3.396030e+003, 4.503175e-002
3.397958e+003, 4.457075e-002
3.399887e+003, 4.422554e-002
3.401815e+003, 4.440713e-002
3.403744e+003, 4.445790e-002
3.405672e+003, 4.441151e-002
3.407601e+003, 4.454803e-002
3.409529e+003, 4.448587e-002
3.411458e+003, 4.438039e-002
3.413386e+003, 4.477765e-002
3.415314e+003, 4.520018e-002
3.417243e+003, 4.489006e-002
3.419171e+003, 4.449503e-002
3.421100e+003, 4.402165e-002
3.423028e+003, 4.405236e-002
3.424957e+003, 4.472516e-002
3.426885e+003, 4.524964e-002
3.428814e+003, 4.501963e-002
3.430742e+003, 4.437862e-002
3.432671e+003, 4.387667e-002
3.434599e+003, 4.417127e-002
3.436528e+003, 4.463038e-002
3.438456e+003, 4.428997e-002
3.440385e+003, 4.390946e-002
3.442313e+003, 4.379165e-002
3.444241e+003, 4.319766e-002
3.446170e+003, 4.317972e-002
3.448098e+003, 4.328565e-002
3.450027e+003, 4.364611e-002
3.451955e+003, 4.392031e-002
3.453884e+003, 4.295691e-002
3.455812e+003, 4.293028e-002
3.457741e+003, 4.347272e-002
3.459669e+003, 4.300282e-002
3.461598e+003, 4.276212e-002
3.463526e+003, 4.286806e-002
3.465455e+003, 4.289030e-002
3.467383e+003, 4.288857e-002
3.469312e+003, 4.285121e-002
3.471240e+003, 4.247992e-002
3.473168e+003, 4.233775e-002
3.475097e+003, 4.206788e-002
3.477025e+003, 4.179871e-002
3.478954e+003, 4.129219e-002
3.480882e+003, 4.136765e-002
3.482811e+003, 4.164929e-002
3.484739e+003, 4.145415e-002
3.486668e+003, 4.095922e-002
3.488596e+003, 4.078835e-002
3.490525e+003, 4.117359e-002
3.492453e+003, 4.129720e-002
3.494382e+003, 4.092107e-002
3.496310e+003, 4.088540e-002
3.498239e+003, 4.095932e-002
3.500167e+003, 4.074691e-002
3.502095e+003, 4.047360e-002
3.504024e+003, 4.074969e-002
3.505952e+003, 4.086582e-002
3.507881e+003, 4.088011e-002
3.509809e+003, 4.059711e-002
3.511738e+003, 4.035037e-002
3.513666e+003, 4.060069e-002
3.515595e+003, 4.039657e-002
3.517523e+003, 4.014358e-002
3.519452e+003, 4.030114e-002
3.521380e+003, 4.030833e-002
3.523309e+003, 4.027483e-002
3.525237e+003, 3.990868e-002
3.527166e+003, 3.994641e-002
3.529094e+003, 4.071787e-002
3.531022e+003, 4.079988e-002
3.532951e+003, 4.034539e-002
3.534879e+003, 4.039453e-002
3.536808e+003, 4.003238e-002
3.538736e+003, 3.959979e-002
3.540665e+003, 3.969498e-002
3.542593e+003, 3.980649e-002
3.544522e+003, 3.972494e-002
3.546450e+003, 3.988875e-002
3.548379e+003, 3.986829e-002
3.550307e+003, 4.020570e-002
3.552236e+003, 4.010559e-002
3.554164e+003, 3.956757e-002
3.556093e+003, 3.955064e-002
3.558021e+003, 3.974281e-002
3.559949e+003, 4.020050e-002
3.561878e+003, 3.998386e-002
3.563806e+003, 3.988583e-002
3.565735e+003, 4.010800e-002
3.567663e+003, 3.977266e-002
3.569592e+003, 3.945762e-002
3.571520e+003, 3.970321e-002
3.573449e+003, 3.993802e-002
3.575377e+003, 3.959915e-002
3.577306e+003, 3.955538e-002
3.579234e+003, 4.002035e-002
3.581163e+003, 4.037013e-002
3.583091e+003, 4.094139e-002
3.585020e+003, 4.155150e-002
3.586948e+003, 4.208823e-002
3.588876e+003, 4.215001e-002
3.590805e+003, 4.238222e-002
3.592733e+003, 4.353138e-002
3.594662e+003, 4.539626e-002
3.596590e+003, 4.781579e-002
3.598519e+003, 4.897699e-002
3.600447e+003, 4.976454e-002
3.602376e+003, 5.201752e-002
3.604304e+003, 5.319795e-002
3.606233e+003, 5.431863e-002
3.608161e+003, 5.651480e-002
3.610090e+003, 5.777929e-002
3.612018e+003, 5.906060e-002
3.613947e+003, 6.067751e-002
3.615875e+003, 6.265677e-002
3.617803e+003, 6.481626e-002
3.619732e+003, 6.619877e-002
3.621660e+003, 6.540238e-002
3.623589e+003, 6.500492e-002
3.625517e+003, 6.537262e-002
3.627446e+003, 6.600504e-002
3.629374e+003, 6.546146e-002
3.631303e+003, 6.339443e-002
3.633231e+003, 6.069309e-002
3.635160e+003, 5.884908e-002
3.637088e+003, 5.710666e-002
3.639017e+003, 5.475672e-002
3.640945e+003, 5.312414e-002
3.642874e+003, 5.160690e-002
3.644802e+003, 4.947676e-002
3.646730e+003, 4.713268e-002
3.648659e+003, 4.489410e-002
3.650587e+003, 4.225631e-002
3.652516e+003, 3.976298e-002
3.654444e+003, 3.748011e-002
3.656373e+003, 3.534086e-002
3.658301e+003, 3.341997e-002
3.660230e+003, 3.137301e-002
3.662158e+003, 2.888831e-002
3.664087e+003, 2.649406e-002
3.666015e+003, 2.447843e-002
3.667944e+003, 2.270816e-002
3.669872e+003, 2.161456e-002
3.671801e+003, 1.963474e-002
3.673729e+003, 1.774384e-002
3.675657e+003, 1.628361e-002
3.677586e+003, 1.349306e-002
3.679514e+003, 1.167018e-002
3.681443e+003, 1.082802e-002
3.683371e+003, 9.269265e-003
3.685300e+003, 7.272057e-003
3.687228e+003, 7.152589e-003
3.689157e+003, 6.764015e-003
3.691085e+003, 4.873706e-003
3.693014e+003, 3.746336e-003
3.694942e+003, 3.502441e-003
3.696871e+003, 3.494511e-003
3.698799e+003, 3.120243e-003
3.700728e+003, 2.425372e-003
3.702656e+003, 2.176913e-003
3.704584e+003, 1.811877e-003
3.706513e+003, 1.395761e-003
3.708441e+003, 1.368756e-003
3.710370e+003, 1.230008e-003
3.712298e+003, 7.851537e-004
3.714227e+003, -8.462644e-005
3.716155e+003, 4.761159e-005
3.718084e+003, 9.285393e-004
3.720012e+003, 6.528562e-004
3.721941e+003, -4.855518e-004
3.723869e+003, -1.385342e-005
3.725798e+003, -6.467488e-005
3.727726e+003, -2.088940e-004
3.729655e+003, -8.701500e-007
3.731583e+003, 8.029214e-004
3.733511e+003, 1.629966e-003
3.735440e+003, 1.621456e-003
3.737368e+003, 7.154178e-004
3.739297e+003, 1.396653e-005
3.741225e+003, 2.510975e-004
3.743154e+003, 5.573448e-004
3.745082e+003, 5.185049e-004
3.747011e+003, 4.781177e-004
3.748939e+003, 1.235699e-003
3.750868e+003, 1.395888e-003
3.752796e+003, 5.302748e-004
3.754725e+003, -1.995662e-004
3.756653e+003, -5.429209e-004
3.758582e+003, -6.893702e-004
3.760510e+003, -1.800448e-004
3.762438e+003, -5.974365e-005
3.764367e+003, -7.526018e-005
3.766295e+003, -2.784730e-004
3.768224e+003, -3.087193e-004
3.770152e+003, 2.630763e-004
3.772081e+003, 1.613197e-004
3.774009e+003, 4.551543e-004
3.775938e+003, 3.184681e-004
3.777866e+003, -4.704734e-005
3.779795e+003, 5.584047e-005
3.781723e+003, -1.033470e-006
3.783652e+003, 1.294441e-004
3.785580e+003, -8.146006e-005
3.787509e+003, -8.202348e-004
3.789437e+003, -1.389057e-003
3.791365e+003, -1.408227e-003
3.793294e+003, -1.007578e-003
3.795222e+003, -3.670475e-004
3.797151e+003, -2.829838e-004
3.799079e+003, -3.054127e-004
3.801008e+003, 8.467023e-004
3.802936e+003, 1.120088e-003
3.804865e+003, 3.098018e-004
3.806793e+003, 3.414738e-004
3.808722e+003, -1.283456e-004
3.810650e+003, -7.425305e-004
3.812579e+003, -1.000225e-003
3.814507e+003, -8.127900e-004
3.816436e+003, -3.526997e-004
3.818364e+003, -1.134000e-004
3.820292e+003, 1.784227e-004
3.822221e+003, -7.538325e-006
3.824149e+003, -5.126678e-004
3.826078e+003, 1.322616e-005
3.828006e+003, 1.273727e-004
3.829935e+003, 4.786786e-005
3.831863e+003, 1.996147e-005
3.833792e+003, -3.928389e-004
3.835720e+003, 6.966371e-005
3.837649e+003, 2.723918e-004
3.839577e+003, -2.168895e-004
3.841506e+003, -3.830870e-004
3.843434e+003, -6.237609e-004
3.845363e+003, -7.029223e-004
3.847291e+003, -1.569204e-004
3.849219e+003, 5.404754e-004
3.851148e+003, 8.981986e-004
3.853076e+003, 1.944888e-003
3.855005e+003, 1.006838e-003
3.856933e+003, -6.750735e-006
3.858862e+003, -2.848312e-004
3.860790e+003, -3.416214e-004
3.862719e+003, 1.947192e-004
3.864647e+003, 8.592211e-004
3.866576e+003, -3.011240e-004
3.868504e+003, -5.539832e-004
3.870433e+003, -1.586989e-004
3.872361e+003, -4.723042e-004
3.874290e+003, -2.607575e-004
3.876218e+003, -4.172727e-004
3.878146e+003, 2.436107e-004
3.880075e+003, 1.372300e-003
3.882003e+003, 1.230484e-003
3.883932e+003, 7.611166e-004
3.885860e+003, 2.137633e-004
3.887789e+003, -4.657057e-004
3.889717e+003, 9.427484e-005
3.891646e+003, 2.697111e-004
3.893574e+003, -5.865521e-004
3.895503e+003, -4.645137e-004
3.897431e+003, 1.703266e-004
3.899360e+003, 1.226500e-005
3.901288e+003, -1.550965e-004
3.903217e+003, -1.916149e-004
3.905145e+003, -4.967509e-004
3.907073e+003, -5.483485e-004
3.909002e+003, 6.756789e-005
3.910930e+003, 1.772670e-004
3.912859e+003, -6.796234e-004
3.914787e+003, -6.739647e-004
3.916716e+003, 1.275008e-004
3.918644e+003, -2.899925e-005
3.920573e+003, -2.969518e-004
3.922501e+003, -6.020425e-004
3.924430e+003, -3.700025e-004
3.926358e+003, -8.044154e-004
3.928287e+003, -9.018288e-004
3.930215e+003, -1.215102e-004
3.932144e+003, 2.316724e-004
3.934072e+003, 2.786256e-004
3.936000e+003, 5.197171e-004
3.937929e+003, 4.832025e-004
3.939857e+003, -1.018403e-004
3.941786e+003, -8.970603e-005
3.943714e+003, 6.808696e-004
3.945643e+003, 3.916818e-004
3.947571e+003, -3.489518e-004
3.949500e+003, -1.111194e-003
3.951428e+003, -8.278532e-004
3.953357e+003, -5.963421e-004
3.955285e+003, -4.426457e-004
3.957214e+003, 4.367184e-004
3.959142e+003, 3.903748e-005
3.961071e+003, -8.066067e-004
3.962999e+003, -7.494842e-004
3.964927e+003, -1.451039e-004
3.966856e+003, 7.619441e-005
3.968784e+003, -6.986678e-004
3.970713e+003, -7.454025e-004
3.972641e+003, -5.624225e-004
3.974570e+003, -5.207807e-004
3.976498e+003, -3.508116e-004
3.978427e+003, -4.473975e-005
3.980355e+003, -2.116869e-004
3.982284e+003, -6.563046e-004
3.984212e+003, -5.264477e-004
3.986141e+003, -6.497067e-004
3.988069e+003, -3.593366e-004
3.989998e+003, 3.315687e-004
3.991926e+003, 2.350771e-004
3.993854e+003, 2.863165e-004
3.995783e+003, 6.313699e-004
3.997711e+003, 2.999352e-004
3.999640e+003, 5.755982e-004
4.001568e+003, 0.000000e+000
##END=



