##NAMES=Trilithionite
##RRUFFID=R040105
##IDEAL CHEMISTRY=KLi_1.5_Al_1.5_(Si_3_Al)O_10_F_2_
##LOCALITY=Brown Derby mine, Ohio City, Gunnison County, Colorado, USA
##OWNER=RRUFF
##SOURCE=University of Arizona Mineral Museum
##DESCRIPTION=Purple hexagonal tablet
##STATUS=The identification of this mineral has been confirmed by X-ray diffraction and chemical analysis
##URL=rruff.info/R040105
##MEASURED CHEMISTRY=(K_0.82_Li_0.14_Na_0.04_)(Li_0.53_Al_0.42_Mn_0.05_)_3_(Si_0.84_Al_0.17_)_4_O_10_((OH)_0.59_F_0.41_)_2_
3.991926e+002, 0.000000e+000
4.011211e+002, 1.640493e-001
4.030496e+002, 1.648497e-001
4.049780e+002, 1.682890e-001
4.069065e+002, 1.706593e-001
4.088350e+002, 1.720261e-001
4.107634e+002, 1.762206e-001
4.126919e+002, 1.779264e-001
4.146204e+002, 1.799952e-001
4.165488e+002, 1.821321e-001
4.184773e+002, 1.821783e-001
4.204058e+002, 1.831416e-001
4.223342e+002, 1.858514e-001
4.242627e+002, 1.879843e-001
4.261912e+002, 1.902639e-001
4.281196e+002, 1.947295e-001
4.300481e+002, 1.971340e-001
4.319766e+002, 1.992513e-001
4.339050e+002, 2.033368e-001
4.358335e+002, 2.045317e-001
4.377620e+002, 2.030730e-001
4.396904e+002, 2.012001e-001
4.416189e+002, 1.992680e-001
4.435474e+002, 1.964762e-001
4.454758e+002, 1.926247e-001
4.474043e+002, 1.915205e-001
4.493328e+002, 1.906686e-001
4.512612e+002, 1.902874e-001
4.531897e+002, 1.900960e-001
4.551182e+002, 1.910049e-001
4.570466e+002, 1.951955e-001
4.589751e+002, 2.003986e-001
4.609036e+002, 2.057516e-001
4.628320e+002, 2.106404e-001
4.647605e+002, 2.145081e-001
4.666890e+002, 2.174432e-001
4.686174e+002, 2.202329e-001
4.705459e+002, 2.219040e-001
4.724744e+002, 2.212751e-001
4.744028e+002, 2.216731e-001
4.763313e+002, 2.213297e-001
4.782598e+002, 2.184103e-001
4.801882e+002, 2.143878e-001
4.821167e+002, 2.087395e-001
4.840452e+002, 2.023498e-001
4.859736e+002, 1.959965e-001
4.879021e+002, 1.902503e-001
4.898306e+002, 1.866731e-001
4.917590e+002, 1.839041e-001
4.936875e+002, 1.822347e-001
4.956160e+002, 1.824209e-001
4.975444e+002, 1.828563e-001
4.994729e+002, 1.826335e-001
5.014014e+002, 1.826996e-001
5.033298e+002, 1.836020e-001
5.052583e+002, 1.837955e-001
5.071868e+002, 1.834672e-001
5.091152e+002, 1.836160e-001
5.110437e+002, 1.842489e-001
5.129722e+002, 1.857008e-001
5.149006e+002, 1.865247e-001
5.168291e+002, 1.868213e-001
5.187576e+002, 1.876800e-001
5.206860e+002, 1.876350e-001
5.226145e+002, 1.871485e-001
5.245430e+002, 1.857375e-001
5.264714e+002, 1.835467e-001
5.283999e+002, 1.807438e-001
5.303284e+002, 1.780839e-001
5.322568e+002, 1.748280e-001
5.341853e+002, 1.712272e-001
5.361138e+002, 1.676767e-001
5.380422e+002, 1.624055e-001
5.399707e+002, 1.569590e-001
5.418992e+002, 1.524832e-001
5.438276e+002, 1.483312e-001
5.457561e+002, 1.441382e-001
5.476846e+002, 1.393469e-001
5.496130e+002, 1.341839e-001
5.515415e+002, 1.298053e-001
5.534700e+002, 1.261973e-001
5.553984e+002, 1.212752e-001
5.573269e+002, 1.157261e-001
5.592554e+002, 1.106385e-001
5.611838e+002, 1.062091e-001
5.631123e+002, 1.023338e-001
5.650408e+002, 9.845992e-002
5.669692e+002, 9.472953e-002
5.688977e+002, 9.173097e-002
5.708262e+002, 8.908086e-002
5.727546e+002, 8.570430e-002
5.746831e+002, 8.304692e-002
5.766116e+002, 8.078972e-002
5.785400e+002, 7.751126e-002
5.804685e+002, 7.362004e-002
5.823970e+002, 7.038261e-002
5.843254e+002, 6.811091e-002
5.862539e+002, 6.595871e-002
5.881824e+002, 6.313415e-002
5.901108e+002, 6.075507e-002
5.920393e+002, 5.940111e-002
5.939678e+002, 5.770180e-002
5.958962e+002, 5.588605e-002
5.978247e+002, 5.452001e-002
5.997532e+002, 5.346245e-002
6.016816e+002, 5.237940e-002
6.036101e+002, 5.142672e-002
6.055386e+002, 5.078178e-002
6.074670e+002, 5.025194e-002
6.093955e+002, 4.987665e-002
6.113240e+002, 4.919688e-002
6.132524e+002, 4.868796e-002
6.151809e+002, 4.812294e-002
6.171094e+002, 4.701388e-002
6.190378e+002, 4.585651e-002
6.209663e+002, 4.513358e-002
6.228948e+002, 4.396243e-002
6.248232e+002, 4.238178e-002
6.267517e+002, 4.124912e-002
6.286802e+002, 4.023352e-002
6.306086e+002, 3.916474e-002
6.325371e+002, 3.847010e-002
6.344656e+002, 3.805021e-002
6.363940e+002, 3.782230e-002
6.383225e+002, 3.743218e-002
6.402510e+002, 3.738565e-002
6.421794e+002, 3.733066e-002
6.441079e+002, 3.738710e-002
6.460364e+002, 3.755677e-002
6.479648e+002, 3.756624e-002
6.498933e+002, 3.838208e-002
6.518218e+002, 3.906442e-002
6.537502e+002, 3.923165e-002
6.556787e+002, 3.973182e-002
6.576072e+002, 4.055656e-002
6.595356e+002, 4.128663e-002
6.614641e+002, 4.184977e-002
6.633926e+002, 4.248443e-002
6.653210e+002, 4.323853e-002
6.672495e+002, 4.392810e-002
6.691780e+002, 4.459977e-002
6.711064e+002, 4.543567e-002
6.730349e+002, 4.654276e-002
6.749634e+002, 4.734525e-002
6.768918e+002, 4.769688e-002
6.788203e+002, 4.813899e-002
6.807488e+002, 4.879925e-002
6.826772e+002, 4.967509e-002
6.846057e+002, 5.026842e-002
6.865342e+002, 5.062523e-002
6.884626e+002, 5.101874e-002
6.903911e+002, 5.142803e-002
6.923196e+002, 5.152144e-002
6.942480e+002, 5.133601e-002
6.961765e+002, 5.142543e-002
6.981050e+002, 5.198490e-002
7.000334e+002, 5.251100e-002
7.019619e+002, 5.296779e-002
7.038904e+002, 5.341054e-002
7.058188e+002, 5.373313e-002
7.077473e+002, 5.432884e-002
7.096758e+002, 5.530901e-002
7.116042e+002, 5.607524e-002
7.135327e+002, 5.683646e-002
7.154612e+002, 5.773402e-002
7.173896e+002, 5.906523e-002
7.193181e+002, 6.054318e-002
7.212466e+002, 6.202600e-002
7.231750e+002, 6.334130e-002
7.251035e+002, 6.454071e-002
7.270320e+002, 6.549498e-002
7.289604e+002, 6.617250e-002
7.308889e+002, 6.673355e-002
7.328174e+002, 6.675298e-002
7.347458e+002, 6.640735e-002
7.366743e+002, 6.597306e-002
7.386028e+002, 6.593629e-002
7.405313e+002, 6.659464e-002
7.424597e+002, 6.745113e-002
7.443882e+002, 6.828479e-002
7.463167e+002, 6.971307e-002
7.482451e+002, 7.093780e-002
7.501736e+002, 7.192124e-002
7.521021e+002, 7.270101e-002
7.540305e+002, 7.300216e-002
7.559590e+002, 7.267321e-002
7.578875e+002, 7.187229e-002
7.598159e+002, 7.086027e-002
7.617444e+002, 6.984094e-002
7.636729e+002, 6.941202e-002
7.656013e+002, 6.910627e-002
7.675298e+002, 6.885887e-002
7.694583e+002, 6.929674e-002
7.713867e+002, 7.003760e-002
7.733152e+002, 7.111111e-002
7.752437e+002, 7.280037e-002
7.771721e+002, 7.465503e-002
7.791006e+002, 7.627570e-002
7.810291e+002, 7.788336e-002
7.829575e+002, 7.953052e-002
7.848860e+002, 8.085717e-002
7.868145e+002, 8.169788e-002
7.887429e+002, 8.251017e-002
7.906714e+002, 8.294134e-002
7.925999e+002, 8.300166e-002
7.945283e+002, 8.251328e-002
7.964568e+002, 8.181880e-002
7.983853e+002, 8.100655e-002
8.003137e+002, 7.964575e-002
8.022422e+002, 7.792656e-002
8.041707e+002, 7.647274e-002
8.060991e+002, 7.466919e-002
8.080276e+002, 7.225191e-002
8.099561e+002, 6.918660e-002
8.118845e+002, 6.639008e-002
8.138130e+002, 6.353621e-002
8.157415e+002, 6.043529e-002
8.176699e+002, 5.756528e-002
8.195984e+002, 5.504218e-002
8.215269e+002, 5.283872e-002
8.234553e+002, 5.117665e-002
8.253838e+002, 4.968642e-002
8.273123e+002, 4.840440e-002
8.292407e+002, 4.740413e-002
8.311692e+002, 4.666761e-002
8.330977e+002, 4.602601e-002
8.350261e+002, 4.524956e-002
8.369546e+002, 4.461105e-002
8.388831e+002, 4.472125e-002
8.408115e+002, 4.551789e-002
8.427400e+002, 4.685753e-002
8.446685e+002, 4.828761e-002
8.465969e+002, 4.956506e-002
8.485254e+002, 5.115216e-002
8.504539e+002, 5.307360e-002
8.523823e+002, 5.521147e-002
8.543108e+002, 5.756141e-002
8.562393e+002, 6.024281e-002
8.581677e+002, 6.298636e-002
8.600962e+002, 6.593539e-002
8.620247e+002, 6.909318e-002
8.639531e+002, 7.197460e-002
8.658816e+002, 7.502057e-002
8.678101e+002, 7.786674e-002
8.697385e+002, 8.057580e-002
8.716670e+002, 8.351086e-002
8.735955e+002, 8.616932e-002
8.755239e+002, 8.876628e-002
8.774524e+002, 9.145552e-002
8.793809e+002, 9.373893e-002
8.813093e+002, 9.627073e-002
8.832378e+002, 9.882164e-002
8.851663e+002, 1.009313e-001
8.870947e+002, 1.032402e-001
8.890232e+002, 1.060802e-001
8.909517e+002, 1.089318e-001
8.928801e+002, 1.121479e-001
8.948085e+002, 1.155910e-001
8.967370e+002, 1.190079e-001
8.986655e+002, 1.225015e-001
9.005939e+002, 1.264646e-001
9.025224e+002, 1.309676e-001
9.044509e+002, 1.360312e-001
9.063793e+002, 1.412029e-001
9.083078e+002, 1.467189e-001
9.102363e+002, 1.525947e-001
9.121647e+002, 1.585208e-001
9.140932e+002, 1.645048e-001
9.160217e+002, 1.701011e-001
9.179501e+002, 1.758354e-001
9.198786e+002, 1.818623e-001
9.218071e+002, 1.876184e-001
9.237355e+002, 1.930887e-001
9.256640e+002, 1.986463e-001
9.275925e+002, 2.049386e-001
9.295209e+002, 2.117048e-001
9.314494e+002, 2.185749e-001
9.333779e+002, 2.260467e-001
9.353063e+002, 2.337247e-001
9.372348e+002, 2.413434e-001
9.391633e+002, 2.488434e-001
9.410917e+002, 2.565883e-001
9.430202e+002, 2.647262e-001
9.449487e+002, 2.731112e-001
9.468771e+002, 2.818047e-001
9.488056e+002, 2.907904e-001
9.507341e+002, 3.000626e-001
9.526625e+002, 3.096326e-001
9.545910e+002, 3.192910e-001
9.565195e+002, 3.290659e-001
9.584479e+002, 3.383075e-001
9.603764e+002, 3.467093e-001
9.623049e+002, 3.541512e-001
9.642333e+002, 3.599910e-001
9.661618e+002, 3.646857e-001
9.680903e+002, 3.677179e-001
9.700187e+002, 3.694340e-001
9.719472e+002, 3.703183e-001
9.738757e+002, 3.705059e-001
9.758041e+002, 3.701276e-001
9.777326e+002, 3.693032e-001
9.796611e+002, 3.683703e-001
9.815895e+002, 3.677884e-001
9.835180e+002, 3.677599e-001
9.854465e+002, 3.678706e-001
9.873749e+002, 3.678621e-001
9.893034e+002, 3.680950e-001
9.912319e+002, 3.678250e-001
9.931603e+002, 3.670008e-001
9.950888e+002, 3.654748e-001
9.970173e+002, 3.627916e-001
9.989457e+002, 3.591333e-001
1.000874e+003, 3.552524e-001
1.002803e+003, 3.508027e-001
1.004731e+003, 3.458117e-001
1.006660e+003, 3.411419e-001
1.008588e+003, 3.367600e-001
1.010517e+003, 3.325112e-001
1.012445e+003, 3.288792e-001
1.014373e+003, 3.254038e-001
1.016302e+003, 3.214704e-001
1.018230e+003, 3.170233e-001
1.020159e+003, 3.122380e-001
1.022087e+003, 3.067688e-001
1.024016e+003, 3.003028e-001
1.025944e+003, 2.925448e-001
1.027873e+003, 2.831690e-001
1.029801e+003, 2.728523e-001
1.031730e+003, 2.615545e-001
1.033658e+003, 2.491972e-001
1.035587e+003, 2.368942e-001
1.037515e+003, 2.249759e-001
1.039444e+003, 2.132240e-001
1.041372e+003, 2.020109e-001
1.043301e+003, 1.915997e-001
1.045229e+003, 1.821675e-001
1.047157e+003, 1.736796e-001
1.049086e+003, 1.658816e-001
1.051014e+003, 1.589305e-001
1.052943e+003, 1.527092e-001
1.054871e+003, 1.469791e-001
1.056800e+003, 1.420115e-001
1.058728e+003, 1.379354e-001
1.060657e+003, 1.342980e-001
1.062585e+003, 1.308620e-001
1.064514e+003, 1.273367e-001
1.066442e+003, 1.244253e-001
1.068371e+003, 1.222388e-001
1.070299e+003, 1.203195e-001
1.072228e+003, 1.188834e-001
1.074156e+003, 1.178036e-001
1.076084e+003, 1.168595e-001
1.078013e+003, 1.157377e-001
1.079941e+003, 1.147866e-001
1.081870e+003, 1.137735e-001
1.083798e+003, 1.127080e-001
1.085727e+003, 1.111916e-001
1.087655e+003, 1.092163e-001
1.089584e+003, 1.069772e-001
1.091512e+003, 1.041843e-001
1.093441e+003, 1.011976e-001
1.095369e+003, 9.809399e-002
1.097298e+003, 9.495536e-002
1.099226e+003, 9.173243e-002
1.101155e+003, 8.870485e-002
1.103083e+003, 8.542385e-002
1.105011e+003, 8.213186e-002
1.106940e+003, 7.905131e-002
1.108868e+003, 7.598496e-002
1.110797e+003, 7.313924e-002
1.112725e+003, 7.034457e-002
1.114654e+003, 6.727273e-002
1.116582e+003, 6.442247e-002
1.118511e+003, 6.177261e-002
1.120439e+003, 5.912619e-002
1.122368e+003, 5.659166e-002
1.124296e+003, 5.385503e-002
1.126225e+003, 5.134995e-002
1.128153e+003, 4.906063e-002
1.130082e+003, 4.651998e-002
1.132010e+003, 4.406053e-002
1.133938e+003, 4.173902e-002
1.135867e+003, 3.946150e-002
1.137795e+003, 3.711518e-002
1.139724e+003, 3.507476e-002
1.141652e+003, 3.306125e-002
1.143581e+003, 3.104524e-002
1.145509e+003, 2.948450e-002
1.147438e+003, 2.830712e-002
1.149366e+003, 2.668187e-002
1.151295e+003, 2.509109e-002
1.153223e+003, 2.429046e-002
1.155152e+003, 2.366607e-002
1.157080e+003, 2.276530e-002
1.159009e+003, 2.190582e-002
1.160937e+003, 2.121793e-002
1.162865e+003, 2.051082e-002
1.164794e+003, 1.981579e-002
1.166722e+003, 1.917720e-002
1.168651e+003, 1.871219e-002
1.170579e+003, 1.842413e-002
1.172508e+003, 1.809115e-002
1.174436e+003, 1.768855e-002
1.176365e+003, 1.727095e-002
1.178293e+003, 1.697984e-002
1.180222e+003, 1.657843e-002
1.182150e+003, 1.613882e-002
1.184079e+003, 1.586552e-002
1.186007e+003, 1.557038e-002
1.187936e+003, 1.518011e-002
1.189864e+003, 1.480485e-002
1.191792e+003, 1.425476e-002
1.193721e+003, 1.370653e-002
1.195649e+003, 1.320521e-002
1.197578e+003, 1.268085e-002
1.199506e+003, 1.237848e-002
1.201435e+003, 1.211650e-002
1.203363e+003, 1.182203e-002
1.205292e+003, 1.138832e-002
1.207220e+003, 1.086484e-002
1.209149e+003, 1.053233e-002
1.211077e+003, 1.014269e-002
1.213006e+003, 9.816508e-003
1.214934e+003, 9.594661e-003
1.216863e+003, 9.403908e-003
1.218791e+003, 9.277589e-003
1.220719e+003, 9.231185e-003
1.222648e+003, 9.176151e-003
1.224576e+003, 8.987935e-003
1.226505e+003, 8.811483e-003
1.228433e+003, 8.518014e-003
1.230362e+003, 8.259029e-003
1.232290e+003, 8.178973e-003
1.234219e+003, 7.969623e-003
1.236147e+003, 7.855149e-003
1.238076e+003, 7.940086e-003
1.240004e+003, 8.109324e-003
1.241933e+003, 8.061420e-003
1.243861e+003, 8.026742e-003
1.245790e+003, 7.823328e-003
1.247718e+003, 7.658196e-003
1.249646e+003, 7.570117e-003
1.251575e+003, 7.609782e-003
1.253503e+003, 7.814001e-003
1.255432e+003, 7.862760e-003
1.257360e+003, 7.746872e-003
1.259289e+003, 7.664116e-003
1.261217e+003, 7.629904e-003
1.263146e+003, 7.519466e-003
1.265074e+003, 7.748472e-003
1.267003e+003, 7.839185e-003
1.268931e+003, 7.631123e-003
1.270860e+003, 7.732558e-003
1.272788e+003, 7.874774e-003
1.274717e+003, 7.849445e-003
1.276645e+003, 7.686896e-003
1.278573e+003, 7.552944e-003
1.280502e+003, 7.422371e-003
1.282430e+003, 7.411730e-003
1.284359e+003, 7.677648e-003
1.286287e+003, 7.837876e-003
1.288216e+003, 7.793906e-003
1.290144e+003, 7.723354e-003
1.292073e+003, 7.740906e-003
1.294001e+003, 7.742024e-003
1.295930e+003, 7.748902e-003
1.297858e+003, 7.897011e-003
1.299787e+003, 7.963514e-003
1.301715e+003, 7.955988e-003
1.303644e+003, 7.874513e-003
1.305572e+003, 7.864758e-003
1.307500e+003, 7.977930e-003
1.309429e+003, 8.158416e-003
1.311357e+003, 8.142135e-003
1.313286e+003, 7.922700e-003
1.315214e+003, 7.848646e-003
1.317143e+003, 8.188694e-003
1.319071e+003, 8.494806e-003
1.321000e+003, 8.649749e-003
1.322928e+003, 8.327992e-003
1.324857e+003, 8.107056e-003
1.326785e+003, 8.290200e-003
1.328714e+003, 8.391968e-003
1.330642e+003, 8.298131e-003
1.332571e+003, 8.238578e-003
1.334499e+003, 8.234147e-003
1.336427e+003, 8.233187e-003
1.338356e+003, 8.325397e-003
1.340284e+003, 8.552547e-003
1.342213e+003, 8.614427e-003
1.344141e+003, 8.693390e-003
1.346070e+003, 8.906320e-003
1.347998e+003, 8.948547e-003
1.349927e+003, 8.901974e-003
1.351855e+003, 9.108638e-003
1.353784e+003, 9.328837e-003
1.355712e+003, 9.420259e-003
1.357641e+003, 9.408689e-003
1.359569e+003, 9.439823e-003
1.361498e+003, 9.575815e-003
1.363426e+003, 9.530791e-003
1.365354e+003, 9.294395e-003
1.367283e+003, 9.198495e-003
1.369211e+003, 9.097879e-003
1.371140e+003, 9.116789e-003
1.373068e+003, 9.142554e-003
1.374997e+003, 9.344304e-003
1.376925e+003, 9.318748e-003
1.378854e+003, 9.270930e-003
1.380782e+003, 9.502128e-003
1.382711e+003, 9.575778e-003
1.384639e+003, 9.471865e-003
1.386568e+003, 9.409298e-003
1.388496e+003, 9.414347e-003
1.390424e+003, 9.434770e-003
1.392353e+003, 9.431030e-003
1.394281e+003, 9.787366e-003
1.396210e+003, 1.009110e-002
1.398138e+003, 9.889975e-003
1.400067e+003, 9.648687e-003
1.401995e+003, 9.794857e-003
1.403924e+003, 9.851978e-003
1.405852e+003, 9.743707e-003
1.407781e+003, 9.877150e-003
1.409709e+003, 1.032077e-002
1.411638e+003, 1.023157e-002
1.413566e+003, 1.012343e-002
1.415495e+003, 1.016483e-002
1.417423e+003, 9.961242e-003
1.419351e+003, 9.727916e-003
1.421280e+003, 9.729759e-003
1.423208e+003, 9.478297e-003
1.425137e+003, 9.337691e-003
1.427065e+003, 9.570099e-003
1.428994e+003, 9.345785e-003
1.430922e+003, 9.081376e-003
1.432851e+003, 9.189736e-003
1.434779e+003, 9.059075e-003
1.436708e+003, 8.792084e-003
1.438636e+003, 8.818333e-003
1.440565e+003, 8.876134e-003
1.442493e+003, 8.835046e-003
1.444422e+003, 8.750084e-003
1.446350e+003, 8.485539e-003
1.448278e+003, 8.584250e-003
1.450207e+003, 8.734304e-003
1.452135e+003, 8.732120e-003
1.454064e+003, 8.791996e-003
1.455992e+003, 8.813558e-003
1.457921e+003, 8.674783e-003
1.459849e+003, 8.786960e-003
1.461778e+003, 8.921735e-003
1.463706e+003, 8.727273e-003
1.465635e+003, 8.546546e-003
1.467563e+003, 8.377381e-003
1.469492e+003, 7.884895e-003
1.471420e+003, 7.349981e-003
1.473349e+003, 6.778010e-003
1.475277e+003, 6.503394e-003
1.477205e+003, 6.406027e-003
1.479134e+003, 6.325848e-003
1.481062e+003, 5.932294e-003
1.482991e+003, 5.726006e-003
1.484919e+003, 5.653220e-003
1.486848e+003, 5.536699e-003
1.488776e+003, 5.465690e-003
1.490705e+003, 5.465095e-003
1.492633e+003, 5.383473e-003
1.494562e+003, 5.396905e-003
1.496490e+003, 5.314296e-003
1.498419e+003, 5.264658e-003
1.500347e+003, 5.243099e-003
1.502276e+003, 5.398527e-003
1.504204e+003, 5.649133e-003
1.506132e+003, 5.479478e-003
1.508061e+003, 5.504806e-003
1.509989e+003, 5.838135e-003
1.511918e+003, 5.773059e-003
1.513846e+003, 5.711962e-003
1.515775e+003, 5.818084e-003
1.517703e+003, 5.865110e-003
1.519632e+003, 5.769936e-003
1.521560e+003, 5.582117e-003
1.523489e+003, 5.604262e-003
1.525417e+003, 5.684514e-003
1.527346e+003, 5.801705e-003
1.529274e+003, 5.944690e-003
1.531203e+003, 6.301586e-003
1.533131e+003, 6.816019e-003
1.535059e+003, 7.008298e-003
1.536988e+003, 6.913656e-003
1.538916e+003, 7.018805e-003
1.540845e+003, 7.492338e-003
1.542773e+003, 7.818891e-003
1.544702e+003, 7.922646e-003
1.546630e+003, 8.458283e-003
1.548559e+003, 9.052017e-003
1.550487e+003, 9.348970e-003
1.552416e+003, 9.612970e-003
1.554344e+003, 9.787574e-003
1.556273e+003, 1.014961e-002
1.558201e+003, 1.035104e-002
1.560130e+003, 1.064113e-002
1.562058e+003, 1.107760e-002
1.563986e+003, 1.142566e-002
1.565915e+003, 1.178175e-002
1.567843e+003, 1.209576e-002
1.569772e+003, 1.253101e-002
1.571700e+003, 1.298239e-002
1.573629e+003, 1.330197e-002
1.575557e+003, 1.357379e-002
1.577486e+003, 1.390355e-002
1.579414e+003, 1.432008e-002
1.581343e+003, 1.464806e-002
1.583271e+003, 1.504157e-002
1.585200e+003, 1.549018e-002
1.587128e+003, 1.573873e-002
1.589057e+003, 1.560335e-002
1.590985e+003, 1.584771e-002
1.592913e+003, 1.624751e-002
1.594842e+003, 1.656774e-002
1.596770e+003, 1.677648e-002
1.598699e+003, 1.684932e-002
1.600627e+003, 1.693849e-002
1.602556e+003, 1.689747e-002
1.604484e+003, 1.664772e-002
1.606413e+003, 1.675227e-002
1.608341e+003, 1.700639e-002
1.610270e+003, 1.691255e-002
1.612198e+003, 1.658187e-002
1.614127e+003, 1.646658e-002
1.616055e+003, 1.622111e-002
1.617984e+003, 1.618905e-002
1.619912e+003, 1.658001e-002
1.621840e+003, 1.685040e-002
1.623769e+003, 1.674994e-002
1.625697e+003, 1.668770e-002
1.627626e+003, 1.648800e-002
1.629554e+003, 1.633341e-002
1.631483e+003, 1.618329e-002
1.633411e+003, 1.638028e-002
1.635340e+003, 1.650450e-002
1.637268e+003, 1.624582e-002
1.639197e+003, 1.585094e-002
1.641125e+003, 1.567793e-002
1.643054e+003, 1.535025e-002
1.644982e+003, 1.522308e-002
1.646911e+003, 1.496591e-002
1.648839e+003, 1.484764e-002
1.650767e+003, 1.475910e-002
1.652696e+003, 1.426051e-002
1.654624e+003, 1.391146e-002
1.656553e+003, 1.365641e-002
1.658481e+003, 1.345841e-002
1.660410e+003, 1.346902e-002
1.662338e+003, 1.304958e-002
1.664267e+003, 1.278177e-002
1.666195e+003, 1.269424e-002
1.668124e+003, 1.259598e-002
1.670052e+003, 1.217155e-002
1.671981e+003, 1.185971e-002
1.673909e+003, 1.175952e-002
1.675838e+003, 1.156341e-002
1.677766e+003, 1.130325e-002
1.679694e+003, 1.093436e-002
1.681623e+003, 1.083032e-002
1.683551e+003, 1.024128e-002
1.685480e+003, 9.355332e-003
1.687408e+003, 9.346521e-003
1.689337e+003, 9.300547e-003
1.691265e+003, 9.047418e-003
1.693194e+003, 8.737806e-003
1.695122e+003, 8.775540e-003
1.697051e+003, 8.885127e-003
1.698979e+003, 8.660851e-003
1.700908e+003, 8.322228e-003
1.702836e+003, 8.523291e-003
1.704765e+003, 8.382664e-003
1.706693e+003, 7.971526e-003
1.708621e+003, 7.680809e-003
1.710550e+003, 7.817980e-003
1.712478e+003, 8.232706e-003
1.714407e+003, 8.314414e-003
1.716335e+003, 8.349134e-003
1.718264e+003, 8.696985e-003
1.720192e+003, 9.234394e-003
1.722121e+003, 9.291515e-003
1.724049e+003, 9.275438e-003
1.725978e+003, 9.387296e-003
1.727906e+003, 9.664799e-003
1.729835e+003, 9.658860e-003
1.731763e+003, 9.560451e-003
1.733692e+003, 9.350263e-003
1.735620e+003, 8.946935e-003
1.737548e+003, 8.786601e-003
1.739477e+003, 9.038676e-003
1.741405e+003, 9.517309e-003
1.743334e+003, 9.195246e-003
1.745262e+003, 8.910207e-003
1.747191e+003, 8.616542e-003
1.749119e+003, 7.894089e-003
1.751048e+003, 7.421494e-003
1.752976e+003, 7.128313e-003
1.754905e+003, 6.585130e-003
1.756833e+003, 6.424380e-003
1.758762e+003, 6.432853e-003
1.760690e+003, 6.045519e-003
1.762619e+003, 5.621677e-003
1.764547e+003, 5.454255e-003
1.766475e+003, 5.219417e-003
1.768404e+003, 5.353861e-003
1.770332e+003, 5.151205e-003
1.772261e+003, 5.095352e-003
1.774189e+003, 4.952912e-003
1.776118e+003, 4.986945e-003
1.778046e+003, 4.742835e-003
1.779975e+003, 4.509462e-003
1.781903e+003, 4.585349e-003
1.783832e+003, 4.583920e-003
1.785760e+003, 4.653573e-003
1.787689e+003, 4.671769e-003
1.789617e+003, 4.556847e-003
1.791546e+003, 4.632357e-003
1.793474e+003, 4.683463e-003
1.795402e+003, 4.697799e-003
1.797331e+003, 4.598004e-003
1.799259e+003, 4.497873e-003
1.801188e+003, 4.526218e-003
1.803116e+003, 4.351276e-003
1.805045e+003, 4.009579e-003
1.806973e+003, 4.117843e-003
1.808902e+003, 4.524518e-003
1.810830e+003, 4.743978e-003
1.812759e+003, 4.516696e-003
1.814687e+003, 4.484172e-003
1.816616e+003, 3.902087e-003
1.818544e+003, 3.863045e-003
1.820473e+003, 4.214961e-003
1.822401e+003, 4.092140e-003
1.824329e+003, 3.793618e-003
1.826258e+003, 4.059362e-003
1.828186e+003, 4.192525e-003
1.830115e+003, 3.559646e-003
1.832043e+003, 3.351781e-003
1.833972e+003, 4.374885e-003
1.835900e+003, 4.717597e-003
1.837829e+003, 4.174643e-003
1.839757e+003, 4.008187e-003
1.841686e+003, 3.797383e-003
1.843614e+003, 3.742959e-003
1.845543e+003, 3.548138e-003
1.847471e+003, 3.414118e-003
1.849400e+003, 3.168205e-003
1.851328e+003, 3.328874e-003
1.853256e+003, 3.755431e-003
1.855185e+003, 3.545580e-003
1.857113e+003, 3.940301e-003
1.859042e+003, 4.053277e-003
1.860970e+003, 3.582802e-003
1.862899e+003, 3.195411e-003
1.864827e+003, 3.341862e-003
1.866756e+003, 3.389833e-003
1.868684e+003, 2.941826e-003
1.870613e+003, 3.229600e-003
1.872541e+003, 3.371829e-003
1.874470e+003, 2.858699e-003
1.876398e+003, 3.075671e-003
1.878327e+003, 2.946698e-003
1.880255e+003, 2.067899e-003
1.882183e+003, 2.024657e-003
1.884112e+003, 2.593416e-003
1.886040e+003, 2.651080e-003
1.887969e+003, 2.532637e-003
1.889897e+003, 2.983420e-003
1.891826e+003, 3.682594e-003
1.893754e+003, 3.317090e-003
1.895683e+003, 2.645380e-003
1.897611e+003, 2.294140e-003
1.899540e+003, 2.741033e-003
1.901468e+003, 2.787416e-003
1.903397e+003, 2.509198e-003
1.905325e+003, 1.971318e-003
1.907254e+003, 1.332701e-003
1.909182e+003, 1.046974e-003
1.911110e+003, 1.672169e-003
1.913039e+003, 1.777148e-003
1.914967e+003, 1.219504e-003
1.916896e+003, 1.118845e-003
1.918824e+003, 1.554515e-003
1.920753e+003, 1.121634e-003
1.922681e+003, 1.262910e-003
1.924610e+003, 1.695254e-003
1.926538e+003, 7.713606e-004
1.928467e+003, 1.947780e-004
1.930395e+003, 3.073597e-006
1.932324e+003, -1.382089e-004
1.934252e+003, -1.132575e-004
1.936181e+003, -4.582109e-004
1.938109e+003, 8.055905e-005
1.940037e+003, 3.796586e-004
1.941966e+003, -5.259148e-004
1.943894e+003, -9.139117e-004
1.945823e+003, -6.200366e-004
1.947751e+003, -1.084908e-003
1.949680e+003, -1.749658e-003
1.951608e+003, -1.770028e-003
1.953537e+003, -2.326952e-003
1.955465e+003, -3.173440e-003
1.957394e+003, -3.939362e-003
1.959322e+003, -3.821008e-003
1.961251e+003, -4.097302e-003
1.963179e+003, -4.101477e-003
1.965108e+003, -2.786208e-003
1.967036e+003, -3.593501e-003
1.968964e+003, -4.365535e-003
1.970893e+003, -4.621146e-003
1.972821e+003, -6.017684e-003
1.974750e+003, -5.082880e-003
1.976678e+003, -2.208408e-003
1.978607e+003, -3.522132e-003
1.980535e+003, -6.124438e-003
1.982464e+003, -4.653754e-003
1.984392e+003, -2.942063e-003
1.986321e+003, -1.909954e-003
1.988249e+003, -1.690236e-003
1.990178e+003, -2.462774e-003
1.992106e+003, -2.324536e-003
1.994035e+003, -3.353219e-003
1.995963e+003, -3.452008e-003
1.997891e+003, -3.734226e-003
1.999820e+003, -4.428809e-003
2.001748e+003, -4.441406e-003
2.003677e+003, -4.920060e-003
2.005605e+003, -5.932374e-003
2.007534e+003, -5.589777e-003
2.009462e+003, -4.791897e-003
2.011391e+003, -5.168786e-003
2.013319e+003, -5.963515e-003
2.015248e+003, -5.694753e-003
2.017176e+003, -4.959384e-003
2.019105e+003, -5.944676e-003
2.021033e+003, -3.809868e-003
2.022962e+003, -4.243440e-003
2.024890e+003, -6.295244e-003
2.026818e+003, -7.897122e-003
2.028747e+003, -7.580479e-003
2.030675e+003, -7.152572e-003
2.032604e+003, -8.536353e-003
2.034532e+003, -7.708604e-003
2.036461e+003, -7.181374e-003
2.038389e+003, -6.420127e-003
2.040318e+003, -2.807670e-003
2.042246e+003, -1.048914e-003
2.044175e+003, -2.707155e-003
2.046103e+003, -3.456579e-003
2.048032e+003, -3.971490e-003
2.049960e+003, -4.190019e-003
2.051889e+003, -3.656374e-003
2.053817e+003, -3.378243e-003
2.055746e+003, -3.365329e-003
2.057674e+003, -2.626816e-003
2.059603e+003, -4.004702e-003
2.061531e+003, -3.837306e-003
2.063459e+003, -1.614864e-003
2.065388e+003, 4.433688e-004
2.067316e+003, 8.221546e-004
2.069245e+003, -1.170943e-004
2.071173e+003, -2.013043e-003
2.073102e+003, -2.710496e-003
2.075030e+003, -2.759428e-003
2.076959e+003, -1.480856e-003
2.078887e+003, 1.284902e-004
2.080816e+003, 5.974354e-005
2.082744e+003, -1.176790e-003
2.084673e+003, -1.024386e-003
2.086601e+003, -8.993992e-004
2.088530e+003, -2.207838e-004
2.090458e+003, 2.421697e-004
2.092386e+003, 9.554497e-004
2.094315e+003, 1.489793e-003
2.096243e+003, 1.362559e-003
2.098172e+003, 4.734652e-004
2.100100e+003, -1.715679e-004
2.102029e+003, -4.152173e-004
2.103957e+003, 2.966953e-004
2.105886e+003, 1.553007e-003
2.107814e+003, 1.245064e-003
2.109743e+003, 3.812787e-004
2.111671e+003, 1.439220e-003
2.113600e+003, 2.261037e-003
2.115528e+003, 1.490375e-003
2.117457e+003, 1.059611e-003
2.119385e+003, 1.354575e-003
2.121313e+003, 4.165194e-004
2.123242e+003, -5.284526e-004
2.125170e+003, -2.843920e-004
2.127099e+003, -8.444075e-004
2.129027e+003, -5.513498e-004
2.130956e+003, 4.561821e-004
2.132884e+003, -4.089653e-005
2.134813e+003, 2.474895e-004
2.136741e+003, 4.651210e-004
2.138670e+003, -1.402950e-004
2.140598e+003, -1.770190e-003
2.142527e+003, -3.537497e-003
2.144455e+003, -3.907922e-003
2.146384e+003, -1.220742e-003
2.148312e+003, -9.748516e-004
2.150240e+003, -3.226055e-003
2.152169e+003, -3.434414e-003
2.154097e+003, -5.537119e-003
2.156026e+003, -7.022922e-003
2.157954e+003, -4.823246e-003
2.159883e+003, -1.710401e-003
2.161811e+003, -8.386986e-004
2.163740e+003, -3.258258e-003
2.165668e+003, -3.589145e-003
2.167597e+003, -3.060992e-003
2.169525e+003, -2.063409e-003
2.171454e+003, -3.676072e-004
2.173382e+003, -1.888359e-003
2.175311e+003, -4.135093e-003
2.177239e+003, -4.123589e-003
2.179167e+003, -2.246932e-003
2.181096e+003, -3.808916e-004
2.183024e+003, 1.101132e-003
2.184953e+003, 1.430780e-003
2.186881e+003, -8.129308e-004
2.188810e+003, 2.998008e-004
2.190738e+003, 2.153892e-004
2.192667e+003, -2.384020e-003
2.194595e+003, -1.923660e-003
2.196524e+003, -1.049193e-003
2.198452e+003, -1.366797e-003
2.200381e+003, -3.959287e-004
2.202309e+003, -1.624894e-003
2.204238e+003, -2.205935e-003
2.206166e+003, -1.386571e-003
2.208094e+003, -8.505126e-004
2.210023e+003, 1.866495e-004
2.211951e+003, 1.070826e-003
2.213880e+003, -6.364999e-004
2.215808e+003, -1.630308e-003
2.217737e+003, -1.011649e-003
2.219665e+003, -1.680870e-003
2.221594e+003, -1.976219e-003
2.223522e+003, -6.713225e-004
2.225451e+003, -3.813097e-005
2.227379e+003, 3.601389e-004
2.229308e+003, 4.566391e-004
2.231236e+003, -1.078580e-003
2.233165e+003, -3.009306e-003
2.235093e+003, -2.135032e-003
2.237021e+003, 1.074589e-003
2.238950e+003, 1.359452e-003
2.240878e+003, 6.938708e-004
2.242807e+003, 9.358309e-004
2.244735e+003, 7.875002e-004
2.246664e+003, 3.535020e-004
2.248592e+003, 6.445249e-004
2.250521e+003, 1.147961e-003
2.252449e+003, 8.114111e-004
2.254378e+003, 4.155736e-004
2.256306e+003, 9.103208e-004
2.258235e+003, 8.826237e-004
2.260163e+003, 1.532589e-003
2.262092e+003, 1.856885e-003
2.264020e+003, 8.840492e-004
2.265948e+003, 1.182671e-003
2.267877e+003, 1.492304e-003
2.269805e+003, 1.694873e-003
2.271734e+003, 1.655613e-003
2.273662e+003, 1.565277e-003
2.275591e+003, 1.542977e-003
2.277519e+003, 2.228735e-003
2.279448e+003, 2.725951e-003
2.281376e+003, 2.476629e-003
2.283305e+003, 3.163524e-003
2.285233e+003, 3.965132e-003
2.287162e+003, 3.416496e-003
2.289090e+003, 2.886507e-003
2.291019e+003, 2.863902e-003
2.292947e+003, 3.839590e-003
2.294875e+003, 4.537345e-003
2.296804e+003, 4.065715e-003
2.298732e+003, 3.859711e-003
2.300661e+003, 3.822348e-003
2.302589e+003, 3.790356e-003
2.304518e+003, 4.088242e-003
2.306446e+003, 3.982890e-003
2.308375e+003, 3.532919e-003
2.310303e+003, 3.784291e-003
2.312232e+003, 4.210191e-003
2.314160e+003, 3.901046e-003
2.316089e+003, 3.710765e-003
2.318017e+003, 4.292741e-003
2.319946e+003, 4.753006e-003
2.321874e+003, 5.067327e-003
2.323802e+003, 5.216762e-003
2.325731e+003, 4.830078e-003
2.327659e+003, 4.485693e-003
2.329588e+003, 4.320040e-003
2.331516e+003, 4.647417e-003
2.333445e+003, 5.023709e-003
2.335373e+003, 4.994868e-003
2.337302e+003, 4.825063e-003
2.339230e+003, 4.722829e-003
2.341159e+003, 4.826028e-003
2.343087e+003, 4.331573e-003
2.345016e+003, 4.402231e-003
2.346944e+003, 4.828054e-003
2.348873e+003, 4.733456e-003
2.350801e+003, 4.638935e-003
2.352729e+003, 5.114004e-003
2.354658e+003, 5.258829e-003
2.356586e+003, 4.570737e-003
2.358515e+003, 3.980947e-003
2.360443e+003, 3.714061e-003
2.362372e+003, 4.184280e-003
2.364300e+003, 4.712041e-003
2.366229e+003, 4.885094e-003
2.368157e+003, 4.639056e-003
2.370086e+003, 4.890278e-003
2.372014e+003, 4.651675e-003
2.373942e+003, 4.438624e-003
2.375871e+003, 4.814331e-003
2.377799e+003, 4.584581e-003
2.379728e+003, 4.906786e-003
2.381656e+003, 4.493853e-003
2.383585e+003, 3.864353e-003
2.385513e+003, 4.654421e-003
2.387442e+003, 5.064956e-003
2.389370e+003, 5.231830e-003
2.391299e+003, 5.024392e-003
2.393227e+003, 4.632764e-003
2.395156e+003, 4.504467e-003
2.397084e+003, 4.437300e-003
2.399012e+003, 4.134421e-003
2.400941e+003, 3.516253e-003
2.402869e+003, 3.339736e-003
2.404798e+003, 3.271432e-003
2.406726e+003, 3.684693e-003
2.408655e+003, 4.330244e-003
2.410583e+003, 4.504377e-003
2.412512e+003, 4.496856e-003
2.414440e+003, 4.117012e-003
2.416369e+003, 3.790853e-003
2.418297e+003, 4.203971e-003
2.420226e+003, 4.876745e-003
2.422154e+003, 5.186894e-003
2.424083e+003, 5.369807e-003
2.426011e+003, 5.657571e-003
2.427939e+003, 5.669221e-003
2.429868e+003, 5.518692e-003
2.431796e+003, 5.398219e-003
2.433725e+003, 5.060368e-003
2.435653e+003, 4.502857e-003
2.437582e+003, 3.830394e-003
2.439510e+003, 4.496164e-003
2.441439e+003, 5.142073e-003
2.443367e+003, 5.261117e-003
2.445296e+003, 4.500927e-003
2.447224e+003, 4.289802e-003
2.449153e+003, 4.665043e-003
2.451081e+003, 4.352877e-003
2.453010e+003, 4.346763e-003
2.454938e+003, 4.589191e-003
2.456866e+003, 4.781001e-003
2.458795e+003, 4.554986e-003
2.460723e+003, 4.246554e-003
2.462652e+003, 4.459206e-003
2.464580e+003, 5.287886e-003
2.466509e+003, 5.759362e-003
2.468437e+003, 5.573142e-003
2.470366e+003, 5.113600e-003
2.472294e+003, 4.690465e-003
2.474223e+003, 4.982773e-003
2.476151e+003, 5.311947e-003
2.478080e+003, 5.546507e-003
2.480008e+003, 4.675881e-003
2.481937e+003, 3.744188e-003
2.483865e+003, 4.362601e-003
2.485793e+003, 4.897480e-003
2.487722e+003, 4.749632e-003
2.489650e+003, 4.735704e-003
2.491579e+003, 4.945935e-003
2.493507e+003, 4.811502e-003
2.495436e+003, 4.397477e-003
2.497364e+003, 3.987814e-003
2.499293e+003, 3.874786e-003
2.501221e+003, 3.542825e-003
2.503150e+003, 2.996183e-003
2.505078e+003, 3.782318e-003
2.507007e+003, 4.441189e-003
2.508935e+003, 4.603158e-003
2.510864e+003, 4.283106e-003
2.512792e+003, 4.962353e-003
2.514720e+003, 5.175725e-003
2.516649e+003, 4.634226e-003
2.518577e+003, 4.175478e-003
2.520506e+003, 4.681354e-003
2.522434e+003, 5.007234e-003
2.524363e+003, 4.811638e-003
2.526291e+003, 4.918619e-003
2.528220e+003, 4.468495e-003
2.530148e+003, 3.510730e-003
2.532077e+003, 3.778790e-003
2.534005e+003, 4.513249e-003
2.535934e+003, 4.464399e-003
2.537862e+003, 4.302221e-003
2.539791e+003, 4.172376e-003
2.541719e+003, 4.501012e-003
2.543647e+003, 5.387197e-003
2.545576e+003, 5.360005e-003
2.547504e+003, 5.003672e-003
2.549433e+003, 4.749194e-003
2.551361e+003, 3.858251e-003
2.553290e+003, 4.174907e-003
2.555218e+003, 5.374984e-003
2.557147e+003, 5.203472e-003
2.559075e+003, 4.426717e-003
2.561004e+003, 4.714940e-003
2.562932e+003, 5.793472e-003
2.564861e+003, 5.907444e-003
2.566789e+003, 4.930180e-003
2.568718e+003, 4.214282e-003
2.570646e+003, 5.256355e-003
2.572574e+003, 5.807974e-003
2.574503e+003, 5.613965e-003
2.576431e+003, 4.464720e-003
2.578360e+003, 4.098851e-003
2.580288e+003, 4.856058e-003
2.582217e+003, 5.303156e-003
2.584145e+003, 5.604010e-003
2.586074e+003, 5.223356e-003
2.588002e+003, 5.001881e-003
2.589931e+003, 4.931209e-003
2.591859e+003, 4.705414e-003
2.593788e+003, 4.260163e-003
2.595716e+003, 4.872577e-003
2.597645e+003, 5.227951e-003
2.599573e+003, 5.106684e-003
2.601501e+003, 4.654747e-003
2.603430e+003, 5.041766e-003
2.605358e+003, 5.106118e-003
2.607287e+003, 4.894795e-003
2.609215e+003, 5.220906e-003
2.611144e+003, 4.983751e-003
2.613072e+003, 5.587144e-003
2.615001e+003, 5.776820e-003
2.616929e+003, 5.362565e-003
2.618858e+003, 5.219229e-003
2.620786e+003, 5.229945e-003
2.622715e+003, 5.593753e-003
2.624643e+003, 5.782366e-003
2.626572e+003, 5.964220e-003
2.628500e+003, 5.781014e-003
2.630428e+003, 5.939673e-003
2.632357e+003, 6.348886e-003
2.634285e+003, 5.914341e-003
2.636214e+003, 5.424841e-003
2.638142e+003, 5.082401e-003
2.640071e+003, 5.048158e-003
2.641999e+003, 5.498446e-003
2.643928e+003, 5.310822e-003
2.645856e+003, 5.618212e-003
2.647785e+003, 6.346509e-003
2.649713e+003, 6.398284e-003
2.651642e+003, 5.862114e-003
2.653570e+003, 5.804942e-003
2.655499e+003, 6.206045e-003
2.657427e+003, 6.137987e-003
2.659355e+003, 5.867428e-003
2.661284e+003, 5.928446e-003
2.663212e+003, 6.051004e-003
2.665141e+003, 6.675747e-003
2.667069e+003, 6.008047e-003
2.668998e+003, 5.407794e-003
2.670926e+003, 6.052199e-003
2.672855e+003, 5.747642e-003
2.674783e+003, 5.227766e-003
2.676712e+003, 5.738115e-003
2.678640e+003, 6.344764e-003
2.680569e+003, 6.147624e-003
2.682497e+003, 6.372671e-003
2.684426e+003, 6.263377e-003
2.686354e+003, 6.347930e-003
2.688282e+003, 6.478442e-003
2.690211e+003, 6.109691e-003
2.692139e+003, 5.606551e-003
2.694068e+003, 5.786851e-003
2.695996e+003, 6.253173e-003
2.697925e+003, 6.138871e-003
2.699853e+003, 5.952300e-003
2.701782e+003, 6.104861e-003
2.703710e+003, 6.454844e-003
2.705639e+003, 6.360836e-003
2.707567e+003, 6.281985e-003
2.709496e+003, 6.246528e-003
2.711424e+003, 6.920416e-003
2.713353e+003, 7.803573e-003
2.715281e+003, 7.032347e-003
2.717209e+003, 6.432736e-003
2.719138e+003, 6.546301e-003
2.721066e+003, 6.451032e-003
2.722995e+003, 6.395369e-003
2.724923e+003, 6.243498e-003
2.726852e+003, 6.081070e-003
2.728780e+003, 6.770651e-003
2.730709e+003, 7.051076e-003
2.732637e+003, 6.377438e-003
2.734566e+003, 6.661068e-003
2.736494e+003, 6.932279e-003
2.738423e+003, 6.815314e-003
2.740351e+003, 7.452538e-003
2.742280e+003, 8.233572e-003
2.744208e+003, 7.537808e-003
2.746136e+003, 7.051148e-003
2.748065e+003, 7.191363e-003
2.749993e+003, 6.895296e-003
2.751922e+003, 6.711626e-003
2.753850e+003, 6.991532e-003
2.755779e+003, 7.393804e-003
2.757707e+003, 7.787040e-003
2.759636e+003, 7.670483e-003
2.761564e+003, 6.958161e-003
2.763493e+003, 6.908367e-003
2.765421e+003, 7.454288e-003
2.767350e+003, 7.353694e-003
2.769278e+003, 7.267829e-003
2.771207e+003, 7.026147e-003
2.773135e+003, 7.249294e-003
2.775063e+003, 7.580814e-003
2.776992e+003, 8.156455e-003
2.778920e+003, 8.084622e-003
2.780849e+003, 7.258481e-003
2.782777e+003, 7.034614e-003
2.784706e+003, 7.496614e-003
2.786634e+003, 7.867492e-003
2.788563e+003, 8.239989e-003
2.790491e+003, 8.179030e-003
2.792420e+003, 7.981966e-003
2.794348e+003, 7.985119e-003
2.796277e+003, 8.008772e-003
2.798205e+003, 7.741307e-003
2.800134e+003, 7.630923e-003
2.802062e+003, 7.534325e-003
2.803990e+003, 8.118441e-003
2.805919e+003, 8.749592e-003
2.807847e+003, 8.476254e-003
2.809776e+003, 8.154265e-003
2.811704e+003, 8.034933e-003
2.813633e+003, 8.430281e-003
2.815561e+003, 8.219101e-003
2.817490e+003, 8.165516e-003
2.819418e+003, 8.393329e-003
2.821347e+003, 8.329195e-003
2.823275e+003, 8.089203e-003
2.825204e+003, 9.037243e-003
2.827132e+003, 9.629891e-003
2.829061e+003, 9.280980e-003
2.830989e+003, 8.340748e-003
2.832917e+003, 8.246826e-003
2.834846e+003, 8.866834e-003
2.836774e+003, 9.038788e-003
2.838703e+003, 8.686323e-003
2.840631e+003, 8.004369e-003
2.842560e+003, 7.563028e-003
2.844488e+003, 8.224683e-003
2.846417e+003, 9.299660e-003
2.848345e+003, 9.521959e-003
2.850274e+003, 8.587594e-003
2.852202e+003, 8.614931e-003
2.854131e+003, 9.265252e-003
2.856059e+003, 9.706167e-003
2.857988e+003, 1.058752e-002
2.859916e+003, 1.083079e-002
2.861844e+003, 9.783720e-003
2.863773e+003, 9.065769e-003
2.865701e+003, 9.156942e-003
2.867630e+003, 9.745372e-003
2.869558e+003, 9.277530e-003
2.871487e+003, 8.871829e-003
2.873415e+003, 9.204883e-003
2.875344e+003, 8.871038e-003
2.877272e+003, 8.613059e-003
2.879201e+003, 8.804034e-003
2.881129e+003, 9.522796e-003
2.883058e+003, 1.022669e-002
2.884986e+003, 9.466669e-003
2.886915e+003, 9.177173e-003
2.888843e+003, 1.014617e-002
2.890771e+003, 1.026570e-002
2.892700e+003, 8.990772e-003
2.894628e+003, 8.598739e-003
2.896557e+003, 8.488781e-003
2.898485e+003, 8.815570e-003
2.900414e+003, 9.943554e-003
2.902342e+003, 9.916202e-003
2.904271e+003, 9.736659e-003
2.906199e+003, 1.023943e-002
2.908128e+003, 1.001920e-002
2.910056e+003, 1.039057e-002
2.911985e+003, 1.092264e-002
2.913913e+003, 1.059012e-002
2.915842e+003, 1.064133e-002
2.917770e+003, 1.130188e-002
2.919698e+003, 1.170973e-002
2.921627e+003, 1.117854e-002
2.923555e+003, 1.077005e-002
2.925484e+003, 1.081996e-002
2.927412e+003, 1.156110e-002
2.929341e+003, 1.177336e-002
2.931269e+003, 1.138046e-002
2.933198e+003, 1.133087e-002
2.935126e+003, 1.130681e-002
2.937055e+003, 1.159923e-002
2.938983e+003, 1.189808e-002
2.940912e+003, 1.122825e-002
2.942840e+003, 1.054171e-002
2.944769e+003, 1.052324e-002
2.946697e+003, 1.100198e-002
2.948625e+003, 1.097857e-002
2.950554e+003, 1.155086e-002
2.952482e+003, 1.173716e-002
2.954411e+003, 1.164544e-002
2.956339e+003, 1.167064e-002
2.958268e+003, 1.148701e-002
2.960196e+003, 1.141124e-002
2.962125e+003, 1.130944e-002
2.964053e+003, 1.083644e-002
2.965982e+003, 1.001407e-002
2.967910e+003, 1.037105e-002
2.969839e+003, 1.008564e-002
2.971767e+003, 1.050448e-002
2.973696e+003, 1.089147e-002
2.975624e+003, 1.125919e-002
2.977552e+003, 1.134043e-002
2.979481e+003, 1.109606e-002
2.981409e+003, 1.034226e-002
2.983338e+003, 1.012535e-002
2.985266e+003, 1.050717e-002
2.987195e+003, 1.023340e-002
2.989123e+003, 1.017345e-002
2.991052e+003, 1.047537e-002
2.992980e+003, 9.885299e-003
2.994909e+003, 9.404648e-003
2.996837e+003, 9.848584e-003
2.998766e+003, 1.079712e-002
3.000694e+003, 1.103758e-002
3.002623e+003, 1.098522e-002
3.004551e+003, 1.098449e-002
3.006479e+003, 1.072673e-002
3.008408e+003, 1.022222e-002
3.010336e+003, 1.062857e-002
3.012265e+003, 1.077970e-002
3.014193e+003, 1.019707e-002
3.016122e+003, 1.068534e-002
3.018050e+003, 1.092082e-002
3.019979e+003, 1.049040e-002
3.021907e+003, 1.148745e-002
3.023836e+003, 1.252187e-002
3.025764e+003, 1.222599e-002
3.027693e+003, 1.206948e-002
3.029621e+003, 1.216510e-002
3.031550e+003, 1.174784e-002
3.033478e+003, 1.201888e-002
3.035406e+003, 1.319213e-002
3.037335e+003, 1.326219e-002
3.039263e+003, 1.200156e-002
3.041192e+003, 1.237543e-002
3.043120e+003, 1.291449e-002
3.045049e+003, 1.343797e-002
3.046977e+003, 1.334551e-002
3.048906e+003, 1.259449e-002
3.050834e+003, 1.287099e-002
3.052763e+003, 1.381337e-002
3.054691e+003, 1.318998e-002
3.056620e+003, 1.196272e-002
3.058548e+003, 1.132127e-002
3.060477e+003, 1.161257e-002
3.062405e+003, 1.213106e-002
3.064333e+003, 1.220027e-002
3.066262e+003, 1.272213e-002
3.068190e+003, 1.219154e-002
3.070119e+003, 1.193173e-002
3.072047e+003, 1.343125e-002
3.073976e+003, 1.345234e-002
3.075904e+003, 1.321919e-002
3.077833e+003, 1.363912e-002
3.079761e+003, 1.340977e-002
3.081690e+003, 1.354387e-002
3.083618e+003, 1.313807e-002
3.085547e+003, 1.330364e-002
3.087475e+003, 1.418984e-002
3.089404e+003, 1.339079e-002
3.091332e+003, 1.356485e-002
3.093260e+003, 1.468787e-002
3.095189e+003, 1.472589e-002
3.097117e+003, 1.486774e-002
3.099046e+003, 1.463441e-002
3.100974e+003, 1.451271e-002
3.102903e+003, 1.445122e-002
3.104831e+003, 1.394008e-002
3.106760e+003, 1.418383e-002
3.108688e+003, 1.516889e-002
3.110617e+003, 1.526145e-002
3.112545e+003, 1.455151e-002
3.114474e+003, 1.376407e-002
3.116402e+003, 1.396749e-002
3.118331e+003, 1.523475e-002
3.120259e+003, 1.589300e-002
3.122188e+003, 1.499799e-002
3.124116e+003, 1.559806e-002
3.126044e+003, 1.652450e-002
3.127973e+003, 1.613323e-002
3.129901e+003, 1.603450e-002
3.131830e+003, 1.549093e-002
3.133758e+003, 1.522776e-002
3.135687e+003, 1.528109e-002
3.137615e+003, 1.538564e-002
3.139544e+003, 1.552602e-002
3.141472e+003, 1.600976e-002
3.143401e+003, 1.553464e-002
3.145329e+003, 1.535280e-002
3.147258e+003, 1.565230e-002
3.149186e+003, 1.634786e-002
3.151115e+003, 1.668866e-002
3.153043e+003, 1.632300e-002
3.154971e+003, 1.497083e-002
3.156900e+003, 1.528425e-002
3.158828e+003, 1.602799e-002
3.160757e+003, 1.619568e-002
3.162685e+003, 1.649955e-002
3.164614e+003, 1.714099e-002
3.166542e+003, 1.773861e-002
3.168471e+003, 1.731518e-002
3.170399e+003, 1.671207e-002
3.172328e+003, 1.714134e-002
3.174256e+003, 1.765331e-002
3.176185e+003, 1.762949e-002
3.178113e+003, 1.835590e-002
3.180042e+003, 1.875249e-002
3.181970e+003, 1.857162e-002
3.183898e+003, 1.844710e-002
3.185827e+003, 1.843258e-002
3.187755e+003, 1.827347e-002
3.189684e+003, 1.861918e-002
3.191612e+003, 1.914300e-002
3.193541e+003, 1.850776e-002
3.195469e+003, 1.801922e-002
3.197398e+003, 1.831872e-002
3.199326e+003, 1.853620e-002
3.201255e+003, 1.884145e-002
3.203183e+003, 2.011563e-002
3.205112e+003, 2.032243e-002
3.207040e+003, 1.891005e-002
3.208969e+003, 1.915422e-002
3.210897e+003, 2.005717e-002
3.212825e+003, 1.957633e-002
3.214754e+003, 1.869983e-002
3.216682e+003, 1.903367e-002
3.218611e+003, 1.996650e-002
3.220539e+003, 1.994691e-002
3.222468e+003, 1.934138e-002
3.224396e+003, 1.977831e-002
3.226325e+003, 2.045762e-002
3.228253e+003, 2.053569e-002
3.230182e+003, 1.997841e-002
3.232110e+003, 1.860299e-002
3.234039e+003, 1.892962e-002
3.235967e+003, 1.946327e-002
3.237896e+003, 1.927422e-002
3.239824e+003, 1.983603e-002
3.241752e+003, 2.138036e-002
3.243681e+003, 2.290829e-002
3.245609e+003, 2.273179e-002
3.247538e+003, 2.123490e-002
3.249466e+003, 2.064992e-002
3.251395e+003, 2.102462e-002
3.253323e+003, 2.057707e-002
3.255252e+003, 2.028085e-002
3.257180e+003, 2.007457e-002
3.259109e+003, 2.031394e-002
3.261037e+003, 2.160724e-002
3.262966e+003, 2.215971e-002
3.264894e+003, 2.249980e-002
3.266823e+003, 2.273831e-002
3.268751e+003, 2.181156e-002
3.270679e+003, 2.112458e-002
3.272608e+003, 2.150876e-002
3.274536e+003, 2.059032e-002
3.276465e+003, 2.052609e-002
3.278393e+003, 2.058079e-002
3.280322e+003, 2.114763e-002
3.282250e+003, 2.211054e-002
3.284179e+003, 2.249398e-002
3.286107e+003, 2.269665e-002
3.288036e+003, 2.193563e-002
3.289964e+003, 2.135193e-002
3.291893e+003, 2.290456e-002
3.293821e+003, 2.339564e-002
3.295750e+003, 2.145795e-002
3.297678e+003, 2.041984e-002
3.299606e+003, 2.104666e-002
3.301535e+003, 2.170513e-002
3.303463e+003, 2.155470e-002
3.305392e+003, 2.150056e-002
3.307320e+003, 2.263741e-002
3.309249e+003, 2.351855e-002
3.311177e+003, 2.259249e-002
3.313106e+003, 2.094928e-002
3.315034e+003, 2.195591e-002
3.316963e+003, 2.365039e-002
3.318891e+003, 2.408052e-002
3.320820e+003, 2.425834e-002
3.322748e+003, 2.393552e-002
3.324677e+003, 2.188445e-002
3.326605e+003, 2.164989e-002
3.328533e+003, 2.280429e-002
3.330462e+003, 2.368398e-002
3.332390e+003, 2.388708e-002
3.334319e+003, 2.303504e-002
3.336247e+003, 2.444273e-002
3.338176e+003, 2.461128e-002
3.340104e+003, 2.325537e-002
3.342033e+003, 2.288625e-002
3.343961e+003, 2.290699e-002
3.345890e+003, 2.334296e-002
3.347818e+003, 2.445478e-002
3.349747e+003, 2.480681e-002
3.351675e+003, 2.300509e-002
3.353604e+003, 2.200800e-002
3.355532e+003, 2.340551e-002
3.357460e+003, 2.584986e-002
3.359389e+003, 2.624801e-002
3.361317e+003, 2.401660e-002
3.363246e+003, 2.373684e-002
3.365174e+003, 2.424365e-002
3.367103e+003, 2.446514e-002
3.369031e+003, 2.463427e-002
3.370960e+003, 2.437800e-002
3.372888e+003, 2.499225e-002
3.374817e+003, 2.406388e-002
3.376745e+003, 2.294759e-002
3.378674e+003, 2.389710e-002
3.380602e+003, 2.616874e-002
3.382531e+003, 2.620700e-002
3.384459e+003, 2.562693e-002
3.386387e+003, 2.542050e-002
3.388316e+003, 2.431221e-002
3.390244e+003, 2.350037e-002
3.392173e+003, 2.274511e-002
3.394101e+003, 2.285686e-002
3.396030e+003, 2.322843e-002
3.397958e+003, 2.318178e-002
3.399887e+003, 2.328793e-002
3.401815e+003, 2.368168e-002
3.403744e+003, 2.471035e-002
3.405672e+003, 2.486342e-002
3.407601e+003, 2.398277e-002
3.409529e+003, 2.329772e-002
3.411458e+003, 2.429490e-002
3.413386e+003, 2.393529e-002
3.415314e+003, 2.422078e-002
3.417243e+003, 2.546822e-002
3.419171e+003, 2.493037e-002
3.421100e+003, 2.493306e-002
3.423028e+003, 2.502687e-002
3.424957e+003, 2.382117e-002
3.426885e+003, 2.391629e-002
3.428814e+003, 2.531834e-002
3.430742e+003, 2.654967e-002
3.432671e+003, 2.691964e-002
3.434599e+003, 2.553191e-002
3.436528e+003, 2.448570e-002
3.438456e+003, 2.328070e-002
3.440385e+003, 2.269616e-002
3.442313e+003, 2.331120e-002
3.444241e+003, 2.456002e-002
3.446170e+003, 2.615463e-002
3.448098e+003, 2.720609e-002
3.450027e+003, 2.593046e-002
3.451955e+003, 2.522204e-002
3.453884e+003, 2.542177e-002
3.455812e+003, 2.464534e-002
3.457741e+003, 2.466677e-002
3.459669e+003, 2.504887e-002
3.461598e+003, 2.459189e-002
3.463526e+003, 2.405196e-002
3.465455e+003, 2.484586e-002
3.467383e+003, 2.472543e-002
3.469312e+003, 2.463071e-002
3.471240e+003, 2.385980e-002
3.473168e+003, 2.318385e-002
3.475097e+003, 2.332362e-002
3.477025e+003, 2.364535e-002
3.478954e+003, 2.507871e-002
3.480882e+003, 2.563581e-002
3.482811e+003, 2.555916e-002
3.484739e+003, 2.416916e-002
3.486668e+003, 2.315882e-002
3.488596e+003, 2.294809e-002
3.490525e+003, 2.408656e-002
3.492453e+003, 2.505371e-002
3.494382e+003, 2.469967e-002
3.496310e+003, 2.367247e-002
3.498239e+003, 2.267162e-002
3.500167e+003, 2.354968e-002
3.502095e+003, 2.561237e-002
3.504024e+003, 2.634584e-002
3.505952e+003, 2.456798e-002
3.507881e+003, 2.194346e-002
3.509809e+003, 2.174482e-002
3.511738e+003, 2.346643e-002
3.513666e+003, 2.434955e-002
3.515595e+003, 2.355603e-002
3.517523e+003, 2.262659e-002
3.519452e+003, 2.118520e-002
3.521380e+003, 2.160139e-002
3.523309e+003, 2.235211e-002
3.525237e+003, 2.187506e-002
3.527166e+003, 2.269791e-002
3.529094e+003, 2.306017e-002
3.531022e+003, 2.167573e-002
3.532951e+003, 2.209447e-002
3.534879e+003, 2.317540e-002
3.536808e+003, 2.146317e-002
3.538736e+003, 2.145310e-002
3.540665e+003, 2.149072e-002
3.542593e+003, 2.154683e-002
3.544522e+003, 2.123171e-002
3.546450e+003, 2.055703e-002
3.548379e+003, 2.052445e-002
3.550307e+003, 1.998618e-002
3.552236e+003, 1.956635e-002
3.554164e+003, 2.082019e-002
3.556093e+003, 2.199205e-002
3.558021e+003, 2.104810e-002
3.559949e+003, 2.066937e-002
3.561878e+003, 2.120532e-002
3.563806e+003, 2.191885e-002
3.565735e+003, 2.207253e-002
3.567663e+003, 2.265202e-002
3.569592e+003, 2.058112e-002
3.571520e+003, 1.946702e-002
3.573449e+003, 1.985260e-002
3.575377e+003, 1.945184e-002
3.577306e+003, 1.910616e-002
3.579234e+003, 2.024336e-002
3.581163e+003, 2.163994e-002
3.583091e+003, 2.081903e-002
3.585020e+003, 2.040218e-002
3.586948e+003, 1.974407e-002
3.588876e+003, 2.004944e-002
3.590805e+003, 1.986584e-002
3.592733e+003, 2.060292e-002
3.594662e+003, 2.049663e-002
3.596590e+003, 2.029759e-002
3.598519e+003, 2.102951e-002
3.600447e+003, 2.092734e-002
3.602376e+003, 1.975767e-002
3.604304e+003, 1.966643e-002
3.606233e+003, 2.060536e-002
3.608161e+003, 2.097965e-002
3.610090e+003, 2.074219e-002
3.612018e+003, 2.129896e-002
3.613947e+003, 2.346314e-002
3.615875e+003, 2.434151e-002
3.617803e+003, 2.407414e-002
3.619732e+003, 2.413655e-002
3.621660e+003, 2.308407e-002
3.623589e+003, 2.075915e-002
3.625517e+003, 1.981249e-002
3.627446e+003, 2.048565e-002
3.629374e+003, 1.825039e-002
3.631303e+003, 1.644616e-002
3.633231e+003, 1.959927e-002
3.635160e+003, 1.920016e-002
3.637088e+003, 1.726386e-002
3.639017e+003, 1.778967e-002
3.640945e+003, 1.771360e-002
3.642874e+003, 1.513639e-002
3.644802e+003, 1.379373e-002
3.646730e+003, 1.407374e-002
3.648659e+003, 1.525082e-002
3.650587e+003, 1.712392e-002
3.652516e+003, 1.827805e-002
3.654444e+003, 1.842480e-002
3.656373e+003, 1.603029e-002
3.658301e+003, 1.422765e-002
3.660230e+003, 1.469573e-002
3.662158e+003, 1.521141e-002
3.664087e+003, 1.454166e-002
3.666015e+003, 1.436705e-002
3.667944e+003, 1.645305e-002
3.669872e+003, 1.526765e-002
3.671801e+003, 1.360827e-002
3.673729e+003, 1.356932e-002
3.675657e+003, 1.244984e-002
3.677586e+003, 1.063715e-002
3.679514e+003, 8.215981e-003
3.681443e+003, 7.044589e-003
3.683371e+003, 9.293407e-003
3.685300e+003, 1.123134e-002
3.687228e+003, 1.200040e-002
3.689157e+003, 1.312539e-002
3.691085e+003, 1.214021e-002
3.693014e+003, 1.014890e-002
3.694942e+003, 1.007926e-002
3.696871e+003, 1.110094e-002
3.698799e+003, 1.197886e-002
3.700728e+003, 1.200086e-002
3.702656e+003, 1.088802e-002
3.704584e+003, 9.527346e-003
3.706513e+003, 7.166044e-003
3.708441e+003, 8.450524e-003
3.710370e+003, 1.029064e-002
3.712298e+003, 9.699292e-003
3.714227e+003, 9.245782e-003
3.716155e+003, 9.218847e-003
3.718084e+003, 1.092263e-002
3.720012e+003, 1.144953e-002
3.721941e+003, 1.110836e-002
3.723869e+003, 9.767405e-003
3.725798e+003, 8.486800e-003
3.727726e+003, 7.327802e-003
3.729655e+003, 7.836859e-003
3.731583e+003, 8.304494e-003
3.733511e+003, 8.490029e-003
3.735440e+003, 1.017671e-002
3.737368e+003, 1.071531e-002
3.739297e+003, 9.926271e-003
3.741225e+003, 1.045270e-002
3.743154e+003, 9.956780e-003
3.745082e+003, 9.940892e-003
3.747011e+003, 1.090139e-002
3.748939e+003, 1.096988e-002
3.750868e+003, 1.205735e-002
3.752796e+003, 1.107260e-002
3.754725e+003, 8.088183e-003
3.756653e+003, 7.632278e-003
3.758582e+003, 9.094682e-003
3.760510e+003, 1.139626e-002
3.762438e+003, 1.110122e-002
3.764367e+003, 9.868064e-003
3.766295e+003, 9.341421e-003
3.768224e+003, 8.557136e-003
3.770152e+003, 8.696238e-003
3.772081e+003, 1.013973e-002
3.774009e+003, 1.214014e-002
3.775938e+003, 1.116528e-002
3.777866e+003, 8.595198e-003
3.779795e+003, 8.192617e-003
3.781723e+003, 9.644556e-003
3.783652e+003, 9.472548e-003
3.785580e+003, 7.369531e-003
3.787509e+003, 8.757148e-003
3.789437e+003, 1.066623e-002
3.791365e+003, 1.067224e-002
3.793294e+003, 9.889627e-003
3.795222e+003, 1.046766e-002
3.797151e+003, 1.093025e-002
3.799079e+003, 9.980877e-003
3.801008e+003, 7.402281e-003
3.802936e+003, 8.353200e-003
3.804865e+003, 9.168376e-003
3.806793e+003, 1.033598e-002
3.808722e+003, 1.014155e-002
3.810650e+003, 8.176655e-003
3.812579e+003, 7.518867e-003
3.814507e+003, 9.482935e-003
3.816436e+003, 9.867331e-003
3.818364e+003, 6.830422e-003
3.820292e+003, 6.608765e-003
3.822221e+003, 7.620132e-003
3.824149e+003, 7.671552e-003
3.826078e+003, 9.909051e-003
3.828006e+003, 9.175256e-003
3.829935e+003, 8.785868e-003
3.831863e+003, 1.041615e-002
3.833792e+003, 9.359235e-003
3.835720e+003, 8.764146e-003
3.837649e+003, 1.103604e-002
3.839577e+003, 1.203000e-002
3.841506e+003, 9.242369e-003
3.843434e+003, 7.732433e-003
3.845363e+003, 8.692779e-003
3.847291e+003, 9.730795e-003
3.849219e+003, 9.608316e-003
3.851148e+003, 9.828342e-003
3.853076e+003, 1.047494e-002
3.855005e+003, 9.459095e-003
3.856933e+003, 9.838132e-003
3.858862e+003, 1.136537e-002
3.860790e+003, 1.229570e-002
3.862719e+003, 1.155092e-002
3.864647e+003, 1.052327e-002
3.866576e+003, 1.077574e-002
3.868504e+003, 1.120680e-002
3.870433e+003, 1.049454e-002
3.872361e+003, 1.149176e-002
3.874290e+003, 1.438655e-002
3.876218e+003, 1.422194e-002
3.878146e+003, 1.262688e-002
3.880075e+003, 1.129425e-002
3.882003e+003, 1.033238e-002
3.883932e+003, 8.973649e-003
3.885860e+003, 8.020924e-003
3.887789e+003, 9.393861e-003
3.889717e+003, 1.056405e-002
3.891646e+003, 9.482507e-003
3.893574e+003, 9.491613e-003
3.895503e+003, 1.031396e-002
3.897431e+003, 1.252190e-002
3.899360e+003, 1.389380e-002
3.901288e+003, 1.161214e-002
3.903217e+003, 1.104523e-002
3.905145e+003, 1.001525e-002
3.907073e+003, 1.115636e-002
3.909002e+003, 1.279992e-002
3.910930e+003, 1.142361e-002
3.912859e+003, 1.036353e-002
3.914787e+003, 1.003653e-002
3.916716e+003, 9.737542e-003
3.918644e+003, 1.135000e-002
3.920573e+003, 1.169150e-002
3.922501e+003, 1.108744e-002
3.924430e+003, 1.259067e-002
3.926358e+003, 1.327771e-002
3.928287e+003, 1.275359e-002
3.930215e+003, 1.270704e-002
3.932144e+003, 1.088638e-002
3.934072e+003, 9.466690e-003
3.936000e+003, 1.047396e-002
3.937929e+003, 1.277667e-002
3.939857e+003, 1.244641e-002
3.941786e+003, 1.151233e-002
3.943714e+003, 1.119665e-002
3.945643e+003, 1.177382e-002
3.947571e+003, 1.262869e-002
3.949500e+003, 1.358148e-002
3.951428e+003, 1.274038e-002
3.953357e+003, 1.160782e-002
3.955285e+003, 1.117424e-002
3.957214e+003, 9.575647e-003
3.959142e+003, 7.996188e-003
3.961071e+003, 8.669157e-003
3.962999e+003, 1.109222e-002
3.964927e+003, 1.077265e-002
3.966856e+003, 9.776105e-003
3.968784e+003, 9.502216e-003
3.970713e+003, 9.013825e-003
3.972641e+003, 1.061746e-002
3.974570e+003, 1.233483e-002
3.976498e+003, 1.198113e-002
3.978427e+003, 1.327225e-002
3.980355e+003, 1.563300e-002
3.982284e+003, 1.366030e-002
3.984212e+003, 1.140496e-002
3.986141e+003, 1.097529e-002
3.988069e+003, 1.170755e-002
3.989998e+003, 1.332017e-002
3.991926e+003, 1.328941e-002
3.993854e+003, 1.208898e-002
3.995783e+003, 1.046812e-002
3.997711e+003, 9.998405e-003
3.999640e+003, 1.000347e-002
##END=



