##NAMES=Triphylite
##RRUFFID=R050494
##IDEAL CHEMISTRY=LiFe^2+^PO_4_
##LOCALITY=Big Chief mine, Glendale, Pennington County, South Dakota, USA
##OWNER=RRUFF
##SOURCE=California Institute of Technology
##DESCRIPTION=Bluish gray fragment
##STATUS=The identification of this mineral has been confirmed by X-ray diffraction and chemical analysis
##URL=rruff.info/R050494
##MEASURED CHEMISTRY=Li_1.00_(Fe^2+^_0.75_Mn^2+^_0.23_Mg_0.02_)_Î£=1_P_1.00_O_4_ ; Li not measured but estimated by difference
3.953357e+002, 4.917428e-002
3.972641e+002, 4.917166e-002
3.991926e+002, 4.987752e-002
4.011211e+002, 4.800905e-002
4.030495e+002, 4.502792e-002
4.049780e+002, 4.199116e-002
4.069065e+002, 4.187502e-002
4.088349e+002, 4.204040e-002
4.107634e+002, 4.236660e-002
4.126919e+002, 4.217756e-002
4.146203e+002, 3.931778e-002
4.165488e+002, 3.799458e-002
4.184773e+002, 3.866758e-002
4.204057e+002, 3.900012e-002
4.223342e+002, 3.908766e-002
4.242627e+002, 3.850758e-002
4.261911e+002, 3.865498e-002
4.281196e+002, 3.945545e-002
4.300481e+002, 4.012644e-002
4.319765e+002, 4.114332e-002
4.339050e+002, 4.272803e-002
4.358335e+002, 4.358346e-002
4.377619e+002, 4.363248e-002
4.396904e+002, 4.409987e-002
4.416189e+002, 4.496112e-002
4.435473e+002, 4.670515e-002
4.454758e+002, 4.882660e-002
4.474043e+002, 5.117789e-002
4.493327e+002, 5.324079e-002
4.512612e+002, 5.581509e-002
4.531897e+002, 5.893530e-002
4.551181e+002, 6.171763e-002
4.570466e+002, 6.472038e-002
4.589751e+002, 6.806889e-002
4.609035e+002, 7.085958e-002
4.628320e+002, 7.224138e-002
4.647605e+002, 7.191222e-002
4.666889e+002, 7.161014e-002
4.686174e+002, 7.093293e-002
4.705459e+002, 6.991612e-002
4.724743e+002, 6.791419e-002
4.744028e+002, 6.574640e-002
4.763313e+002, 6.429451e-002
4.782597e+002, 6.296871e-002
4.801882e+002, 6.149692e-002
4.821167e+002, 6.015007e-002
4.840451e+002, 5.908285e-002
4.859736e+002, 5.875946e-002
4.879021e+002, 5.860285e-002
4.898305e+002, 5.831981e-002
4.917590e+002, 5.806489e-002
4.936875e+002, 5.769202e-002
4.956159e+002, 5.717718e-002
4.975444e+002, 5.657884e-002
4.994729e+002, 5.524863e-002
5.014013e+002, 5.376246e-002
5.033298e+002, 5.205309e-002
5.052583e+002, 5.051142e-002
5.071867e+002, 4.960752e-002
5.091152e+002, 4.834464e-002
5.110437e+002, 4.775108e-002
5.129721e+002, 4.739273e-002
5.149006e+002, 4.628267e-002
5.168290e+002, 4.552868e-002
5.187575e+002, 4.484097e-002
5.206860e+002, 4.346028e-002
5.226144e+002, 4.232019e-002
5.245429e+002, 4.171694e-002
5.264714e+002, 4.096195e-002
5.283998e+002, 4.021914e-002
5.303283e+002, 4.045468e-002
5.322568e+002, 4.053304e-002
5.341852e+002, 4.024964e-002
5.361137e+002, 4.111306e-002
5.380422e+002, 4.302025e-002
5.399706e+002, 4.597845e-002
5.418991e+002, 5.005614e-002
5.438276e+002, 5.493385e-002
5.457560e+002, 5.909641e-002
5.476845e+002, 6.081371e-002
5.496130e+002, 6.021395e-002
5.515414e+002, 5.796751e-002
5.534699e+002, 5.392915e-002
5.553984e+002, 4.858482e-002
5.573268e+002, 4.362995e-002
5.592553e+002, 3.930109e-002
5.611838e+002, 3.587614e-002
5.631122e+002, 3.350079e-002
5.650407e+002, 3.271339e-002
5.669692e+002, 3.315816e-002
5.688976e+002, 3.503564e-002
5.708261e+002, 3.848745e-002
5.727546e+002, 4.203961e-002
5.746830e+002, 4.424932e-002
5.766115e+002, 4.430606e-002
5.785400e+002, 4.272665e-002
5.804684e+002, 3.983117e-002
5.823969e+002, 3.563008e-002
5.843254e+002, 3.073265e-002
5.862538e+002, 2.607874e-002
5.881823e+002, 2.196786e-002
5.901108e+002, 1.833976e-002
5.920392e+002, 1.587711e-002
5.939677e+002, 1.435211e-002
5.958962e+002, 1.328338e-002
5.978246e+002, 1.252629e-002
5.997531e+002, 1.183770e-002
6.016816e+002, 1.149109e-002
6.036100e+002, 1.126429e-002
6.055385e+002, 1.132805e-002
6.074670e+002, 1.167954e-002
6.093954e+002, 1.185602e-002
6.113239e+002, 1.248106e-002
6.132524e+002, 1.335605e-002
6.151808e+002, 1.452622e-002
6.171093e+002, 1.628648e-002
6.190378e+002, 1.886623e-002
6.209662e+002, 2.192743e-002
6.228947e+002, 2.578535e-002
6.248232e+002, 3.093900e-002
6.267516e+002, 3.722864e-002
6.286801e+002, 4.450332e-002
6.306086e+002, 5.218437e-002
6.325370e+002, 5.830406e-002
6.344655e+002, 6.172110e-002
6.363940e+002, 6.269757e-002
6.383224e+002, 6.163084e-002
6.402509e+002, 5.922712e-002
6.421794e+002, 5.623955e-002
6.441078e+002, 5.284472e-002
6.460363e+002, 4.838347e-002
6.479648e+002, 4.256313e-002
6.498932e+002, 3.561150e-002
6.518217e+002, 2.863255e-002
6.537502e+002, 2.211013e-002
6.556786e+002, 1.671051e-002
6.576071e+002, 1.269271e-002
6.595356e+002, 1.010315e-002
6.614641e+002, 8.703905e-003
6.633925e+002, 7.823338e-003
6.653210e+002, 7.198808e-003
6.672495e+002, 6.738152e-003
6.691779e+002, 6.223842e-003
6.711064e+002, 5.747888e-003
6.730349e+002, 5.592924e-003
6.749633e+002, 5.463907e-003
6.768918e+002, 5.280560e-003
6.788203e+002, 5.244133e-003
6.807487e+002, 5.147348e-003
6.826772e+002, 5.043760e-003
6.846057e+002, 5.054675e-003
6.865341e+002, 5.044296e-003
6.884626e+002, 4.927680e-003
6.903911e+002, 4.733245e-003
6.923195e+002, 4.736119e-003
6.942480e+002, 4.811515e-003
6.961765e+002, 5.014585e-003
6.981049e+002, 4.976401e-003
7.000334e+002, 4.930642e-003
7.019619e+002, 4.854925e-003
7.038903e+002, 4.814096e-003
7.058188e+002, 4.869369e-003
7.077473e+002, 4.977355e-003
7.096757e+002, 5.105700e-003
7.116042e+002, 5.148920e-003
7.135327e+002, 5.207745e-003
7.154611e+002, 5.487891e-003
7.173896e+002, 5.587307e-003
7.193181e+002, 5.509939e-003
7.212465e+002, 5.543933e-003
7.231750e+002, 5.691624e-003
7.251035e+002, 5.986991e-003
7.270319e+002, 6.082589e-003
7.289604e+002, 6.066383e-003
7.308889e+002, 6.090821e-003
7.328173e+002, 6.212422e-003
7.347458e+002, 6.438462e-003
7.366743e+002, 6.584956e-003
7.386027e+002, 6.673638e-003
7.405312e+002, 6.538786e-003
7.424597e+002, 6.602613e-003
7.443881e+002, 6.762958e-003
7.463166e+002, 6.797892e-003
7.482451e+002, 6.897392e-003
7.501735e+002, 7.176801e-003
7.521020e+002, 7.277197e-003
7.540305e+002, 7.358599e-003
7.559589e+002, 7.511214e-003
7.578874e+002, 7.561414e-003
7.598159e+002, 7.708026e-003
7.617443e+002, 7.829407e-003
7.636728e+002, 8.012326e-003
7.656013e+002, 8.207454e-003
7.675297e+002, 8.391535e-003
7.694582e+002, 8.539004e-003
7.713867e+002, 8.734565e-003
7.733151e+002, 8.835794e-003
7.752436e+002, 9.019755e-003
7.771721e+002, 9.363486e-003
7.791005e+002, 9.677129e-003
7.810290e+002, 9.872423e-003
7.829575e+002, 1.009924e-002
7.848859e+002, 1.036194e-002
7.868144e+002, 1.047279e-002
7.887429e+002, 1.060431e-002
7.906713e+002, 1.100249e-002
7.925998e+002, 1.134327e-002
7.945283e+002, 1.153351e-002
7.964567e+002, 1.177333e-002
7.983852e+002, 1.195491e-002
8.003137e+002, 1.215249e-002
8.022421e+002, 1.244418e-002
8.041706e+002, 1.272240e-002
8.060991e+002, 1.299009e-002
8.080275e+002, 1.339889e-002
8.099560e+002, 1.380310e-002
8.118845e+002, 1.410543e-002
8.138129e+002, 1.429539e-002
8.157414e+002, 1.465581e-002
8.176699e+002, 1.511248e-002
8.195983e+002, 1.554185e-002
8.215268e+002, 1.590411e-002
8.234553e+002, 1.630369e-002
8.253837e+002, 1.677706e-002
8.273122e+002, 1.729584e-002
8.292407e+002, 1.776150e-002
8.311691e+002, 1.811049e-002
8.330976e+002, 1.848960e-002
8.350261e+002, 1.899522e-002
8.369545e+002, 1.931974e-002
8.388830e+002, 1.965856e-002
8.408115e+002, 2.006944e-002
8.427399e+002, 2.059730e-002
8.446684e+002, 2.115865e-002
8.465969e+002, 2.168989e-002
8.485253e+002, 2.220833e-002
8.504538e+002, 2.272488e-002
8.523823e+002, 2.343848e-002
8.543107e+002, 2.420616e-002
8.562392e+002, 2.491545e-002
8.581677e+002, 2.585992e-002
8.600961e+002, 2.664097e-002
8.620246e+002, 2.731718e-002
8.639531e+002, 2.798663e-002
8.658815e+002, 2.878191e-002
8.678100e+002, 2.965704e-002
8.697385e+002, 3.044536e-002
8.716669e+002, 3.112813e-002
8.735954e+002, 3.195508e-002
8.755239e+002, 3.288143e-002
8.774523e+002, 3.369603e-002
8.793808e+002, 3.451469e-002
8.813093e+002, 3.550653e-002
8.832377e+002, 3.656035e-002
8.851662e+002, 3.761823e-002
8.870947e+002, 3.868017e-002
8.890231e+002, 3.977199e-002
8.909516e+002, 4.095117e-002
8.928801e+002, 4.209858e-002
8.948085e+002, 4.331313e-002
8.967370e+002, 4.483439e-002
8.986655e+002, 4.650363e-002
9.005939e+002, 4.803150e-002
9.025224e+002, 4.958246e-002
9.044509e+002, 5.121648e-002
9.063793e+002, 5.295824e-002
9.083078e+002, 5.484993e-002
9.102363e+002, 5.690551e-002
9.121647e+002, 5.889241e-002
9.140932e+002, 6.095874e-002
9.160217e+002, 6.316800e-002
9.179501e+002, 6.530219e-002
9.198786e+002, 6.737518e-002
9.218071e+002, 6.966776e-002
9.237355e+002, 7.216525e-002
9.256640e+002, 7.467439e-002
9.275925e+002, 7.723759e-002
9.295209e+002, 7.983509e-002
9.314494e+002, 8.218044e-002
9.333779e+002, 8.433405e-002
9.353063e+002, 8.627458e-002
9.372348e+002, 8.799727e-002
9.391633e+002, 8.933690e-002
9.410917e+002, 9.021848e-002
9.430202e+002, 9.062783e-002
9.449487e+002, 9.051816e-002
9.468771e+002, 9.000462e-002
9.488056e+002, 8.987974e-002
9.507341e+002, 9.071680e-002
9.526625e+002, 9.173582e-002
9.545910e+002, 9.244529e-002
9.565195e+002, 9.310377e-002
9.584479e+002, 9.375602e-002
9.603764e+002, 9.423086e-002
9.623049e+002, 9.448662e-002
9.642333e+002, 9.446517e-002
9.661618e+002, 9.427147e-002
9.680903e+002, 9.399404e-002
9.700187e+002, 9.377469e-002
9.719472e+002, 9.340038e-002
9.738757e+002, 9.297362e-002
9.758041e+002, 9.255416e-002
9.777326e+002, 9.218260e-002
9.796611e+002, 9.172738e-002
9.815895e+002, 9.131808e-002
9.835180e+002, 9.118516e-002
9.854465e+002, 9.117179e-002
9.873749e+002, 9.105186e-002
9.893034e+002, 9.080386e-002
9.912319e+002, 9.024393e-002
9.931603e+002, 8.960584e-002
9.950888e+002, 8.889304e-002
9.970173e+002, 8.807455e-002
9.989457e+002, 8.721543e-002
1.000874e+003, 8.623742e-002
1.002803e+003, 8.493891e-002
1.004731e+003, 8.370654e-002
1.006660e+003, 8.283024e-002
1.008588e+003, 8.221021e-002
1.010517e+003, 8.168281e-002
1.012445e+003, 8.122098e-002
1.014373e+003, 8.113112e-002
1.016302e+003, 8.109977e-002
1.018230e+003, 8.115388e-002
1.020159e+003, 8.158041e-002
1.022087e+003, 8.226977e-002
1.024016e+003, 8.331842e-002
1.025944e+003, 8.469818e-002
1.027873e+003, 8.615088e-002
1.029801e+003, 8.748845e-002
1.031730e+003, 8.859491e-002
1.033658e+003, 8.935170e-002
1.035587e+003, 8.998725e-002
1.037515e+003, 9.055245e-002
1.039443e+003, 9.095667e-002
1.041372e+003, 9.127408e-002
1.043300e+003, 9.137818e-002
1.045229e+003, 9.159776e-002
1.047157e+003, 9.170180e-002
1.049086e+003, 9.156105e-002
1.051014e+003, 9.130958e-002
1.052943e+003, 9.107427e-002
1.054871e+003, 9.070780e-002
1.056800e+003, 8.995820e-002
1.058728e+003, 8.903552e-002
1.060657e+003, 8.792351e-002
1.062585e+003, 8.660321e-002
1.064514e+003, 8.515865e-002
1.066442e+003, 8.352841e-002
1.068370e+003, 8.169106e-002
1.070299e+003, 7.972337e-002
1.072227e+003, 7.745399e-002
1.074156e+003, 7.496905e-002
1.076084e+003, 7.224549e-002
1.078013e+003, 6.938043e-002
1.079941e+003, 6.666663e-002
1.081870e+003, 6.399018e-002
1.083798e+003, 6.147272e-002
1.085727e+003, 5.973152e-002
1.087655e+003, 5.961475e-002
1.089584e+003, 6.164575e-002
1.091512e+003, 6.520478e-002
1.093441e+003, 6.830669e-002
1.095369e+003, 6.853931e-002
1.097297e+003, 6.581795e-002
1.099226e+003, 6.173628e-002
1.101154e+003, 5.742222e-002
1.103083e+003, 5.341890e-002
1.105011e+003, 4.980222e-002
1.106940e+003, 4.617988e-002
1.108868e+003, 4.267472e-002
1.110797e+003, 3.938103e-002
1.112725e+003, 3.600688e-002
1.114654e+003, 3.261611e-002
1.116582e+003, 2.926445e-002
1.118511e+003, 2.609108e-002
1.120439e+003, 2.328069e-002
1.122368e+003, 2.081685e-002
1.124296e+003, 1.917607e-002
1.126224e+003, 1.856423e-002
1.128153e+003, 1.912445e-002
1.130081e+003, 2.149938e-002
1.132010e+003, 2.606443e-002
1.133938e+003, 3.181952e-002
1.135867e+003, 3.679799e-002
1.137795e+003, 3.915033e-002
1.139724e+003, 3.879937e-002
1.141652e+003, 3.669572e-002
1.143581e+003, 3.371514e-002
1.145509e+003, 3.054710e-002
1.147438e+003, 2.731836e-002
1.149366e+003, 2.414272e-002
1.151295e+003, 2.125688e-002
1.153223e+003, 1.856094e-002
1.155151e+003, 1.588192e-002
1.157080e+003, 1.325331e-002
1.159008e+003, 1.103367e-002
1.160937e+003, 9.303079e-003
1.162865e+003, 7.753719e-003
1.164794e+003, 6.264495e-003
1.166722e+003, 5.111662e-003
1.168651e+003, 4.383219e-003
1.170579e+003, 3.697436e-003
1.172508e+003, 3.219194e-003
1.174436e+003, 2.917891e-003
1.176365e+003, 2.514738e-003
1.178293e+003, 2.262895e-003
1.180222e+003, 2.019490e-003
1.182150e+003, 1.856957e-003
1.184078e+003, 1.665357e-003
1.186007e+003, 1.432688e-003
1.187935e+003, 1.398511e-003
1.189864e+003, 1.316862e-003
1.191792e+003, 1.194079e-003
1.193721e+003, 1.138372e-003
1.195649e+003, 9.866301e-004
1.197578e+003, 8.662686e-004
1.199506e+003, 8.157185e-004
1.201435e+003, 6.713733e-004
1.203363e+003, 5.569299e-004
1.205292e+003, 5.574260e-004
1.207220e+003, 5.738175e-004
1.209149e+003, 5.533580e-004
1.211077e+003, 4.370479e-004
1.213005e+003, 3.614513e-004
1.214934e+003, 3.444285e-004
1.216862e+003, 3.018104e-004
1.218791e+003, 2.629019e-004
1.220719e+003, 1.725279e-004
1.222648e+003, 1.212204e-004
1.224576e+003, 5.462446e-005
1.226505e+003, 2.070237e-005
1.228433e+003, -1.153335e-005
1.230362e+003, -7.313825e-005
1.232290e+003, -5.622098e-005
1.234219e+003, -8.835985e-005
1.236147e+003, -7.203108e-005
1.238076e+003, 4.256006e-005
1.240004e+003, 3.343280e-005
1.241932e+003, -1.403613e-005
1.243861e+003, 5.585104e-005
1.245789e+003, 9.739125e-005
1.247718e+003, 2.586206e-005
1.249646e+003, -1.876541e-005
1.251575e+003, -2.612167e-005
1.253503e+003, -1.830025e-005
1.255432e+003, -1.662038e-004
1.257360e+003, -2.410716e-004
1.259289e+003, -2.158247e-004
1.261217e+003, -1.848541e-004
1.263146e+003, -1.600241e-004
1.265074e+003, -7.304726e-005
1.267003e+003, -5.966996e-005
1.268931e+003, -1.316507e-005
1.270859e+003, -3.502601e-005
1.272788e+003, -8.764386e-005
1.274716e+003, -6.550565e-005
1.276645e+003, 3.093397e-005
1.278573e+003, 6.353061e-005
1.280502e+003, 1.156201e-004
1.282430e+003, 1.495999e-004
1.284359e+003, 7.578437e-005
1.286287e+003, 1.006717e-005
1.288216e+003, 3.049960e-005
1.290144e+003, 8.130887e-005
1.292073e+003, 1.016553e-004
1.294001e+003, 1.470258e-004
1.295930e+003, 1.508071e-005
1.297858e+003, 2.223403e-006
1.299786e+003, 1.082417e-004
1.301715e+003, 1.328833e-004
1.303643e+003, 1.586789e-004
1.305572e+003, 1.351341e-004
1.307500e+003, 1.278601e-004
1.309429e+003, 2.498887e-004
1.311357e+003, 3.402654e-004
1.313286e+003, 3.406589e-004
1.315214e+003, 3.109239e-004
1.317143e+003, 2.948995e-004
1.319071e+003, 3.556103e-004
1.321000e+003, 4.183918e-004
1.322928e+003, 3.274912e-004
1.324857e+003, 2.040145e-004
1.326785e+003, 2.475188e-004
1.328714e+003, 2.742475e-004
1.330642e+003, 2.404451e-004
1.332570e+003, 3.433881e-004
1.334499e+003, 3.212570e-004
1.336427e+003, 3.050911e-004
1.338356e+003, 3.491692e-004
1.340284e+003, 2.662601e-004
1.342213e+003, 2.682294e-004
1.344141e+003, 3.966170e-004
1.346070e+003, 4.284570e-004
1.347998e+003, 3.720721e-004
1.349927e+003, 4.564671e-004
1.351855e+003, 5.103109e-004
1.353784e+003, 4.537437e-004
1.355712e+003, 4.736574e-004
1.357641e+003, 5.328448e-004
1.359569e+003, 5.908518e-004
1.361497e+003, 6.753107e-004
1.363426e+003, 7.953006e-004
1.365354e+003, 6.934086e-004
1.367283e+003, 5.928808e-004
1.369211e+003, 6.054215e-004
1.371140e+003, 6.375466e-004
1.373068e+003, 6.250885e-004
1.374997e+003, 5.229423e-004
1.376925e+003, 4.920228e-004
1.378854e+003, 6.854043e-004
1.380782e+003, 7.756682e-004
1.382711e+003, 8.210562e-004
1.384639e+003, 9.300638e-004
1.386568e+003, 1.041283e-003
1.388496e+003, 1.028160e-003
1.390424e+003, 1.018730e-003
1.392353e+003, 1.031272e-003
1.394281e+003, 1.097388e-003
1.396210e+003, 1.120032e-003
1.398138e+003, 1.122681e-003
1.400067e+003, 1.215179e-003
1.401995e+003, 1.255432e-003
1.403924e+003, 1.304974e-003
1.405852e+003, 1.297564e-003
1.407781e+003, 1.311959e-003
1.409709e+003, 1.373714e-003
1.411638e+003, 1.374974e-003
1.413566e+003, 1.415762e-003
1.415495e+003, 1.590043e-003
1.417423e+003, 1.765403e-003
1.419351e+003, 1.832604e-003
1.421280e+003, 1.731048e-003
1.423208e+003, 1.772880e-003
1.425137e+003, 1.879747e-003
1.427065e+003, 1.804982e-003
1.428994e+003, 1.715779e-003
1.430922e+003, 1.765536e-003
1.432851e+003, 1.836808e-003
1.434779e+003, 1.959393e-003
1.436708e+003, 1.994688e-003
1.438636e+003, 1.936584e-003
1.440565e+003, 1.894462e-003
1.442493e+003, 1.898195e-003
1.444422e+003, 1.879174e-003
1.446350e+003, 1.976138e-003
1.448278e+003, 2.016562e-003
1.450207e+003, 1.953640e-003
1.452135e+003, 1.854121e-003
1.454064e+003, 1.848080e-003
1.455992e+003, 2.072502e-003
1.457921e+003, 2.010450e-003
1.459849e+003, 1.801974e-003
1.461778e+003, 1.715817e-003
1.463706e+003, 1.732034e-003
1.465635e+003, 1.731592e-003
1.467563e+003, 1.699938e-003
1.469492e+003, 1.758318e-003
1.471420e+003, 1.803743e-003
1.473349e+003, 1.790685e-003
1.475277e+003, 1.762450e-003
1.477205e+003, 1.664341e-003
1.479134e+003, 1.623329e-003
1.481062e+003, 1.692704e-003
1.482991e+003, 1.752259e-003
1.484919e+003, 1.657653e-003
1.486848e+003, 1.654872e-003
1.488776e+003, 1.622257e-003
1.490705e+003, 1.508998e-003
1.492633e+003, 1.520027e-003
1.494562e+003, 1.560068e-003
1.496490e+003, 1.662743e-003
1.498419e+003, 1.626413e-003
1.500347e+003, 1.490333e-003
1.502276e+003, 1.331882e-003
1.504204e+003, 1.347631e-003
1.506132e+003, 1.595542e-003
1.508061e+003, 1.445932e-003
1.509989e+003, 1.236327e-003
1.511918e+003, 1.343018e-003
1.513846e+003, 1.327148e-003
1.515775e+003, 1.146901e-003
1.517703e+003, 1.130738e-003
1.519632e+003, 1.258791e-003
1.521560e+003, 1.199880e-003
1.523489e+003, 1.134156e-003
1.525417e+003, 1.177675e-003
1.527346e+003, 1.082402e-003
1.529274e+003, 1.034500e-003
1.531203e+003, 9.887635e-004
1.533131e+003, 9.981081e-004
1.535059e+003, 9.936607e-004
1.536988e+003, 1.068315e-003
1.538916e+003, 1.200829e-003
1.540845e+003, 1.137599e-003
1.542773e+003, 1.121361e-003
1.544702e+003, 1.177077e-003
1.546630e+003, 1.012143e-003
1.548559e+003, 9.329426e-004
1.550487e+003, 1.044679e-003
1.552416e+003, 1.031721e-003
1.554344e+003, 1.034718e-003
1.556273e+003, 1.119011e-003
1.558201e+003, 1.294037e-003
1.560130e+003, 1.285389e-003
1.562058e+003, 1.050526e-003
1.563986e+003, 9.109944e-004
1.565915e+003, 9.174835e-004
1.567843e+003, 9.259106e-004
1.569772e+003, 1.040822e-003
1.571700e+003, 1.014944e-003
1.573629e+003, 9.256575e-004
1.575557e+003, 1.121713e-003
1.577486e+003, 1.219124e-003
1.579414e+003, 1.067831e-003
1.581343e+003, 1.027276e-003
1.583271e+003, 1.024500e-003
1.585200e+003, 9.975713e-004
1.587128e+003, 9.805282e-004
1.589057e+003, 9.740830e-004
1.590985e+003, 1.063605e-003
1.592913e+003, 1.055556e-003
1.594842e+003, 9.806994e-004
1.596770e+003, 9.447648e-004
1.598699e+003, 9.426357e-004
1.600627e+003, 9.842596e-004
1.602556e+003, 1.072134e-003
1.604484e+003, 1.115400e-003
1.606413e+003, 1.231975e-003
1.608341e+003, 1.123779e-003
1.610270e+003, 1.113390e-003
1.612198e+003, 1.227001e-003
1.614127e+003, 1.370371e-003
1.616055e+003, 1.529179e-003
1.617984e+003, 1.462903e-003
1.619912e+003, 1.333714e-003
1.621840e+003, 1.229968e-003
1.623769e+003, 1.208601e-003
1.625697e+003, 1.225166e-003
1.627626e+003, 1.255319e-003
1.629554e+003, 1.362418e-003
1.631483e+003, 1.267328e-003
1.633411e+003, 1.232525e-003
1.635340e+003, 1.261631e-003
1.637268e+003, 1.145061e-003
1.639197e+003, 1.064784e-003
1.641125e+003, 1.085221e-003
1.643054e+003, 1.286038e-003
1.644982e+003, 1.439710e-003
1.646911e+003, 1.448531e-003
1.648839e+003, 1.404981e-003
1.650767e+003, 1.538243e-003
1.652696e+003, 1.737540e-003
1.654624e+003, 1.377898e-003
1.656553e+003, 1.059489e-003
1.658481e+003, 1.175334e-003
1.660410e+003, 1.336163e-003
1.662338e+003, 1.266230e-003
1.664267e+003, 1.181114e-003
1.666195e+003, 1.239468e-003
1.668124e+003, 1.384165e-003
1.670052e+003, 1.281184e-003
1.671981e+003, 1.231359e-003
1.673909e+003, 1.341428e-003
1.675838e+003, 1.411650e-003
1.677766e+003, 1.315392e-003
1.679694e+003, 1.314144e-003
1.681623e+003, 1.312659e-003
1.683551e+003, 1.398860e-003
1.685480e+003, 1.427517e-003
1.687408e+003, 1.384253e-003
1.689337e+003, 1.497303e-003
1.691265e+003, 1.484331e-003
1.693194e+003, 1.357613e-003
1.695122e+003, 1.398908e-003
1.697051e+003, 1.363912e-003
1.698979e+003, 1.463179e-003
1.700908e+003, 1.600860e-003
1.702836e+003, 1.323322e-003
1.704765e+003, 1.186568e-003
1.706693e+003, 1.271546e-003
1.708621e+003, 1.328017e-003
1.710550e+003, 1.294743e-003
1.712478e+003, 1.337331e-003
1.714407e+003, 1.364364e-003
1.716335e+003, 1.554421e-003
1.718264e+003, 1.481467e-003
1.720192e+003, 1.323730e-003
1.722121e+003, 1.327296e-003
1.724049e+003, 1.160707e-003
1.725978e+003, 1.183804e-003
1.727906e+003, 1.296298e-003
1.729835e+003, 1.325970e-003
1.731763e+003, 1.362432e-003
1.733692e+003, 1.394196e-003
1.735620e+003, 1.305613e-003
1.737548e+003, 1.181147e-003
1.739477e+003, 1.289408e-003
1.741405e+003, 1.323587e-003
1.743334e+003, 1.334578e-003
1.745262e+003, 1.302897e-003
1.747191e+003, 1.230091e-003
1.749119e+003, 1.212089e-003
1.751048e+003, 1.240251e-003
1.752976e+003, 1.198545e-003
1.754905e+003, 1.314580e-003
1.756833e+003, 1.457479e-003
1.758762e+003, 1.280068e-003
1.760690e+003, 1.210279e-003
1.762619e+003, 1.334716e-003
1.764547e+003, 1.314076e-003
1.766475e+003, 1.331264e-003
1.768404e+003, 1.391101e-003
1.770332e+003, 1.350230e-003
1.772261e+003, 1.170757e-003
1.774189e+003, 9.806328e-004
1.776118e+003, 1.002648e-003
1.778046e+003, 1.143122e-003
1.779975e+003, 1.224911e-003
1.781903e+003, 1.270926e-003
1.783832e+003, 1.242267e-003
1.785760e+003, 1.080989e-003
1.787689e+003, 9.742414e-004
1.789617e+003, 9.949260e-004
1.791546e+003, 1.188637e-003
1.793474e+003, 1.406505e-003
1.795402e+003, 1.327013e-003
1.797331e+003, 1.120137e-003
1.799259e+003, 9.495778e-004
1.801188e+003, 1.059745e-003
1.803116e+003, 1.162810e-003
1.805045e+003, 9.337072e-004
1.806973e+003, 7.895186e-004
1.808902e+003, 8.835233e-004
1.810830e+003, 1.174025e-003
1.812759e+003, 1.244799e-003
1.814687e+003, 1.079058e-003
1.816616e+003, 8.090629e-004
1.818544e+003, 7.201587e-004
1.820473e+003, 8.137065e-004
1.822401e+003, 8.074803e-004
1.824329e+003, 8.946692e-004
1.826258e+003, 9.245564e-004
1.828186e+003, 7.602064e-004
1.830115e+003, 7.670624e-004
1.832043e+003, 1.102537e-003
1.833972e+003, 9.278349e-004
1.835900e+003, 4.889054e-004
1.837829e+003, 7.086659e-004
1.839757e+003, 1.026599e-003
1.841686e+003, 9.522576e-004
1.843614e+003, 8.708637e-004
1.845543e+003, 8.748823e-004
1.847471e+003, 7.104029e-004
1.849400e+003, 9.143488e-004
1.851328e+003, 9.703147e-004
1.853256e+003, 6.976509e-004
1.855185e+003, 7.021074e-004
1.857113e+003, 7.851697e-004
1.859042e+003, 6.709892e-004
1.860970e+003, 3.388642e-004
1.862899e+003, 4.450501e-004
1.864827e+003, 5.263662e-004
1.866756e+003, 5.644676e-004
1.868684e+003, 6.809024e-004
1.870613e+003, 8.623757e-004
1.872541e+003, 9.630699e-004
1.874470e+003, 8.720254e-004
1.876398e+003, 5.387279e-004
1.878327e+003, 5.517543e-004
1.880255e+003, 6.961925e-004
1.882183e+003, 5.385343e-004
1.884112e+003, 2.067092e-004
1.886040e+003, 1.212585e-004
1.887969e+003, 3.309361e-004
1.889897e+003, 5.104596e-004
1.891826e+003, 5.354639e-004
1.893754e+003, 6.273059e-004
1.895683e+003, 9.963015e-004
1.897611e+003, 1.006708e-003
1.899540e+003, 5.848957e-004
1.901468e+003, 5.410752e-004
1.903397e+003, 5.667174e-004
1.905325e+003, 9.779731e-004
1.907254e+003, 1.020076e-003
1.909182e+003, 5.363381e-004
1.911110e+003, 4.059369e-004
1.913039e+003, 1.180534e-003
1.914967e+003, 1.558330e-003
1.916896e+003, 1.250481e-003
1.918824e+003, 1.029456e-003
1.920753e+003, 9.684015e-004
1.922681e+003, 9.516132e-004
1.924610e+003, 4.907956e-004
1.926538e+003, 5.167038e-004
1.928467e+003, 1.035680e-003
1.930395e+003, 1.323129e-003
1.932324e+003, 1.406766e-003
1.934252e+003, 8.952503e-004
1.936181e+003, 4.131296e-004
1.938109e+003, 6.034459e-004
1.940037e+003, 9.216465e-004
1.941966e+003, 9.460044e-004
1.943894e+003, 1.005278e-003
1.945823e+003, 9.373699e-004
1.947751e+003, 5.667572e-004
1.949680e+003, 3.588352e-004
1.951608e+003, 5.321351e-004
1.953537e+003, 1.167475e-003
1.955465e+003, 6.113970e-004
1.957394e+003, 2.144164e-004
1.959322e+003, 5.775816e-004
1.961251e+003, 8.534436e-004
1.963179e+003, 7.250870e-004
1.965108e+003, 9.544125e-004
1.967036e+003, 1.124309e-003
1.968964e+003, 7.689932e-004
1.970893e+003, 8.147715e-004
1.972821e+003, 1.304002e-003
1.974750e+003, 1.647569e-003
1.976678e+003, 3.070247e-004
1.978607e+003, -9.745103e-005
1.980535e+003, -7.860479e-005
1.982464e+003, -2.971380e-004
1.984392e+003, 7.359097e-004
1.986321e+003, 9.342628e-004
1.988249e+003, 4.263624e-004
1.990178e+003, 5.136756e-005
1.992106e+003, 7.378747e-004
1.994035e+003, 1.004423e-003
1.995963e+003, 5.578641e-004
1.997891e+003, 5.346576e-004
1.999820e+003, 8.150679e-005
2.001748e+003, -7.915795e-004
2.003677e+003, -1.133906e-003
2.005605e+003, -1.073090e-003
2.007534e+003, -6.136643e-004
2.009462e+003, -3.291359e-004
2.011391e+003, -5.515853e-004
2.013319e+003, -1.386390e-004
2.015248e+003, 5.433273e-004
2.017176e+003, 7.735470e-004
2.019105e+003, 1.880070e-004
2.021033e+003, 1.062499e-005
2.022962e+003, -1.069864e-004
2.024890e+003, 1.726227e-004
2.026818e+003, 7.846616e-004
2.028747e+003, 8.867693e-004
2.030675e+003, -1.660278e-004
2.032604e+003, -3.529757e-004
2.034532e+003, -3.632759e-004
2.036461e+003, -1.363178e-003
2.038389e+003, -9.284383e-004
2.040318e+003, -9.864615e-005
2.042246e+003, -1.372304e-006
2.044175e+003, -6.224869e-004
2.046103e+003, -6.330761e-004
2.048031e+003, -4.932219e-004
2.049960e+003, -9.653161e-004
2.051888e+003, -5.966628e-004
2.053817e+003, 1.294473e-004
2.055745e+003, -5.331275e-005
2.057674e+003, -1.898138e-004
2.059602e+003, -2.219662e-004
2.061531e+003, -4.839002e-004
2.063459e+003, -5.583022e-004
2.065388e+003, -8.317203e-004
2.067316e+003, -1.887487e-003
2.069245e+003, -1.702399e-003
2.071173e+003, -1.079592e-003
2.073102e+003, -1.405829e-003
2.075030e+003, -1.247889e-003
2.076958e+003, -6.658480e-004
2.078887e+003, -7.586868e-004
2.080815e+003, -9.146970e-004
2.082744e+003, -7.750615e-004
2.084672e+003, -4.366458e-004
2.086601e+003, -8.704854e-004
2.088529e+003, -7.021830e-004
2.090458e+003, -5.603679e-004
2.092386e+003, -4.885829e-004
2.094315e+003, -3.045750e-004
2.096243e+003, -4.862497e-004
2.098172e+003, -1.826810e-004
2.100100e+003, -8.067419e-005
2.102029e+003, -4.207572e-004
2.103957e+003, -3.278846e-004
2.105885e+003, 8.856563e-005
2.107814e+003, 1.341151e-004
2.109742e+003, -6.706188e-004
2.111671e+003, -1.193475e-003
2.113599e+003, -8.095318e-004
2.115528e+003, -3.198201e-004
2.117456e+003, -3.763008e-004
2.119385e+003, -6.816565e-004
2.121313e+003, -3.685701e-004
2.123242e+003, 3.016356e-004
2.125170e+003, -7.830234e-005
2.127099e+003, -7.951157e-004
2.129027e+003, -1.129498e-004
2.130956e+003, 1.089492e-003
2.132884e+003, 1.425663e-003
2.134813e+003, 6.882867e-004
2.136741e+003, 2.560613e-004
2.138669e+003, -2.058093e-004
2.140598e+003, 2.295447e-004
2.142526e+003, 1.196445e-003
2.144455e+003, 5.481276e-004
2.146383e+003, 3.988389e-005
2.148312e+003, -6.021506e-004
2.150240e+003, -9.816887e-004
2.152169e+003, 4.370394e-005
2.154097e+003, 1.462543e-003
2.156026e+003, 2.891627e-003
2.157954e+003, 2.671230e-003
2.159883e+003, 4.865713e-004
2.161811e+003, -8.305199e-004
2.163740e+003, -7.141700e-004
2.165668e+003, 1.711980e-005
2.167596e+003, 3.561308e-005
2.169525e+003, -6.301049e-005
2.171453e+003, -3.235529e-004
2.173382e+003, -1.616599e-004
2.175310e+003, 2.091713e-004
2.177239e+003, -4.905113e-004
2.179167e+003, -5.596816e-004
2.181096e+003, 4.731652e-004
2.183024e+003, 9.339787e-004
2.184953e+003, -5.789716e-004
2.186881e+003, -1.703046e-003
2.188810e+003, -9.620457e-004
2.190738e+003, -6.493097e-004
2.192667e+003, -1.553096e-003
2.194595e+003, -1.840424e-003
2.196523e+003, -9.612837e-004
2.198452e+003, -4.690164e-005
2.200380e+003, -2.922018e-004
2.202309e+003, -6.048204e-004
2.204237e+003, -1.366392e-004
2.206166e+003, 1.637735e-004
2.208094e+003, -6.268984e-004
2.210023e+003, -1.068995e-004
2.211951e+003, 9.004726e-004
2.213880e+003, 2.381591e-004
2.215808e+003, 1.622271e-005
2.217737e+003, 9.978665e-004
2.219665e+003, 1.510430e-003
2.221594e+003, 1.040664e-003
2.223522e+003, 3.687902e-004
2.225450e+003, 2.322189e-004
2.227379e+003, 4.321537e-004
2.229307e+003, 1.563644e-005
2.231236e+003, -8.552044e-004
2.233164e+003, -1.114819e-004
2.235093e+003, 1.254907e-003
2.237021e+003, 1.820362e-003
2.238950e+003, 1.068697e-003
2.240878e+003, 3.604407e-004
2.242807e+003, 7.640601e-004
2.244735e+003, 1.038162e-003
2.246664e+003, 3.828116e-004
2.248592e+003, 6.971192e-004
2.250521e+003, 1.103116e-003
2.252449e+003, 6.429757e-004
2.254377e+003, 1.211058e-004
2.256306e+003, -9.762123e-006
2.258234e+003, 3.704095e-004
2.260163e+003, 6.324091e-004
2.262091e+003, 5.110409e-004
2.264020e+003, 3.293778e-004
2.265948e+003, 9.813870e-006
2.267877e+003, -2.290029e-004
2.269805e+003, -4.711761e-004
2.271734e+003, -6.206769e-004
2.273662e+003, -2.045741e-004
2.275591e+003, -1.172246e-004
2.277519e+003, -2.729431e-004
2.279448e+003, -5.090902e-004
2.281376e+003, -7.368510e-004
2.283304e+003, -8.540722e-004
2.285233e+003, -7.196709e-004
2.287161e+003, -6.295410e-004
2.289090e+003, -7.937652e-004
2.291018e+003, -4.011034e-004
2.292947e+003, 9.041687e-006
2.294875e+003, -1.586115e-004
2.296804e+003, -6.103261e-004
2.298732e+003, -7.622109e-004
2.300661e+003, -1.211232e-004
2.302589e+003, 8.912958e-005
2.304518e+003, -1.132717e-004
2.306446e+003, -2.266427e-004
2.308375e+003, -1.075801e-004
2.310303e+003, 4.334784e-005
2.312231e+003, 1.948327e-004
2.314160e+003, 3.364908e-004
2.316088e+003, 5.155747e-004
2.318017e+003, 5.808788e-004
2.319945e+003, 5.367117e-004
2.321874e+003, 3.669331e-004
2.323802e+003, 3.302517e-004
2.325731e+003, 8.303265e-004
2.327659e+003, 1.237643e-003
2.329588e+003, 1.316498e-003
2.331516e+003, 1.174879e-003
2.333445e+003, 1.291371e-003
2.335373e+003, 1.560863e-003
2.337302e+003, 1.766811e-003
2.339230e+003, 1.843800e-003
2.341158e+003, 1.744959e-003
2.343087e+003, 1.549169e-003
2.345015e+003, 1.402869e-003
2.346944e+003, 1.210184e-003
2.348872e+003, 7.757958e-004
2.350801e+003, 9.709767e-004
2.352729e+003, 1.410804e-003
2.354658e+003, 1.786914e-003
2.356586e+003, 1.860776e-003
2.358515e+003, 1.973363e-003
2.360443e+003, 2.297802e-003
2.362372e+003, 2.535531e-003
2.364300e+003, 2.665701e-003
2.366229e+003, 2.577070e-003
2.368157e+003, 2.253690e-003
2.370085e+003, 1.980931e-003
2.372014e+003, 1.635348e-003
2.373942e+003, 1.445664e-003
2.375871e+003, 1.464905e-003
2.377799e+003, 1.266376e-003
2.379728e+003, 1.011144e-003
2.381656e+003, 7.831284e-004
2.383585e+003, 6.979023e-004
2.385513e+003, 7.657261e-004
2.387442e+003, 8.119938e-004
2.389370e+003, 1.034443e-003
2.391299e+003, 1.145615e-003
2.393227e+003, 1.115745e-003
2.395156e+003, 1.060401e-003
2.397084e+003, 9.348658e-004
2.399012e+003, 9.153293e-004
2.400941e+003, 9.107290e-004
2.402869e+003, 7.848060e-004
2.404798e+003, 9.731602e-004
2.406726e+003, 8.576441e-004
2.408655e+003, 5.937624e-004
2.410583e+003, 9.002705e-004
2.412512e+003, 1.003523e-003
2.414440e+003, 1.074748e-003
2.416369e+003, 1.140898e-003
2.418297e+003, 7.939028e-004
2.420226e+003, 7.993220e-004
2.422154e+003, 7.649785e-004
2.424083e+003, 7.842426e-004
2.426011e+003, 4.981378e-004
2.427939e+003, 7.069184e-004
2.429868e+003, 1.272560e-003
2.431796e+003, 1.077674e-003
2.433725e+003, 4.794807e-004
2.435653e+003, 3.289202e-004
2.437582e+003, 6.409563e-004
2.439510e+003, 8.937849e-004
2.441439e+003, 6.791052e-004
2.443367e+003, 4.964537e-004
2.445296e+003, 7.995858e-004
2.447224e+003, 7.319308e-004
2.449153e+003, 5.798923e-004
2.451081e+003, 7.234777e-004
2.453010e+003, 6.848828e-004
2.454938e+003, 3.103810e-004
2.456866e+003, 2.617250e-004
2.458795e+003, 8.309718e-004
2.460723e+003, 1.098100e-003
2.462652e+003, 7.411494e-004
2.464580e+003, 5.397767e-004
2.466509e+003, 8.360174e-004
2.468437e+003, 1.120922e-003
2.470366e+003, 8.196156e-004
2.472294e+003, 2.810106e-004
2.474223e+003, 1.308903e-004
2.476151e+003, 1.675439e-004
2.478080e+003, 3.888725e-004
2.480008e+003, 7.647670e-004
2.481937e+003, 8.006951e-004
2.483865e+003, 4.598666e-004
2.485793e+003, 3.795073e-004
2.487722e+003, 9.415020e-004
2.489650e+003, 1.464772e-003
2.491579e+003, 1.128549e-003
2.493507e+003, 6.856818e-004
2.495436e+003, 7.526793e-004
2.497364e+003, 8.559800e-004
2.499293e+003, 8.904846e-004
2.501221e+003, 8.667433e-004
2.503150e+003, 1.069084e-003
2.505078e+003, 1.349214e-003
2.507007e+003, 8.734296e-004
2.508935e+003, 2.532565e-004
2.510864e+003, 6.518983e-004
2.512792e+003, 9.471236e-004
2.514720e+003, 1.046140e-003
2.516649e+003, 1.167335e-003
2.518577e+003, 9.433269e-004
2.520506e+003, 7.181850e-004
2.522434e+003, 6.509436e-004
2.524363e+003, 6.929085e-004
2.526291e+003, 5.231220e-004
2.528220e+003, 4.606241e-004
2.530148e+003, 5.793494e-004
2.532077e+003, 6.285176e-004
2.534005e+003, 7.519465e-004
2.535934e+003, 5.116024e-004
2.537862e+003, 3.762612e-004
2.539791e+003, 5.442026e-004
2.541719e+003, 5.332824e-004
2.543647e+003, 4.552209e-004
2.545576e+003, 5.782145e-004
2.547504e+003, 9.743317e-004
2.549433e+003, 7.903026e-004
2.551361e+003, 4.848361e-004
2.553290e+003, 4.878593e-004
2.555218e+003, 4.966549e-004
2.557147e+003, 2.434781e-004
2.559075e+003, 2.673655e-004
2.561004e+003, 6.174309e-004
2.562932e+003, 5.541226e-004
2.564861e+003, -8.984367e-006
2.566789e+003, -1.450972e-004
2.568718e+003, -4.082834e-005
2.570646e+003, 1.400911e-004
2.572574e+003, 2.660718e-004
2.574503e+003, 2.043638e-004
2.576431e+003, 1.461609e-004
2.578360e+003, -1.767745e-004
2.580288e+003, -4.821863e-005
2.582217e+003, -4.727043e-005
2.584145e+003, -1.752613e-004
2.586074e+003, 1.834136e-004
2.588002e+003, 4.640720e-004
2.589931e+003, 3.808487e-004
2.591859e+003, 1.335382e-004
2.593788e+003, 6.233615e-005
2.595716e+003, 1.133447e-004
2.597645e+003, 9.452746e-005
2.599573e+003, 1.014243e-005
2.601501e+003, 1.894883e-004
2.603430e+003, 2.095163e-004
2.605358e+003, -1.041712e-004
2.607287e+003, -5.135771e-004
2.609215e+003, -4.143614e-004
2.611144e+003, -7.157732e-005
2.613072e+003, 1.537015e-004
2.615001e+003, 1.417195e-004
2.616929e+003, 9.920458e-005
2.618858e+003, 1.715246e-004
2.620786e+003, 3.086546e-004
2.622715e+003, 2.328725e-004
2.624643e+003, 3.678277e-005
2.626572e+003, -1.156098e-004
2.628500e+003, -4.920411e-005
2.630428e+003, 9.835193e-005
2.632357e+003, -2.369508e-004
2.634285e+003, -1.409184e-004
2.636214e+003, 4.462650e-005
2.638142e+003, -8.684421e-005
2.640071e+003, -7.085506e-005
2.641999e+003, 8.241845e-005
2.643928e+003, 1.384113e-004
2.645856e+003, 1.467915e-004
2.647785e+003, -3.256962e-006
2.649713e+003, -2.006892e-005
2.651642e+003, 2.649053e-004
2.653570e+003, 2.501948e-004
2.655499e+003, 1.686620e-004
2.657427e+003, 3.134377e-004
2.659355e+003, 2.670889e-004
2.661284e+003, 1.189832e-004
2.663212e+003, 3.940555e-004
2.665141e+003, 5.234433e-004
2.667069e+003, 4.706490e-004
2.668998e+003, 3.906135e-004
2.670926e+003, 4.187408e-004
2.672855e+003, 6.771879e-004
2.674783e+003, 7.891863e-004
2.676712e+003, 7.815497e-004
2.678640e+003, 7.469833e-004
2.680569e+003, 7.444587e-004
2.682497e+003, 6.536998e-004
2.684426e+003, 5.275875e-004
2.686354e+003, 5.193773e-004
2.688282e+003, 5.470669e-004
2.690211e+003, 4.543219e-004
2.692139e+003, 3.526978e-004
2.694068e+003, 4.948894e-004
2.695996e+003, 6.877910e-004
2.697925e+003, 7.525540e-004
2.699853e+003, 6.693606e-004
2.701782e+003, 7.040058e-004
2.703710e+003, 5.958339e-004
2.705639e+003, 4.163019e-004
2.707567e+003, 3.270890e-004
2.709496e+003, 2.615420e-004
2.711424e+003, 5.409995e-004
2.713353e+003, 8.688729e-004
2.715281e+003, 6.822882e-004
2.717209e+003, 4.702489e-004
2.719138e+003, 3.439086e-004
2.721066e+003, 2.182227e-004
2.722995e+003, 1.920696e-004
2.724923e+003, 4.129696e-004
2.726852e+003, 5.288158e-004
2.728780e+003, 4.671003e-004
2.730709e+003, 4.952687e-004
2.732637e+003, 5.840685e-004
2.734566e+003, 5.450091e-004
2.736494e+003, 3.563197e-004
2.738423e+003, 4.862338e-004
2.740351e+003, 5.240513e-004
2.742280e+003, 7.897481e-004
2.744208e+003, 9.151011e-004
2.746136e+003, 9.588581e-004
2.748065e+003, 1.126901e-003
2.749993e+003, 1.032250e-003
2.751922e+003, 7.639336e-004
2.753850e+003, 6.843514e-004
2.755779e+003, 7.917784e-004
2.757707e+003, 6.301035e-004
2.759636e+003, 6.853874e-004
2.761564e+003, 9.052964e-004
2.763493e+003, 7.628509e-004
2.765421e+003, 5.433277e-004
2.767350e+003, 4.905465e-004
2.769278e+003, 8.122572e-004
2.771207e+003, 8.101190e-004
2.773135e+003, 5.477938e-004
2.775063e+003, 8.312173e-004
2.776992e+003, 1.062230e-003
2.778920e+003, 8.650870e-004
2.780849e+003, 8.100416e-004
2.782777e+003, 8.052129e-004
2.784706e+003, 7.296562e-004
2.786634e+003, 9.804127e-004
2.788563e+003, 9.663497e-004
2.790491e+003, 9.305221e-004
2.792420e+003, 1.067523e-003
2.794348e+003, 1.391757e-003
2.796277e+003, 1.281562e-003
2.798205e+003, 8.575823e-004
2.800134e+003, 9.607302e-004
2.802062e+003, 9.289261e-004
2.803990e+003, 7.962905e-004
2.805919e+003, 9.414694e-004
2.807847e+003, 9.531486e-004
2.809776e+003, 6.990652e-004
2.811704e+003, 5.198873e-004
2.813633e+003, 4.335656e-004
2.815561e+003, 6.366289e-004
2.817490e+003, 1.060860e-003
2.819418e+003, 1.132608e-003
2.821347e+003, 1.205758e-003
2.823275e+003, 1.017601e-003
2.825204e+003, 7.368574e-004
2.827132e+003, 7.659944e-004
2.829061e+003, 9.299729e-004
2.830989e+003, 1.019740e-003
2.832917e+003, 9.242040e-004
2.834846e+003, 9.531740e-004
2.836774e+003, 1.187274e-003
2.838703e+003, 9.704902e-004
2.840631e+003, 9.297524e-004
2.842560e+003, 1.066182e-003
2.844488e+003, 9.570646e-004
2.846417e+003, 1.024407e-003
2.848345e+003, 1.105058e-003
2.850274e+003, 9.477356e-004
2.852202e+003, 8.999172e-004
2.854131e+003, 1.239888e-003
2.856059e+003, 1.281609e-003
2.857988e+003, 1.151148e-003
2.859916e+003, 1.300329e-003
2.861844e+003, 1.412033e-003
2.863773e+003, 1.175864e-003
2.865701e+003, 8.885773e-004
2.867630e+003, 9.360222e-004
2.869558e+003, 1.205059e-003
2.871487e+003, 1.604248e-003
2.873415e+003, 1.561152e-003
2.875344e+003, 1.335721e-003
2.877272e+003, 1.109750e-003
2.879201e+003, 8.685190e-004
2.881129e+003, 8.487158e-004
2.883058e+003, 6.853205e-004
2.884986e+003, 8.147593e-004
2.886915e+003, 9.879480e-004
2.888843e+003, 8.158604e-004
2.890771e+003, 8.546095e-004
2.892700e+003, 7.344846e-004
2.894628e+003, 6.590398e-004
2.896557e+003, 8.476598e-004
2.898485e+003, 1.025401e-003
2.900414e+003, 1.030951e-003
2.902342e+003, 9.538283e-004
2.904271e+003, 1.090216e-003
2.906199e+003, 1.350170e-003
2.908128e+003, 1.086084e-003
2.910056e+003, 7.980639e-004
2.911985e+003, 8.819639e-004
2.913913e+003, 1.110252e-003
2.915842e+003, 1.039001e-003
2.917770e+003, 1.263376e-003
2.919698e+003, 1.293894e-003
2.921627e+003, 1.086487e-003
2.923555e+003, 1.175298e-003
2.925484e+003, 1.193103e-003
2.927412e+003, 1.228707e-003
2.929341e+003, 1.641755e-003
2.931269e+003, 1.627336e-003
2.933198e+003, 1.205519e-003
2.935126e+003, 1.145535e-003
2.937055e+003, 1.164261e-003
2.938983e+003, 1.250284e-003
2.940912e+003, 1.357583e-003
2.942840e+003, 7.530985e-004
2.944769e+003, 5.575345e-004
2.946697e+003, 9.999158e-004
2.948625e+003, 1.454676e-003
2.950554e+003, 1.512252e-003
2.952482e+003, 1.432894e-003
2.954411e+003, 1.345990e-003
2.956339e+003, 1.107098e-003
2.958268e+003, 9.097320e-004
2.960196e+003, 7.185080e-004
2.962125e+003, 6.914439e-004
2.964053e+003, 7.755705e-004
2.965982e+003, 8.879538e-004
2.967910e+003, 1.028040e-003
2.969839e+003, 7.782546e-004
2.971767e+003, 6.277939e-004
2.973696e+003, 5.599431e-004
2.975624e+003, 2.708088e-004
2.977552e+003, 5.664112e-004
2.979481e+003, 7.165743e-004
2.981409e+003, 5.226996e-004
2.983338e+003, 5.213117e-004
2.985266e+003, 4.777776e-004
2.987195e+003, 2.037079e-004
2.989123e+003, 2.231190e-004
2.991052e+003, 4.395256e-004
2.992980e+003, 4.020770e-004
2.994909e+003, 2.586759e-004
2.996837e+003, 6.153868e-004
2.998766e+003, 9.617255e-004
3.000694e+003, 9.692640e-004
3.002623e+003, 1.078178e-003
3.004551e+003, 8.729088e-004
3.006479e+003, 3.553840e-004
3.008408e+003, 1.735176e-004
3.010336e+003, 2.884166e-004
3.012265e+003, 4.193471e-004
3.014193e+003, 7.244082e-004
3.016122e+003, 1.071654e-003
3.018050e+003, 8.121125e-004
3.019979e+003, 2.938562e-004
3.021907e+003, 8.080112e-005
3.023836e+003, 1.455451e-004
3.025764e+003, 5.195424e-004
3.027693e+003, 5.450191e-004
3.029621e+003, 3.390778e-004
3.031550e+003, 5.203108e-004
3.033478e+003, 9.379503e-004
3.035406e+003, 1.238164e-003
3.037335e+003, 1.160137e-003
3.039263e+003, 7.490764e-004
3.041192e+003, 4.345771e-004
3.043120e+003, -1.137489e-004
3.045049e+003, -1.667272e-004
3.046977e+003, 2.521146e-004
3.048906e+003, 2.705271e-004
3.050834e+003, 4.389511e-005
3.052763e+003, 2.139341e-004
3.054691e+003, 7.408212e-004
3.056620e+003, 5.212788e-004
3.058548e+003, 4.709015e-005
3.060477e+003, 1.351913e-005
3.062405e+003, 2.027450e-004
3.064333e+003, 6.661671e-004
3.066262e+003, 9.062547e-004
3.068190e+003, 6.056052e-004
3.070119e+003, 1.120529e-004
3.072047e+003, 3.899213e-005
3.073976e+003, 4.769239e-004
3.075904e+003, 5.254119e-004
3.077833e+003, 4.707105e-004
3.079761e+003, 7.907191e-004
3.081690e+003, 6.867598e-004
3.083618e+003, 4.613629e-004
3.085547e+003, 2.876583e-004
3.087475e+003, 3.044815e-004
3.089404e+003, 3.496784e-004
3.091332e+003, 7.612818e-004
3.093260e+003, 8.453012e-004
3.095189e+003, 7.654367e-004
3.097117e+003, 6.688532e-004
3.099046e+003, 6.117998e-004
3.100974e+003, 4.349432e-004
3.102903e+003, 4.493626e-004
3.104831e+003, 3.104830e-004
3.106760e+003, 2.659568e-004
3.108688e+003, 4.600821e-004
3.110617e+003, 3.742468e-004
3.112545e+003, 8.067443e-005
3.114474e+003, -4.489772e-005
3.116402e+003, 3.851501e-004
3.118331e+003, 4.060327e-004
3.120259e+003, 4.575444e-004
3.122188e+003, 4.664766e-004
3.124116e+003, 5.002802e-004
3.126044e+003, 2.979945e-004
3.127973e+003, -1.496066e-004
3.129901e+003, -1.486013e-004
3.131830e+003, 3.163899e-004
3.133758e+003, 3.129153e-004
3.135687e+003, -1.062907e-004
3.137615e+003, 1.320955e-004
3.139544e+003, 3.207599e-004
3.141472e+003, 3.166541e-004
3.143401e+003, 2.186842e-004
3.145329e+003, 3.836892e-004
3.147258e+003, 6.751420e-004
3.149186e+003, 1.755623e-004
3.151115e+003, -2.190169e-004
3.153043e+003, -9.642510e-006
3.154971e+003, 2.697656e-004
3.156900e+003, 4.213849e-004
3.158828e+003, 4.110341e-004
3.160757e+003, 4.801747e-004
3.162685e+003, 4.539127e-004
3.164614e+003, 9.023872e-005
3.166542e+003, 3.171179e-004
3.168471e+003, 5.966310e-004
3.170399e+003, 5.285385e-004
3.172328e+003, 7.570279e-005
3.174256e+003, -2.056206e-004
3.176185e+003, -3.545554e-004
3.178113e+003, -3.023767e-004
3.180042e+003, -5.007381e-005
3.181970e+003, 3.630868e-004
3.183898e+003, 3.767711e-004
3.185827e+003, 3.701025e-004
3.187755e+003, 7.168574e-004
3.189684e+003, 2.600084e-004
3.191612e+003, -3.630236e-004
3.193541e+003, -5.897529e-004
3.195469e+003, -1.882327e-004
3.197398e+003, -1.698514e-004
3.199326e+003, -4.218006e-004
3.201255e+003, -3.890134e-004
3.203183e+003, -3.887509e-004
3.205112e+003, 2.636712e-005
3.207040e+003, 3.940563e-004
3.208969e+003, 4.592437e-004
3.210897e+003, 2.690997e-004
3.212825e+003, 2.427165e-004
3.214754e+003, -1.264767e-004
3.216682e+003, -1.657054e-004
3.218611e+003, -1.497367e-004
3.220539e+003, -1.907238e-004
3.222468e+003, -2.820387e-004
3.224396e+003, -5.125209e-004
3.226325e+003, -4.142255e-004
3.228253e+003, 5.467477e-006
3.230182e+003, -2.991293e-004
3.232110e+003, -5.112127e-004
3.234039e+003, -4.391476e-004
3.235967e+003, -1.062718e-004
3.237896e+003, -2.702828e-004
3.239824e+003, -8.096857e-004
3.241752e+003, -1.015660e-003
3.243681e+003, -9.795581e-004
3.245609e+003, -2.375135e-004
3.247538e+003, 3.652250e-004
3.249466e+003, 3.166244e-004
3.251395e+003, -2.498378e-005
3.253323e+003, -5.538671e-004
3.255252e+003, -7.161665e-004
3.257180e+003, -8.436852e-004
3.259109e+003, -9.796522e-004
3.261037e+003, -8.098792e-004
3.262966e+003, -7.936431e-004
3.264894e+003, -3.710304e-004
3.266823e+003, 5.600560e-005
3.268751e+003, -4.840294e-004
3.270679e+003, -6.693666e-004
3.272608e+003, -5.854794e-004
3.274536e+003, -7.566587e-004
3.276465e+003, -8.333040e-004
3.278393e+003, -8.419779e-004
3.280322e+003, -1.518856e-003
3.282250e+003, -1.352698e-003
3.284179e+003, -9.609089e-004
3.286107e+003, -8.952497e-004
3.288036e+003, -1.005006e-003
3.289964e+003, -1.082749e-003
3.291893e+003, -1.150997e-003
3.293821e+003, -1.038390e-003
3.295750e+003, -6.263956e-004
3.297678e+003, -4.841520e-004
3.299606e+003, -5.860034e-004
3.301535e+003, -6.130587e-004
3.303463e+003, -8.787400e-004
3.305392e+003, -9.816281e-004
3.307320e+003, -8.932003e-004
3.309249e+003, -7.110831e-004
3.311177e+003, -1.021057e-003
3.313106e+003, -1.344932e-003
3.315034e+003, -1.241495e-003
3.316963e+003, -1.287050e-003
3.318891e+003, -7.011340e-004
3.320820e+003, -2.291377e-004
3.322748e+003, -2.801662e-004
3.324677e+003, -5.002872e-004
3.326605e+003, -8.700171e-004
3.328533e+003, -6.800819e-004
3.330462e+003, -5.604992e-004
3.332390e+003, -8.868632e-004
3.334319e+003, -9.466974e-004
3.336247e+003, -1.041844e-003
3.338176e+003, -1.154547e-003
3.340104e+003, -1.336155e-003
3.342033e+003, -1.651006e-003
3.343961e+003, -1.406612e-003
3.345890e+003, -1.114815e-003
3.347818e+003, -6.556537e-004
3.349747e+003, -8.224706e-004
3.351675e+003, -1.417427e-003
3.353604e+003, -1.594221e-003
3.355532e+003, -1.181750e-003
3.357460e+003, -9.864834e-004
3.359389e+003, -1.535032e-003
3.361317e+003, -1.734299e-003
3.363246e+003, -1.395263e-003
3.365174e+003, -1.220639e-003
3.367103e+003, -1.313005e-003
3.369031e+003, -1.267058e-003
3.370960e+003, -1.076186e-003
3.372888e+003, -1.088567e-003
3.374817e+003, -7.844848e-004
3.376745e+003, -9.390581e-004
3.378674e+003, -1.166940e-003
3.380602e+003, -9.797168e-004
3.382531e+003, -1.192756e-003
3.384459e+003, -1.133306e-003
3.386387e+003, -9.851973e-004
3.388316e+003, -8.778577e-004
3.390244e+003, -9.686547e-004
3.392173e+003, -1.026857e-003
3.394101e+003, -1.260875e-003
3.396030e+003, -1.385736e-003
3.397958e+003, -1.629043e-003
3.399887e+003, -2.066197e-003
3.401815e+003, -1.855779e-003
3.403744e+003, -1.635975e-003
3.405672e+003, -1.708169e-003
3.407601e+003, -1.619066e-003
3.409529e+003, -1.375682e-003
3.411458e+003, -1.185517e-003
3.413386e+003, -1.125880e-003
3.415314e+003, -1.328034e-003
3.417243e+003, -1.770733e-003
3.419171e+003, -2.007558e-003
3.421100e+003, -2.190169e-003
3.423028e+003, -1.343065e-003
3.424957e+003, -8.782576e-004
3.426885e+003, -1.304944e-003
3.428814e+003, -1.758655e-003
3.430742e+003, -2.289587e-003
3.432671e+003, -2.328607e-003
3.434599e+003, -2.038030e-003
3.436528e+003, -1.624452e-003
3.438456e+003, -1.333012e-003
3.440385e+003, -9.859293e-004
3.442313e+003, -1.357588e-003
3.444241e+003, -2.054409e-003
3.446170e+003, -2.168692e-003
3.448098e+003, -1.438272e-003
3.450027e+003, -1.001308e-003
3.451955e+003, -1.728558e-003
3.453884e+003, -2.348173e-003
3.455812e+003, -1.623039e-003
3.457741e+003, -7.876289e-004
3.459669e+003, -1.274030e-003
3.461598e+003, -1.655196e-003
3.463526e+003, -1.594361e-003
3.465455e+003, -1.706200e-003
3.467383e+003, -1.684458e-003
3.469312e+003, -1.537068e-003
3.471240e+003, -1.451893e-003
3.473168e+003, -1.839317e-003
3.475097e+003, -2.239381e-003
3.477025e+003, -2.202922e-003
3.478954e+003, -2.408936e-003
3.480882e+003, -2.807172e-003
3.482811e+003, -2.713046e-003
3.484739e+003, -2.338687e-003
3.486668e+003, -2.473808e-003
3.488596e+003, -2.561302e-003
3.490525e+003, -2.723919e-003
3.492453e+003, -2.447407e-003
3.494382e+003, -1.966336e-003
3.496310e+003, -1.819239e-003
3.498239e+003, -1.938239e-003
3.500167e+003, -2.107390e-003
3.502095e+003, -2.669559e-003
3.504024e+003, -2.601519e-003
3.505952e+003, -2.664451e-003
3.507881e+003, -2.337096e-003
3.509809e+003, -1.729503e-003
3.511738e+003, -2.070759e-003
3.513666e+003, -2.010772e-003
3.515595e+003, -1.815768e-003
3.517523e+003, -2.177621e-003
3.519452e+003, -2.554578e-003
3.521380e+003, -2.805481e-003
3.523309e+003, -2.569093e-003
3.525237e+003, -2.399689e-003
3.527166e+003, -2.079766e-003
3.529094e+003, -1.581541e-003
3.531022e+003, -1.582202e-003
3.532951e+003, -1.779549e-003
3.534879e+003, -2.127846e-003
3.536808e+003, -2.562327e-003
3.538736e+003, -2.839512e-003
3.540665e+003, -2.841441e-003
3.542593e+003, -2.610326e-003
3.544522e+003, -2.395448e-003
3.546450e+003, -2.558805e-003
3.548379e+003, -2.324745e-003
3.550307e+003, -1.937099e-003
3.552236e+003, -1.965923e-003
3.554164e+003, -2.421170e-003
3.556093e+003, -2.878904e-003
3.558021e+003, -2.871670e-003
3.559949e+003, -2.395776e-003
3.561878e+003, -2.237548e-003
3.563806e+003, -1.651726e-003
3.565735e+003, -1.121117e-003
3.567663e+003, -1.817228e-003
3.569592e+003, -2.065721e-003
3.571520e+003, -2.420774e-003
3.573449e+003, -2.641151e-003
3.575377e+003, -2.504586e-003
3.577306e+003, -3.136706e-003
3.579234e+003, -3.319497e-003
3.581163e+003, -2.770997e-003
3.583091e+003, -2.973980e-003
3.585020e+003, -2.991971e-003
3.586948e+003, -2.631549e-003
3.588876e+003, -2.666350e-003
3.590805e+003, -3.259554e-003
3.592733e+003, -3.615649e-003
3.594662e+003, -2.673608e-003
3.596590e+003, -2.052410e-003
3.598519e+003, -2.073655e-003
3.600447e+003, -2.309249e-003
3.602376e+003, -2.145200e-003
3.604304e+003, -2.239525e-003
3.606233e+003, -2.434511e-003
3.608161e+003, -2.659288e-003
3.610090e+003, -3.195734e-003
3.612018e+003, -3.552392e-003
3.613947e+003, -3.771392e-003
3.615875e+003, -3.487518e-003
3.617803e+003, -2.400396e-003
3.619732e+003, -2.268296e-003
3.621660e+003, -3.179713e-003
3.623589e+003, -3.617871e-003
3.625517e+003, -3.225707e-003
3.627446e+003, -2.650664e-003
3.629374e+003, -2.626291e-003
3.631303e+003, -2.932073e-003
3.633231e+003, -3.399565e-003
3.635160e+003, -3.446717e-003
3.637088e+003, -3.078772e-003
3.639017e+003, -2.946130e-003
3.640945e+003, -3.211170e-003
3.642874e+003, -2.760521e-003
3.644802e+003, -2.730796e-003
3.646730e+003, -2.808742e-003
3.648659e+003, -2.578536e-003
3.650587e+003, -2.784362e-003
3.652516e+003, -3.234361e-003
3.654444e+003, -3.627211e-003
3.656373e+003, -3.796191e-003
3.658301e+003, -3.783841e-003
3.660230e+003, -3.947133e-003
3.662158e+003, -3.540811e-003
3.664087e+003, -3.189680e-003
3.666015e+003, -3.395638e-003
3.667944e+003, -3.811436e-003
3.669872e+003, -3.337395e-003
3.671801e+003, -3.109471e-003
3.673729e+003, -3.182314e-003
3.675657e+003, -3.169922e-003
3.677586e+003, -4.476198e-003
3.679514e+003, -5.062146e-003
3.681443e+003, -4.272580e-003
3.683371e+003, -3.729337e-003
3.685300e+003, -4.290396e-003
3.687228e+003, -3.748544e-003
3.689157e+003, -3.306463e-003
3.691085e+003, -3.952865e-003
3.693014e+003, -4.560146e-003
3.694942e+003, -4.341587e-003
3.696871e+003, -3.885107e-003
3.698799e+003, -3.389861e-003
3.700728e+003, -3.621554e-003
3.702656e+003, -4.124164e-003
3.704584e+003, -4.217918e-003
3.706513e+003, -4.117624e-003
3.708441e+003, -4.224949e-003
3.710370e+003, -3.970028e-003
3.712298e+003, -3.561034e-003
3.714227e+003, -3.610434e-003
3.716155e+003, -3.702395e-003
3.718084e+003, -3.276434e-003
3.720012e+003, -3.453438e-003
3.721941e+003, -4.099592e-003
3.723869e+003, -3.907146e-003
3.725798e+003, -3.667073e-003
3.727726e+003, -3.379006e-003
3.729655e+003, -3.746884e-003
3.731583e+003, -3.972230e-003
3.733511e+003, -3.594445e-003
3.735440e+003, -3.468385e-003
3.737368e+003, -4.045589e-003
3.739297e+003, -4.172315e-003
3.741225e+003, -3.858836e-003
3.743154e+003, -3.993773e-003
3.745082e+003, -3.619295e-003
3.747011e+003, -3.420657e-003
3.748939e+003, -3.103878e-003
3.750868e+003, -3.265292e-003
3.752796e+003, -3.590386e-003
3.754725e+003, -3.654106e-003
3.756653e+003, -4.240023e-003
3.758582e+003, -4.763491e-003
3.760510e+003, -4.432391e-003
3.762438e+003, -4.227829e-003
3.764367e+003, -3.946507e-003
3.766295e+003, -3.955439e-003
3.768224e+003, -4.103738e-003
3.770152e+003, -4.446789e-003
3.772081e+003, -4.574629e-003
3.774009e+003, -3.672219e-003
3.775938e+003, -3.202095e-003
3.777866e+003, -3.822948e-003
3.779795e+003, -4.272585e-003
3.781723e+003, -4.675570e-003
3.783652e+003, -4.969388e-003
3.785580e+003, -4.900308e-003
3.787509e+003, -5.046998e-003
3.789437e+003, -4.687452e-003
3.791365e+003, -4.324826e-003
3.793294e+003, -4.569632e-003
3.795222e+003, -4.660286e-003
3.797151e+003, -4.595842e-003
3.799079e+003, -4.479850e-003
3.801008e+003, -3.712324e-003
3.802936e+003, -3.434751e-003
3.804865e+003, -4.247300e-003
3.806793e+003, -4.408023e-003
3.808722e+003, -4.392306e-003
3.810650e+003, -4.567350e-003
3.812579e+003, -5.062962e-003
3.814507e+003, -5.476678e-003
3.816436e+003, -5.019904e-003
3.818364e+003, -4.553192e-003
3.820292e+003, -4.480942e-003
3.822221e+003, -4.584037e-003
3.824149e+003, -4.448162e-003
3.826078e+003, -3.895567e-003
3.828006e+003, -3.961487e-003
3.829935e+003, -4.337458e-003
3.831863e+003, -4.841462e-003
3.833792e+003, -4.770488e-003
3.835720e+003, -4.206865e-003
3.837649e+003, -4.297182e-003
3.839577e+003, -4.638535e-003
3.841506e+003, -4.482500e-003
3.843434e+003, -4.241940e-003
3.845363e+003, -4.232936e-003
3.847291e+003, -4.562235e-003
3.849219e+003, -4.345145e-003
3.851148e+003, -3.420053e-003
3.853076e+003, -2.364506e-003
3.855005e+003, -3.268942e-003
3.856933e+003, -3.832620e-003
3.858862e+003, -3.968017e-003
3.860790e+003, -4.252187e-003
3.862719e+003, -4.050716e-003
3.864647e+003, -4.387184e-003
3.866576e+003, -5.085674e-003
3.868504e+003, -4.592100e-003
3.870433e+003, -4.317006e-003
3.872361e+003, -5.023192e-003
3.874290e+003, -4.976456e-003
3.876218e+003, -4.847326e-003
3.878146e+003, -4.199531e-003
3.880075e+003, -3.414193e-003
3.882003e+003, -4.166327e-003
3.883932e+003, -3.921940e-003
3.885860e+003, -3.695645e-003
3.887789e+003, -4.211455e-003
3.889717e+003, -3.950396e-003
3.891646e+003, -3.994852e-003
3.893574e+003, -4.868751e-003
3.895503e+003, -5.034524e-003
3.897431e+003, -4.407842e-003
3.899360e+003, -4.646133e-003
3.901288e+003, -4.993141e-003
3.903217e+003, -4.830452e-003
3.905145e+003, -5.152706e-003
3.907073e+003, -5.033444e-003
3.909002e+003, -4.323626e-003
3.910930e+003, -4.329541e-003
3.912859e+003, -4.915365e-003
3.914787e+003, -4.984817e-003
3.916716e+003, -5.088233e-003
3.918644e+003, -5.365707e-003
3.920573e+003, -5.262579e-003
3.922501e+003, -4.903418e-003
3.924430e+003, -4.665325e-003
3.926358e+003, -5.356315e-003
3.928287e+003, -5.106850e-003
3.930215e+003, -4.624384e-003
3.932144e+003, -4.974496e-003
3.934072e+003, -5.115902e-003
3.936000e+003, -4.793742e-003
3.937929e+003, -4.743163e-003
3.939857e+003, -5.046220e-003
3.941786e+003, -5.291829e-003
3.943714e+003, -4.498060e-003
3.945643e+003, -4.438099e-003
3.947571e+003, -4.683068e-003
3.949500e+003, -5.462255e-003
3.951428e+003, -5.995128e-003
3.953357e+003, -5.542594e-003
3.955285e+003, -4.845381e-003
3.957214e+003, -4.497203e-003
3.959142e+003, -4.790779e-003
3.961071e+003, -5.332943e-003
3.962999e+003, -5.538989e-003
3.964927e+003, -5.054628e-003
3.966856e+003, -4.351513e-003
3.968784e+003, -4.523382e-003
3.970713e+003, -4.416958e-003
3.972641e+003, -4.529150e-003
3.974570e+003, -4.906992e-003
3.976498e+003, -5.201581e-003
3.978427e+003, -5.256304e-003
3.980355e+003, -5.479372e-003
3.982284e+003, -5.562021e-003
3.984212e+003, -5.383266e-003
3.986141e+003, -6.446945e-003
3.988069e+003, -6.161616e-003
3.989998e+003, -4.727444e-003
3.991926e+003, -5.087189e-003
3.993854e+003, -5.355529e-003
3.995783e+003, -5.134796e-003
3.997711e+003, -5.441437e-003
##END=



