##NAMES=Triplite
##RRUFFID=R050615
##IDEAL CHEMISTRY=Mn^2+^_2_(PO_4_)F
##LOCALITY=Vienna, Austria
##OWNER=RRUFF
##SOURCE=University of Arizona Mineral Museum
##DESCRIPTION=Brown massive
##STATUS=The identification of this mineral has been confirmed by X-ray diffraction and chemical analysis
##URL=rruff.info/R050615
##MEASURED CHEMISTRY=(Mn^2+^_1.09_Fe^2+^_0.88_Ca_0.02_Mg_0.01_)_Σ=2_(P_1.00_O_4_)(F_0.72_(OH)_0.28_)_Σ=1_ ; = light phase (triplite) while the dark phase is fluorapatite: (Ca_4.44_Mn^2+^_0.44_Fe^2+^_0.12_)_Σ=5_(P_1.00_O_4_)F_1.00_
399.1926, 4.5451861E-02
401.1211, 4.2981550E-02
403.0496, 4.3188188E-02
404.9780, 4.0656630E-02
406.9065, 3.8203351E-02
408.8350, 3.5359040E-02
410.7634, 3.2327961E-02
412.6919, 3.3310771E-02
414.6204, 3.5572089E-02
416.5488, 3.6079749E-02
418.4773, 3.5053499E-02
420.4058, 3.3771161E-02
422.3342, 3.4053300E-02
424.2627, 3.5490979E-02
426.1912, 3.6159609E-02
428.1196, 3.5996120E-02
430.0481, 3.7366360E-02
431.9766, 3.8793512E-02
433.9050, 4.1340038E-02
435.8335, 4.4095948E-02
437.7620, 4.4450808E-02
439.6904, 4.6332810E-02
441.6189, 4.8215941E-02
443.5474, 4.9011279E-02
445.4758, 4.7816489E-02
447.4043, 4.6972860E-02
449.3328, 4.5490630E-02
451.2612, 4.4859871E-02
453.1897, 4.3427981E-02
455.1182, 4.2347688E-02
457.0466, 4.1015111E-02
458.9751, 3.9624840E-02
460.9036, 3.8422979E-02
462.8320, 3.7688881E-02
464.7605, 3.6490511E-02
466.6890, 3.5628140E-02
468.6174, 3.5656031E-02
470.5459, 3.5321102E-02
472.4744, 3.5310809E-02
474.4028, 3.5033889E-02
476.3313, 3.4494590E-02
478.2598, 3.4865759E-02
480.1882, 3.5619870E-02
482.1167, 3.6235608E-02
484.0452, 3.6518510E-02
485.9736, 3.6324680E-02
487.9021, 3.5495810E-02
489.8306, 3.4973379E-02
491.7590, 3.5038169E-02
493.6875, 3.5053842E-02
495.6160, 3.4481179E-02
497.5444, 3.4913380E-02
499.4729, 3.5355680E-02
501.4014, 3.5289131E-02
503.3298, 3.5415921E-02
505.2583, 3.5875902E-02
507.1868, 3.5817008E-02
509.1152, 3.6093939E-02
511.0437, 3.6731958E-02
512.9722, 3.7517630E-02
514.9006, 3.8338859E-02
516.8291, 3.8614590E-02
518.7576, 3.9578810E-02
520.6860, 4.1090060E-02
522.6145, 4.1876961E-02
524.5430, 4.2865451E-02
526.4714, 4.4093899E-02
528.3999, 4.5837991E-02
530.3284, 4.7956530E-02
532.2568, 5.0080441E-02
534.1853, 5.2538559E-02
536.1138, 5.5208541E-02
538.0422, 5.7839710E-02
539.9707, 6.0438938E-02
541.8992, 6.2795319E-02
543.8276, 6.4968184E-02
545.7561, 6.8335973E-02
547.6846, 7.2630167E-02
549.6130, 7.6557159E-02
551.5415, 8.0204770E-02
553.4700, 8.3884783E-02
555.3984, 8.8589348E-02
557.3269, 9.3425333E-02
559.2554, 9.8184273E-02
561.1838, 0.1026393
563.1123, 0.1061058
565.0408, 0.1098216
566.9692, 0.1132237
568.8977, 0.1142981
570.8262, 0.1145746
572.7546, 0.1145938
574.6831, 0.1134163
576.6116, 0.1112070
578.5400, 0.1078801
580.4685, 0.1031360
582.3970, 9.8086737E-02
584.3254, 9.3217477E-02
586.2539, 8.8553913E-02
588.1824, 8.4461123E-02
590.1108, 8.0606677E-02
592.0393, 7.7738874E-02
593.9678, 7.5660408E-02
595.8962, 7.4920177E-02
597.8247, 7.4198157E-02
599.7532, 7.2750747E-02
601.6816, 7.1178637E-02
603.6101, 6.8504982E-02
605.5386, 6.4946324E-02
607.4670, 6.1454210E-02
609.3955, 5.8488540E-02
611.3240, 5.5999149E-02
613.2524, 5.4021541E-02
615.1809, 5.1678680E-02
617.1094, 4.9622931E-02
619.0378, 4.7760218E-02
620.9663, 4.5447260E-02
622.8948, 4.2955492E-02
624.8232, 4.0502019E-02
626.7517, 3.7943359E-02
628.6802, 3.5228349E-02
630.6086, 3.2864701E-02
632.5371, 3.0485939E-02
634.4656, 2.8300470E-02
636.3940, 2.6857451E-02
638.3225, 2.5153590E-02
640.2510, 2.3982409E-02
642.1794, 2.3434591E-02
644.1079, 2.2706850E-02
646.0364, 2.1958800E-02
647.9648, 2.1225480E-02
649.8933, 2.0621641E-02
651.8218, 2.0303270E-02
653.7502, 1.9800730E-02
655.6787, 1.9280121E-02
657.6072, 1.9023649E-02
659.5356, 1.8922690E-02
661.4641, 1.8856760E-02
663.3926, 1.8647389E-02
665.3210, 1.8717101E-02
667.2495, 1.8894689E-02
669.1780, 1.8643821E-02
671.1064, 1.8087540E-02
673.0349, 1.7908851E-02
674.9634, 1.7895989E-02
676.8918, 1.7732980E-02
678.8203, 1.7807771E-02
680.7488, 1.7946700E-02
682.6772, 1.7589379E-02
684.6057, 1.7526731E-02
686.5342, 1.8012810E-02
688.4626, 1.8265581E-02
690.3911, 1.8223699E-02
692.3196, 1.8014399E-02
694.2480, 1.8224200E-02
696.1765, 1.8458661E-02
698.1050, 1.8232251E-02
700.0334, 1.8056510E-02
701.9619, 1.8017359E-02
703.8904, 1.8029200E-02
705.8188, 1.8090030E-02
707.7473, 1.8359210E-02
709.6758, 1.8378589E-02
711.6042, 1.8287610E-02
713.5327, 1.8043879E-02
715.4612, 1.8141881E-02
717.3896, 1.8655950E-02
719.3181, 1.8450631E-02
721.2466, 1.8297350E-02
723.1750, 1.8385749E-02
725.1035, 1.8523030E-02
727.0320, 1.8553210E-02
728.9604, 1.8627610E-02
730.8889, 1.8686950E-02
732.8174, 1.9121170E-02
734.7458, 1.9403961E-02
736.6743, 1.9307921E-02
738.6028, 1.9445490E-02
740.5313, 1.9558599E-02
742.4597, 2.0143559E-02
744.3882, 2.0313650E-02
746.3167, 2.0018909E-02
748.2451, 2.0154851E-02
750.1736, 2.0352870E-02
752.1021, 2.0384710E-02
754.0305, 2.0656001E-02
755.9590, 2.0731770E-02
757.8875, 2.0799041E-02
759.8159, 2.1120209E-02
761.7444, 2.1429369E-02
763.6729, 2.1345081E-02
765.6013, 2.1422330E-02
767.5298, 2.1590769E-02
769.4583, 2.1875581E-02
771.3867, 2.2165880E-02
773.3152, 2.2257419E-02
775.2437, 2.2261361E-02
777.1721, 2.2568690E-02
779.1006, 2.2832830E-02
781.0291, 2.3030190E-02
782.9575, 2.3064980E-02
784.8860, 2.3541860E-02
786.8145, 2.4321010E-02
788.7429, 2.4621841E-02
790.6714, 2.4757640E-02
792.5999, 2.4782119E-02
794.5283, 2.5521221E-02
796.4568, 2.6254371E-02
798.3853, 2.6194440E-02
800.3137, 2.6663570E-02
802.2422, 2.7110521E-02
804.1707, 2.7178431E-02
806.0991, 2.7508769E-02
808.0276, 2.8124001E-02
809.9561, 2.8216200E-02
811.8845, 2.8031221E-02
813.8130, 2.8483640E-02
815.7415, 2.9283529E-02
817.6699, 2.9645680E-02
819.5984, 2.9853780E-02
821.5269, 3.0215969E-02
823.4553, 3.0241139E-02
825.3838, 3.0488670E-02
827.3123, 3.1395599E-02
829.2407, 3.1897102E-02
831.1692, 3.1989459E-02
833.0977, 3.2496192E-02
835.0261, 3.3312280E-02
836.9546, 3.4075402E-02
838.8831, 3.4405701E-02
840.8115, 3.4915209E-02
842.7400, 3.5616931E-02
844.6685, 3.6091950E-02
846.5969, 3.6679201E-02
848.5254, 3.7172262E-02
850.4539, 3.7763759E-02
852.3823, 3.8896549E-02
854.3108, 3.9868321E-02
856.2393, 4.0555581E-02
858.1677, 4.1317102E-02
860.0962, 4.2184580E-02
862.0247, 4.3163549E-02
863.9531, 4.4243291E-02
865.8816, 4.5222629E-02
867.8101, 4.6199631E-02
869.7385, 4.7317471E-02
871.6670, 4.8391581E-02
873.5955, 4.9433321E-02
875.5239, 5.0597630E-02
877.4524, 5.1885050E-02
879.3809, 5.2834049E-02
881.3093, 5.3792920E-02
883.2378, 5.5097200E-02
885.1663, 5.6781970E-02
887.0947, 5.8022521E-02
889.0232, 5.9094012E-02
890.9517, 6.0405359E-02
892.8801, 6.1944701E-02
894.8085, 6.3223913E-02
896.7370, 6.4648442E-02
898.6655, 6.6151053E-02
900.5939, 6.7357920E-02
902.5224, 6.8501510E-02
904.4509, 6.9910243E-02
906.3793, 7.1483463E-02
908.3078, 7.2984152E-02
910.2363, 7.4472591E-02
912.1647, 7.5594090E-02
914.0932, 7.6921433E-02
916.0217, 7.8495704E-02
917.9501, 7.9953559E-02
919.8786, 8.1489727E-02
921.8071, 8.2821831E-02
923.7355, 8.4320843E-02
925.6640, 8.6134791E-02
927.5925, 8.8046923E-02
929.5209, 8.9527160E-02
931.4494, 9.1009662E-02
933.3779, 9.2968002E-02
935.3063, 9.5073253E-02
937.2348, 9.7001329E-02
939.1633, 9.8986551E-02
941.0917, 0.1012439
943.0202, 0.1032736
944.9487, 0.1049113
946.8771, 0.1068895
948.8056, 0.1092915
950.7341, 0.1114457
952.6625, 0.1134600
954.5910, 0.1154561
956.5195, 0.1176591
958.4479, 0.1199627
960.3764, 0.1220860
962.3049, 0.1242346
964.2333, 0.1262903
966.1618, 0.1277641
968.0903, 0.1289873
970.0187, 0.1302650
971.9472, 0.1313372
973.8757, 0.1320539
975.8041, 0.1330772
977.7326, 0.1347291
979.6611, 0.1367531
981.5895, 0.1394195
983.5180, 0.1425226
985.4465, 0.1458895
987.3749, 0.1495290
989.3034, 0.1530721
991.2319, 0.1564624
993.1603, 0.1595156
995.0888, 0.1622078
997.0173, 0.1649074
998.9457, 0.1672925
1000.874, 0.1692605
1002.803, 0.1711772
1004.731, 0.1730883
1006.660, 0.1745645
1008.588, 0.1755582
1010.517, 0.1765271
1012.445, 0.1775694
1014.373, 0.1783505
1016.302, 0.1789769
1018.230, 0.1796602
1020.159, 0.1797199
1022.087, 0.1792314
1024.016, 0.1787663
1025.944, 0.1781684
1027.873, 0.1773518
1029.801, 0.1764809
1031.730, 0.1749065
1033.658, 0.1730690
1035.587, 0.1707477
1037.515, 0.1686725
1039.444, 0.1663437
1041.372, 0.1631574
1043.301, 0.1602614
1045.229, 0.1574889
1047.157, 0.1548127
1049.086, 0.1523293
1051.014, 0.1500226
1052.943, 0.1475383
1054.871, 0.1445694
1056.800, 0.1413196
1058.728, 0.1381379
1060.657, 0.1348368
1062.585, 0.1311444
1064.514, 0.1272649
1066.442, 0.1232356
1068.371, 0.1189961
1070.299, 0.1148826
1072.228, 0.1110041
1074.156, 0.1069001
1076.084, 0.1028957
1078.013, 9.9198163E-02
1079.941, 9.5504850E-02
1081.870, 9.2162572E-02
1083.798, 8.9091226E-02
1085.727, 8.5963666E-02
1087.655, 8.2655281E-02
1089.584, 7.9480417E-02
1091.512, 7.6719739E-02
1093.441, 7.3976137E-02
1095.369, 7.0874587E-02
1097.298, 6.7532979E-02
1099.226, 6.4214148E-02
1101.155, 6.1144348E-02
1103.083, 5.8103550E-02
1105.011, 5.5165149E-02
1106.940, 5.2430332E-02
1108.868, 4.9915921E-02
1110.797, 4.7439341E-02
1112.725, 4.4988271E-02
1114.654, 4.2618021E-02
1116.582, 4.0213712E-02
1118.511, 3.8019661E-02
1120.439, 3.5912052E-02
1122.368, 3.3773001E-02
1124.296, 3.1764299E-02
1126.225, 2.9869040E-02
1128.153, 2.8039129E-02
1130.082, 2.6234521E-02
1132.010, 2.4545539E-02
1133.938, 2.2852020E-02
1135.867, 2.1542439E-02
1137.795, 2.0078290E-02
1139.724, 1.8752599E-02
1141.652, 1.7740870E-02
1143.581, 1.7030410E-02
1145.509, 1.6275810E-02
1147.438, 1.5365650E-02
1149.366, 1.4534860E-02
1151.295, 1.3750730E-02
1153.223, 1.2912980E-02
1155.152, 1.2589080E-02
1157.080, 1.2370850E-02
1159.009, 1.2177200E-02
1160.937, 1.1923800E-02
1162.865, 1.1596900E-02
1164.794, 1.1118210E-02
1166.722, 1.0746290E-02
1168.651, 1.0456350E-02
1170.579, 1.0131320E-02
1172.508, 9.8308558E-03
1174.436, 9.5662614E-03
1176.365, 9.2000104E-03
1178.293, 9.0003209E-03
1180.222, 8.7892786E-03
1182.150, 8.3942981E-03
1184.079, 8.1877410E-03
1186.007, 8.1781587E-03
1187.936, 8.0387937E-03
1189.864, 7.7785738E-03
1191.792, 7.6297731E-03
1193.721, 7.5282529E-03
1195.649, 7.0483270E-03
1197.578, 6.6362801E-03
1199.506, 6.3781328E-03
1201.435, 6.2787049E-03
1203.363, 6.0343659E-03
1205.292, 5.6125419E-03
1207.220, 5.4862560E-03
1209.149, 5.4097250E-03
1211.077, 5.3260429E-03
1213.006, 5.2433820E-03
1214.934, 5.2147610E-03
1216.863, 5.0830632E-03
1218.791, 4.8259520E-03
1220.719, 4.6253339E-03
1222.648, 4.4138469E-03
1224.576, 4.2812699E-03
1226.505, 4.1439501E-03
1228.433, 4.2834310E-03
1230.362, 4.3040039E-03
1232.290, 4.2815679E-03
1234.219, 4.0130089E-03
1236.147, 3.9586630E-03
1238.076, 3.9354572E-03
1240.004, 4.0239142E-03
1241.933, 3.8951579E-03
1243.861, 3.6352980E-03
1245.790, 3.6395220E-03
1247.718, 3.8071270E-03
1249.646, 3.9185998E-03
1251.575, 3.8460421E-03
1253.503, 3.6484259E-03
1255.432, 3.9986302E-03
1257.360, 4.0057381E-03
1259.289, 3.6520760E-03
1261.217, 3.7552780E-03
1263.146, 3.7656131E-03
1265.074, 3.6403290E-03
1267.003, 3.7615560E-03
1268.931, 3.9486671E-03
1270.860, 4.0811528E-03
1272.788, 4.1819271E-03
1274.717, 4.0917941E-03
1276.645, 4.1079568E-03
1278.573, 4.0256521E-03
1280.502, 4.0021511E-03
1282.430, 4.1793152E-03
1284.359, 4.2355531E-03
1286.287, 4.1573178E-03
1288.216, 4.0053660E-03
1290.144, 3.6877701E-03
1292.073, 3.6560069E-03
1294.001, 3.8098961E-03
1295.930, 4.0372652E-03
1297.858, 4.2804610E-03
1299.787, 4.2900322E-03
1301.715, 4.2680190E-03
1303.644, 4.1515352E-03
1305.572, 3.8881709E-03
1307.500, 4.0055960E-03
1309.429, 4.2613992E-03
1311.357, 4.2692949E-03
1313.286, 4.3857582E-03
1315.214, 4.6249060E-03
1317.143, 4.5714602E-03
1319.071, 4.4175000E-03
1321.000, 4.5262552E-03
1322.928, 4.6565388E-03
1324.857, 4.6516438E-03
1326.785, 4.4004498E-03
1328.714, 4.3545892E-03
1330.642, 4.6264450E-03
1332.571, 4.7055688E-03
1334.499, 4.4988878E-03
1336.427, 4.3548401E-03
1338.356, 4.5059919E-03
1340.284, 4.7989851E-03
1342.213, 4.8962971E-03
1344.141, 4.9380050E-03
1346.070, 5.0545349E-03
1347.998, 4.8974492E-03
1349.927, 4.7673541E-03
1351.855, 4.7130231E-03
1353.784, 4.6330700E-03
1355.712, 4.8479289E-03
1357.641, 5.1266621E-03
1359.569, 5.3567402E-03
1361.498, 5.5436352E-03
1363.426, 5.5829068E-03
1365.354, 5.3021130E-03
1367.283, 4.9709380E-03
1369.211, 4.7508501E-03
1371.140, 5.0479118E-03
1373.068, 5.5448250E-03
1374.997, 5.6792679E-03
1376.925, 5.3508668E-03
1378.854, 5.1511889E-03
1380.782, 5.4368111E-03
1382.711, 5.6809280E-03
1384.639, 5.9568421E-03
1386.568, 6.0637458E-03
1388.496, 6.2451740E-03
1390.424, 6.5919869E-03
1392.353, 6.6070999E-03
1394.281, 6.5077641E-03
1396.210, 6.5319631E-03
1398.138, 6.6320710E-03
1400.067, 6.6743782E-03
1401.995, 6.7954091E-03
1403.924, 7.0170839E-03
1405.852, 7.0377020E-03
1407.781, 7.0871338E-03
1409.709, 7.2066230E-03
1411.638, 7.4304850E-03
1413.566, 7.5843469E-03
1415.495, 7.8086480E-03
1417.423, 8.0932761E-03
1419.351, 8.3272401E-03
1421.280, 8.4613357E-03
1423.208, 8.4900754E-03
1425.137, 8.4839631E-03
1427.065, 8.4066223E-03
1428.994, 8.3340928E-03
1430.922, 8.4792785E-03
1432.851, 8.5856235E-03
1434.779, 8.4409323E-03
1436.708, 8.2416879E-03
1438.636, 8.0236979E-03
1440.565, 8.0066053E-03
1442.493, 8.0012018E-03
1444.422, 7.8993030E-03
1446.350, 7.7323979E-03
1448.278, 8.0114705E-03
1450.207, 8.4340451E-03
1452.135, 8.5700098E-03
1454.064, 8.4323548E-03
1455.992, 8.2893549E-03
1457.921, 8.5773692E-03
1459.849, 8.6426018E-03
1461.778, 8.2427971E-03
1463.706, 8.0368873E-03
1465.635, 7.9021174E-03
1467.563, 7.8671221E-03
1469.492, 8.0099292E-03
1471.420, 8.0615673E-03
1473.349, 8.0608120E-03
1475.277, 8.1887422E-03
1477.205, 8.3660902E-03
1479.134, 8.3495053E-03
1481.062, 8.0406498E-03
1482.991, 8.0627128E-03
1484.919, 8.0808206E-03
1486.848, 7.8345006E-03
1488.776, 7.7858460E-03
1490.705, 8.0631906E-03
1492.633, 8.1879562E-03
1494.562, 8.0663525E-03
1496.490, 8.1436876E-03
1498.419, 8.3922260E-03
1500.347, 8.3157113E-03
1502.276, 8.1161996E-03
1504.204, 8.0832709E-03
1506.132, 7.9792049E-03
1508.061, 7.8915535E-03
1509.989, 8.0036391E-03
1511.918, 8.2305335E-03
1513.846, 8.4414389E-03
1515.775, 8.3841290E-03
1517.703, 8.3089294E-03
1519.632, 8.2463203E-03
1521.560, 8.2723554E-03
1523.489, 8.3812438E-03
1525.417, 8.3773164E-03
1527.346, 8.4129693E-03
1529.274, 8.4338551E-03
1531.203, 8.4641706E-03
1533.131, 8.3572278E-03
1535.059, 8.4943501E-03
1536.988, 8.7111676E-03
1538.916, 8.8359145E-03
1540.845, 8.8399509E-03
1542.773, 8.5261632E-03
1544.702, 8.4217507E-03
1546.630, 8.6418455E-03
1548.559, 8.7621920E-03
1550.487, 8.8898037E-03
1552.416, 8.9092003E-03
1554.344, 9.0922955E-03
1556.273, 9.1297114E-03
1558.201, 9.0724211E-03
1560.130, 9.1358321E-03
1562.058, 9.1883596E-03
1563.986, 9.1664540E-03
1565.915, 9.0181138E-03
1567.843, 9.0583824E-03
1569.772, 9.2822406E-03
1571.700, 9.3478085E-03
1573.629, 9.1943769E-03
1575.557, 9.0812072E-03
1577.486, 9.3142372E-03
1579.414, 9.3186209E-03
1581.343, 8.9874528E-03
1583.271, 8.9179464E-03
1585.200, 9.0483278E-03
1587.128, 9.2857759E-03
1589.057, 9.1285501E-03
1590.985, 9.0743015E-03
1592.913, 9.1436999E-03
1594.842, 9.2809368E-03
1596.770, 9.2854574E-03
1598.699, 9.2576426E-03
1600.627, 9.1053843E-03
1602.556, 9.2162676E-03
1604.484, 9.1702556E-03
1606.413, 9.2864009E-03
1608.341, 9.3666241E-03
1610.270, 9.3695810E-03
1612.198, 9.6608112E-03
1614.127, 9.6641248E-03
1616.055, 9.1241412E-03
1617.984, 9.1247652E-03
1619.912, 9.4830776E-03
1621.840, 9.6950000E-03
1623.769, 9.7272014E-03
1625.697, 1.0017290E-02
1627.626, 9.8019261E-03
1629.554, 9.5833624E-03
1631.483, 9.7083021E-03
1633.411, 9.9437311E-03
1635.340, 9.9390950E-03
1637.268, 9.9889971E-03
1639.197, 9.9024493E-03
1641.125, 9.9469619E-03
1643.054, 1.0173210E-02
1644.982, 1.0362540E-02
1646.911, 1.0127960E-02
1648.839, 9.7610718E-03
1650.767, 9.5502343E-03
1652.696, 9.4738808E-03
1654.624, 9.4778249E-03
1656.553, 9.6424464E-03
1658.481, 9.9217761E-03
1660.410, 9.6545815E-03
1662.338, 9.1179386E-03
1664.267, 9.0794303E-03
1666.195, 9.3479455E-03
1668.124, 9.4325086E-03
1670.052, 9.3162227E-03
1671.981, 9.1562970E-03
1673.909, 9.0051144E-03
1675.838, 9.2138005E-03
1677.766, 9.2288516E-03
1679.694, 9.0672858E-03
1681.623, 8.7859156E-03
1683.551, 9.0789571E-03
1685.480, 9.1196653E-03
1687.408, 8.9485114E-03
1689.337, 8.9851441E-03
1691.265, 9.0941731E-03
1693.194, 9.2083262E-03
1695.122, 9.0980222E-03
1697.051, 8.9663481E-03
1698.979, 8.9127198E-03
1700.908, 9.0020159E-03
1702.836, 9.2247147E-03
1704.765, 9.1326190E-03
1706.693, 9.0002352E-03
1708.621, 8.8497400E-03
1710.550, 8.2178321E-03
1712.478, 8.1257261E-03
1714.407, 8.5868668E-03
1716.335, 8.4118238E-03
1718.264, 8.3600143E-03
1720.192, 8.7016439E-03
1722.121, 8.4854234E-03
1724.049, 8.0639208E-03
1725.978, 8.3387308E-03
1727.906, 8.3346749E-03
1729.835, 7.8308312E-03
1731.763, 8.0460617E-03
1733.692, 8.5514421E-03
1735.620, 8.3927009E-03
1737.548, 8.2603982E-03
1739.477, 8.1376554E-03
1741.405, 7.1832999E-03
1743.334, 6.7954580E-03
1745.262, 7.5766100E-03
1747.191, 8.1000114E-03
1749.119, 7.9538561E-03
1751.048, 8.1290938E-03
1752.976, 8.2824221E-03
1754.905, 8.1146751E-03
1756.833, 8.5327160E-03
1758.762, 9.0146745E-03
1760.690, 9.2266481E-03
1762.619, 9.4394162E-03
1764.547, 9.2118280E-03
1766.475, 9.0709114E-03
1768.404, 9.2820162E-03
1770.332, 8.7191211E-03
1772.261, 7.9251686E-03
1774.189, 8.5550714E-03
1776.118, 8.8935150E-03
1778.046, 8.8774255E-03
1779.975, 8.7833134E-03
1781.903, 8.9018196E-03
1783.832, 9.2434147E-03
1785.760, 9.0687610E-03
1787.689, 8.9898631E-03
1789.617, 9.2547918E-03
1791.546, 9.3069952E-03
1793.474, 8.9834882E-03
1795.402, 9.1249514E-03
1797.331, 9.4752004E-03
1799.259, 9.8112971E-03
1801.188, 9.9779926E-03
1803.116, 9.7570708E-03
1805.045, 9.4715524E-03
1806.973, 8.9334929E-03
1808.902, 9.6558454E-03
1810.830, 9.9327834E-03
1812.759, 9.5762312E-03
1814.687, 9.1038560E-03
1816.616, 8.5887006E-03
1818.544, 8.7381192E-03
1820.473, 9.5516518E-03
1822.401, 9.7914217E-03
1824.329, 9.8006818E-03
1826.258, 1.0053990E-02
1828.186, 9.7548626E-03
1830.115, 9.5798410E-03
1832.043, 9.5292367E-03
1833.972, 9.6114092E-03
1835.900, 9.6072312E-03
1837.829, 9.7255586E-03
1839.757, 9.4969971E-03
1841.686, 8.5484544E-03
1843.614, 8.0138212E-03
1845.543, 8.8355113E-03
1847.471, 9.9373357E-03
1849.400, 9.9712852E-03
1851.328, 8.9933416E-03
1853.256, 8.6722374E-03
1855.185, 9.0454584E-03
1857.113, 9.0791304E-03
1859.042, 8.9953085E-03
1860.970, 9.3024904E-03
1862.899, 9.9162739E-03
1864.827, 1.0019240E-02
1866.756, 9.6827475E-03
1868.684, 8.6540589E-03
1870.613, 8.9510223E-03
1872.541, 9.3203494E-03
1874.470, 8.4842024E-03
1876.398, 7.8764837E-03
1878.327, 8.8220770E-03
1880.255, 9.6933786E-03
1882.183, 9.5827281E-03
1884.112, 8.6308643E-03
1886.040, 8.5031707E-03
1887.969, 8.5558584E-03
1889.897, 9.1702538E-03
1891.826, 9.6507836E-03
1893.754, 8.8491226E-03
1895.683, 8.3941435E-03
1897.611, 8.7870052E-03
1899.540, 8.9661200E-03
1901.468, 7.6008802E-03
1903.397, 7.5326571E-03
1905.325, 8.5136974E-03
1907.254, 8.9805555E-03
1909.182, 8.9431461E-03
1911.110, 9.5495395E-03
1913.039, 9.4717843E-03
1914.967, 8.6259572E-03
1916.896, 8.3444873E-03
1918.824, 7.9165651E-03
1920.753, 7.7994368E-03
1922.681, 8.4597003E-03
1924.610, 9.3496498E-03
1926.538, 9.4761886E-03
1928.467, 8.6050946E-03
1930.395, 7.5120321E-03
1932.324, 7.7381781E-03
1934.252, 7.6785041E-03
1936.181, 6.5409299E-03
1938.109, 6.9670570E-03
1940.037, 9.2600863E-03
1941.966, 8.4449770E-03
1943.894, 5.9017092E-03
1945.823, 5.6479028E-03
1947.751, 4.6978169E-03
1949.680, 3.8726791E-03
1951.608, 6.1513148E-03
1953.537, 6.8172128E-03
1955.465, 5.8914931E-03
1957.394, 5.9166341E-03
1959.322, 5.8661131E-03
1961.251, 7.0174201E-03
1963.179, 7.2601349E-03
1965.108, 5.4616448E-03
1967.036, 4.5989119E-03
1968.964, 7.5510130E-03
1970.893, 9.6857715E-03
1972.821, 8.1159817E-03
1974.750, 7.6582939E-03
1976.678, 8.1911599E-03
1978.607, 7.1766949E-03
1980.535, 5.7189302E-03
1982.464, 6.4559560E-03
1984.392, 7.2196261E-03
1986.321, 6.9385180E-03
1988.249, 4.5526060E-03
1990.178, 3.6963271E-03
1992.106, 5.8351392E-03
1994.035, 9.1943014E-03
1995.963, 1.0089010E-02
1997.891, 9.1939550E-03
1999.820, 7.2831721E-03
2001.748, 6.3462988E-03
2003.677, 6.5919291E-03
2005.605, 4.8773182E-03
2007.534, 4.0862309E-03
2009.462, 4.0003890E-03
2011.391, 5.1201549E-03
2013.319, 6.5116091E-03
2015.248, 6.1869291E-03
2017.176, 6.4018760E-03
2019.105, 5.2076271E-03
2021.033, 4.9652751E-03
2022.962, 5.0456501E-03
2024.890, 5.8186408E-03
2026.818, 6.6895140E-03
2028.747, 4.5047891E-03
2030.675, 5.6576240E-03
2032.604, 7.2193518E-03
2034.532, 7.1250740E-03
2036.461, 6.6027702E-03
2038.389, 6.2326710E-03
2040.318, 5.8929850E-03
2042.246, 6.9109090E-03
2044.175, 6.9662440E-03
2046.103, 7.0191449E-03
2048.032, 8.8056754E-03
2049.960, 1.1068180E-02
2051.889, 1.1292150E-02
2053.817, 1.1499760E-02
2055.746, 1.0669370E-02
2057.674, 8.7567978E-03
2059.603, 7.6622190E-03
2061.531, 8.1947986E-03
2063.459, 8.8452864E-03
2065.388, 9.9891834E-03
2067.316, 9.8607522E-03
2069.245, 8.3790142E-03
2071.173, 8.6477287E-03
2073.102, 9.6733598E-03
2075.030, 1.0281900E-02
2076.959, 1.0074020E-02
2078.887, 1.0720740E-02
2080.816, 1.1282100E-02
2082.744, 1.0686720E-02
2084.673, 9.7805550E-03
2086.601, 8.8720117E-03
2088.530, 9.8188668E-03
2090.458, 9.1273114E-03
2092.386, 7.8848107E-03
2094.315, 9.2515424E-03
2096.243, 9.9411467E-03
2098.172, 9.4067361E-03
2100.100, 8.6143063E-03
2102.029, 8.6273486E-03
2103.957, 9.4279544E-03
2105.886, 1.1019210E-02
2107.814, 1.1961290E-02
2109.743, 1.0324020E-02
2111.671, 1.0520990E-02
2113.600, 1.1471200E-02
2115.528, 1.1525320E-02
2117.457, 1.1458890E-02
2119.385, 9.7925086E-03
2121.313, 8.3823623E-03
2123.242, 8.3034439E-03
2125.170, 8.1120599E-03
2127.099, 8.2370304E-03
2129.027, 7.1845260E-03
2130.956, 6.2534339E-03
2132.884, 5.0202012E-03
2134.813, 4.7749309E-03
2136.741, 4.0827352E-03
2138.670, 3.4042420E-03
2140.598, 4.9272599E-03
2142.527, 7.2291498E-03
2144.455, 9.7187012E-03
2146.384, 8.5621681E-03
2148.312, 5.9999852E-03
2150.240, 3.3656701E-03
2152.169, 1.7386579E-03
2154.097, 2.6008389E-03
2156.026, 3.0396080E-03
2157.954, 4.9352949E-03
2159.883, 9.7863786E-03
2161.811, 9.7241839E-03
2163.740, 9.1160191E-03
2165.668, 1.0687030E-02
2167.597, 1.1804120E-02
2169.525, 1.0272980E-02
2171.454, 6.1998209E-03
2173.382, 6.5686340E-03
2175.311, 1.0651070E-02
2177.239, 9.1584697E-03
2179.167, 7.3078838E-03
2181.096, 9.0761138E-03
2183.024, 1.1156700E-02
2184.953, 9.7517679E-03
2186.881, 1.0257230E-02
2188.810, 1.1995870E-02
2190.738, 1.3524600E-02
2192.667, 1.3381250E-02
2194.595, 1.0393750E-02
2196.524, 1.0138040E-02
2198.452, 1.2158640E-02
2200.381, 1.3193740E-02
2202.309, 1.2952230E-02
2204.238, 1.1780110E-02
2206.166, 1.2096100E-02
2208.094, 1.3092020E-02
2210.023, 1.3051490E-02
2211.951, 1.2654050E-02
2213.880, 1.2882290E-02
2215.808, 1.2298430E-02
2217.737, 1.2105890E-02
2219.665, 1.2333390E-02
2221.594, 1.2482790E-02
2223.522, 1.3414530E-02
2225.451, 1.4239920E-02
2227.379, 1.4223430E-02
2229.308, 1.2166430E-02
2231.236, 1.2865510E-02
2233.165, 1.3258060E-02
2235.093, 1.2840620E-02
2237.021, 1.3765520E-02
2238.950, 1.5162570E-02
2240.878, 1.6629079E-02
2242.807, 1.5527810E-02
2244.735, 1.5738500E-02
2246.664, 1.6293010E-02
2248.592, 1.4332120E-02
2250.521, 1.2359830E-02
2252.449, 1.1566630E-02
2254.378, 1.1243340E-02
2256.306, 1.2695180E-02
2258.235, 1.4691960E-02
2260.163, 1.5613120E-02
2262.092, 1.5297060E-02
2264.020, 1.5145610E-02
2265.948, 1.6046859E-02
2267.877, 1.6090389E-02
2269.805, 1.6110189E-02
2271.734, 1.5589660E-02
2273.662, 1.4821470E-02
2275.591, 1.5489130E-02
2277.519, 1.6180050E-02
2279.448, 1.6118741E-02
2281.376, 1.6288510E-02
2283.305, 1.6287290E-02
2285.233, 1.5763300E-02
2287.162, 1.5474980E-02
2289.090, 1.6731421E-02
2291.019, 1.7824110E-02
2292.947, 1.7013460E-02
2294.875, 1.6549170E-02
2296.804, 1.7104009E-02
2298.732, 1.6843420E-02
2300.661, 1.6084980E-02
2302.589, 1.6244700E-02
2304.518, 1.6643779E-02
2306.446, 1.6765259E-02
2308.375, 1.6675061E-02
2310.303, 1.6747911E-02
2312.232, 1.7086411E-02
2314.160, 1.7368840E-02
2316.089, 1.7384481E-02
2318.017, 1.7937360E-02
2319.946, 1.8132120E-02
2321.874, 1.8464010E-02
2323.802, 1.9386360E-02
2325.731, 1.8979680E-02
2327.659, 1.7875999E-02
2329.588, 1.7002540E-02
2331.516, 1.6210429E-02
2333.445, 1.6626550E-02
2335.373, 1.7306769E-02
2337.302, 1.7228110E-02
2339.230, 1.7381709E-02
2341.159, 1.7960330E-02
2343.087, 1.7671259E-02
2345.016, 1.6517401E-02
2346.944, 1.5939569E-02
2348.873, 1.6477570E-02
2350.801, 1.7189531E-02
2352.729, 1.7431980E-02
2354.658, 1.7418100E-02
2356.586, 1.7357539E-02
2358.515, 1.7426990E-02
2360.443, 1.8122680E-02
2362.372, 1.8537750E-02
2364.300, 1.8082770E-02
2366.229, 1.7934831E-02
2368.157, 1.7327931E-02
2370.086, 1.7297480E-02
2372.014, 1.7626910E-02
2373.942, 1.7348740E-02
2375.871, 1.6815070E-02
2377.799, 1.6283751E-02
2379.728, 1.5459580E-02
2381.656, 1.5817810E-02
2383.585, 1.5944259E-02
2385.513, 1.5431530E-02
2387.442, 1.5930209E-02
2389.370, 1.6386960E-02
2391.299, 1.5465260E-02
2393.227, 1.4768320E-02
2395.156, 1.5018030E-02
2397.084, 1.5750119E-02
2399.012, 1.5929610E-02
2400.941, 1.5196530E-02
2402.869, 1.5113250E-02
2404.798, 1.5355480E-02
2406.726, 1.5864640E-02
2408.655, 1.6335910E-02
2410.583, 1.6259510E-02
2412.512, 1.5383080E-02
2414.440, 1.5289280E-02
2416.369, 1.6270891E-02
2418.297, 1.6502241E-02
2420.226, 1.6076330E-02
2422.154, 1.7007800E-02
2424.083, 1.7249109E-02
2426.011, 1.5640881E-02
2427.939, 1.4977870E-02
2429.868, 1.5319980E-02
2431.796, 1.5838239E-02
2433.725, 1.6133331E-02
2435.653, 1.6952749E-02
2437.582, 1.7551180E-02
2439.510, 1.7083259E-02
2441.439, 1.5759969E-02
2443.367, 1.5949350E-02
2445.296, 1.7163379E-02
2447.224, 1.6436979E-02
2449.153, 1.6490730E-02
2451.081, 1.7216530E-02
2453.010, 1.7646560E-02
2454.938, 1.6722189E-02
2456.866, 1.6913300E-02
2458.795, 1.8634440E-02
2460.723, 1.8845210E-02
2462.652, 1.7800299E-02
2464.580, 1.6656229E-02
2466.509, 1.6147031E-02
2468.437, 1.5989460E-02
2470.366, 1.5931910E-02
2472.294, 1.6101081E-02
2474.223, 1.7502811E-02
2476.151, 1.7182769E-02
2478.080, 1.6980501E-02
2480.008, 1.7895920E-02
2481.937, 1.7698569E-02
2483.865, 1.6949750E-02
2485.793, 1.6657639E-02
2487.722, 1.6245570E-02
2489.650, 1.6633730E-02
2491.579, 1.6338810E-02
2493.507, 1.6532561E-02
2495.436, 1.7594630E-02
2497.364, 1.7805381E-02
2499.293, 1.6993791E-02
2501.221, 1.7734401E-02
2503.150, 1.8510960E-02
2505.078, 1.7509511E-02
2507.007, 1.7166739E-02
2508.935, 1.7449711E-02
2510.864, 1.8076619E-02
2512.792, 1.8254999E-02
2514.720, 1.7603669E-02
2516.649, 1.7026000E-02
2518.577, 1.7655009E-02
2520.506, 1.8129149E-02
2522.434, 1.7544201E-02
2524.363, 1.6030841E-02
2526.291, 1.6031370E-02
2528.220, 1.7266801E-02
2530.148, 1.7664719E-02
2532.077, 1.7485181E-02
2534.005, 1.7074261E-02
2535.934, 1.6721550E-02
2537.862, 1.7546659E-02
2539.791, 1.7770950E-02
2541.719, 1.7652480E-02
2543.647, 1.8403741E-02
2545.576, 1.8771600E-02
2547.504, 1.8437570E-02
2549.433, 1.8279411E-02
2551.361, 1.7712491E-02
2553.290, 1.6770201E-02
2555.218, 1.7315051E-02
2557.147, 1.7360309E-02
2559.075, 1.6687861E-02
2561.004, 1.7412519E-02
2562.932, 1.8454161E-02
2564.861, 1.8427610E-02
2566.789, 1.7343530E-02
2568.718, 1.7440680E-02
2570.646, 1.8439470E-02
2572.574, 1.7669231E-02
2574.503, 1.7303471E-02
2576.431, 1.7742120E-02
2578.360, 1.8232539E-02
2580.288, 1.8340200E-02
2582.217, 1.8126151E-02
2584.145, 1.7578561E-02
2586.074, 1.7980300E-02
2588.002, 1.8772520E-02
2589.931, 1.8148471E-02
2591.859, 1.7896520E-02
2593.788, 1.7314300E-02
2595.716, 1.7337831E-02
2597.645, 1.8012030E-02
2599.573, 1.8914700E-02
2601.501, 1.9266341E-02
2603.430, 1.9027241E-02
2605.358, 1.9669831E-02
2607.287, 1.9454719E-02
2609.215, 1.8314620E-02
2611.144, 1.8126380E-02
2613.072, 1.8304380E-02
2615.001, 1.8737460E-02
2616.929, 1.9098120E-02
2618.858, 1.9032080E-02
2620.786, 2.0078549E-02
2622.715, 2.0287750E-02
2624.643, 1.9873120E-02
2626.572, 1.9436250E-02
2628.500, 1.9222161E-02
2630.428, 1.9639270E-02
2632.357, 2.0389769E-02
2634.285, 2.0514630E-02
2636.214, 1.9763250E-02
2638.142, 1.9228309E-02
2640.071, 1.9416559E-02
2641.999, 1.8950760E-02
2643.928, 1.8581420E-02
2645.856, 1.8877450E-02
2647.785, 1.9402711E-02
2649.713, 1.9565880E-02
2651.642, 1.8710909E-02
2653.570, 1.9008821E-02
2655.499, 1.9760480E-02
2657.427, 1.9004310E-02
2659.355, 1.8348429E-02
2661.284, 1.8215541E-02
2663.212, 1.8600641E-02
2665.141, 1.8949511E-02
2667.069, 1.8259350E-02
2668.998, 1.7783031E-02
2670.926, 1.7974639E-02
2672.855, 1.8309940E-02
2674.783, 1.8462621E-02
2676.712, 1.8530359E-02
2678.640, 1.8110299E-02
2680.569, 1.8094290E-02
2682.497, 1.8792961E-02
2684.426, 1.9149560E-02
2686.354, 1.9292081E-02
2688.282, 1.8866710E-02
2690.211, 1.8462431E-02
2692.139, 1.8998310E-02
2694.068, 1.9494049E-02
2695.996, 1.9320911E-02
2697.925, 1.9231230E-02
2699.853, 1.9111119E-02
2701.782, 1.8684629E-02
2703.710, 1.8462479E-02
2705.639, 1.8783569E-02
2707.567, 1.9028520E-02
2709.496, 1.9240251E-02
2711.424, 1.9077821E-02
2713.353, 1.9673809E-02
2715.281, 2.0954849E-02
2717.209, 2.1107480E-02
2719.138, 2.0046750E-02
2721.066, 1.8834921E-02
2722.995, 1.8611820E-02
2724.923, 1.9704040E-02
2726.852, 2.0600351E-02
2728.780, 2.0289930E-02
2730.709, 2.0591270E-02
2732.637, 2.0593891E-02
2734.566, 1.9587420E-02
2736.494, 1.9660121E-02
2738.423, 1.9863009E-02
2740.351, 2.0155311E-02
2742.280, 1.9246330E-02
2744.208, 1.9121680E-02
2746.136, 2.0136280E-02
2748.065, 2.0082209E-02
2749.993, 1.9650370E-02
2751.922, 2.0159410E-02
2753.850, 2.0549500E-02
2755.779, 1.9762989E-02
2757.707, 1.9456539E-02
2759.636, 1.8933460E-02
2761.564, 1.9269871E-02
2763.493, 2.0196009E-02
2765.421, 2.0273950E-02
2767.350, 2.0023730E-02
2769.278, 2.0527249E-02
2771.207, 2.1259950E-02
2773.135, 2.0648571E-02
2775.063, 2.0484690E-02
2776.992, 2.0979790E-02
2778.920, 2.0526299E-02
2780.849, 2.0490989E-02
2782.777, 1.9909481E-02
2784.706, 1.9726420E-02
2786.634, 2.0238571E-02
2788.563, 2.0050930E-02
2790.491, 2.0585051E-02
2792.420, 2.1190980E-02
2794.348, 2.0428250E-02
2796.277, 1.9462250E-02
2798.205, 1.9889491E-02
2800.134, 2.1305440E-02
2802.062, 2.1610901E-02
2803.990, 2.0350959E-02
2805.919, 1.9797269E-02
2807.847, 2.0655099E-02
2809.776, 2.0678440E-02
2811.704, 2.0175509E-02
2813.633, 1.9840689E-02
2815.561, 2.0015700E-02
2817.490, 2.0495251E-02
2819.418, 2.0701829E-02
2821.347, 1.9751949E-02
2823.275, 2.0296860E-02
2825.204, 2.1674011E-02
2827.132, 2.1311671E-02
2829.061, 2.1076620E-02
2830.989, 2.1656919E-02
2832.917, 2.1510299E-02
2834.846, 2.0631669E-02
2836.774, 2.0874791E-02
2838.703, 2.1385670E-02
2840.631, 2.0812800E-02
2842.560, 2.0872260E-02
2844.488, 2.1820910E-02
2846.417, 2.2137379E-02
2848.345, 2.2118540E-02
2850.274, 2.2127470E-02
2852.202, 2.0703349E-02
2854.131, 1.9666459E-02
2856.059, 1.9074740E-02
2857.988, 2.0250781E-02
2859.916, 2.2536021E-02
2861.844, 2.1805590E-02
2863.773, 2.0126190E-02
2865.701, 2.0351309E-02
2867.630, 2.0657159E-02
2869.558, 2.1582199E-02
2871.487, 2.2065779E-02
2873.415, 2.1854321E-02
2875.344, 2.1768630E-02
2877.272, 2.1782970E-02
2879.201, 2.1279169E-02
2881.129, 2.1143271E-02
2883.058, 2.1523500E-02
2884.986, 2.2805460E-02
2886.915, 2.3095779E-02
2888.843, 2.1271730E-02
2890.771, 2.0544000E-02
2892.700, 2.1966470E-02
2894.628, 2.2790670E-02
2896.557, 2.2811510E-02
2898.485, 2.2525061E-02
2900.414, 2.1749301E-02
2902.342, 2.1402230E-02
2904.271, 2.1825200E-02
2906.199, 2.2365941E-02
2908.128, 2.2300171E-02
2910.056, 2.2961540E-02
2911.985, 2.2714259E-02
2913.913, 2.1821231E-02
2915.842, 2.2177739E-02
2917.770, 2.2945700E-02
2919.698, 2.3051510E-02
2921.627, 2.1915959E-02
2923.555, 2.0515390E-02
2925.484, 2.1483541E-02
2927.412, 2.2833640E-02
2929.341, 2.1924950E-02
2931.269, 2.1392800E-02
2933.198, 2.1795120E-02
2935.126, 2.1796539E-02
2937.055, 2.0286210E-02
2938.983, 2.0190779E-02
2940.912, 2.1469681E-02
2942.840, 2.0904640E-02
2944.769, 2.1726031E-02
2946.697, 2.3310401E-02
2948.625, 2.3698719E-02
2950.554, 2.3777880E-02
2952.482, 2.3876529E-02
2954.411, 2.2506760E-02
2956.339, 2.1558760E-02
2958.268, 2.3265900E-02
2960.196, 2.3879331E-02
2962.125, 2.3432299E-02
2964.053, 2.2872560E-02
2965.982, 2.2968760E-02
2967.910, 2.3380350E-02
2969.839, 2.2691000E-02
2971.767, 2.1869520E-02
2973.696, 2.1923801E-02
2975.624, 2.2322370E-02
2977.552, 2.3284109E-02
2979.481, 2.3938131E-02
2981.409, 2.3750020E-02
2983.338, 2.3637909E-02
2985.266, 2.3851831E-02
2987.195, 2.3524821E-02
2989.123, 2.4057111E-02
2991.052, 2.5109841E-02
2992.980, 2.5554560E-02
2994.909, 2.5636761E-02
2996.837, 2.4753200E-02
2998.766, 2.3809589E-02
3000.694, 2.4322050E-02
3002.623, 2.4702439E-02
3004.551, 2.4509169E-02
3006.479, 2.3789641E-02
3008.408, 2.4184391E-02
3010.336, 2.3729211E-02
3012.265, 2.3004510E-02
3014.193, 2.3484761E-02
3016.122, 2.4273239E-02
3018.050, 2.4049640E-02
3019.979, 2.3306660E-02
3021.907, 2.3252729E-02
3023.836, 2.2336621E-02
3025.764, 2.2334039E-02
3027.693, 2.3711011E-02
3029.621, 2.5406379E-02
3031.550, 2.4974659E-02
3033.478, 2.4185700E-02
3035.406, 2.4948750E-02
3037.335, 2.5376730E-02
3039.263, 2.4451660E-02
3041.192, 2.4413290E-02
3043.120, 2.4485210E-02
3045.049, 2.5192540E-02
3046.977, 2.5629999E-02
3048.906, 2.5076039E-02
3050.834, 2.5266919E-02
3052.763, 2.4803720E-02
3054.691, 2.3703629E-02
3056.620, 2.4265099E-02
3058.548, 2.5244441E-02
3060.477, 2.5171660E-02
3062.405, 2.5845010E-02
3064.333, 2.5582161E-02
3066.262, 2.5704170E-02
3068.190, 2.6300151E-02
3070.119, 2.5598550E-02
3072.047, 2.4951300E-02
3073.976, 2.3532821E-02
3075.904, 2.3401380E-02
3077.833, 2.5730900E-02
3079.761, 2.6938429E-02
3081.690, 2.6070170E-02
3083.618, 2.4738509E-02
3085.547, 2.5456270E-02
3087.475, 2.7557639E-02
3089.404, 2.7785730E-02
3091.332, 2.6021270E-02
3093.260, 2.5484379E-02
3095.189, 2.4983469E-02
3097.117, 2.5314750E-02
3099.046, 2.5647700E-02
3100.974, 2.4417410E-02
3102.903, 2.4701459E-02
3104.831, 2.5225900E-02
3106.760, 2.6290329E-02
3108.688, 2.6312521E-02
3110.617, 2.5560111E-02
3112.545, 2.6372910E-02
3114.474, 2.6628060E-02
3116.402, 2.5767921E-02
3118.331, 2.5951659E-02
3120.259, 2.7364179E-02
3122.188, 2.6940610E-02
3124.116, 2.5690081E-02
3126.044, 2.6322059E-02
3127.973, 2.7291670E-02
3129.901, 2.7140230E-02
3131.830, 2.6590580E-02
3133.758, 2.5702409E-02
3135.687, 2.7116731E-02
3137.615, 2.7542330E-02
3139.544, 2.7627310E-02
3141.472, 2.8956329E-02
3143.401, 2.9474551E-02
3145.329, 2.8949970E-02
3147.258, 2.7588701E-02
3149.186, 2.6303841E-02
3151.115, 2.6131781E-02
3153.043, 2.6432650E-02
3154.971, 2.6428791E-02
3156.900, 2.6563199E-02
3158.828, 2.6791161E-02
3160.757, 2.8159769E-02
3162.685, 2.9830441E-02
3164.614, 2.8755300E-02
3166.542, 2.6919181E-02
3168.471, 2.6338849E-02
3170.399, 2.6066329E-02
3172.328, 2.5687180E-02
3174.256, 2.5704080E-02
3176.185, 2.6596511E-02
3178.113, 2.7960280E-02
3180.042, 2.7939720E-02
3181.970, 2.8499220E-02
3183.898, 2.8915450E-02
3185.827, 2.7786439E-02
3187.755, 2.6579579E-02
3189.684, 2.5709599E-02
3191.612, 2.5641009E-02
3193.541, 2.7411580E-02
3195.469, 2.6975401E-02
3197.398, 2.6888199E-02
3199.326, 2.8375400E-02
3201.255, 2.9093441E-02
3203.183, 2.9625859E-02
3205.112, 2.9224141E-02
3207.040, 2.8531009E-02
3208.969, 2.8556310E-02
3210.897, 2.7416350E-02
3212.825, 2.7147859E-02
3214.754, 2.8015381E-02
3216.682, 2.9502060E-02
3218.611, 3.0300500E-02
3220.539, 2.9431719E-02
3222.468, 2.8252879E-02
3224.396, 2.7560160E-02
3226.325, 2.8286370E-02
3228.253, 2.8097220E-02
3230.182, 2.6806669E-02
3232.110, 2.7417500E-02
3234.039, 2.8491659E-02
3235.967, 2.8864641E-02
3237.896, 2.9612141E-02
3239.824, 3.0862371E-02
3241.752, 2.8937191E-02
3243.681, 2.8152330E-02
3245.609, 2.8889939E-02
3247.538, 2.9861430E-02
3249.466, 2.9175200E-02
3251.395, 2.8966179E-02
3253.323, 2.8868280E-02
3255.252, 2.7709501E-02
3257.180, 2.8982909E-02
3259.109, 2.8953120E-02
3261.037, 2.8685750E-02
3262.966, 2.9465500E-02
3264.894, 2.9291511E-02
3266.823, 2.8302720E-02
3268.751, 2.7812921E-02
3270.679, 2.5623729E-02
3272.608, 2.5491230E-02
3274.536, 2.8326379E-02
3276.465, 3.0405000E-02
3278.393, 2.8593680E-02
3280.322, 2.6825991E-02
3282.250, 2.7912481E-02
3284.179, 2.8551660E-02
3286.107, 2.7816370E-02
3288.036, 2.7161639E-02
3289.964, 2.8852440E-02
3291.893, 2.9479619E-02
3293.821, 2.7881561E-02
3295.750, 2.8802341E-02
3297.678, 2.9073959E-02
3299.606, 2.8681660E-02
3301.535, 2.9544750E-02
3303.463, 2.9043199E-02
3305.392, 2.7905131E-02
3307.320, 2.7543571E-02
3309.249, 2.7804989E-02
3311.177, 2.8164741E-02
3313.106, 2.8929820E-02
3315.034, 3.0451110E-02
3316.963, 2.8396200E-02
3318.891, 2.6985319E-02
3320.820, 2.7007051E-02
3322.748, 2.7076580E-02
3324.677, 2.8122179E-02
3326.605, 2.7906990E-02
3328.533, 2.9199909E-02
3330.462, 3.0293381E-02
3332.390, 3.0134469E-02
3334.319, 3.0507291E-02
3336.247, 2.9840151E-02
3338.176, 2.8786059E-02
3340.104, 2.7571470E-02
3342.033, 2.5810370E-02
3343.961, 2.7577560E-02
3345.890, 2.9128879E-02
3347.818, 3.0007850E-02
3349.747, 3.0001460E-02
3351.675, 2.9736130E-02
3353.604, 2.8079789E-02
3355.532, 2.6931310E-02
3357.460, 3.0330971E-02
3359.389, 3.2478832E-02
3361.317, 2.9196830E-02
3363.246, 2.6731251E-02
3365.174, 2.8337291E-02
3367.103, 2.8138110E-02
3369.031, 2.9012291E-02
3370.960, 3.0152339E-02
3372.888, 2.8120490E-02
3374.817, 2.6421590E-02
3376.745, 2.7786011E-02
3378.674, 2.7918249E-02
3380.602, 2.7127041E-02
3382.531, 2.7111121E-02
3384.459, 2.5695520E-02
3386.387, 2.5762459E-02
3388.316, 2.6513210E-02
3390.244, 2.5098739E-02
3392.173, 2.5501210E-02
3394.101, 2.7258391E-02
3396.030, 2.6267480E-02
3397.958, 2.7996140E-02
3399.887, 2.9548980E-02
3401.815, 2.8617570E-02
3403.744, 2.9094269E-02
3405.672, 2.8981630E-02
3407.601, 2.9084740E-02
3409.529, 2.8888419E-02
3411.458, 2.6957070E-02
3413.386, 2.6844470E-02
3415.314, 2.7434520E-02
3417.243, 2.7054330E-02
3419.171, 2.5468480E-02
3421.100, 2.5710030E-02
3423.028, 2.6679870E-02
3424.957, 2.6901949E-02
3426.885, 2.8904989E-02
3428.814, 2.9964520E-02
3430.742, 2.7503910E-02
3432.671, 2.7454721E-02
3434.599, 2.7192431E-02
3436.528, 2.6621399E-02
3438.456, 2.7159970E-02
3440.385, 2.8242299E-02
3442.313, 2.7785240E-02
3444.241, 2.7933940E-02
3446.170, 2.9007809E-02
3448.098, 2.9214980E-02
3450.027, 2.8578229E-02
3451.955, 2.5777370E-02
3453.884, 2.5143180E-02
3455.812, 2.7476409E-02
3457.741, 2.8143460E-02
3459.669, 2.8298041E-02
3461.598, 2.8686110E-02
3463.526, 3.0647069E-02
3465.455, 3.1645671E-02
3467.383, 3.0363239E-02
3469.312, 2.8274771E-02
3471.240, 2.7909059E-02
3473.168, 3.0123649E-02
3475.097, 2.9283350E-02
3477.025, 2.7473420E-02
3478.954, 2.8767910E-02
3480.882, 2.9460531E-02
3482.811, 2.9617241E-02
3484.739, 2.9829931E-02
3486.668, 3.0679820E-02
3488.596, 3.0061491E-02
3490.525, 2.8547119E-02
3492.453, 2.9281780E-02
3494.382, 2.9103311E-02
3496.310, 2.8824300E-02
3498.239, 3.0479571E-02
3500.167, 2.9702390E-02
3502.095, 2.8899780E-02
3504.024, 2.9077699E-02
3505.952, 2.8333830E-02
3507.881, 2.9277470E-02
3509.809, 3.0746629E-02
3511.738, 2.9487239E-02
3513.666, 2.5953609E-02
3515.595, 2.4611220E-02
3517.523, 2.2859029E-02
3519.452, 2.1852249E-02
3521.380, 2.4457511E-02
3523.309, 2.7101981E-02
3525.237, 2.9638460E-02
3527.166, 2.8219311E-02
3529.094, 2.5984069E-02
3531.022, 2.6450651E-02
3532.951, 3.0212780E-02
3534.879, 2.9402990E-02
3536.808, 2.5281919E-02
3538.736, 2.4560541E-02
3540.665, 2.5398580E-02
3542.593, 2.6343871E-02
3544.522, 2.7775690E-02
3546.450, 2.6564060E-02
3548.379, 2.3017660E-02
3550.307, 2.1872720E-02
3552.236, 2.4715830E-02
3554.164, 2.3663990E-02
3556.093, 2.0429051E-02
3558.021, 1.8901041E-02
3559.949, 2.0411650E-02
3561.878, 2.3539189E-02
3563.806, 2.4456561E-02
3565.735, 2.4057429E-02
3567.663, 2.0470010E-02
3569.592, 2.1902040E-02
3571.520, 2.5282370E-02
3573.449, 2.7734751E-02
3575.377, 2.7648410E-02
3577.306, 2.3157779E-02
3579.234, 2.1014391E-02
3581.163, 2.3094229E-02
3583.091, 2.3691799E-02
3585.020, 2.3602640E-02
3586.948, 2.3583720E-02
3588.876, 2.2504309E-02
3590.805, 2.4169900E-02
3592.733, 2.5265319E-02
3594.662, 2.6364829E-02
3596.590, 2.5145900E-02
3598.519, 2.0650189E-02
3600.447, 1.8063441E-02
3602.376, 1.6445911E-02
3604.304, 1.9939929E-02
3606.233, 2.1010140E-02
3608.161, 1.8758871E-02
3610.090, 2.1791710E-02
3612.018, 2.4529180E-02
3613.947, 2.1850560E-02
3615.875, 2.2094160E-02
3617.803, 2.4690600E-02
3619.732, 2.3089049E-02
3621.660, 2.1161200E-02
3623.589, 2.0452101E-02
3625.517, 2.1141000E-02
3627.446, 1.9152191E-02
3629.374, 1.8198339E-02
3631.303, 2.0436160E-02
3633.231, 2.0869510E-02
3635.160, 2.3442689E-02
3637.088, 2.3730731E-02
3639.017, 2.0583520E-02
3640.945, 1.8893540E-02
3642.874, 2.1215411E-02
3644.802, 2.5366880E-02
3646.730, 2.3751570E-02
3648.659, 1.9630739E-02
3650.587, 2.0151030E-02
3652.516, 2.3581890E-02
3654.444, 2.5415780E-02
3656.373, 2.4602011E-02
3658.301, 2.4775030E-02
3660.230, 2.3222581E-02
3662.158, 2.1778511E-02
3664.087, 2.3179660E-02
3666.015, 2.2778399E-02
3667.944, 1.9663870E-02
3669.872, 2.2462821E-02
3671.801, 2.0918351E-02
3673.729, 1.6988911E-02
3675.657, 1.7926101E-02
3677.586, 1.9766020E-02
3679.514, 2.3255860E-02
3681.443, 2.2730241E-02
3683.371, 2.0878050E-02
3685.300, 2.0003561E-02
3687.228, 2.1870250E-02
3689.157, 2.5285110E-02
3691.085, 2.1818990E-02
3693.014, 1.6697589E-02
3694.942, 1.9814311E-02
3696.871, 2.2192340E-02
3698.799, 2.0955570E-02
3700.728, 1.9991949E-02
3702.656, 1.8507710E-02
3704.584, 1.9879930E-02
3706.513, 2.1751471E-02
3708.441, 2.2633730E-02
3710.370, 2.1465840E-02
3712.298, 1.7075650E-02
3714.227, 1.8905820E-02
3716.155, 2.0438761E-02
3718.084, 2.3163170E-02
3720.012, 2.5223760E-02
3721.941, 2.5166810E-02
3723.869, 2.4615619E-02
3725.798, 2.2947880E-02
3727.726, 2.4510570E-02
3729.655, 2.5267299E-02
3731.583, 2.3628989E-02
3733.511, 2.3338839E-02
3735.440, 2.3814799E-02
3737.368, 2.3963070E-02
3739.297, 2.3038810E-02
3741.225, 2.3103500E-02
3743.154, 1.9709369E-02
3745.082, 2.1817319E-02
3747.011, 2.1465831E-02
3748.939, 1.8859690E-02
3750.868, 2.1635650E-02
3752.796, 2.7102200E-02
3754.725, 2.8695431E-02
3756.653, 2.6831910E-02
3758.582, 2.3769241E-02
3760.510, 2.4160260E-02
3762.438, 2.4392180E-02
3764.367, 2.2770530E-02
3766.295, 2.2798140E-02
3768.224, 2.2392061E-02
3770.152, 1.9852029E-02
3772.081, 2.0507010E-02
3774.009, 2.3263590E-02
3775.938, 2.5761191E-02
3777.866, 2.3833919E-02
3779.795, 2.0957731E-02
3781.723, 2.2412321E-02
3783.652, 2.4764249E-02
3785.580, 2.3936540E-02
3787.509, 2.2865459E-02
3789.437, 2.1126920E-02
3791.365, 2.2228921E-02
3793.294, 2.2849539E-02
3795.222, 2.1329870E-02
3797.151, 2.1587091E-02
3799.079, 2.3079051E-02
3801.008, 2.3077231E-02
3802.936, 2.3043569E-02
3804.865, 2.0767961E-02
3806.793, 2.0288590E-02
3808.722, 2.1335419E-02
3810.650, 2.0912699E-02
3812.579, 1.9539630E-02
3814.507, 2.0280059E-02
3816.436, 2.2737389E-02
3818.364, 2.5398390E-02
3820.292, 2.5447341E-02
3822.221, 2.2808710E-02
3824.149, 2.6144691E-02
3826.078, 2.5334749E-02
3828.006, 2.3811171E-02
3829.935, 2.4594190E-02
3831.863, 2.2120221E-02
3833.792, 1.9920610E-02
3835.720, 2.1519231E-02
3837.649, 2.5459660E-02
3839.577, 2.6283501E-02
3841.506, 2.3361830E-02
3843.434, 2.2367690E-02
3845.363, 2.3437349E-02
3847.291, 2.5003750E-02
3849.219, 2.5338160E-02
3851.148, 2.5970491E-02
3853.076, 2.6112391E-02
3855.005, 2.6794931E-02
3856.933, 2.5084190E-02
3858.862, 2.3763940E-02
3860.790, 2.3754541E-02
3862.719, 2.2686960E-02
3864.647, 2.1750920E-02
3866.576, 2.5106581E-02
3868.504, 2.6267460E-02
3870.433, 2.3981670E-02
3872.361, 2.2714330E-02
3874.290, 2.3941111E-02
3876.218, 2.4933370E-02
3878.146, 2.5609080E-02
3880.075, 2.8045841E-02
3882.003, 2.8345959E-02
3883.932, 2.4815170E-02
3885.860, 2.3859030E-02
3887.789, 2.4494329E-02
3889.717, 2.3963241E-02
3891.646, 2.3746260E-02
3893.574, 2.1665821E-02
3895.503, 2.3586150E-02
3897.431, 2.7183641E-02
3899.360, 2.4048980E-02
3901.288, 2.0526061E-02
3903.217, 2.0486459E-02
3905.145, 2.1280071E-02
3907.073, 2.1162249E-02
3909.002, 1.9519741E-02
3910.930, 2.3575490E-02
3912.859, 2.6169781E-02
3914.787, 2.3918111E-02
3916.716, 2.4332291E-02
3918.644, 2.7676269E-02
3920.573, 2.5671750E-02
3922.501, 2.4467779E-02
3924.430, 2.5925661E-02
3926.358, 2.7872900E-02
3928.287, 2.4964890E-02
3930.215, 2.4295811E-02
3932.144, 2.3052059E-02
3934.072, 2.3193641E-02
3936.000, 2.5035219E-02
3937.929, 2.8016450E-02
3939.857, 2.6381239E-02
3941.786, 2.0937700E-02
3943.714, 1.8054539E-02
3945.643, 2.1950530E-02
3947.571, 2.5618700E-02
3949.500, 2.3983549E-02
3951.428, 2.4754871E-02
3953.357, 2.1740969E-02
3955.285, 2.2371510E-02
3957.214, 2.5553510E-02
3959.142, 2.9098799E-02
3961.071, 2.7379319E-02
3962.999, 2.6068339E-02
3964.927, 2.5851890E-02
3966.856, 2.5065031E-02
3968.784, 2.5334351E-02
3970.713, 2.5262419E-02
3972.641, 2.2741610E-02
3974.570, 2.6058080E-02
3976.498, 3.1887230E-02
3978.427, 3.2511890E-02
3980.355, 2.8495001E-02
3982.284, 2.5385570E-02
3984.212, 2.4374809E-02
3986.141, 2.5174949E-02
3988.069, 2.7459079E-02
3989.998, 2.6832450E-02
3991.926, 2.5776859E-02
3993.854, 2.3845520E-02
3995.783, 2.2388520E-02
3997.711, 2.3420870E-02
3999.640, 2.3432169E-02
##END=



