##NAMES=Triphylite
##RRUFFID=R050624
##IDEAL CHEMISTRY=LiFe^2+^PO_4_
##LOCALITY=Minas Gerais, Brazil
##OWNER=RRUFF
##SOURCE=Gemological Center
##DESCRIPTION=Brown fragment
##STATUS=The identification of this mineral has been confirmed by X-ray diffraction and chemical analysis
##URL=rruff.info/R050624
##MEASURED CHEMISTRY=Li_1.00_(Fe^2+^_0.55_Mn^2+^_0.45_)_Î£=1_P_1.00_O_4_ ; Li not measured, but estimated by difference
399.1926, 0.1295583
401.1211, 0.1267341
403.0496, 0.1273434
404.9780, 0.1187249
406.9065, 0.1147017
408.8350, 0.1179381
410.7634, 0.1223298
412.6919, 0.1246775
414.6204, 0.1253695
416.5488, 0.1230655
418.4773, 0.1264371
420.4058, 0.1272923
422.3342, 0.1289951
424.2627, 0.1330753
426.1912, 0.1364352
428.1196, 0.1424530
430.0481, 0.1448867
431.9766, 0.1449948
433.9050, 0.1509596
435.8335, 0.1567078
437.7620, 0.1623797
439.6904, 0.1717043
441.6189, 0.1796272
443.5474, 0.1864856
445.4758, 0.1961626
447.4043, 0.2083357
449.3328, 0.2216099
451.2612, 0.2332181
453.1897, 0.2455496
455.1182, 0.2571836
457.0466, 0.2651098
458.9751, 0.2665367
460.9036, 0.2621353
462.8320, 0.2554655
464.7605, 0.2479784
466.6890, 0.2382996
468.6174, 0.2289535
470.5459, 0.2217608
472.4744, 0.2131753
474.4028, 0.2047480
476.3313, 0.1995730
478.2598, 0.1958860
480.1882, 0.1939513
482.1167, 0.1933104
484.0452, 0.1924471
485.9736, 0.1924053
487.9021, 0.1920866
489.8306, 0.1911539
491.7590, 0.1912352
493.6875, 0.1901152
495.6160, 0.1864113
497.5444, 0.1809078
499.4729, 0.1755716
501.4014, 0.1701828
503.3298, 0.1652427
505.2583, 0.1630208
507.1868, 0.1610493
509.1152, 0.1593769
511.0437, 0.1576693
512.9722, 0.1554114
514.9006, 0.1526311
516.8291, 0.1495619
518.7576, 0.1472369
520.6860, 0.1456329
522.6145, 0.1430428
524.5430, 0.1390792
526.4714, 0.1357538
528.3999, 0.1343009
530.3284, 0.1340467
532.2568, 0.1353654
534.1853, 0.1375777
536.1138, 0.1421862
538.0422, 0.1512630
539.9707, 0.1648551
541.8992, 0.1828245
543.8276, 0.2018974
545.7561, 0.2129604
547.6846, 0.2100042
549.6130, 0.1979104
551.5415, 0.1804219
553.4700, 0.1612465
555.3984, 0.1427643
557.3269, 0.1269516
559.2554, 0.1142812
561.1838, 0.1055654
563.1123, 0.1014799
565.0408, 0.1016889
566.9692, 0.1068813
568.8977, 0.1178022
570.8262, 0.1325963
572.7546, 0.1463566
574.6831, 0.1525702
576.6116, 0.1490051
578.5400, 0.1389406
580.4685, 0.1257156
582.3970, 0.1103844
584.3254, 9.5129989E-02
586.2539, 8.1409201E-02
588.1824, 6.9828533E-02
590.1108, 6.1228018E-02
592.0393, 5.5389289E-02
593.9678, 5.1267881E-02
595.8962, 4.8406411E-02
597.8247, 4.5554321E-02
599.7532, 4.3761201E-02
601.6816, 4.2871650E-02
603.6101, 4.2227250E-02
605.5386, 4.2411558E-02
607.4670, 4.3402571E-02
609.3955, 4.4821009E-02
611.3240, 4.6798531E-02
613.2524, 5.0546560E-02
615.1809, 5.6052871E-02
617.1094, 6.3161626E-02
619.0378, 7.3479831E-02
620.9663, 8.7295704E-02
622.8948, 0.1065606
624.8232, 0.1320232
626.7517, 0.1634774
628.6802, 0.1988902
630.6086, 0.2288839
632.5371, 0.2438941
634.4656, 0.2425499
636.3940, 0.2293774
638.3225, 0.2118541
640.2510, 0.1937539
642.1794, 0.1741214
644.1079, 0.1521476
646.0364, 0.1278255
647.9648, 0.1033473
649.8933, 8.1539743E-02
651.8218, 6.3195392E-02
653.7502, 4.9366750E-02
655.6787, 4.0495820E-02
657.6072, 3.4015872E-02
659.5356, 2.9857591E-02
661.4641, 2.7241079E-02
663.3926, 2.5039289E-02
665.3210, 2.3648240E-02
667.2495, 2.2761939E-02
669.1780, 2.1576580E-02
671.1064, 2.0455100E-02
673.0349, 2.0090461E-02
674.9634, 1.9867470E-02
676.8918, 1.9627521E-02
678.8203, 1.9479919E-02
680.7488, 1.9038880E-02
682.6772, 1.8504130E-02
684.6057, 1.8435029E-02
686.5342, 1.8527960E-02
688.4626, 1.8330449E-02
690.3911, 1.7885510E-02
692.3196, 1.7424621E-02
694.2480, 1.7318450E-02
696.1765, 1.7466741E-02
698.1050, 1.7313531E-02
700.0334, 1.7176859E-02
701.9619, 1.6977429E-02
703.8904, 1.7049180E-02
705.8188, 1.7230460E-02
707.7473, 1.7212201E-02
709.6758, 1.7273679E-02
711.6042, 1.7182520E-02
713.5327, 1.7406290E-02
715.4612, 1.7802840E-02
717.3896, 1.8092060E-02
719.3181, 1.7935490E-02
721.2466, 1.7744660E-02
723.1750, 1.7955329E-02
725.1035, 1.8050350E-02
727.0320, 1.7977539E-02
728.9604, 1.8377731E-02
730.8889, 1.8874150E-02
732.8174, 1.8977869E-02
734.7458, 1.9111959E-02
736.6743, 1.9538561E-02
738.6028, 1.9594589E-02
740.5313, 1.9756550E-02
742.4597, 2.0133169E-02
744.3882, 2.0411450E-02
746.3167, 2.0643780E-02
748.2451, 2.0946329E-02
750.1736, 2.1058630E-02
752.1021, 2.0988500E-02
754.0305, 2.1281840E-02
755.9590, 2.1723410E-02
757.8875, 2.2076851E-02
759.8159, 2.2196280E-02
761.7444, 2.2439931E-02
763.6729, 2.2886431E-02
765.6013, 2.3419069E-02
767.5298, 2.3777479E-02
769.4583, 2.4140051E-02
771.3867, 2.4391960E-02
773.3152, 2.4709409E-02
775.2437, 2.5263609E-02
777.1721, 2.6004110E-02
779.1006, 2.6612770E-02
781.0291, 2.7035629E-02
782.9575, 2.7520800E-02
784.8860, 2.8052369E-02
786.8145, 2.8350661E-02
788.7429, 2.8966790E-02
790.6714, 2.9759590E-02
792.5999, 3.0221229E-02
794.5283, 3.0780731E-02
796.4568, 3.1400818E-02
798.3853, 3.2089829E-02
800.3137, 3.2974251E-02
802.2422, 3.3858251E-02
804.1707, 3.4389328E-02
806.0991, 3.5260379E-02
808.0276, 3.6216091E-02
809.9561, 3.7357401E-02
811.8845, 3.8583700E-02
813.8130, 3.9575730E-02
815.7415, 4.0740810E-02
817.6699, 4.1966610E-02
819.5984, 4.3381140E-02
821.5269, 4.4889849E-02
823.4553, 4.6234481E-02
825.3838, 4.7577210E-02
827.3123, 4.9278010E-02
829.2407, 5.1031571E-02
831.1692, 5.2457299E-02
833.0977, 5.4115679E-02
835.0261, 5.6049891E-02
836.9546, 5.7730820E-02
838.8831, 5.9402902E-02
840.8115, 6.1116491E-02
842.7400, 6.3304633E-02
844.6685, 6.5531947E-02
846.5969, 6.7413896E-02
848.5254, 6.9550402E-02
850.4539, 7.1965963E-02
852.3823, 7.4422650E-02
854.3108, 7.7177547E-02
856.2393, 8.0059551E-02
858.1677, 8.2904167E-02
860.0962, 8.6026400E-02
862.0247, 8.9610711E-02
863.9531, 9.3014427E-02
865.8816, 9.6707188E-02
867.8101, 0.1003749
869.7385, 0.1043371
871.6670, 0.1089679
873.5955, 0.1141701
875.5239, 0.1195966
877.4524, 0.1254555
879.3809, 0.1312877
881.3093, 0.1368133
883.2378, 0.1429513
885.1663, 0.1497544
887.0947, 0.1565702
889.0232, 0.1635464
890.9517, 0.1710435
892.8801, 0.1797694
894.8085, 0.1892347
896.7370, 0.1985712
898.6655, 0.2086071
900.5939, 0.2194073
902.5224, 0.2304043
904.4509, 0.2416516
906.3793, 0.2534283
908.3078, 0.2659193
910.2363, 0.2782456
912.1647, 0.2903786
914.0932, 0.3029519
916.0217, 0.3159177
917.9501, 0.3298109
919.8786, 0.3437534
921.8071, 0.3579026
923.7355, 0.3729354
925.6640, 0.3883114
927.5925, 0.4033046
929.5209, 0.4182476
931.4494, 0.4325135
933.3779, 0.4453909
935.3063, 0.4559291
937.2348, 0.4626369
939.1633, 0.4656424
941.0917, 0.4649563
943.0202, 0.4613740
944.9487, 0.4572299
946.8771, 0.4555455
948.8056, 0.4576897
950.7341, 0.4620242
952.6625, 0.4660311
954.5910, 0.4675672
956.5195, 0.4670812
958.4479, 0.4655843
960.3764, 0.4629110
962.3049, 0.4591778
964.2333, 0.4544518
966.1618, 0.4496682
968.0903, 0.4446800
970.0187, 0.4397464
971.9472, 0.4353283
973.8757, 0.4308409
975.8041, 0.4265521
977.7326, 0.4232262
979.6611, 0.4201787
981.5895, 0.4170870
983.5180, 0.4138367
985.4465, 0.4101439
987.3749, 0.4058806
989.3034, 0.4009505
991.2319, 0.3949425
993.1603, 0.3877930
995.0888, 0.3804309
997.0173, 0.3726442
998.9457, 0.3644004
1000.874, 0.3568033
1002.803, 0.3499537
1004.731, 0.3436023
1006.660, 0.3382696
1008.588, 0.3344527
1010.517, 0.3318728
1012.445, 0.3309884
1014.373, 0.3317581
1016.302, 0.3336978
1018.230, 0.3372340
1020.159, 0.3420748
1022.087, 0.3484644
1024.016, 0.3565729
1025.944, 0.3663020
1027.873, 0.3759765
1029.801, 0.3842238
1031.730, 0.3896954
1033.658, 0.3923806
1035.587, 0.3935691
1037.515, 0.3932088
1039.444, 0.3914278
1041.372, 0.3883281
1043.301, 0.3844603
1045.229, 0.3797764
1047.157, 0.3743266
1049.086, 0.3678601
1051.014, 0.3614066
1052.943, 0.3539925
1054.871, 0.3456179
1056.800, 0.3370229
1058.728, 0.3278110
1060.657, 0.3178035
1062.585, 0.3074596
1064.514, 0.2970093
1066.442, 0.2864316
1068.371, 0.2756007
1070.299, 0.2652048
1072.228, 0.2548792
1074.156, 0.2443971
1076.084, 0.2342735
1078.013, 0.2245524
1079.941, 0.2159556
1081.870, 0.2092674
1083.798, 0.2050152
1085.727, 0.2049201
1087.655, 0.2101551
1089.584, 0.2195553
1091.512, 0.2281406
1093.441, 0.2288586
1095.369, 0.2189200
1097.298, 0.2028089
1099.226, 0.1863442
1101.155, 0.1715492
1103.083, 0.1585832
1105.011, 0.1471932
1106.940, 0.1365239
1108.868, 0.1265641
1110.797, 0.1169247
1112.725, 0.1073854
1114.654, 9.7911529E-02
1116.582, 8.8518128E-02
1118.511, 8.0079153E-02
1120.439, 7.3219202E-02
1122.368, 6.7837179E-02
1124.296, 6.4401411E-02
1126.225, 6.3941918E-02
1128.153, 6.7856252E-02
1130.082, 7.7529177E-02
1132.010, 9.3827821E-02
1133.938, 0.1138019
1135.867, 0.1288042
1137.795, 0.1327904
1139.724, 0.1277711
1141.652, 0.1182894
1143.581, 0.1074750
1145.509, 9.6537493E-02
1147.438, 8.6236373E-02
1149.366, 7.6646112E-02
1151.295, 6.7629039E-02
1153.223, 5.9054941E-02
1155.152, 5.1398911E-02
1157.080, 4.4321589E-02
1159.009, 3.7989538E-02
1160.937, 3.2417942E-02
1162.865, 2.7898621E-02
1164.794, 2.4051109E-02
1166.722, 2.0803479E-02
1168.651, 1.8290989E-02
1170.579, 1.6353000E-02
1172.508, 1.4580860E-02
1174.436, 1.3057800E-02
1176.365, 1.2055560E-02
1178.293, 1.1238760E-02
1180.222, 1.0621240E-02
1182.150, 1.0011140E-02
1184.079, 9.6368063E-03
1186.007, 9.1527589E-03
1187.936, 8.4988391E-03
1189.864, 8.0667799E-03
1191.792, 7.9106167E-03
1193.721, 7.6133790E-03
1195.649, 7.1547572E-03
1197.578, 6.8547591E-03
1199.506, 6.4341021E-03
1201.435, 5.9355861E-03
1203.363, 5.8552278E-03
1205.292, 5.9663951E-03
1207.220, 5.8332221E-03
1209.149, 5.3700572E-03
1211.077, 5.0249440E-03
1213.006, 4.8244591E-03
1214.934, 4.8010512E-03
1216.863, 4.7751050E-03
1218.791, 4.6342821E-03
1220.719, 4.2727198E-03
1222.648, 4.1885702E-03
1224.576, 4.1203001E-03
1226.505, 3.9895670E-03
1228.433, 4.0601860E-03
1230.362, 4.1302349E-03
1232.290, 3.8837930E-03
1234.219, 3.5098400E-03
1236.147, 3.3290901E-03
1238.076, 3.1953200E-03
1240.004, 3.1428500E-03
1241.933, 3.0722870E-03
1243.861, 3.1225290E-03
1245.790, 3.1105571E-03
1247.718, 3.0280601E-03
1249.646, 2.7256231E-03
1251.575, 2.6766500E-03
1253.503, 2.8152310E-03
1255.432, 2.9649241E-03
1257.360, 2.9640330E-03
1259.289, 2.9663141E-03
1261.217, 3.1315931E-03
1263.146, 3.2782110E-03
1265.074, 3.2049571E-03
1267.003, 3.2222581E-03
1268.931, 3.5097019E-03
1270.860, 3.5022369E-03
1272.788, 3.5324651E-03
1274.717, 3.7739109E-03
1276.645, 3.6891249E-03
1278.573, 3.3065311E-03
1280.502, 3.1556240E-03
1282.430, 3.4377880E-03
1284.359, 3.4402171E-03
1286.287, 3.0458940E-03
1288.216, 3.0255690E-03
1290.144, 3.0546400E-03
1292.073, 3.0356611E-03
1294.001, 2.7980630E-03
1295.930, 2.8478049E-03
1297.858, 2.9551790E-03
1299.787, 2.7818771E-03
1301.715, 2.7741720E-03
1303.644, 2.9637050E-03
1305.572, 2.9979651E-03
1307.500, 2.7525451E-03
1309.429, 2.7583919E-03
1311.357, 2.8415751E-03
1313.286, 2.8020670E-03
1315.214, 2.7725929E-03
1317.143, 2.5895620E-03
1319.071, 2.7135329E-03
1321.000, 2.8635690E-03
1322.928, 2.9118480E-03
1324.857, 3.0117990E-03
1326.785, 3.0477811E-03
1328.714, 3.0566370E-03
1330.642, 3.0753021E-03
1332.571, 2.9917860E-03
1334.499, 2.8417739E-03
1336.427, 3.0462041E-03
1338.356, 3.0372720E-03
1340.284, 3.0495939E-03
1342.213, 3.2648561E-03
1344.141, 3.2484080E-03
1346.070, 2.9849289E-03
1347.998, 3.0350890E-03
1349.927, 2.9018209E-03
1351.855, 2.8525810E-03
1353.784, 3.0812561E-03
1355.712, 3.1979140E-03
1357.641, 3.3874351E-03
1359.569, 3.2648100E-03
1361.498, 3.1545500E-03
1363.426, 3.3667490E-03
1365.354, 3.5753290E-03
1367.283, 3.5390870E-03
1369.211, 3.4937880E-03
1371.140, 3.3259911E-03
1373.068, 3.5139259E-03
1374.997, 3.7727130E-03
1376.925, 3.6686980E-03
1378.854, 3.9080442E-03
1380.782, 4.1074590E-03
1382.711, 4.1994639E-03
1384.639, 4.3843291E-03
1386.568, 4.5099389E-03
1388.496, 4.7943899E-03
1390.424, 4.7851200E-03
1392.353, 4.5971340E-03
1394.281, 4.7297138E-03
1396.210, 5.0834771E-03
1398.138, 5.1711821E-03
1400.067, 5.0416188E-03
1401.995, 5.2241469E-03
1403.924, 5.3277118E-03
1405.852, 5.3938180E-03
1407.781, 5.4062051E-03
1409.709, 5.2464372E-03
1411.638, 5.4540490E-03
1413.566, 5.6121689E-03
1415.495, 5.6602010E-03
1417.423, 5.7537118E-03
1419.351, 5.7897381E-03
1421.280, 5.5265599E-03
1423.208, 5.2226260E-03
1425.137, 5.4699029E-03
1427.065, 5.7307612E-03
1428.994, 5.8247210E-03
1430.922, 5.5990252E-03
1432.851, 5.5277222E-03
1434.779, 5.5825049E-03
1436.708, 5.5573471E-03
1438.636, 5.4342919E-03
1440.565, 5.3963671E-03
1442.493, 5.4175709E-03
1444.422, 5.3709419E-03
1446.350, 5.3091901E-03
1448.278, 5.3248350E-03
1450.207, 5.3776731E-03
1452.135, 5.1681851E-03
1454.064, 5.0297268E-03
1455.992, 5.3639491E-03
1457.921, 5.2830251E-03
1459.849, 4.9309768E-03
1461.778, 5.0943461E-03
1463.706, 5.1356321E-03
1465.635, 5.0273621E-03
1467.563, 5.0297622E-03
1469.492, 5.2530780E-03
1471.420, 5.6053940E-03
1473.349, 5.7219821E-03
1475.277, 5.8305869E-03
1477.205, 6.1103250E-03
1479.134, 6.1452682E-03
1481.062, 5.8710328E-03
1482.991, 5.7317652E-03
1484.919, 6.0022711E-03
1486.848, 6.3518742E-03
1488.776, 6.4140661E-03
1490.705, 6.3827159E-03
1492.633, 6.6076792E-03
1494.562, 6.5213200E-03
1496.490, 6.6856700E-03
1498.419, 6.8081631E-03
1500.347, 6.8879109E-03
1502.276, 6.7450600E-03
1504.204, 6.8590268E-03
1506.132, 7.1309730E-03
1508.061, 7.0891338E-03
1509.989, 6.8150829E-03
1511.918, 6.6175959E-03
1513.846, 6.7682769E-03
1515.775, 6.9740671E-03
1517.703, 7.0017450E-03
1519.632, 7.1199611E-03
1521.560, 7.0902151E-03
1523.489, 7.0310370E-03
1525.417, 7.1706208E-03
1527.346, 7.4424851E-03
1529.274, 7.4029472E-03
1531.203, 7.4167969E-03
1533.131, 7.5903321E-03
1535.059, 7.7666361E-03
1536.988, 7.9591731E-03
1538.916, 7.9839174E-03
1540.845, 8.0546346E-03
1542.773, 8.2675042E-03
1544.702, 7.9348926E-03
1546.630, 7.6925689E-03
1548.559, 7.9755271E-03
1550.487, 7.9494324E-03
1552.416, 7.4964538E-03
1554.344, 7.6971259E-03
1556.273, 8.3088363E-03
1558.201, 8.8653974E-03
1560.130, 8.6952280E-03
1562.058, 8.3713196E-03
1563.986, 8.3298739E-03
1565.915, 8.1323879E-03
1567.843, 8.1880381E-03
1569.772, 8.3129844E-03
1571.700, 8.1679663E-03
1573.629, 8.1993071E-03
1575.557, 8.7710600E-03
1577.486, 8.8354824E-03
1579.414, 8.6660143E-03
1581.343, 8.6676283E-03
1583.271, 8.5254237E-03
1585.200, 8.6201541E-03
1587.128, 8.6021544E-03
1589.057, 8.5304026E-03
1590.985, 8.5557522E-03
1592.913, 8.6949179E-03
1594.842, 8.9291064E-03
1596.770, 9.0078115E-03
1598.699, 8.8495091E-03
1600.627, 8.5912291E-03
1602.556, 8.5910419E-03
1604.484, 8.8555804E-03
1606.413, 8.7861763E-03
1608.341, 8.6815702E-03
1610.270, 8.9440364E-03
1612.198, 9.1489628E-03
1614.127, 8.8946624E-03
1616.055, 9.1206692E-03
1617.984, 9.0370579E-03
1619.912, 8.7983748E-03
1621.840, 8.7855598E-03
1623.769, 8.7915389E-03
1625.697, 8.8303965E-03
1627.626, 8.9191310E-03
1629.554, 8.9972299E-03
1631.483, 9.0153236E-03
1633.411, 9.2914421E-03
1635.340, 9.3643414E-03
1637.268, 8.8377679E-03
1639.197, 8.6599626E-03
1641.125, 8.8883182E-03
1643.054, 8.8565936E-03
1644.982, 9.0598883E-03
1646.911, 9.2077469E-03
1648.839, 8.9613535E-03
1650.767, 9.0377452E-03
1652.696, 9.7191799E-03
1654.624, 9.5098792E-03
1656.553, 8.6425440E-03
1658.481, 8.1755212E-03
1660.410, 8.3573218E-03
1662.338, 8.7478217E-03
1664.267, 8.7485369E-03
1666.195, 8.6809490E-03
1668.124, 8.6191194E-03
1670.052, 8.6388271E-03
1671.981, 8.5965525E-03
1673.909, 8.6459816E-03
1675.838, 8.6615048E-03
1677.766, 8.4250541E-03
1679.694, 8.2772775E-03
1681.623, 8.6496826E-03
1683.551, 9.0459175E-03
1685.480, 8.6292289E-03
1687.408, 8.3817365E-03
1689.337, 8.3515150E-03
1691.265, 8.3385464E-03
1693.194, 8.6111054E-03
1695.122, 8.7245731E-03
1697.051, 8.5954471E-03
1698.979, 8.6926464E-03
1700.908, 8.7008588E-03
1702.836, 8.1602344E-03
1704.765, 8.1309266E-03
1706.693, 8.1692263E-03
1708.621, 8.2319807E-03
1710.550, 8.2365144E-03
1712.478, 8.2654217E-03
1714.407, 8.4674656E-03
1716.335, 8.3759930E-03
1718.264, 8.2019893E-03
1720.192, 7.9720812E-03
1722.121, 7.9843625E-03
1724.049, 7.8264615E-03
1725.978, 7.6697809E-03
1727.906, 7.5955852E-03
1729.835, 7.6957229E-03
1731.763, 7.4679912E-03
1733.692, 7.2881812E-03
1735.620, 6.6470830E-03
1737.548, 6.1391662E-03
1739.477, 6.0007279E-03
1741.405, 5.7332059E-03
1743.334, 5.0620232E-03
1745.262, 4.4558500E-03
1747.191, 4.7488478E-03
1749.119, 5.5042119E-03
1751.048, 5.9287180E-03
1752.976, 6.1833118E-03
1754.905, 6.5262639E-03
1756.833, 6.9059338E-03
1758.762, 6.6061462E-03
1760.690, 6.8944292E-03
1762.619, 7.8648794E-03
1764.547, 8.1180157E-03
1766.475, 8.0388123E-03
1768.404, 8.2861297E-03
1770.332, 8.2483254E-03
1772.261, 8.4159840E-03
1774.189, 8.5216658E-03
1776.118, 8.0724647E-03
1778.046, 7.6915012E-03
1779.975, 7.8975763E-03
1781.903, 7.8535844E-03
1783.832, 7.5714770E-03
1785.760, 7.5063519E-03
1787.689, 7.5378441E-03
1789.617, 8.1913453E-03
1791.546, 8.9622391E-03
1793.474, 8.5909804E-03
1795.402, 7.8548500E-03
1797.331, 7.8014480E-03
1799.259, 7.5928341E-03
1801.188, 7.5571011E-03
1803.116, 8.1003327E-03
1805.045, 8.3084414E-03
1806.973, 7.6767150E-03
1808.902, 7.4637788E-03
1810.830, 7.9171956E-03
1812.759, 7.7882772E-03
1814.687, 7.5270468E-03
1816.616, 7.4926908E-03
1818.544, 7.5936601E-03
1820.473, 8.2057910E-03
1822.401, 8.4533868E-03
1824.329, 8.0494890E-03
1826.258, 7.3572169E-03
1828.186, 7.1401461E-03
1830.115, 7.7101840E-03
1832.043, 7.6690912E-03
1833.972, 7.5665470E-03
1835.900, 7.9598920E-03
1837.829, 7.9818452E-03
1839.757, 8.0506867E-03
1841.686, 7.6795109E-03
1843.614, 7.5979428E-03
1845.543, 7.6170629E-03
1847.471, 7.8640338E-03
1849.400, 7.8062168E-03
1851.328, 7.7534108E-03
1853.256, 7.7430112E-03
1855.185, 7.7951341E-03
1857.113, 8.8318652E-03
1859.042, 8.7350504E-03
1860.970, 7.4297851E-03
1862.899, 7.2869919E-03
1864.827, 7.3253349E-03
1866.756, 7.2567682E-03
1868.684, 7.3487330E-03
1870.613, 7.9191029E-03
1872.541, 7.7490392E-03
1874.470, 7.7499342E-03
1876.398, 7.5855670E-03
1878.327, 7.5328699E-03
1880.255, 7.9029910E-03
1882.183, 8.4053781E-03
1884.112, 8.8715898E-03
1886.040, 9.0835448E-03
1887.969, 8.3606197E-03
1889.897, 8.1932470E-03
1891.826, 8.1172800E-03
1893.754, 7.3842611E-03
1895.683, 7.2858832E-03
1897.611, 7.1815932E-03
1899.540, 6.8343752E-03
1901.468, 6.8591661E-03
1903.397, 7.4932622E-03
1905.325, 7.7422708E-03
1907.254, 7.7558481E-03
1909.182, 8.1436448E-03
1911.110, 7.0257471E-03
1913.039, 6.5927622E-03
1914.967, 6.9336449E-03
1916.896, 6.9839242E-03
1918.824, 7.4092699E-03
1920.753, 6.9667860E-03
1922.681, 6.7537860E-03
1924.610, 7.7218320E-03
1926.538, 8.1688799E-03
1928.467, 7.1746828E-03
1930.395, 5.9002740E-03
1932.324, 6.0923360E-03
1934.252, 5.9539508E-03
1936.181, 6.4319302E-03
1938.109, 7.6722340E-03
1940.037, 7.3391749E-03
1941.966, 5.8436301E-03
1943.894, 5.9534698E-03
1945.823, 5.4728058E-03
1947.751, 4.7980868E-03
1949.680, 4.2576049E-03
1951.608, 4.1200188E-03
1953.537, 4.0254239E-03
1955.465, 3.3211380E-03
1957.394, 1.5882590E-03
1959.322, 1.0134890E-03
1961.251, 2.1609929E-03
1963.179, 9.6755329E-04
1965.108, 1.4086870E-03
1967.036, 2.1822650E-03
1968.964, 5.8814278E-04
1970.893, 1.5548540E-03
1972.821, 3.0375831E-03
1974.750, 1.0830510E-03
1976.678, 4.3762039E-04
1978.607, 2.3307081E-03
1980.535, 4.7190189E-03
1982.464, 4.2420570E-03
1984.392, 4.7313171E-03
1986.321, 5.1861680E-03
1988.249, 3.4983200E-03
1990.178, 3.5875260E-03
1992.106, 4.0276400E-03
1994.035, 2.1124010E-03
1995.963, 2.2993630E-03
1997.891, 4.2323610E-03
1999.820, 3.4880079E-03
2001.748, 1.2672860E-03
2003.677, 7.7012637E-06
2005.605, -9.1810699E-04
2007.534, 8.2108198E-04
2009.462, 3.9698221E-03
2011.391, 3.5680800E-03
2013.319, 3.7158359E-04
2015.248, 1.6645039E-03
2017.176, 2.9447109E-03
2019.105, 2.2521040E-03
2021.033, -4.2452230E-04
2022.962, -1.7406240E-03
2024.890, -1.6573070E-03
2026.818, 4.9925002E-04
2028.747, 1.9914401E-03
2030.675, 1.2086510E-03
2032.604, 1.4660440E-03
2034.532, 2.6127140E-03
2036.461, 4.1931090E-03
2038.389, 2.6123831E-03
2040.318, 2.8721399E-03
2042.246, 3.2493330E-03
2044.175, 1.6415740E-03
2046.103, 1.5920470E-03
2048.032, 3.1596499E-03
2049.960, 4.9665351E-03
2051.889, 4.6331240E-03
2053.817, 5.2479370E-03
2055.746, 6.7020119E-03
2057.674, 7.2211698E-03
2059.603, 6.3167778E-03
2061.531, 4.2341598E-03
2063.459, 3.9806901E-03
2065.388, 4.5249332E-03
2067.316, 5.6102611E-03
2069.245, 6.0507338E-03
2071.173, 5.7791579E-03
2073.102, 6.8621370E-03
2075.030, 7.4270922E-03
2076.959, 6.6569801E-03
2078.887, 6.3806400E-03
2080.816, 7.3181600E-03
2082.744, 7.7746902E-03
2084.673, 9.5755747E-03
2086.601, 9.6823294E-03
2088.530, 8.5883606E-03
2090.458, 8.2138861E-03
2092.386, 6.9123479E-03
2094.315, 6.3966140E-03
2096.243, 6.1463928E-03
2098.172, 5.3781271E-03
2100.100, 5.6084869E-03
2102.029, 6.2407032E-03
2103.957, 6.0337051E-03
2105.886, 5.6941472E-03
2107.814, 6.9362922E-03
2109.743, 8.1021143E-03
2111.671, 7.5415899E-03
2113.600, 7.3061739E-03
2115.528, 7.8181708E-03
2117.457, 7.2601028E-03
2119.385, 6.7945910E-03
2121.313, 7.6325098E-03
2123.242, 7.1262210E-03
2125.170, 6.2487209E-03
2127.099, 6.2665250E-03
2129.027, 6.6646230E-03
2130.956, 5.9061032E-03
2132.884, 4.7272160E-03
2134.813, 3.7034310E-03
2136.741, 2.5595780E-03
2138.670, 3.2391089E-03
2140.598, 2.9736699E-03
2142.527, 1.9380000E-03
2144.455, 1.5932660E-03
2146.384, 6.2085659E-04
2148.312, -1.0641140E-04
2150.240, -6.7111469E-05
2152.169, -8.7493332E-05
2154.097, 8.8888517E-04
2156.026, 1.0876301E-03
2157.954, 1.0168060E-03
2159.883, 3.7543231E-03
2161.811, 6.0825278E-03
2163.740, 7.0654280E-03
2165.668, 5.8711022E-03
2167.597, 5.4681590E-03
2169.525, 5.4069422E-03
2171.454, 4.6406719E-03
2173.382, 2.4921980E-03
2175.311, 6.6052668E-04
2177.239, 1.7958439E-03
2179.167, 3.1871290E-03
2181.096, 4.2729601E-03
2183.024, 5.1440350E-03
2184.953, 2.2271329E-03
2186.881, 1.8061210E-03
2188.810, 4.1973758E-03
2190.738, 5.4503190E-03
2192.667, 4.6078162E-03
2194.595, 3.5742770E-03
2196.524, 6.3045868E-03
2198.452, 8.4239729E-03
2200.381, 6.7633740E-03
2202.309, 3.9688922E-03
2204.238, 3.2602909E-03
2206.166, 4.2601018E-03
2208.094, 7.3921368E-03
2210.023, 9.5184399E-03
2211.951, 1.0319470E-02
2213.880, 1.0694600E-02
2215.808, 9.2660012E-03
2217.737, 9.3339421E-03
2219.665, 1.0455300E-02
2221.594, 9.7742304E-03
2223.522, 8.6629782E-03
2225.451, 8.4128696E-03
2227.379, 8.6899959E-03
2229.308, 1.0051900E-02
2231.236, 1.0931710E-02
2233.165, 1.0412300E-02
2235.093, 1.0832800E-02
2237.021, 1.0243300E-02
2238.950, 1.0291120E-02
2240.878, 1.0158990E-02
2242.807, 8.6491872E-03
2244.735, 9.7299954E-03
2246.664, 1.2526760E-02
2248.592, 1.3027350E-02
2250.521, 1.2332800E-02
2252.449, 1.1391210E-02
2254.378, 1.2354620E-02
2256.306, 1.3112120E-02
2258.235, 1.1932120E-02
2260.163, 1.1308860E-02
2262.092, 1.0981770E-02
2264.020, 1.1103940E-02
2265.948, 1.1815570E-02
2267.877, 1.1058410E-02
2269.805, 1.0196890E-02
2271.734, 9.8495306E-03
2273.662, 1.0402170E-02
2275.591, 1.0788320E-02
2277.519, 1.0540090E-02
2279.448, 1.0831120E-02
2281.376, 1.1889820E-02
2283.305, 1.1839760E-02
2285.233, 1.1977280E-02
2287.162, 1.2814750E-02
2289.090, 1.3315170E-02
2291.019, 1.3284610E-02
2292.947, 1.2602990E-02
2294.875, 1.2776400E-02
2296.804, 1.3920380E-02
2298.732, 1.4421640E-02
2300.661, 1.4510610E-02
2302.589, 1.4039310E-02
2304.518, 1.3354990E-02
2306.446, 1.4001450E-02
2308.375, 1.5410790E-02
2310.303, 1.5427240E-02
2312.232, 1.5359600E-02
2314.160, 1.6501689E-02
2316.089, 1.6656891E-02
2318.017, 1.6231300E-02
2319.946, 1.7139111E-02
2321.874, 1.7404269E-02
2323.802, 1.7354021E-02
2325.731, 1.6470701E-02
2327.659, 1.5934659E-02
2329.588, 1.6809139E-02
2331.516, 1.7627150E-02
2333.445, 1.7260309E-02
2335.373, 1.6933979E-02
2337.302, 1.6794810E-02
2339.230, 1.6685110E-02
2341.159, 1.6099179E-02
2343.087, 1.6193209E-02
2345.016, 1.6622441E-02
2346.944, 1.6558720E-02
2348.873, 1.6258899E-02
2350.801, 1.5977480E-02
2352.729, 1.6417330E-02
2354.658, 1.7237250E-02
2356.586, 1.6776130E-02
2358.515, 1.7167261E-02
2360.443, 1.7915489E-02
2362.372, 1.8183460E-02
2364.300, 1.7475400E-02
2366.229, 1.7091859E-02
2368.157, 1.7336950E-02
2370.086, 1.6533010E-02
2372.014, 1.6289400E-02
2373.942, 1.6474869E-02
2375.871, 1.5827030E-02
2377.799, 1.5051330E-02
2379.728, 1.5332800E-02
2381.656, 1.5392650E-02
2383.585, 1.4121390E-02
2385.513, 1.4287710E-02
2387.442, 1.5659690E-02
2389.370, 1.5743880E-02
2391.299, 1.5500970E-02
2393.227, 1.5783871E-02
2395.156, 1.5887400E-02
2397.084, 1.5709801E-02
2399.012, 1.5776590E-02
2400.941, 1.5736930E-02
2402.869, 1.5655249E-02
2404.798, 1.5605940E-02
2406.726, 1.6427649E-02
2408.655, 1.7222490E-02
2410.583, 1.6495520E-02
2412.512, 1.6099520E-02
2414.440, 1.6329480E-02
2416.369, 1.6355211E-02
2418.297, 1.6612779E-02
2420.226, 1.6401110E-02
2422.154, 1.6281640E-02
2424.083, 1.4912200E-02
2426.011, 1.4816700E-02
2427.939, 1.6497839E-02
2429.868, 1.6496960E-02
2431.796, 1.6448019E-02
2433.725, 1.7152891E-02
2435.653, 1.6397299E-02
2437.582, 1.7011469E-02
2439.510, 1.7599249E-02
2441.439, 1.7757030E-02
2443.367, 1.8589441E-02
2445.296, 1.8033190E-02
2447.224, 1.6709100E-02
2449.153, 1.6091989E-02
2451.081, 1.7538970E-02
2453.010, 1.7087510E-02
2454.938, 1.6784331E-02
2456.866, 1.8088629E-02
2458.795, 1.8039109E-02
2460.723, 1.7019460E-02
2462.652, 1.7594891E-02
2464.580, 1.9011229E-02
2466.509, 1.9009050E-02
2468.437, 1.8533081E-02
2470.366, 1.8646341E-02
2472.294, 1.8091070E-02
2474.223, 1.6830649E-02
2476.151, 1.6074480E-02
2478.080, 1.6158771E-02
2480.008, 1.7086880E-02
2481.937, 1.7308241E-02
2483.865, 1.7687799E-02
2485.793, 1.8122340E-02
2487.722, 1.7529599E-02
2489.650, 1.6958481E-02
2491.579, 1.7648920E-02
2493.507, 1.7947130E-02
2495.436, 1.7891239E-02
2497.364, 1.8375261E-02
2499.293, 1.7514100E-02
2501.221, 1.7520539E-02
2503.150, 1.8071091E-02
2505.078, 1.6696259E-02
2507.007, 1.6274281E-02
2508.935, 1.8909210E-02
2510.864, 2.0274941E-02
2512.792, 1.8139690E-02
2514.720, 1.6537430E-02
2516.649, 1.6529370E-02
2518.577, 1.7110420E-02
2520.506, 1.7362939E-02
2522.434, 1.6947741E-02
2524.363, 1.6642541E-02
2526.291, 1.7635500E-02
2528.220, 1.8111389E-02
2530.148, 1.7752729E-02
2532.077, 1.7498480E-02
2534.005, 1.6506050E-02
2535.934, 1.6236410E-02
2537.862, 1.6922111E-02
2539.791, 1.8090850E-02
2541.719, 1.8888960E-02
2543.647, 1.8339550E-02
2545.576, 1.9722991E-02
2547.504, 2.1077940E-02
2549.433, 2.0325219E-02
2551.361, 1.8770849E-02
2553.290, 1.7983889E-02
2555.218, 1.8310040E-02
2557.147, 1.8955350E-02
2559.075, 1.8018520E-02
2561.004, 1.7059440E-02
2562.932, 1.7585751E-02
2564.861, 1.7974960E-02
2566.789, 1.7952001E-02
2568.718, 1.8578719E-02
2570.646, 1.9427950E-02
2572.574, 2.0236360E-02
2574.503, 2.1067120E-02
2576.431, 2.0506119E-02
2578.360, 1.9446351E-02
2580.288, 1.8759171E-02
2582.217, 1.8893430E-02
2584.145, 1.9541301E-02
2586.074, 1.8514071E-02
2588.002, 1.8700330E-02
2589.931, 1.9210760E-02
2591.859, 1.9674789E-02
2593.788, 1.9516710E-02
2595.716, 1.9650331E-02
2597.645, 1.8869950E-02
2599.573, 1.8235819E-02
2601.501, 1.9226180E-02
2603.430, 1.9763241E-02
2605.358, 1.8938450E-02
2607.287, 1.9364281E-02
2609.215, 1.9390389E-02
2611.144, 1.8786440E-02
2613.072, 2.0054519E-02
2615.001, 2.0056009E-02
2616.929, 1.9064620E-02
2618.858, 1.9669861E-02
2620.786, 2.0534610E-02
2622.715, 2.0494949E-02
2624.643, 1.9980120E-02
2626.572, 2.0118710E-02
2628.500, 2.0167520E-02
2630.428, 1.9837370E-02
2632.357, 2.0177850E-02
2634.285, 2.0999130E-02
2636.214, 2.0958191E-02
2638.142, 2.0741710E-02
2640.071, 2.0491639E-02
2641.999, 2.0226549E-02
2643.928, 2.0434011E-02
2645.856, 2.0335490E-02
2647.785, 2.0240391E-02
2649.713, 2.0955710E-02
2651.642, 2.1393171E-02
2653.570, 2.1090349E-02
2655.499, 2.1111950E-02
2657.427, 2.1205390E-02
2659.355, 2.1592939E-02
2661.284, 2.2057541E-02
2663.212, 2.1077029E-02
2665.141, 1.9918559E-02
2667.069, 1.9516891E-02
2668.998, 2.0755511E-02
2670.926, 2.1265430E-02
2672.855, 2.0364700E-02
2674.783, 2.0352250E-02
2676.712, 2.0391380E-02
2678.640, 2.1100059E-02
2680.569, 2.1299411E-02
2682.497, 2.1192631E-02
2684.426, 2.1319911E-02
2686.354, 2.1713400E-02
2688.282, 2.1146450E-02
2690.211, 2.1085650E-02
2692.139, 2.1341480E-02
2694.068, 2.1259220E-02
2695.996, 2.1030130E-02
2697.925, 2.0503679E-02
2699.853, 2.1530639E-02
2701.782, 2.2007750E-02
2703.710, 2.1627180E-02
2705.639, 2.2475550E-02
2707.567, 2.1898931E-02
2709.496, 2.1044221E-02
2711.424, 2.0638321E-02
2713.353, 2.1187389E-02
2715.281, 2.2159999E-02
2717.209, 2.1578399E-02
2719.138, 2.1131869E-02
2721.066, 2.1601560E-02
2722.995, 2.1764370E-02
2724.923, 2.1755490E-02
2726.852, 2.2129141E-02
2728.780, 2.2121441E-02
2730.709, 2.1508479E-02
2732.637, 2.0580960E-02
2734.566, 2.1178380E-02
2736.494, 2.1975091E-02
2738.423, 2.2097319E-02
2740.351, 2.1017339E-02
2742.280, 2.1101160E-02
2744.208, 2.2006771E-02
2746.136, 2.3015879E-02
2748.065, 2.2942750E-02
2749.993, 2.2724260E-02
2751.922, 2.2898739E-02
2753.850, 2.3412289E-02
2755.779, 2.2939039E-02
2757.707, 2.2622360E-02
2759.636, 2.2310469E-02
2761.564, 2.1751091E-02
2763.493, 2.2220200E-02
2765.421, 2.3149051E-02
2767.350, 2.3401180E-02
2769.278, 2.3507500E-02
2771.207, 2.3641471E-02
2773.135, 2.3068661E-02
2775.063, 2.2170279E-02
2776.992, 2.1534080E-02
2778.920, 2.1851210E-02
2780.849, 2.2853190E-02
2782.777, 2.2532860E-02
2784.706, 2.2252670E-02
2786.634, 2.3128860E-02
2788.563, 2.3137750E-02
2790.491, 2.3260839E-02
2792.420, 2.3344660E-02
2794.348, 2.3255220E-02
2796.277, 2.2618281E-02
2798.205, 2.3106700E-02
2800.134, 2.3418169E-02
2802.062, 2.3463570E-02
2803.990, 2.3710160E-02
2805.919, 2.3500269E-02
2807.847, 2.4525780E-02
2809.776, 2.5602549E-02
2811.704, 2.5227729E-02
2813.633, 2.4369759E-02
2815.561, 2.3423851E-02
2817.490, 2.3390800E-02
2819.418, 2.3570489E-02
2821.347, 2.3412401E-02
2823.275, 2.3530019E-02
2825.204, 2.4584400E-02
2827.132, 2.4963049E-02
2829.061, 2.4429230E-02
2830.989, 2.4323830E-02
2832.917, 2.4148781E-02
2834.846, 2.4496960E-02
2836.774, 2.5133070E-02
2838.703, 2.5046680E-02
2840.631, 2.4270689E-02
2842.560, 2.3829620E-02
2844.488, 2.3943180E-02
2846.417, 2.3839820E-02
2848.345, 2.3828520E-02
2850.274, 2.4563471E-02
2852.202, 2.4962900E-02
2854.131, 2.4511490E-02
2856.059, 2.4473030E-02
2857.988, 2.5426650E-02
2859.916, 2.5856109E-02
2861.844, 2.5551099E-02
2863.773, 2.5067410E-02
2865.701, 2.4485290E-02
2867.630, 2.4629559E-02
2869.558, 2.4783719E-02
2871.487, 2.4833711E-02
2873.415, 2.4557250E-02
2875.344, 2.4185730E-02
2877.272, 2.5433131E-02
2879.201, 2.6116490E-02
2881.129, 2.5889050E-02
2883.058, 2.4880750E-02
2884.986, 2.3824081E-02
2886.915, 2.4328539E-02
2888.843, 2.5128249E-02
2890.771, 2.5694611E-02
2892.700, 2.5879880E-02
2894.628, 2.5984680E-02
2896.557, 2.5463250E-02
2898.485, 2.5526339E-02
2900.414, 2.5839120E-02
2902.342, 2.5441309E-02
2904.271, 2.5150070E-02
2906.199, 2.5653200E-02
2908.128, 2.6010390E-02
2910.056, 2.5824631E-02
2911.985, 2.5676001E-02
2913.913, 2.5387671E-02
2915.842, 2.5228821E-02
2917.770, 2.6081610E-02
2919.698, 2.5666270E-02
2921.627, 2.4597220E-02
2923.555, 2.4265120E-02
2925.484, 2.5539780E-02
2927.412, 2.6041109E-02
2929.341, 2.5423011E-02
2931.269, 2.5264939E-02
2933.198, 2.6793679E-02
2935.126, 2.7497930E-02
2937.055, 2.7244611E-02
2938.983, 2.7612120E-02
2940.912, 2.7009360E-02
2942.840, 2.6367020E-02
2944.769, 2.6416769E-02
2946.697, 2.6130430E-02
2948.625, 2.6028810E-02
2950.554, 2.6256779E-02
2952.482, 2.6275611E-02
2954.411, 2.6709599E-02
2956.339, 2.7191000E-02
2958.268, 2.7594380E-02
2960.196, 2.7788119E-02
2962.125, 2.8481079E-02
2964.053, 2.9349120E-02
2965.982, 2.9416719E-02
2967.910, 2.8747279E-02
2969.839, 2.8983280E-02
2971.767, 3.0627020E-02
2973.696, 3.0126801E-02
2975.624, 2.8988959E-02
2977.552, 2.9434260E-02
2979.481, 2.9195551E-02
2981.409, 2.8456761E-02
2983.338, 2.8602639E-02
2985.266, 2.8501710E-02
2987.195, 2.8840480E-02
2989.123, 2.8713681E-02
2991.052, 2.9320940E-02
2992.980, 3.0363020E-02
2994.909, 2.9681729E-02
2996.837, 3.0433370E-02
2998.766, 3.1360369E-02
3000.694, 3.1032480E-02
3002.623, 3.0166419E-02
3004.551, 2.9965689E-02
3006.479, 2.9303260E-02
3008.408, 2.9411910E-02
3010.336, 3.0007740E-02
3012.265, 3.1288650E-02
3014.193, 3.1431518E-02
3016.122, 3.0111970E-02
3018.050, 2.9398721E-02
3019.979, 3.0312089E-02
3021.907, 3.1584062E-02
3023.836, 3.0741859E-02
3025.764, 2.9969331E-02
3027.693, 2.9195540E-02
3029.621, 2.9682649E-02
3031.550, 3.0273480E-02
3033.478, 3.0024471E-02
3035.406, 2.9634710E-02
3037.335, 3.0558560E-02
3039.263, 3.2896399E-02
3041.192, 3.3672459E-02
3043.120, 3.2708190E-02
3045.049, 3.1728908E-02
3046.977, 3.1615350E-02
3048.906, 3.2255109E-02
3050.834, 3.2475080E-02
3052.763, 3.1513609E-02
3054.691, 3.0363429E-02
3056.620, 2.9665081E-02
3058.548, 3.0353939E-02
3060.477, 3.2323331E-02
3062.405, 3.3837900E-02
3064.333, 3.1005049E-02
3066.262, 2.9278001E-02
3068.190, 3.0188560E-02
3070.119, 3.1268150E-02
3072.047, 3.2793950E-02
3073.976, 3.3425651E-02
3075.904, 3.2240879E-02
3077.833, 3.1463161E-02
3079.761, 3.1009430E-02
3081.690, 3.2183159E-02
3083.618, 3.3572521E-02
3085.547, 3.2501429E-02
3087.475, 3.0914281E-02
3089.404, 3.1143021E-02
3091.332, 3.0924130E-02
3093.260, 3.1625580E-02
3095.189, 3.2180239E-02
3097.117, 3.1437229E-02
3099.046, 3.1757139E-02
3100.974, 3.2019809E-02
3102.903, 3.2842271E-02
3104.831, 3.3346791E-02
3106.760, 3.3669401E-02
3108.688, 3.3137761E-02
3110.617, 3.4100652E-02
3112.545, 3.5113510E-02
3114.474, 3.3541020E-02
3116.402, 3.2487389E-02
3118.331, 3.1874161E-02
3120.259, 3.2139890E-02
3122.188, 3.3089548E-02
3124.116, 3.3361651E-02
3126.044, 3.4132030E-02
3127.973, 3.2904811E-02
3129.901, 3.3255830E-02
3131.830, 3.4285620E-02
3133.758, 3.2300659E-02
3135.687, 3.2258611E-02
3137.615, 3.4335110E-02
3139.544, 3.4622539E-02
3141.472, 3.2879811E-02
3143.401, 3.2589938E-02
3145.329, 3.3508912E-02
3147.258, 3.4462810E-02
3149.186, 3.5724990E-02
3151.115, 3.6034439E-02
3153.043, 3.5094161E-02
3154.971, 3.3490561E-02
3156.900, 3.2149870E-02
3158.828, 3.1036360E-02
3160.757, 3.2326389E-02
3162.685, 3.4371950E-02
3164.614, 3.4133509E-02
3166.542, 3.4388158E-02
3168.471, 3.5367880E-02
3170.399, 3.4884859E-02
3172.328, 3.3829380E-02
3174.256, 3.4051958E-02
3176.185, 3.3066679E-02
3178.113, 3.2717392E-02
3180.042, 3.3371270E-02
3181.970, 3.3648491E-02
3183.898, 3.4457341E-02
3185.827, 3.6096331E-02
3187.755, 3.6929909E-02
3189.684, 3.5064649E-02
3191.612, 3.4866009E-02
3193.541, 3.5865650E-02
3195.469, 3.5681959E-02
3197.398, 3.6242109E-02
3199.326, 3.5904512E-02
3201.255, 3.4309410E-02
3203.183, 3.3782549E-02
3205.112, 3.4476910E-02
3207.040, 3.5592470E-02
3208.969, 3.4946691E-02
3210.897, 3.4952089E-02
3212.825, 3.6363881E-02
3214.754, 3.6137551E-02
3216.682, 3.4192499E-02
3218.611, 3.3763781E-02
3220.539, 3.4973130E-02
3222.468, 3.4620371E-02
3224.396, 3.5290759E-02
3226.325, 3.5267249E-02
3228.253, 3.4028549E-02
3230.182, 3.4971070E-02
3232.110, 3.5759199E-02
3234.039, 3.4082718E-02
3235.967, 3.2906801E-02
3237.896, 3.4070939E-02
3239.824, 3.4638159E-02
3241.752, 3.5472140E-02
3243.681, 3.6743890E-02
3245.609, 3.4545280E-02
3247.538, 3.3658542E-02
3249.466, 3.5501219E-02
3251.395, 3.5467278E-02
3253.323, 3.6191061E-02
3255.252, 3.7152100E-02
3257.180, 3.9116502E-02
3259.109, 3.9844669E-02
3261.037, 3.8547561E-02
3262.966, 3.6895540E-02
3264.894, 3.6668539E-02
3266.823, 3.6679432E-02
3268.751, 3.5074990E-02
3270.679, 3.4232281E-02
3272.608, 3.6435079E-02
3274.536, 3.7320841E-02
3276.465, 3.6845852E-02
3278.393, 3.7202891E-02
3280.322, 3.7387669E-02
3282.250, 3.7869379E-02
3284.179, 3.6909591E-02
3286.107, 3.5206541E-02
3288.036, 3.4130599E-02
3289.964, 3.4098819E-02
3291.893, 3.4434080E-02
3293.821, 3.4241851E-02
3295.750, 3.6159519E-02
3297.678, 3.7422068E-02
3299.606, 3.6025029E-02
3301.535, 3.7106339E-02
3303.463, 3.8142901E-02
3305.392, 3.8265720E-02
3307.320, 3.8193401E-02
3309.249, 3.8557459E-02
3311.177, 3.7827879E-02
3313.106, 3.6761161E-02
3315.034, 3.8002871E-02
3316.963, 3.8403399E-02
3318.891, 3.9353929E-02
3320.820, 3.8029660E-02
3322.748, 3.8603239E-02
3324.677, 3.7767570E-02
3326.605, 3.5413470E-02
3328.533, 3.7157409E-02
3330.462, 3.8231850E-02
3332.390, 3.6179170E-02
3334.319, 3.7265521E-02
3336.247, 4.0727589E-02
3338.176, 4.0617809E-02
3340.104, 3.7830021E-02
3342.033, 3.6752839E-02
3343.961, 3.7454911E-02
3345.890, 3.7682999E-02
3347.818, 3.7740920E-02
3349.747, 3.7571538E-02
3351.675, 3.7516240E-02
3353.604, 3.7620269E-02
3355.532, 3.6820330E-02
3357.460, 3.8146380E-02
3359.389, 3.9807949E-02
3361.317, 3.9367210E-02
3363.246, 3.7270859E-02
3365.174, 3.7787370E-02
3367.103, 3.6848791E-02
3369.031, 3.6259390E-02
3370.960, 3.8071841E-02
3372.888, 3.9102551E-02
3374.817, 3.8172789E-02
3376.745, 3.5304010E-02
3378.674, 3.6564581E-02
3380.602, 3.7334971E-02
3382.531, 3.6060400E-02
3384.459, 3.7339609E-02
3386.387, 3.8966719E-02
3388.316, 3.9603021E-02
3390.244, 4.0689100E-02
3392.173, 4.0063601E-02
3394.101, 3.7782740E-02
3396.030, 3.8206480E-02
3397.958, 3.8247351E-02
3399.887, 3.8296230E-02
3401.815, 3.9506320E-02
3403.744, 4.0897612E-02
3405.672, 4.1380599E-02
3407.601, 4.0082000E-02
3409.529, 3.9038010E-02
3411.458, 3.8095292E-02
3413.386, 3.6195088E-02
3415.314, 3.5168778E-02
3417.243, 3.6451690E-02
3419.171, 3.8206309E-02
3421.100, 3.6533382E-02
3423.028, 3.5967421E-02
3424.957, 3.9068200E-02
3426.885, 4.2188659E-02
3428.814, 4.1049931E-02
3430.742, 3.6779068E-02
3432.671, 3.6048569E-02
3434.599, 3.8694590E-02
3436.528, 4.0467061E-02
3438.456, 4.1255310E-02
3440.385, 3.9837509E-02
3442.313, 3.7120931E-02
3444.241, 3.6891039E-02
3446.170, 3.8590711E-02
3448.098, 3.9934691E-02
3450.027, 4.0593609E-02
3451.955, 3.9983831E-02
3453.884, 3.8925480E-02
3455.812, 3.8793970E-02
3457.741, 3.9223529E-02
3459.669, 4.0334329E-02
3461.598, 3.9212059E-02
3463.526, 3.9668038E-02
3465.455, 4.0140539E-02
3467.383, 3.9562650E-02
3469.312, 4.1539621E-02
3471.240, 4.1103210E-02
3473.168, 3.6907911E-02
3475.097, 4.0223259E-02
3477.025, 4.2712189E-02
3478.954, 4.0715110E-02
3480.882, 3.9873570E-02
3482.811, 4.0284220E-02
3484.739, 3.9165620E-02
3486.668, 3.6578700E-02
3488.596, 3.7456870E-02
3490.525, 4.0935721E-02
3492.453, 4.1432880E-02
3494.382, 3.9873671E-02
3496.310, 4.0272020E-02
3498.239, 3.9515890E-02
3500.167, 3.9666351E-02
3502.095, 3.9998271E-02
3504.024, 3.9765589E-02
3505.952, 3.9987940E-02
3507.881, 4.1846350E-02
3509.809, 4.2252861E-02
3511.738, 4.0805951E-02
3513.666, 4.1426729E-02
3515.595, 4.2055111E-02
3517.523, 3.8991179E-02
3519.452, 3.6536220E-02
3521.380, 3.6204591E-02
3523.309, 3.7161890E-02
3525.237, 3.8260531E-02
3527.166, 4.1019790E-02
3529.094, 4.1541100E-02
3531.022, 3.8526189E-02
3532.951, 3.8360339E-02
3534.879, 3.8940880E-02
3536.808, 3.8996261E-02
3538.736, 3.9359599E-02
3540.665, 4.1351039E-02
3542.593, 4.1725449E-02
3544.522, 3.8696241E-02
3546.450, 3.7703741E-02
3548.379, 3.9579030E-02
3550.307, 3.8465690E-02
3552.236, 3.6213569E-02
3554.164, 3.6803111E-02
3556.093, 3.8305622E-02
3558.021, 3.9940860E-02
3559.949, 4.1161671E-02
3561.878, 4.1282389E-02
3563.806, 3.9397020E-02
3565.735, 4.0212110E-02
3567.663, 3.8740631E-02
3569.592, 3.7539661E-02
3571.520, 3.6538228E-02
3573.449, 3.4385789E-02
3575.377, 3.4489021E-02
3577.306, 3.9985720E-02
3579.234, 4.1861061E-02
3581.163, 4.1022532E-02
3583.091, 3.8938720E-02
3585.020, 3.9270889E-02
3586.948, 4.1048899E-02
3588.876, 4.1202102E-02
3590.805, 3.7929870E-02
3592.733, 3.7650589E-02
3594.662, 4.1206509E-02
3596.590, 3.9308552E-02
3598.519, 3.7649289E-02
3600.447, 3.7838489E-02
3602.376, 3.9351091E-02
3604.304, 4.1327711E-02
3606.233, 4.0598560E-02
3608.161, 4.0513281E-02
3610.090, 3.7956249E-02
3612.018, 3.7840672E-02
3613.947, 4.0032249E-02
3615.875, 4.1193958E-02
3617.803, 3.8899831E-02
3619.732, 3.6430731E-02
3621.660, 3.6447190E-02
3623.589, 3.7457690E-02
3625.517, 3.7082899E-02
3627.446, 3.8876731E-02
3629.374, 3.9696209E-02
3631.303, 3.9474372E-02
3633.231, 3.7140101E-02
3635.160, 3.5837431E-02
3637.088, 3.8012329E-02
3639.017, 3.7757572E-02
3640.945, 3.6359418E-02
3642.874, 3.7184171E-02
3644.802, 3.8617309E-02
3646.730, 3.9792001E-02
3648.659, 4.0183380E-02
3650.587, 3.8820289E-02
3652.516, 3.8706731E-02
3654.444, 3.7998751E-02
3656.373, 3.9717581E-02
3658.301, 4.1352801E-02
3660.230, 4.1201841E-02
3662.158, 4.0264230E-02
3664.087, 3.5851400E-02
3666.015, 3.6313601E-02
3667.944, 3.8989659E-02
3669.872, 3.8831349E-02
3671.801, 3.5784900E-02
3673.729, 3.4238528E-02
3675.657, 3.6587551E-02
3677.586, 3.8300909E-02
3679.514, 3.7507631E-02
3681.443, 3.8083591E-02
3683.371, 3.9217308E-02
3685.300, 3.7881281E-02
3687.228, 3.7963908E-02
3689.157, 3.6803100E-02
3691.085, 3.8107440E-02
3693.014, 4.1024961E-02
3694.942, 4.1042611E-02
3696.871, 4.0828060E-02
3698.799, 4.3748129E-02
3700.728, 4.0492609E-02
3702.656, 3.9449040E-02
3704.584, 3.8556941E-02
3706.513, 3.7757691E-02
3708.441, 3.8871098E-02
3710.370, 3.8630132E-02
3712.298, 3.9906040E-02
3714.227, 3.9236490E-02
3716.155, 3.9340880E-02
3718.084, 3.8022380E-02
3720.012, 3.6508530E-02
3721.941, 3.9099261E-02
3723.869, 4.0034469E-02
3725.798, 4.2965561E-02
3727.726, 4.3900020E-02
3729.655, 4.1578181E-02
3731.583, 4.0070500E-02
3733.511, 4.1824900E-02
3735.440, 4.3735649E-02
3737.368, 4.0730730E-02
3739.297, 3.6196031E-02
3741.225, 3.5920769E-02
3743.154, 3.9956778E-02
3745.082, 4.2634241E-02
3747.011, 4.2295039E-02
3748.939, 4.0719770E-02
3750.868, 4.2225059E-02
3752.796, 4.4945020E-02
3754.725, 4.6845701E-02
3756.653, 4.4854309E-02
3758.582, 4.1573200E-02
3760.510, 3.9940551E-02
3762.438, 3.9392509E-02
3764.367, 3.7863180E-02
3766.295, 3.8876891E-02
3768.224, 4.0997729E-02
3770.152, 4.2755369E-02
3772.081, 4.0696789E-02
3774.009, 4.2875100E-02
3775.938, 4.6012040E-02
3777.866, 4.7490921E-02
3779.795, 4.4687841E-02
3781.723, 4.1509788E-02
3783.652, 4.0615231E-02
3785.580, 4.2205241E-02
3787.509, 4.2502180E-02
3789.437, 4.2195171E-02
3791.365, 4.2655170E-02
3793.294, 4.4745550E-02
3795.222, 4.5445640E-02
3797.151, 4.4363439E-02
3799.079, 4.5363732E-02
3801.008, 4.8025180E-02
3802.936, 4.7549531E-02
3804.865, 4.4809621E-02
3806.793, 4.4622909E-02
3808.722, 4.3096010E-02
3810.650, 4.2881079E-02
3812.579, 4.3942831E-02
3814.507, 4.3276928E-02
3816.436, 4.2854171E-02
3818.364, 4.3514330E-02
3820.292, 4.3883041E-02
3822.221, 4.2842329E-02
3824.149, 4.3493241E-02
3826.078, 4.1878849E-02
3828.006, 4.0280800E-02
3829.935, 4.1856389E-02
3831.863, 4.3815721E-02
3833.792, 4.2577490E-02
3835.720, 4.1422609E-02
3837.649, 4.4626690E-02
3839.577, 4.2494010E-02
3841.506, 4.1592348E-02
3843.434, 4.3140341E-02
3845.363, 4.3382581E-02
3847.291, 4.4090681E-02
3849.219, 4.0652201E-02
3851.148, 4.1015942E-02
3853.076, 4.7487412E-02
3855.005, 5.1320970E-02
3856.933, 4.8613518E-02
3858.862, 4.6351351E-02
3860.790, 4.6840519E-02
3862.719, 4.7516849E-02
3864.647, 4.5440521E-02
3866.576, 4.5059539E-02
3868.504, 4.3680619E-02
3870.433, 4.0268619E-02
3872.361, 4.1625611E-02
3874.290, 4.5661531E-02
3876.218, 4.4342279E-02
3878.146, 4.3782510E-02
3880.075, 4.2539101E-02
3882.003, 4.2614728E-02
3883.932, 4.5823172E-02
3885.860, 4.5426849E-02
3887.789, 4.3849990E-02
3889.717, 4.1993309E-02
3891.646, 4.2765010E-02
3893.574, 4.6385448E-02
3895.503, 4.3461360E-02
3897.431, 4.2529281E-02
3899.360, 4.4186961E-02
3901.288, 4.7372930E-02
3903.217, 5.1961079E-02
3905.145, 4.7846951E-02
3907.073, 4.4045441E-02
3909.002, 4.3267149E-02
3910.930, 4.4536099E-02
3912.859, 4.5887519E-02
3914.787, 4.8028070E-02
3916.716, 4.9262021E-02
3918.644, 4.9120549E-02
3920.573, 4.7124252E-02
3922.501, 4.6992309E-02
3924.430, 4.6338119E-02
3926.358, 4.6326399E-02
3928.287, 4.7973581E-02
3930.215, 4.7777761E-02
3932.144, 4.7341559E-02
3934.072, 4.6441920E-02
3936.000, 4.4140410E-02
3937.929, 4.3948751E-02
3939.857, 4.4569369E-02
3941.786, 4.4234231E-02
3943.714, 4.7269549E-02
3945.643, 4.7632311E-02
3947.571, 4.5067221E-02
3949.500, 4.5060620E-02
3951.428, 4.8085321E-02
3953.357, 4.7858778E-02
3955.285, 4.6954829E-02
3957.214, 4.5695361E-02
3959.142, 4.3604951E-02
3961.071, 4.3923449E-02
3962.999, 4.5950960E-02
3964.927, 4.5793071E-02
3966.856, 4.5398980E-02
3968.784, 4.6647269E-02
3970.713, 4.4785138E-02
3972.641, 4.4651680E-02
3974.570, 4.7177002E-02
3976.498, 4.9023710E-02
3978.427, 4.8806518E-02
3980.355, 4.6821881E-02
3982.284, 4.4380009E-02
3984.212, 4.5341600E-02
3986.141, 4.7194891E-02
3988.069, 4.9847592E-02
3989.998, 5.0036609E-02
3991.926, 4.9255282E-02
3993.854, 4.6311721E-02
3995.783, 4.5099840E-02
3997.711, 4.9055219E-02
3999.640, 4.9078889E-02
##END=



