##NAMES=Trolleite
##RRUFFID=R050425
##IDEAL CHEMISTRY=Al_4_(PO_4_)_3_(OH)_3_
##LOCALITY=Halsjoberg, Varmland, Sweden
##OWNER=RRUFF
##SOURCE=Marcus Origlieri
##DESCRIPTION=Pale green granular aggregate
##STATUS=The identification of this mineral has been confirmed by X-ray diffraction and chemical analysis
##URL=rruff.info/R050425
##MEASURED CHEMISTRY=(Al_3.95_Fe^3+^_0.05_)_Î£=4_(P_1.00_O_4_)_3_(OH)_3_
399.1926, 0.3150344
401.1211, 0.3537765
403.0496, 0.3554773
404.9780, 0.3494704
406.9065, 0.3460133
408.8350, 0.3595780
410.7634, 0.3630038
412.6919, 0.3607001
414.6204, 0.3559205
416.5488, 0.3356687
418.4773, 0.3177071
420.4058, 0.3062173
422.3342, 0.2872461
424.2627, 0.2787224
426.1912, 0.2805246
428.1196, 0.2851494
430.0481, 0.2880473
431.9766, 0.2897836
433.9050, 0.2902499
435.8335, 0.2937774
437.7620, 0.2993305
439.6904, 0.3025411
441.6189, 0.3044900
443.5474, 0.3054913
445.4758, 0.3037880
447.4043, 0.3056964
449.3328, 0.3079937
451.2612, 0.3122610
453.1897, 0.3178834
455.1182, 0.3230209
457.0466, 0.3277688
458.9751, 0.3284680
460.9036, 0.3269347
462.8320, 0.3301890
464.7605, 0.3269680
466.6890, 0.3194217
468.6174, 0.3113346
470.5459, 0.3051390
472.4744, 0.2976779
474.4028, 0.2875783
476.3313, 0.2770692
478.2598, 0.2686600
480.1882, 0.2597443
482.1167, 0.2526199
484.0452, 0.2463769
485.9736, 0.2395938
487.9021, 0.2325300
489.8306, 0.2261409
491.7590, 0.2210717
493.6875, 0.2185991
495.6160, 0.2183110
497.5444, 0.2208327
499.4729, 0.2265651
501.4014, 0.2363926
503.3298, 0.2472302
505.2583, 0.2538811
507.1868, 0.2573123
509.1152, 0.2579658
511.0437, 0.2558005
512.9722, 0.2513488
514.9006, 0.2438149
516.8291, 0.2360935
518.7576, 0.2289743
520.6860, 0.2212166
522.6145, 0.2127628
524.5430, 0.2050994
526.4714, 0.1977743
528.3999, 0.1914869
530.3284, 0.1859076
532.2568, 0.1795031
534.1853, 0.1719013
536.1138, 0.1653912
538.0422, 0.1581189
539.9707, 0.1508608
541.8992, 0.1446131
543.8276, 0.1383681
545.7561, 0.1334134
547.6846, 0.1290623
549.6130, 0.1254649
551.5415, 0.1231445
553.4700, 0.1210842
555.3984, 0.1190827
557.3269, 0.1183113
559.2554, 0.1188354
561.1838, 0.1197955
563.1123, 0.1212655
565.0408, 0.1237769
566.9692, 0.1271973
568.8977, 0.1316789
570.8262, 0.1367033
572.7546, 0.1412742
574.6831, 0.1449498
576.6116, 0.1464685
578.5400, 0.1449149
580.4685, 0.1395253
582.3970, 0.1317304
584.3254, 0.1237164
586.2539, 0.1159442
588.1824, 0.1095389
590.1108, 0.1041007
592.0393, 9.9440649E-02
593.9678, 9.5333837E-02
595.8962, 9.2089877E-02
597.8247, 8.8590190E-02
599.7532, 8.5694753E-02
601.6816, 8.3668023E-02
603.6101, 8.2753442E-02
605.5386, 8.4876724E-02
607.4670, 8.9731254E-02
609.3955, 9.6795693E-02
611.3240, 0.1033742
613.2524, 0.1077686
615.1809, 0.1100047
617.1094, 0.1114038
619.0378, 0.1141606
620.9663, 0.1154198
622.8948, 0.1145228
624.8232, 0.1106940
626.7517, 0.1042617
628.6802, 9.6973583E-02
630.6086, 9.0795077E-02
632.5371, 8.6452961E-02
634.4656, 8.3443537E-02
636.3940, 8.1165276E-02
638.3225, 8.0109373E-02
640.2510, 8.0512837E-02
642.1794, 8.1761122E-02
644.1079, 8.4295169E-02
646.0364, 8.7537937E-02
647.9648, 9.0181813E-02
649.8933, 9.1874003E-02
651.8218, 9.2260279E-02
653.7502, 9.2665382E-02
655.6787, 9.3806423E-02
657.6072, 9.6291877E-02
659.5356, 0.1003598
661.4641, 0.1052960
663.3926, 0.1104071
665.3210, 0.1154829
667.2495, 0.1195139
669.1780, 0.1213247
671.1064, 0.1207491
673.0349, 0.1174947
674.9634, 0.1132414
676.8918, 0.1085804
678.8203, 0.1027265
680.7488, 9.7412668E-02
682.6772, 9.3944289E-02
684.6057, 9.1930620E-02
686.5342, 9.1755264E-02
688.4626, 9.3533367E-02
690.3911, 9.6949711E-02
692.3196, 0.1014516
694.2480, 0.1069557
696.1765, 0.1120684
698.1050, 0.1163513
700.0334, 0.1194043
701.9619, 0.1208636
703.8904, 0.1203500
705.8188, 0.1179730
707.7473, 0.1138678
709.6758, 0.1077729
711.6042, 0.1002600
713.5327, 9.2346087E-02
715.4612, 8.4475987E-02
717.3896, 7.6819234E-02
719.3181, 6.9970757E-02
721.2466, 6.4034738E-02
723.1750, 5.9241910E-02
725.1035, 5.5668920E-02
727.0320, 5.3177081E-02
728.9604, 5.1457331E-02
730.8889, 4.9743939E-02
732.8174, 4.8705101E-02
734.7458, 4.8362151E-02
736.6743, 4.7929142E-02
738.6028, 4.7465160E-02
740.5313, 4.7230970E-02
742.4597, 4.7525331E-02
744.3882, 4.8180681E-02
746.3167, 4.8355911E-02
748.2451, 4.8476830E-02
750.1736, 4.8963469E-02
752.1021, 4.9529389E-02
754.0305, 5.0316289E-02
755.9590, 5.1358800E-02
757.8875, 5.2716780E-02
759.8159, 5.3805441E-02
761.7444, 5.4857459E-02
763.6729, 5.6633551E-02
765.6013, 5.9072711E-02
767.5298, 6.1292820E-02
769.4583, 6.3120700E-02
771.3867, 6.5403067E-02
773.3152, 6.8152711E-02
775.2437, 7.1163014E-02
777.1721, 7.4490637E-02
779.1006, 7.7690721E-02
781.0291, 8.0324262E-02
782.9575, 8.2641877E-02
784.8860, 8.5531570E-02
786.8145, 8.9307547E-02
788.7429, 9.3861587E-02
790.6714, 9.9551260E-02
792.5999, 0.1063885
794.5283, 0.1142301
796.4568, 0.1228559
798.3853, 0.1312540
800.3137, 0.1391262
802.2422, 0.1463447
804.1707, 0.1530833
806.0991, 0.1596245
808.0276, 0.1656565
809.9561, 0.1696708
811.8845, 0.1714655
813.8130, 0.1708195
815.7415, 0.1671700
817.6699, 0.1609671
819.5984, 0.1539091
821.5269, 0.1461739
823.4553, 0.1381067
825.3838, 0.1309435
827.3123, 0.1251706
829.2407, 0.1211722
831.1692, 0.1193338
833.0977, 0.1188737
835.0261, 0.1204135
836.9546, 0.1234397
838.8831, 0.1272982
840.8115, 0.1316336
842.7400, 0.1358366
844.6685, 0.1390813
846.5969, 0.1412452
848.5254, 0.1417474
850.4539, 0.1403322
852.3823, 0.1371606
854.3108, 0.1322719
856.2393, 0.1257792
858.1677, 0.1180084
860.0962, 0.1092704
862.0247, 9.9877700E-02
863.9531, 9.0702273E-02
865.8816, 8.2180552E-02
867.8101, 7.4591592E-02
869.7385, 6.7893326E-02
871.6670, 6.1908409E-02
873.5955, 5.7074871E-02
875.5239, 5.3637050E-02
877.4524, 5.0644979E-02
879.3809, 4.8046071E-02
881.3093, 4.6010919E-02
883.2378, 4.4612281E-02
885.1663, 4.3481339E-02
887.0947, 4.2611569E-02
889.0232, 4.2204648E-02
890.9517, 4.2189099E-02
892.8801, 4.2273220E-02
894.8085, 4.2567350E-02
896.7370, 4.3078162E-02
898.6655, 4.3448780E-02
900.5939, 4.3806199E-02
902.5224, 4.4403590E-02
904.4509, 4.5293879E-02
906.3793, 4.6259791E-02
908.3078, 4.7268931E-02
910.2363, 4.8405919E-02
912.1647, 4.9542021E-02
914.0932, 5.0822988E-02
916.0217, 5.2262150E-02
917.9501, 5.4038681E-02
919.8786, 5.5870831E-02
921.8071, 5.8247101E-02
923.7355, 6.1146662E-02
925.6640, 6.3816458E-02
927.5925, 6.6643827E-02
929.5209, 6.9809817E-02
931.4494, 7.3431343E-02
933.3779, 7.7579230E-02
935.3063, 8.2066931E-02
937.2348, 8.7085374E-02
939.1633, 9.2264242E-02
941.0917, 9.7614743E-02
943.0202, 0.1039722
944.9487, 0.1115847
946.8771, 0.1198123
948.8056, 0.1280103
950.7341, 0.1372571
952.6625, 0.1478773
954.5910, 0.1592634
956.5195, 0.1715730
958.4479, 0.1848702
960.3764, 0.1990573
962.3049, 0.2144504
964.2333, 0.2305028
966.1618, 0.2467083
968.0903, 0.2630724
970.0187, 0.2789021
971.9472, 0.2931398
973.8757, 0.3056812
975.8041, 0.3151811
977.7326, 0.3207756
979.6611, 0.3213058
981.5895, 0.3171791
983.5180, 0.3083154
985.4465, 0.2951373
987.3749, 0.2792410
989.3034, 0.2616624
991.2319, 0.2439033
993.1603, 0.2269200
995.0888, 0.2102545
997.0173, 0.1946163
998.9457, 0.1798622
1000.874, 0.1663507
1002.803, 0.1542850
1004.731, 0.1434942
1006.660, 0.1345198
1008.588, 0.1276469
1010.517, 0.1225108
1012.445, 0.1193644
1014.373, 0.1180605
1016.302, 0.1183122
1018.230, 0.1195683
1020.159, 0.1216472
1022.087, 0.1247378
1024.016, 0.1289526
1025.944, 0.1338600
1027.873, 0.1392713
1029.801, 0.1452536
1031.730, 0.1517013
1033.658, 0.1589230
1035.587, 0.1671236
1037.515, 0.1758500
1039.444, 0.1852284
1041.372, 0.1954281
1043.301, 0.2064976
1045.229, 0.2186335
1047.157, 0.2315378
1049.086, 0.2446002
1051.014, 0.2573835
1052.943, 0.2696382
1054.871, 0.2823469
1056.800, 0.2955438
1058.728, 0.3073694
1060.657, 0.3173502
1062.585, 0.3258195
1064.514, 0.3326263
1066.442, 0.3385158
1068.371, 0.3421735
1070.299, 0.3430581
1072.228, 0.3424326
1074.156, 0.3411146
1076.084, 0.3389564
1078.013, 0.3361709
1079.941, 0.3319229
1081.870, 0.3257907
1083.798, 0.3174473
1085.727, 0.3071424
1087.655, 0.2947611
1089.584, 0.2805447
1091.512, 0.2656551
1093.441, 0.2514053
1095.369, 0.2388401
1097.298, 0.2285856
1099.226, 0.2213080
1101.155, 0.2168538
1103.083, 0.2146017
1105.011, 0.2149048
1106.940, 0.2174539
1108.868, 0.2215291
1110.797, 0.2268410
1112.725, 0.2320030
1114.654, 0.2358261
1116.582, 0.2375541
1118.511, 0.2353549
1120.439, 0.2291479
1122.368, 0.2211949
1124.296, 0.2145654
1126.225, 0.2111909
1128.153, 0.2111152
1130.082, 0.2127159
1132.010, 0.2137296
1133.938, 0.2122439
1135.867, 0.2083433
1137.795, 0.2028882
1139.724, 0.1972656
1141.652, 0.1916377
1143.581, 0.1859669
1145.509, 0.1813416
1147.438, 0.1774443
1149.366, 0.1738490
1151.295, 0.1705906
1153.223, 0.1663566
1155.152, 0.1609093
1157.080, 0.1550649
1159.009, 0.1506271
1160.937, 0.1485543
1162.865, 0.1491873
1164.794, 0.1533874
1166.722, 0.1606708
1168.651, 0.1701126
1170.579, 0.1815564
1172.508, 0.1940459
1174.436, 0.2066702
1176.365, 0.2185427
1178.293, 0.2295614
1180.222, 0.2390697
1182.150, 0.2467216
1184.079, 0.2521989
1186.007, 0.2555782
1187.936, 0.2560199
1189.864, 0.2536957
1191.792, 0.2484010
1193.721, 0.2411213
1195.649, 0.2329708
1197.578, 0.2237123
1199.506, 0.2137377
1201.435, 0.2036534
1203.363, 0.1937746
1205.292, 0.1843308
1207.220, 0.1758327
1209.149, 0.1683597
1211.077, 0.1614955
1213.006, 0.1557294
1214.934, 0.1505651
1216.863, 0.1461979
1218.791, 0.1419686
1220.719, 0.1378105
1222.648, 0.1332404
1224.576, 0.1284812
1226.505, 0.1239383
1228.433, 0.1194478
1230.362, 0.1153847
1232.290, 0.1118606
1234.219, 0.1090748
1236.147, 0.1067177
1238.076, 0.1048391
1240.004, 0.1036803
1241.933, 0.1026594
1243.861, 0.1019914
1245.790, 0.1009045
1247.718, 9.9310763E-02
1249.646, 9.6905008E-02
1251.575, 9.3518034E-02
1253.503, 8.9729682E-02
1255.432, 8.5468732E-02
1257.360, 8.1018768E-02
1259.289, 7.6645426E-02
1261.217, 7.2130322E-02
1263.146, 6.7411132E-02
1265.074, 6.2680140E-02
1267.003, 5.8118321E-02
1268.931, 5.3768791E-02
1270.860, 4.9556799E-02
1272.788, 4.5392539E-02
1274.717, 4.1315909E-02
1276.645, 3.7650980E-02
1278.573, 3.4138490E-02
1280.502, 3.1210270E-02
1282.430, 2.8426331E-02
1284.359, 2.5575910E-02
1286.287, 2.3401290E-02
1288.216, 2.1413499E-02
1290.144, 1.9641809E-02
1292.073, 1.8089401E-02
1294.001, 1.6838331E-02
1295.930, 1.5714349E-02
1297.858, 1.4719190E-02
1299.787, 1.3879860E-02
1301.715, 1.2811020E-02
1303.644, 1.1845790E-02
1305.572, 1.1524870E-02
1307.500, 1.1190380E-02
1309.429, 1.0589050E-02
1311.357, 1.0025790E-02
1313.286, 9.7147599E-03
1315.214, 9.3857273E-03
1317.143, 8.9963963E-03
1319.071, 8.5047083E-03
1321.000, 7.8460099E-03
1322.928, 7.4415449E-03
1324.857, 7.3024589E-03
1326.785, 7.0953672E-03
1328.714, 6.9518872E-03
1330.642, 7.0812232E-03
1332.571, 7.2394540E-03
1334.499, 6.8141762E-03
1336.427, 6.2979818E-03
1338.356, 6.0779499E-03
1340.284, 6.0783620E-03
1342.213, 6.0304408E-03
1344.141, 6.0197562E-03
1346.070, 5.8467258E-03
1347.998, 5.9190770E-03
1349.927, 6.1756070E-03
1351.855, 6.0043861E-03
1353.784, 5.6058699E-03
1355.712, 5.1525938E-03
1357.641, 4.9621030E-03
1359.569, 5.0640139E-03
1361.498, 5.0614602E-03
1363.426, 5.0087599E-03
1365.354, 4.9400679E-03
1367.283, 4.8493841E-03
1369.211, 4.7588991E-03
1371.140, 4.6667811E-03
1373.068, 4.7223172E-03
1374.997, 4.7827722E-03
1376.925, 4.7665769E-03
1378.854, 4.7081392E-03
1380.782, 4.5333002E-03
1382.711, 4.5288289E-03
1384.639, 4.9644150E-03
1386.568, 5.1133269E-03
1388.496, 4.6780962E-03
1390.424, 4.4689211E-03
1392.353, 4.5579472E-03
1394.281, 4.6690018E-03
1396.210, 4.7906688E-03
1398.138, 4.7672158E-03
1400.067, 4.4279918E-03
1401.995, 4.2376379E-03
1403.924, 4.5982632E-03
1405.852, 4.9776318E-03
1407.781, 4.7913492E-03
1409.709, 4.4686040E-03
1411.638, 4.4066859E-03
1413.566, 4.2958641E-03
1415.495, 4.2660669E-03
1417.423, 4.5481739E-03
1419.351, 4.5421380E-03
1421.280, 4.6859509E-03
1423.208, 4.7704778E-03
1425.137, 4.6534212E-03
1427.065, 4.7413800E-03
1428.994, 4.9145631E-03
1430.922, 4.7368519E-03
1432.851, 4.6730591E-03
1434.779, 4.8436620E-03
1436.708, 4.7868011E-03
1438.636, 4.7033592E-03
1440.565, 5.0644940E-03
1442.493, 5.2719442E-03
1444.422, 5.3025461E-03
1446.350, 5.3857500E-03
1448.278, 5.5510271E-03
1450.207, 5.4312260E-03
1452.135, 5.3391121E-03
1454.064, 5.5140499E-03
1455.992, 5.4603880E-03
1457.921, 5.5149342E-03
1459.849, 5.9512719E-03
1461.778, 6.1306679E-03
1463.706, 5.8742790E-03
1465.635, 5.6208819E-03
1467.563, 5.4203072E-03
1469.492, 5.6571402E-03
1471.420, 5.8016172E-03
1473.349, 5.4760911E-03
1475.277, 5.2073752E-03
1477.205, 5.3169271E-03
1479.134, 5.7031121E-03
1481.062, 5.7061398E-03
1482.991, 5.4418561E-03
1484.919, 5.2908170E-03
1486.848, 5.3995219E-03
1488.776, 5.5544791E-03
1490.705, 5.4675220E-03
1492.633, 5.3280238E-03
1494.562, 5.3334101E-03
1496.490, 5.0662840E-03
1498.419, 4.9900571E-03
1500.347, 4.9633658E-03
1502.276, 4.9702981E-03
1504.204, 5.2989791E-03
1506.132, 5.5858619E-03
1508.061, 5.5566281E-03
1509.989, 5.4630772E-03
1511.918, 5.2378778E-03
1513.846, 5.1734219E-03
1515.775, 5.4274919E-03
1517.703, 5.4911380E-03
1519.632, 5.5634119E-03
1521.560, 5.8700521E-03
1523.489, 5.7653030E-03
1525.417, 5.6258300E-03
1527.346, 5.6089540E-03
1529.274, 5.6466470E-03
1531.203, 5.6576561E-03
1533.131, 5.8455560E-03
1535.059, 6.1657229E-03
1536.988, 6.2975599E-03
1538.916, 6.1603729E-03
1540.845, 6.0059051E-03
1542.773, 5.9137261E-03
1544.702, 5.7892008E-03
1546.630, 5.7914671E-03
1548.559, 5.9757628E-03
1550.487, 6.2033208E-03
1552.416, 6.5350570E-03
1554.344, 6.7896121E-03
1556.273, 6.7826710E-03
1558.201, 6.4914338E-03
1560.130, 6.1519612E-03
1562.058, 6.0972059E-03
1563.986, 6.3590100E-03
1565.915, 6.7568822E-03
1567.843, 6.9946302E-03
1569.772, 6.8948311E-03
1571.700, 6.7763752E-03
1573.629, 6.6067190E-03
1575.557, 6.7539350E-03
1577.486, 7.0491601E-03
1579.414, 7.2263060E-03
1581.343, 7.2959200E-03
1583.271, 7.5245691E-03
1585.200, 7.7744871E-03
1587.128, 7.7751712E-03
1589.057, 8.0243880E-03
1590.985, 8.3517926E-03
1592.913, 8.5679926E-03
1594.842, 8.7364288E-03
1596.770, 8.6283255E-03
1598.699, 8.8021373E-03
1600.627, 8.9421049E-03
1602.556, 8.9498116E-03
1604.484, 8.9329015E-03
1606.413, 9.0125464E-03
1608.341, 9.2026684E-03
1610.270, 9.2213787E-03
1612.198, 9.2621930E-03
1614.127, 9.3626995E-03
1616.055, 9.1285352E-03
1617.984, 8.9250905E-03
1619.912, 9.0969810E-03
1621.840, 9.2529552E-03
1623.769, 9.2810206E-03
1625.697, 9.3696602E-03
1627.626, 9.2555815E-03
1629.554, 9.0330495E-03
1631.483, 8.9603569E-03
1633.411, 9.1547510E-03
1635.340, 9.2253368E-03
1637.268, 9.2377551E-03
1639.197, 9.3878033E-03
1641.125, 9.3844673E-03
1643.054, 9.3879364E-03
1644.982, 9.3833813E-03
1646.911, 9.0988623E-03
1648.839, 8.6829225E-03
1650.767, 8.5076327E-03
1652.696, 8.8384356E-03
1654.624, 9.0279924E-03
1656.553, 8.7200431E-03
1658.481, 8.3482824E-03
1660.410, 8.5270973E-03
1662.338, 8.8960798E-03
1664.267, 8.7886136E-03
1666.195, 8.3334958E-03
1668.124, 7.9525895E-03
1670.052, 8.0203628E-03
1671.981, 7.9133445E-03
1673.909, 7.6473271E-03
1675.838, 7.6800422E-03
1677.766, 7.8530032E-03
1679.694, 7.7498029E-03
1681.623, 7.5997999E-03
1683.551, 7.8317607E-03
1685.480, 7.6433579E-03
1687.408, 7.3275971E-03
1689.337, 7.1891029E-03
1691.265, 7.2509032E-03
1693.194, 7.2919209E-03
1695.122, 7.6828850E-03
1697.051, 7.5073242E-03
1698.979, 7.0588160E-03
1700.908, 6.8313582E-03
1702.836, 6.5169730E-03
1704.765, 6.5215612E-03
1706.693, 6.8082502E-03
1708.621, 6.7564682E-03
1710.550, 6.3482821E-03
1712.478, 6.1282190E-03
1714.407, 6.1700018E-03
1716.335, 5.9650922E-03
1718.264, 5.9084962E-03
1720.192, 6.0335980E-03
1722.121, 6.2923012E-03
1724.049, 6.4033349E-03
1725.978, 6.6261929E-03
1727.906, 6.3221571E-03
1729.835, 5.9277751E-03
1731.763, 5.7665068E-03
1733.692, 5.6887092E-03
1735.620, 5.7694991E-03
1737.548, 5.8371751E-03
1739.477, 5.4821130E-03
1741.405, 5.1244460E-03
1743.334, 5.1487321E-03
1745.262, 5.3379652E-03
1747.191, 5.3077182E-03
1749.119, 5.0029792E-03
1751.048, 5.3747669E-03
1752.976, 5.5716969E-03
1754.905, 5.6688562E-03
1756.833, 5.8939238E-03
1758.762, 5.5511082E-03
1760.690, 5.3809220E-03
1762.619, 5.4515149E-03
1764.547, 5.8389101E-03
1766.475, 6.0098581E-03
1768.404, 5.7452852E-03
1770.332, 6.0113329E-03
1772.261, 6.0700830E-03
1774.189, 5.8459970E-03
1776.118, 5.8012381E-03
1778.046, 5.5802269E-03
1779.975, 6.2134401E-03
1781.903, 6.6035041E-03
1783.832, 6.4528738E-03
1785.760, 6.4368201E-03
1787.689, 6.1118188E-03
1789.617, 6.2979111E-03
1791.546, 6.4130221E-03
1793.474, 6.3540200E-03
1795.402, 6.3705081E-03
1797.331, 6.3478099E-03
1799.259, 6.4759199E-03
1801.188, 6.5754801E-03
1803.116, 6.0739438E-03
1805.045, 5.8437791E-03
1806.973, 6.1557242E-03
1808.902, 6.3070450E-03
1810.830, 5.8923708E-03
1812.759, 5.6028399E-03
1814.687, 5.2685421E-03
1816.616, 5.4832231E-03
1818.544, 6.3342270E-03
1820.473, 6.3616792E-03
1822.401, 5.8916952E-03
1824.329, 5.8501260E-03
1826.258, 6.3526770E-03
1828.186, 6.5391730E-03
1830.115, 6.3642599E-03
1832.043, 6.3480809E-03
1833.972, 6.3671982E-03
1835.900, 6.3872002E-03
1837.829, 6.4301272E-03
1839.757, 6.5108649E-03
1841.686, 6.6789552E-03
1843.614, 6.9893789E-03
1845.543, 6.8140570E-03
1847.471, 6.5265000E-03
1849.400, 5.9373090E-03
1851.328, 5.2014119E-03
1853.256, 5.2373009E-03
1855.185, 5.6397510E-03
1857.113, 6.4435089E-03
1859.042, 6.6841329E-03
1860.970, 6.2974771E-03
1862.899, 5.8449749E-03
1864.827, 5.7475930E-03
1866.756, 5.7872380E-03
1868.684, 5.8805891E-03
1870.613, 5.3587202E-03
1872.541, 5.4105869E-03
1874.470, 5.4708072E-03
1876.398, 6.2912880E-03
1878.327, 6.5421429E-03
1880.255, 5.6759380E-03
1882.183, 5.5529680E-03
1884.112, 5.9820251E-03
1886.040, 5.8649620E-03
1887.969, 5.3240010E-03
1889.897, 5.4297228E-03
1891.826, 5.5750422E-03
1893.754, 6.1178869E-03
1895.683, 5.5774278E-03
1897.611, 5.0829072E-03
1899.540, 5.8521712E-03
1901.468, 6.0197408E-03
1903.397, 5.2265981E-03
1905.325, 4.6460852E-03
1907.254, 5.1408461E-03
1909.182, 5.7041482E-03
1911.110, 5.0712819E-03
1913.039, 4.6047238E-03
1914.967, 3.6396750E-03
1916.896, 3.1237160E-03
1918.824, 3.5079359E-03
1920.753, 4.7928351E-03
1922.681, 4.7858572E-03
1924.610, 3.9344858E-03
1926.538, 3.9458042E-03
1928.467, 4.0291729E-03
1930.395, 4.2460919E-03
1932.324, 4.3304549E-03
1934.252, 4.4199461E-03
1936.181, 3.7856090E-03
1938.109, 2.7952020E-03
1940.037, 1.4354660E-03
1941.966, 8.4946229E-04
1943.894, 6.5819517E-04
1945.823, 7.5492880E-04
1947.751, 3.3836989E-04
1949.680, 1.2931310E-03
1951.608, 3.9079401E-04
1953.537, -1.0111050E-03
1955.465, -2.4956991E-03
1957.394, -2.0024790E-03
1959.322, 2.7192949E-04
1961.251, 8.8879699E-04
1963.179, -7.0964466E-05
1965.108, 3.7252170E-04
1967.036, -1.4702090E-03
1968.964, -3.6326509E-03
1970.893, -5.7552342E-04
1972.821, 3.0418460E-03
1974.750, 1.8805320E-03
1976.678, 6.1574602E-04
1978.607, 4.9668917E-04
1980.535, 5.9750932E-04
1982.464, 2.2555571E-03
1984.392, 3.7106089E-03
1986.321, 3.2437199E-03
1988.249, 1.7602280E-03
1990.178, 2.5826071E-03
1992.106, 3.3522251E-03
1994.035, 4.8973500E-03
1995.963, 4.6198671E-03
1997.891, 3.7011469E-03
1999.820, 1.6648400E-03
2001.748, 1.2454330E-03
2003.677, 2.8330830E-03
2005.605, 2.2431770E-03
2007.534, 2.4979219E-03
2009.462, 2.7777399E-03
2011.391, 2.2974899E-03
2013.319, 3.4939391E-03
2015.248, 5.4237391E-03
2017.176, 6.7356811E-03
2019.105, 4.5679761E-03
2021.033, 4.1821338E-03
2022.962, 4.9454090E-03
2024.890, 3.2842790E-03
2026.818, 2.9583820E-03
2028.747, 4.2546298E-03
2030.675, 5.2558128E-03
2032.604, 6.2575769E-03
2034.532, 5.6874361E-03
2036.461, 6.0208342E-03
2038.389, 4.4678189E-03
2040.318, 3.1476140E-03
2042.246, 2.8929799E-03
2044.175, 2.2873341E-03
2046.103, 3.6929681E-03
2048.032, 5.2924738E-03
2049.960, 5.7617370E-03
2051.889, 5.5273459E-03
2053.817, 6.3156192E-03
2055.746, 6.5179020E-03
2057.674, 5.3698621E-03
2059.603, 5.9382441E-03
2061.531, 5.1891161E-03
2063.459, 5.7054069E-03
2065.388, 7.0979930E-03
2067.316, 5.7757040E-03
2069.245, 4.9119811E-03
2071.173, 4.6045152E-03
2073.102, 5.0439448E-03
2075.030, 5.7133208E-03
2076.959, 6.5367729E-03
2078.887, 6.7251311E-03
2080.816, 6.8980921E-03
2082.744, 6.5400372E-03
2084.673, 5.8661150E-03
2086.601, 5.6360201E-03
2088.530, 5.9927362E-03
2090.458, 5.3038010E-03
2092.386, 5.1443409E-03
2094.315, 6.0993121E-03
2096.243, 6.2827622E-03
2098.172, 4.9198349E-03
2100.100, 4.0308959E-03
2102.029, 4.6598790E-03
2103.957, 6.0806531E-03
2105.886, 5.7954690E-03
2107.814, 5.5824290E-03
2109.743, 5.7103438E-03
2111.671, 5.8365990E-03
2113.600, 5.7607400E-03
2115.528, 6.1857188E-03
2117.457, 5.5531901E-03
2119.385, 5.0363699E-03
2121.313, 3.3294221E-03
2123.242, 8.4756309E-04
2125.170, 1.7231250E-03
2127.099, 2.5651311E-03
2129.027, 2.2742881E-03
2130.956, 2.2897259E-03
2132.884, 7.6957420E-04
2134.813, -2.2413561E-03
2136.741, -1.4515860E-03
2138.670, 9.3678199E-04
2140.598, 4.1522650E-04
2142.527, -8.3461648E-04
2144.455, -1.2240320E-03
2146.384, -1.4484790E-03
2148.312, -3.4622790E-03
2150.240, -2.2724080E-03
2152.169, -1.1616320E-03
2154.097, -4.1023460E-03
2156.026, -7.5822771E-03
2157.954, -7.4297478E-03
2159.883, -1.6689280E-03
2161.811, 4.8223590E-03
2163.740, 7.1156332E-03
2165.668, 5.5597979E-03
2167.597, 2.0447429E-03
2169.525, 6.8646547E-04
2171.454, 1.4893690E-03
2173.382, 1.7356710E-04
2175.311, 1.6978530E-03
2177.239, 2.5953581E-03
2179.167, 9.4331801E-04
2181.096, 2.8036830E-03
2183.024, 4.7635362E-03
2184.953, 4.8191869E-03
2186.881, 5.7436461E-03
2188.810, 4.1031921E-03
2190.738, 2.5473270E-03
2192.667, 2.6174639E-03
2194.595, 3.7894000E-03
2196.524, 5.6678569E-03
2198.452, 7.2895340E-03
2200.381, 6.3846470E-03
2202.309, 4.1914531E-03
2204.238, 4.4232891E-03
2206.166, 5.1399888E-03
2208.094, 4.2937370E-03
2210.023, 3.4999601E-03
2211.951, 4.3789819E-03
2213.880, 6.2302840E-03
2215.808, 6.1892332E-03
2217.737, 7.0682229E-03
2219.665, 7.4290200E-03
2221.594, 6.5755202E-03
2223.522, 6.1760028E-03
2225.451, 6.9008842E-03
2227.379, 6.6206581E-03
2229.308, 6.7678578E-03
2231.236, 8.3702337E-03
2233.165, 8.2028368E-03
2235.093, 7.2962609E-03
2237.021, 6.8410640E-03
2238.950, 6.2679090E-03
2240.878, 5.9106378E-03
2242.807, 7.0175761E-03
2244.735, 7.6306849E-03
2246.664, 8.5484814E-03
2248.592, 7.7733360E-03
2250.521, 6.3827862E-03
2252.449, 7.0481221E-03
2254.378, 6.6351020E-03
2256.306, 8.2989987E-03
2258.235, 1.0083820E-02
2260.163, 8.6643649E-03
2262.092, 7.2948351E-03
2264.020, 6.7801760E-03
2265.948, 8.1270179E-03
2267.877, 1.0058930E-02
2269.805, 1.0408320E-02
2271.734, 9.4399834E-03
2273.662, 8.9057609E-03
2275.591, 9.3221162E-03
2277.519, 1.0012430E-02
2279.448, 1.0187710E-02
2281.376, 1.0409200E-02
2283.305, 1.1284600E-02
2285.233, 1.1532730E-02
2287.162, 1.2370210E-02
2289.090, 1.2366590E-02
2291.019, 1.1169560E-02
2292.947, 1.0318580E-02
2294.875, 1.0216400E-02
2296.804, 1.1091260E-02
2298.732, 1.1310390E-02
2300.661, 1.1111040E-02
2302.589, 1.0753200E-02
2304.518, 1.0328760E-02
2306.446, 1.0815860E-02
2308.375, 1.1777890E-02
2310.303, 1.1657230E-02
2312.232, 1.1166380E-02
2314.160, 1.1261680E-02
2316.089, 1.1475350E-02
2318.017, 1.1337150E-02
2319.946, 1.1761650E-02
2321.874, 1.2616460E-02
2323.802, 1.3212550E-02
2325.731, 1.2308570E-02
2327.659, 1.1619190E-02
2329.588, 1.0684090E-02
2331.516, 9.4753429E-03
2333.445, 9.9782525E-03
2335.373, 9.5405392E-03
2337.302, 9.7030606E-03
2339.230, 9.9986074E-03
2341.159, 1.0019850E-02
2343.087, 1.1187440E-02
2345.016, 1.1810610E-02
2346.944, 1.1664250E-02
2348.873, 1.1004910E-02
2350.801, 1.0310750E-02
2352.729, 1.0311260E-02
2354.658, 1.0347370E-02
2356.586, 1.0542250E-02
2358.515, 9.9162646E-03
2360.443, 9.9794175E-03
2362.372, 9.7482633E-03
2364.300, 8.9666080E-03
2366.229, 8.3615491E-03
2368.157, 7.4232230E-03
2370.086, 7.8712124E-03
2372.014, 8.2814461E-03
2373.942, 8.2689896E-03
2375.871, 8.6232657E-03
2377.799, 8.7630302E-03
2379.728, 8.6177047E-03
2381.656, 8.3363503E-03
2383.585, 9.3579963E-03
2385.513, 9.6568102E-03
2387.442, 9.1639413E-03
2389.370, 8.8947834E-03
2391.299, 8.7844934E-03
2393.227, 8.8456376E-03
2395.156, 8.4529659E-03
2397.084, 7.4024629E-03
2399.012, 7.5956858E-03
2400.941, 8.3648758E-03
2402.869, 7.8169992E-03
2404.798, 8.8200998E-03
2406.726, 1.0768810E-02
2408.655, 1.1285640E-02
2410.583, 1.0780250E-02
2412.512, 9.2028324E-03
2414.440, 8.0636609E-03
2416.369, 8.4221773E-03
2418.297, 9.2259524E-03
2420.226, 1.0338170E-02
2422.154, 1.0525050E-02
2424.083, 9.1371816E-03
2426.011, 8.5897390E-03
2427.939, 9.7507685E-03
2429.868, 1.0385290E-02
2431.796, 1.0041330E-02
2433.725, 1.0198200E-02
2435.653, 1.0649410E-02
2437.582, 1.0928170E-02
2439.510, 1.1096080E-02
2441.439, 1.0170000E-02
2443.367, 9.7129634E-03
2445.296, 1.0525120E-02
2447.224, 1.0648080E-02
2449.153, 1.0649830E-02
2451.081, 1.1246050E-02
2453.010, 1.0797880E-02
2454.938, 1.0820670E-02
2456.866, 1.2258490E-02
2458.795, 1.1852750E-02
2460.723, 1.1247110E-02
2462.652, 1.2577030E-02
2464.580, 1.3207010E-02
2466.509, 1.2224340E-02
2468.437, 1.1086910E-02
2470.366, 1.1759970E-02
2472.294, 1.1540270E-02
2474.223, 1.0590010E-02
2476.151, 1.1304110E-02
2478.080, 1.1582710E-02
2480.008, 1.1023980E-02
2481.937, 1.1171560E-02
2483.865, 1.1678550E-02
2485.793, 1.1753730E-02
2487.722, 1.2071470E-02
2489.650, 1.1292630E-02
2491.579, 1.0586520E-02
2493.507, 1.1159030E-02
2495.436, 1.1929560E-02
2497.364, 1.2889870E-02
2499.293, 1.1905130E-02
2501.221, 1.1169510E-02
2503.150, 1.1560310E-02
2505.078, 1.1335850E-02
2507.007, 1.0430050E-02
2508.935, 1.0823390E-02
2510.864, 1.1630910E-02
2512.792, 1.1578670E-02
2514.720, 1.1478840E-02
2516.649, 1.0802760E-02
2518.577, 1.0590250E-02
2520.506, 1.1750110E-02
2522.434, 1.3571360E-02
2524.363, 1.3775850E-02
2526.291, 1.2686850E-02
2528.220, 1.2247220E-02
2530.148, 1.2587570E-02
2532.077, 1.3726530E-02
2534.005, 1.4383900E-02
2535.934, 1.3826650E-02
2537.862, 1.3387740E-02
2539.791, 1.3078360E-02
2541.719, 1.3285680E-02
2543.647, 1.3662790E-02
2545.576, 1.3703720E-02
2547.504, 1.3411100E-02
2549.433, 1.3403290E-02
2551.361, 1.4680200E-02
2553.290, 1.5028600E-02
2555.218, 1.4171280E-02
2557.147, 1.3718320E-02
2559.075, 1.4310250E-02
2561.004, 1.4384210E-02
2562.932, 1.4012980E-02
2564.861, 1.4710850E-02
2566.789, 1.5643889E-02
2568.718, 1.5626300E-02
2570.646, 1.5489290E-02
2572.574, 1.4931910E-02
2574.503, 1.3914890E-02
2576.431, 1.3302800E-02
2578.360, 1.4103910E-02
2580.288, 1.4430600E-02
2582.217, 1.4517660E-02
2584.145, 1.5797781E-02
2586.074, 1.6438300E-02
2588.002, 1.6072720E-02
2589.931, 1.6211880E-02
2591.859, 1.6571460E-02
2593.788, 1.6191730E-02
2595.716, 1.5922589E-02
2597.645, 1.6667239E-02
2599.573, 1.7093340E-02
2601.501, 1.6035371E-02
2603.430, 1.5471510E-02
2605.358, 1.5936481E-02
2607.287, 1.6449461E-02
2609.215, 1.5779991E-02
2611.144, 1.5510420E-02
2613.072, 1.6028799E-02
2615.001, 1.6624900E-02
2616.929, 1.6517680E-02
2618.858, 1.5691020E-02
2620.786, 1.6393481E-02
2622.715, 1.6939400E-02
2624.643, 1.7853610E-02
2626.572, 1.7457141E-02
2628.500, 1.6340841E-02
2630.428, 1.6382709E-02
2632.357, 1.7681859E-02
2634.285, 1.8501950E-02
2636.214, 1.8329620E-02
2638.142, 1.7675981E-02
2640.071, 1.7478470E-02
2641.999, 1.7864261E-02
2643.928, 1.7958179E-02
2645.856, 1.6749540E-02
2647.785, 1.6637310E-02
2649.713, 1.6293000E-02
2651.642, 1.5946239E-02
2653.570, 1.6058490E-02
2655.499, 1.6949151E-02
2657.427, 1.7063960E-02
2659.355, 1.6415481E-02
2661.284, 1.6170001E-02
2663.212, 1.6155681E-02
2665.141, 1.6575700E-02
2667.069, 1.6647311E-02
2668.998, 1.6117509E-02
2670.926, 1.5734820E-02
2672.855, 1.6258091E-02
2674.783, 1.7295759E-02
2676.712, 1.7946471E-02
2678.640, 1.7923079E-02
2680.569, 1.7423410E-02
2682.497, 1.6923960E-02
2684.426, 1.6700881E-02
2686.354, 1.6719010E-02
2688.282, 1.6344881E-02
2690.211, 1.6449271E-02
2692.139, 1.7022351E-02
2694.068, 1.7785020E-02
2695.996, 1.8171210E-02
2697.925, 1.8046759E-02
2699.853, 1.7352181E-02
2701.782, 1.7083960E-02
2703.710, 1.7506899E-02
2705.639, 1.7605931E-02
2707.567, 1.7202470E-02
2709.496, 1.6906571E-02
2711.424, 1.7029069E-02
2713.353, 1.6924350E-02
2715.281, 1.7594250E-02
2717.209, 1.8318390E-02
2719.138, 1.8358300E-02
2721.066, 1.7621480E-02
2722.995, 1.7779039E-02
2724.923, 1.8745329E-02
2726.852, 1.8541239E-02
2728.780, 1.7633449E-02
2730.709, 1.7719200E-02
2732.637, 1.8735200E-02
2734.566, 1.9449759E-02
2736.494, 1.9353900E-02
2738.423, 1.8601030E-02
2740.351, 1.7866651E-02
2742.280, 1.8975040E-02
2744.208, 1.9478509E-02
2746.136, 1.8383941E-02
2748.065, 1.8373370E-02
2749.993, 1.8732190E-02
2751.922, 1.8407490E-02
2753.850, 1.8573379E-02
2755.779, 1.8608090E-02
2757.707, 1.8891949E-02
2759.636, 1.8889461E-02
2761.564, 1.8817700E-02
2763.493, 1.8651530E-02
2765.421, 1.9023551E-02
2767.350, 1.9205160E-02
2769.278, 1.8027680E-02
2771.207, 1.7727930E-02
2773.135, 1.8635230E-02
2775.063, 1.8817879E-02
2776.992, 1.9949639E-02
2778.920, 2.0829720E-02
2780.849, 1.9995240E-02
2782.777, 1.8260920E-02
2784.706, 1.7198689E-02
2786.634, 1.7745581E-02
2788.563, 1.8646659E-02
2790.491, 1.9394889E-02
2792.420, 2.0056330E-02
2794.348, 2.0314669E-02
2796.277, 1.9246349E-02
2798.205, 1.9062290E-02
2800.134, 1.9109270E-02
2802.062, 1.9306829E-02
2803.990, 1.9701241E-02
2805.919, 1.9528570E-02
2807.847, 1.9738451E-02
2809.776, 2.0546690E-02
2811.704, 2.0829041E-02
2813.633, 2.0242721E-02
2815.561, 1.9302409E-02
2817.490, 1.9299600E-02
2819.418, 1.9763401E-02
2821.347, 1.9544180E-02
2823.275, 1.9914409E-02
2825.204, 2.0605531E-02
2827.132, 2.0315081E-02
2829.061, 2.0213909E-02
2830.989, 2.0608710E-02
2832.917, 2.1069070E-02
2834.846, 2.1523410E-02
2836.774, 2.1394109E-02
2838.703, 2.1167209E-02
2840.631, 2.1082111E-02
2842.560, 2.0996209E-02
2844.488, 2.1283610E-02
2846.417, 2.0699151E-02
2848.345, 2.0770760E-02
2850.274, 2.0644510E-02
2852.202, 1.9801330E-02
2854.131, 2.0098699E-02
2856.059, 2.0026110E-02
2857.988, 2.0476241E-02
2859.916, 2.2229100E-02
2861.844, 2.2082880E-02
2863.773, 2.1784460E-02
2865.701, 2.2507630E-02
2867.630, 2.1317281E-02
2869.558, 2.0710619E-02
2871.487, 2.1840630E-02
2873.415, 2.1879610E-02
2875.344, 2.2483060E-02
2877.272, 2.1910241E-02
2879.201, 2.1902019E-02
2881.129, 2.3442190E-02
2883.058, 2.3051100E-02
2884.986, 2.2575781E-02
2886.915, 2.2251600E-02
2888.843, 2.1615479E-02
2890.771, 2.1620560E-02
2892.700, 2.1986170E-02
2894.628, 2.1932410E-02
2896.557, 2.1848580E-02
2898.485, 2.3154389E-02
2900.414, 2.3775470E-02
2902.342, 2.2669500E-02
2904.271, 2.2569640E-02
2906.199, 2.3257110E-02
2908.128, 2.2626780E-02
2910.056, 2.2492191E-02
2911.985, 2.3380950E-02
2913.913, 2.4438409E-02
2915.842, 2.3355929E-02
2917.770, 2.2152711E-02
2919.698, 2.2885440E-02
2921.627, 2.3181411E-02
2923.555, 2.2026900E-02
2925.484, 2.1876629E-02
2927.412, 2.1540880E-02
2929.341, 2.1290530E-02
2931.269, 2.1361141E-02
2933.198, 2.0558789E-02
2935.126, 2.1307560E-02
2937.055, 2.2477699E-02
2938.983, 2.2074079E-02
2940.912, 2.1836860E-02
2942.840, 2.1981420E-02
2944.769, 2.1754529E-02
2946.697, 2.2122471E-02
2948.625, 2.2820629E-02
2950.554, 2.3095541E-02
2952.482, 2.3540510E-02
2954.411, 2.3943201E-02
2956.339, 2.2649810E-02
2958.268, 2.0994831E-02
2960.196, 2.1703100E-02
2962.125, 2.3252960E-02
2964.053, 2.3636470E-02
2965.982, 2.4070410E-02
2967.910, 2.3827890E-02
2969.839, 2.3200599E-02
2971.767, 2.3198919E-02
2973.696, 2.4133120E-02
2975.624, 2.4893750E-02
2977.552, 2.4557799E-02
2979.481, 2.3620540E-02
2981.409, 2.3211241E-02
2983.338, 2.3207530E-02
2985.266, 2.3154760E-02
2987.195, 2.3823321E-02
2989.123, 2.5128450E-02
2991.052, 2.4129990E-02
2992.980, 2.3693221E-02
2994.909, 2.4511440E-02
2996.837, 2.4298860E-02
2998.766, 2.5008440E-02
3000.694, 2.5737431E-02
3002.623, 2.5045371E-02
3004.551, 2.4589650E-02
3006.479, 2.6097490E-02
3008.408, 2.5424929E-02
3010.336, 2.4317879E-02
3012.265, 2.5206080E-02
3014.193, 2.4973299E-02
3016.122, 2.4859410E-02
3018.050, 2.5644191E-02
3019.979, 2.5855791E-02
3021.907, 2.6295461E-02
3023.836, 2.6150029E-02
3025.764, 2.5813710E-02
3027.693, 2.5118889E-02
3029.621, 2.5452020E-02
3031.550, 2.5548819E-02
3033.478, 2.4789009E-02
3035.406, 2.5195600E-02
3037.335, 2.5392370E-02
3039.263, 2.4270169E-02
3041.192, 2.4734581E-02
3043.120, 2.6328729E-02
3045.049, 2.6485819E-02
3046.977, 2.7405700E-02
3048.906, 2.8137051E-02
3050.834, 2.7332550E-02
3052.763, 2.8445030E-02
3054.691, 2.8987691E-02
3056.620, 2.6470840E-02
3058.548, 2.4603071E-02
3060.477, 2.4918500E-02
3062.405, 2.5818059E-02
3064.333, 2.5895400E-02
3066.262, 2.6248110E-02
3068.190, 2.6671231E-02
3070.119, 2.7771400E-02
3072.047, 2.7808379E-02
3073.976, 2.7059380E-02
3075.904, 2.7798550E-02
3077.833, 2.9287869E-02
3079.761, 2.9402081E-02
3081.690, 2.8503221E-02
3083.618, 2.5752630E-02
3085.547, 2.5694121E-02
3087.475, 2.7396940E-02
3089.404, 2.7447170E-02
3091.332, 2.8652880E-02
3093.260, 2.9221719E-02
3095.189, 2.8145630E-02
3097.117, 2.6106730E-02
3099.046, 2.5689101E-02
3100.974, 2.6816489E-02
3102.903, 2.8730620E-02
3104.831, 2.9528590E-02
3106.760, 2.9090781E-02
3108.688, 2.9005490E-02
3110.617, 2.8427061E-02
3112.545, 2.8941480E-02
3114.474, 2.9319080E-02
3116.402, 2.9004039E-02
3118.331, 2.8036090E-02
3120.259, 2.8309509E-02
3122.188, 3.0245321E-02
3124.116, 3.0288870E-02
3126.044, 2.8874639E-02
3127.973, 2.8104480E-02
3129.901, 2.9462401E-02
3131.830, 3.0720990E-02
3133.758, 2.8751699E-02
3135.687, 2.8253971E-02
3137.615, 2.8619541E-02
3139.544, 2.8102240E-02
3141.472, 2.8761979E-02
3143.401, 2.9240301E-02
3145.329, 2.7917650E-02
3147.258, 2.8150210E-02
3149.186, 3.0056771E-02
3151.115, 3.0828251E-02
3153.043, 3.0497000E-02
3154.971, 2.9410210E-02
3156.900, 2.7993130E-02
3158.828, 2.9170191E-02
3160.757, 3.0036280E-02
3162.685, 3.0532731E-02
3164.614, 2.9801590E-02
3166.542, 2.8440090E-02
3168.471, 2.8176310E-02
3170.399, 2.9349150E-02
3172.328, 3.0452039E-02
3174.256, 3.1044541E-02
3176.185, 3.1113880E-02
3178.113, 3.0485401E-02
3180.042, 3.0910060E-02
3181.970, 3.1702079E-02
3183.898, 3.1910200E-02
3185.827, 3.2231599E-02
3187.755, 3.2016419E-02
3189.684, 3.1233359E-02
3191.612, 3.2193579E-02
3193.541, 3.1603001E-02
3195.469, 3.0736851E-02
3197.398, 3.1772211E-02
3199.326, 3.1164071E-02
3201.255, 3.0926550E-02
3203.183, 3.0673901E-02
3205.112, 2.9442141E-02
3207.040, 2.9781049E-02
3208.969, 3.1894151E-02
3210.897, 3.3173092E-02
3212.825, 3.2945789E-02
3214.754, 3.2224901E-02
3216.682, 3.2229070E-02
3218.611, 3.3121850E-02
3220.539, 3.3226158E-02
3222.468, 3.2005381E-02
3224.396, 3.2031089E-02
3226.325, 3.2801960E-02
3228.253, 3.2987140E-02
3230.182, 3.2755502E-02
3232.110, 3.4830119E-02
3234.039, 3.6798451E-02
3235.967, 3.6784511E-02
3237.896, 3.5569999E-02
3239.824, 3.4723870E-02
3241.752, 3.5043821E-02
3243.681, 3.4668379E-02
3245.609, 3.4366310E-02
3247.538, 3.5388570E-02
3249.466, 3.6161080E-02
3251.395, 3.5803929E-02
3253.323, 3.5541039E-02
3255.252, 3.5457149E-02
3257.180, 3.5750300E-02
3259.109, 3.5024870E-02
3261.037, 3.3238731E-02
3262.966, 3.4660760E-02
3264.894, 3.5240751E-02
3266.823, 3.4938239E-02
3268.751, 3.5797659E-02
3270.679, 3.5939150E-02
3272.608, 3.5183061E-02
3274.536, 3.4766659E-02
3276.465, 3.3537470E-02
3278.393, 3.4352630E-02
3280.322, 3.5487048E-02
3282.250, 3.5179708E-02
3284.179, 3.5567269E-02
3286.107, 3.7035178E-02
3288.036, 3.8692292E-02
3289.964, 3.8193028E-02
3291.893, 3.7879370E-02
3293.821, 3.8580969E-02
3295.750, 3.9825339E-02
3297.678, 3.8371351E-02
3299.606, 3.7382230E-02
3301.535, 3.7136421E-02
3303.463, 3.8481619E-02
3305.392, 3.9926991E-02
3307.320, 3.8394630E-02
3309.249, 3.6496121E-02
3311.177, 3.8221721E-02
3313.106, 3.9514031E-02
3315.034, 3.7341461E-02
3316.963, 3.7565101E-02
3318.891, 3.8194891E-02
3320.820, 3.7751209E-02
3322.748, 3.9795160E-02
3324.677, 4.0470321E-02
3326.605, 3.8820829E-02
3328.533, 3.9399471E-02
3330.462, 4.1346971E-02
3332.390, 4.1752949E-02
3334.319, 4.0913939E-02
3336.247, 4.1338950E-02
3338.176, 4.1915938E-02
3340.104, 4.1870661E-02
3342.033, 4.2453330E-02
3343.961, 4.2345371E-02
3345.890, 4.3143209E-02
3347.818, 4.2472679E-02
3349.747, 4.1665301E-02
3351.675, 4.2077899E-02
3353.604, 4.3967430E-02
3355.532, 4.3704771E-02
3357.460, 4.2545181E-02
3359.389, 4.3785289E-02
3361.317, 4.4292759E-02
3363.246, 4.3362640E-02
3365.174, 4.4562209E-02
3367.103, 4.5887820E-02
3369.031, 4.4250000E-02
3370.960, 4.4590801E-02
3372.888, 4.6756119E-02
3374.817, 4.7518332E-02
3376.745, 4.7693420E-02
3378.674, 4.7445212E-02
3380.602, 4.7551889E-02
3382.531, 4.8474509E-02
3384.459, 4.9005371E-02
3386.387, 4.9107309E-02
3388.316, 5.3095002E-02
3390.244, 5.6954838E-02
3392.173, 5.6455880E-02
3394.101, 5.5971920E-02
3396.030, 5.7288319E-02
3397.958, 5.8039580E-02
3399.887, 5.7990272E-02
3401.815, 5.9752271E-02
3403.744, 6.4263657E-02
3405.672, 6.8280868E-02
3407.601, 7.1774460E-02
3409.529, 7.3521197E-02
3411.458, 7.7386796E-02
3413.386, 8.2619779E-02
3415.314, 8.7472051E-02
3417.243, 9.5375687E-02
3419.171, 0.1038577
3421.100, 0.1125578
3423.028, 0.1215123
3424.957, 0.1318896
3426.885, 0.1385874
3428.814, 0.1383353
3430.742, 0.1332426
3432.671, 0.1235673
3434.599, 0.1095971
3436.528, 9.1792181E-02
3438.456, 7.3324569E-02
3440.385, 5.8850799E-02
3442.313, 4.9751092E-02
3444.241, 4.4944622E-02
3446.170, 4.0970881E-02
3448.098, 3.8869180E-02
3450.027, 3.7380610E-02
3451.955, 3.5943180E-02
3453.884, 3.6142390E-02
3455.812, 3.5835572E-02
3457.741, 3.4150690E-02
3459.669, 3.6030781E-02
3461.598, 3.7633222E-02
3463.526, 3.6433268E-02
3465.455, 3.6587089E-02
3467.383, 3.6842890E-02
3469.312, 3.7973579E-02
3471.240, 3.8166679E-02
3473.168, 3.8310640E-02
3475.097, 3.6588609E-02
3477.025, 3.7504710E-02
3478.954, 3.9790180E-02
3480.882, 4.2694081E-02
3482.811, 4.5665558E-02
3484.739, 4.8469011E-02
3486.668, 5.1622119E-02
3488.596, 5.0701819E-02
3490.525, 4.9628340E-02
3492.453, 5.1180329E-02
3494.382, 5.1751301E-02
3496.310, 5.4646879E-02
3498.239, 6.0453180E-02
3500.167, 6.4004123E-02
3502.095, 6.4043127E-02
3504.024, 6.5647267E-02
3505.952, 6.9103293E-02
3507.881, 7.0565127E-02
3509.809, 7.3129378E-02
3511.738, 7.8637391E-02
3513.666, 8.3984599E-02
3515.595, 8.3484210E-02
3517.523, 8.4440231E-02
3519.452, 8.6571217E-02
3521.380, 8.1477582E-02
3523.309, 7.4885271E-02
3525.237, 6.9377176E-02
3527.166, 6.0617570E-02
3529.094, 5.3879391E-02
3531.022, 4.7055021E-02
3532.951, 4.3741819E-02
3534.879, 4.1649159E-02
3536.808, 3.8997699E-02
3538.736, 3.5213720E-02
3540.665, 3.2536279E-02
3542.593, 3.2991540E-02
3544.522, 3.3868030E-02
3546.450, 3.4769371E-02
3548.379, 3.3077009E-02
3550.307, 3.1519402E-02
3552.236, 3.0827440E-02
3554.164, 3.0401761E-02
3556.093, 2.8255960E-02
3558.021, 2.3300890E-02
3559.949, 2.1723730E-02
3561.878, 2.6163150E-02
3563.806, 2.7073020E-02
3565.735, 2.6735321E-02
3567.663, 2.6440350E-02
3569.592, 2.5977930E-02
3571.520, 2.4734329E-02
3573.449, 2.5290720E-02
3575.377, 2.6129540E-02
3577.306, 2.4958190E-02
3579.234, 2.2800401E-02
3581.163, 2.4522990E-02
3583.091, 2.6192430E-02
3585.020, 2.5261540E-02
3586.948, 2.5178861E-02
3588.876, 2.3731859E-02
3590.805, 2.0205950E-02
3592.733, 2.1135880E-02
3594.662, 2.4015751E-02
3596.590, 2.4217561E-02
3598.519, 2.4363751E-02
3600.447, 2.5014790E-02
3602.376, 2.5086891E-02
3604.304, 2.3299830E-02
3606.233, 2.4370831E-02
3608.161, 2.5370169E-02
3610.090, 2.4970930E-02
3612.018, 2.8337380E-02
3613.947, 2.7856469E-02
3615.875, 2.4130709E-02
3617.803, 2.3098160E-02
3619.732, 2.1794330E-02
3621.660, 2.0713311E-02
3623.589, 2.4040891E-02
3625.517, 2.4439299E-02
3627.446, 2.0297689E-02
3629.374, 1.6975731E-02
3631.303, 1.9705599E-02
3633.231, 2.4196910E-02
3635.160, 2.2268310E-02
3637.088, 2.0403650E-02
3639.017, 1.9818639E-02
3640.945, 1.8706391E-02
3642.874, 1.8979160E-02
3644.802, 2.1053709E-02
3646.730, 2.3417240E-02
3648.659, 2.2973260E-02
3650.587, 2.3512470E-02
3652.516, 2.1572471E-02
3654.444, 2.0859100E-02
3656.373, 2.0149341E-02
3658.301, 1.6767129E-02
3660.230, 1.7435141E-02
3662.158, 1.8946640E-02
3664.087, 2.3628009E-02
3666.015, 2.2938350E-02
3667.944, 2.0603210E-02
3669.872, 1.9497560E-02
3671.801, 1.9435881E-02
3673.729, 1.8364349E-02
3675.657, 1.9033739E-02
3677.586, 1.9759480E-02
3679.514, 1.9963641E-02
3681.443, 2.2710320E-02
3683.371, 2.3223151E-02
3685.300, 2.1097951E-02
3687.228, 1.9936221E-02
3689.157, 2.1271890E-02
3691.085, 2.2116810E-02
3693.014, 1.8341180E-02
3694.942, 1.7765120E-02
3696.871, 1.8424520E-02
3698.799, 1.7529400E-02
3700.728, 1.7677641E-02
3702.656, 1.7204400E-02
3704.584, 1.6468260E-02
3706.513, 1.7817650E-02
3708.441, 1.9846389E-02
3710.370, 1.9137850E-02
3712.298, 1.9523250E-02
3714.227, 1.9173929E-02
3716.155, 1.7095139E-02
3718.084, 1.9604430E-02
3720.012, 2.0881200E-02
3721.941, 2.1947131E-02
3723.869, 2.2150880E-02
3725.798, 2.0053890E-02
3727.726, 2.1986259E-02
3729.655, 2.4728520E-02
3731.583, 2.4321791E-02
3733.511, 2.3455940E-02
3735.440, 2.3667481E-02
3737.368, 2.4902020E-02
3739.297, 1.9321149E-02
3741.225, 1.8337021E-02
3743.154, 2.1097289E-02
3745.082, 2.1212131E-02
3747.011, 2.3392880E-02
3748.939, 2.3593700E-02
3750.868, 2.1192640E-02
3752.796, 2.2193739E-02
3754.725, 2.5189100E-02
3756.653, 2.6804321E-02
3758.582, 2.6226720E-02
3760.510, 2.2982599E-02
3762.438, 2.1592230E-02
3764.367, 2.1780631E-02
3766.295, 2.2622630E-02
3768.224, 2.5092641E-02
3770.152, 2.4561130E-02
3772.081, 1.9199420E-02
3774.009, 1.5609710E-02
3775.938, 1.6587900E-02
3777.866, 1.9400490E-02
3779.795, 2.3087000E-02
3781.723, 2.2109140E-02
3783.652, 2.0341931E-02
3785.580, 1.9086281E-02
3787.509, 1.9166591E-02
3789.437, 1.9645801E-02
3791.365, 2.0283179E-02
3793.294, 2.0528030E-02
3795.222, 2.0814020E-02
3797.151, 1.9675979E-02
3799.079, 1.9773239E-02
3801.008, 2.0194391E-02
3802.936, 2.3783689E-02
3804.865, 2.2335920E-02
3806.793, 2.1927301E-02
3808.722, 2.3283141E-02
3810.650, 2.2948969E-02
3812.579, 2.0949639E-02
3814.507, 1.8093480E-02
3816.436, 1.8596690E-02
3818.364, 2.3937039E-02
3820.292, 2.5938559E-02
3822.221, 2.2965619E-02
3824.149, 2.3216959E-02
3826.078, 2.2818740E-02
3828.006, 2.1705840E-02
3829.935, 2.4271080E-02
3831.863, 2.4063149E-02
3833.792, 2.2145890E-02
3835.720, 2.2909880E-02
3837.649, 2.0212850E-02
3839.577, 2.0739470E-02
3841.506, 2.2659009E-02
3843.434, 1.8754650E-02
3845.363, 1.7302999E-02
3847.291, 1.8067541E-02
3849.219, 2.1121269E-02
3851.148, 2.3359651E-02
3853.076, 2.2217700E-02
3855.005, 2.4798090E-02
3856.933, 2.4673140E-02
3858.862, 2.1226879E-02
3860.790, 2.2311190E-02
3862.719, 2.2603551E-02
3864.647, 2.0254860E-02
3866.576, 1.8024459E-02
3868.504, 1.9248139E-02
3870.433, 2.0543370E-02
3872.361, 1.8661611E-02
3874.290, 1.8947011E-02
3876.218, 2.5202440E-02
3878.146, 2.6840881E-02
3880.075, 2.1766510E-02
3882.003, 2.1577470E-02
3883.932, 2.5415240E-02
3885.860, 2.4043299E-02
3887.789, 2.2140490E-02
3889.717, 2.0872241E-02
3891.646, 2.2581881E-02
3893.574, 2.3150271E-02
3895.503, 2.3857631E-02
3897.431, 2.8957991E-02
3899.360, 2.7516820E-02
3901.288, 2.4757370E-02
3903.217, 2.3896471E-02
3905.145, 2.3451529E-02
3907.073, 2.5415139E-02
3909.002, 2.1170070E-02
3910.930, 1.7905099E-02
3912.859, 2.0930661E-02
3914.787, 2.2692770E-02
3916.716, 2.2292729E-02
3918.644, 2.1152221E-02
3920.573, 2.0785309E-02
3922.501, 2.1913940E-02
3924.430, 2.4234990E-02
3926.358, 2.3006270E-02
3928.287, 2.1481570E-02
3930.215, 2.2255970E-02
3932.144, 2.3401260E-02
3934.072, 2.1183100E-02
3936.000, 1.9105580E-02
3937.929, 2.2665460E-02
3939.857, 2.1786250E-02
3941.786, 2.1173330E-02
3943.714, 2.0809591E-02
3945.643, 2.0083090E-02
3947.571, 2.1349810E-02
3949.500, 2.2702619E-02
3951.428, 2.0332720E-02
3953.357, 1.9129289E-02
3955.285, 2.1618990E-02
3957.214, 2.1380451E-02
3959.142, 2.0846380E-02
3961.071, 2.1105239E-02
3962.999, 1.9559599E-02
3964.927, 2.2382401E-02
3966.856, 2.2120729E-02
3968.784, 2.3917969E-02
3970.713, 2.6886631E-02
3972.641, 2.7004510E-02
3974.570, 2.5484350E-02
3976.498, 2.3303010E-02
3978.427, 2.2389960E-02
3980.355, 2.6068561E-02
3982.284, 2.8396400E-02
3984.212, 2.4644479E-02
3986.141, 2.2036700E-02
3988.069, 2.2161661E-02
3989.998, 2.4435550E-02
3991.926, 2.9270610E-02
3993.854, 2.6521619E-02
3995.783, 2.5538670E-02
3997.711, 2.5211470E-02
3999.640, 2.5223641E-02
##END=



