##NAMES=Trona
##RRUFFID=R050228
##IDEAL CHEMISTRY=Na_3_(HCO_3_)(CO_3_)&#183;2H_2_O
##LOCALITY=Stauffer mine, Green River, Wyoming, USA
##OWNER=RRUFF
##SOURCE=Marcus Origlieri
##DESCRIPTION=Aggregate of pale yellowish brown flattened crystals
##STATUS=The identification of this mineral has been confirmed by X-ray diffraction and chemical analysis
##URL=rruff.info/R050228
##MEASURED CHEMISTRY=Na_3.00_(CO_3_)(HCO_3_)Â·2H_2_O ; CO2 and H not measured but estimated by stoichiometry. The lighter inclusion is dolomite.
3.741225e+002, 1.060913e-001
3.760510e+002, 6.717922e-002
3.779795e+002, 4.476982e-002
3.799079e+002, 6.039183e-002
3.818364e+002, 8.223731e-002
3.837649e+002, 7.672562e-002
3.856933e+002, 6.269678e-002
3.876218e+002, 5.493486e-002
3.895503e+002, 6.028537e-002
3.914787e+002, 7.119656e-002
3.934072e+002, 9.587608e-002
3.953357e+002, 9.583551e-002
3.972641e+002, 6.715497e-002
3.991926e+002, 5.468927e-002
4.011211e+002, 6.744063e-002
4.030495e+002, 7.823487e-002
4.049780e+002, 6.068808e-002
4.069065e+002, 6.023690e-002
4.088349e+002, 8.151108e-002
4.107634e+002, 8.627919e-002
4.126919e+002, 7.952760e-002
4.146203e+002, 8.073570e-002
4.165488e+002, 8.620361e-002
4.184773e+002, 8.620373e-002
4.204057e+002, 8.420461e-002
4.223342e+002, 8.375565e-002
4.242627e+002, 8.417145e-002
4.261911e+002, 8.278245e-002
4.281196e+002, 8.477946e-002
4.300481e+002, 8.622954e-002
4.319765e+002, 8.486914e-002
4.339050e+002, 8.077361e-002
4.358335e+002, 8.181147e-002
4.377619e+002, 9.094042e-002
4.396904e+002, 8.766030e-002
4.416189e+002, 8.492696e-002
4.435473e+002, 8.804244e-002
4.454758e+002, 8.819812e-002
4.474043e+002, 9.094603e-002
4.493327e+002, 9.320077e-002
4.512612e+002, 9.635322e-002
4.531897e+002, 1.043312e-001
4.551181e+002, 1.049720e-001
4.570466e+002, 9.767528e-002
4.589751e+002, 9.929223e-002
4.609035e+002, 9.787960e-002
4.628320e+002, 9.567980e-002
4.647605e+002, 1.019552e-001
4.666889e+002, 1.023819e-001
4.686174e+002, 9.977790e-002
4.705459e+002, 1.035985e-001
4.724743e+002, 1.122236e-001
4.744028e+002, 1.122494e-001
4.763313e+002, 1.106536e-001
4.782597e+002, 1.095949e-001
4.801882e+002, 1.068476e-001
4.821167e+002, 1.111011e-001
4.840451e+002, 1.154880e-001
4.859736e+002, 1.139484e-001
4.879021e+002, 1.136767e-001
4.898305e+002, 1.175950e-001
4.917590e+002, 1.214271e-001
4.936875e+002, 1.230797e-001
4.956159e+002, 1.288029e-001
4.975444e+002, 1.280658e-001
4.994729e+002, 1.267358e-001
5.014013e+002, 1.306779e-001
5.033298e+002, 1.322426e-001
5.052583e+002, 1.289460e-001
5.071867e+002, 1.293910e-001
5.091152e+002, 1.332226e-001
5.110437e+002, 1.359573e-001
5.129721e+002, 1.403936e-001
5.149006e+002, 1.432536e-001
5.168290e+002, 1.425881e-001
5.187575e+002, 1.447717e-001
5.206860e+002, 1.483627e-001
5.226144e+002, 1.525358e-001
5.245429e+002, 1.544964e-001
5.264714e+002, 1.546468e-001
5.283998e+002, 1.540898e-001
5.303283e+002, 1.574709e-001
5.322568e+002, 1.629660e-001
5.341852e+002, 1.682536e-001
5.361137e+002, 1.701918e-001
5.380422e+002, 1.683523e-001
5.399706e+002, 1.655606e-001
5.418991e+002, 1.645942e-001
5.438276e+002, 1.689755e-001
5.457560e+002, 1.740593e-001
5.476845e+002, 1.793653e-001
5.496130e+002, 1.788264e-001
5.515414e+002, 1.817895e-001
5.534699e+002, 1.894709e-001
5.553984e+002, 1.924872e-001
5.573268e+002, 1.906258e-001
5.592553e+002, 1.913624e-001
5.611838e+002, 1.939947e-001
5.631122e+002, 1.937783e-001
5.650407e+002, 1.904360e-001
5.669692e+002, 1.892599e-001
5.688976e+002, 1.931881e-001
5.708261e+002, 1.996420e-001
5.727546e+002, 1.988010e-001
5.746830e+002, 1.958771e-001
5.766115e+002, 1.981993e-001
5.785400e+002, 2.013592e-001
5.804684e+002, 1.992649e-001
5.823969e+002, 1.948031e-001
5.843254e+002, 1.912835e-001
5.862538e+002, 1.923649e-001
5.881823e+002, 1.942048e-001
5.901108e+002, 1.930000e-001
5.920392e+002, 1.895483e-001
5.939677e+002, 1.879472e-001
5.958962e+002, 1.871952e-001
5.978246e+002, 1.844986e-001
5.997531e+002, 1.812182e-001
6.016816e+002, 1.768707e-001
6.036100e+002, 1.741601e-001
6.055385e+002, 1.698388e-001
6.074670e+002, 1.662017e-001
6.093954e+002, 1.639247e-001
6.113239e+002, 1.588013e-001
6.132524e+002, 1.528517e-001
6.151808e+002, 1.502791e-001
6.171093e+002, 1.455945e-001
6.190378e+002, 1.407782e-001
6.209662e+002, 1.392370e-001
6.228947e+002, 1.361390e-001
6.248232e+002, 1.340075e-001
6.267516e+002, 1.334388e-001
6.286801e+002, 1.324966e-001
6.306086e+002, 1.305569e-001
6.325370e+002, 1.277546e-001
6.344655e+002, 1.268791e-001
6.363940e+002, 1.262635e-001
6.383224e+002, 1.256724e-001
6.402509e+002, 1.258642e-001
6.421794e+002, 1.247242e-001
6.441078e+002, 1.251282e-001
6.460363e+002, 1.266661e-001
6.479648e+002, 1.254638e-001
6.498932e+002, 1.228868e-001
6.518217e+002, 1.200644e-001
6.537502e+002, 1.169394e-001
6.556786e+002, 1.154123e-001
6.576071e+002, 1.127968e-001
6.595356e+002, 1.053451e-001
6.614641e+002, 9.767615e-002
6.633925e+002, 9.341042e-002
6.653210e+002, 8.823504e-002
6.672495e+002, 8.555497e-002
6.691779e+002, 8.439461e-002
6.711064e+002, 8.361156e-002
6.730349e+002, 8.476938e-002
6.749633e+002, 8.600678e-002
6.768918e+002, 8.372447e-002
6.788203e+002, 8.117373e-002
6.807487e+002, 8.044141e-002
6.826772e+002, 7.899701e-002
6.846057e+002, 7.530933e-002
6.865341e+002, 7.033271e-002
6.884626e+002, 6.451875e-002
6.903911e+002, 5.918144e-002
6.923195e+002, 5.267873e-002
6.942480e+002, 4.556700e-002
6.961765e+002, 4.119679e-002
6.981049e+002, 3.813619e-002
7.000334e+002, 3.629724e-002
7.019619e+002, 3.624648e-002
7.038903e+002, 3.754646e-002
7.058188e+002, 3.913686e-002
7.077473e+002, 4.157522e-002
7.096757e+002, 4.459883e-002
7.116042e+002, 4.778657e-002
7.135327e+002, 4.968359e-002
7.154611e+002, 5.095031e-002
7.173896e+002, 5.347563e-002
7.193181e+002, 5.503325e-002
7.212465e+002, 5.546711e-002
7.231750e+002, 5.694566e-002
7.251035e+002, 5.876441e-002
7.270319e+002, 5.937951e-002
7.289604e+002, 6.004715e-002
7.308889e+002, 6.215411e-002
7.328173e+002, 6.204524e-002
7.347458e+002, 6.347727e-002
7.366743e+002, 6.551549e-002
7.386027e+002, 6.652986e-002
7.405312e+002, 6.679802e-002
7.424597e+002, 6.757242e-002
7.443881e+002, 6.952407e-002
7.463166e+002, 7.117862e-002
7.482451e+002, 7.237454e-002
7.501735e+002, 7.475953e-002
7.521020e+002, 7.641435e-002
7.540305e+002, 7.812985e-002
7.559589e+002, 7.983017e-002
7.578874e+002, 8.145004e-002
7.598159e+002, 8.448927e-002
7.617443e+002, 8.737433e-002
7.636728e+002, 8.892179e-002
7.656013e+002, 9.028114e-002
7.675297e+002, 9.114660e-002
7.694582e+002, 9.414384e-002
7.713867e+002, 9.643015e-002
7.733151e+002, 9.729596e-002
7.752436e+002, 9.868595e-002
7.771721e+002, 1.011372e-001
7.791005e+002, 1.030624e-001
7.810290e+002, 1.042404e-001
7.829575e+002, 1.067460e-001
7.848859e+002, 1.075880e-001
7.868144e+002, 1.080135e-001
7.887429e+002, 1.094369e-001
7.906713e+002, 1.105990e-001
7.925998e+002, 1.110274e-001
7.945283e+002, 1.116553e-001
7.964567e+002, 1.127617e-001
7.983852e+002, 1.129597e-001
8.003137e+002, 1.119701e-001
8.022421e+002, 1.108397e-001
8.041706e+002, 1.106596e-001
8.060991e+002, 1.108758e-001
8.080275e+002, 1.116238e-001
8.099560e+002, 1.125961e-001
8.118845e+002, 1.123855e-001
8.138129e+002, 1.125844e-001
8.157414e+002, 1.137641e-001
8.176699e+002, 1.138180e-001
8.195983e+002, 1.157509e-001
8.215268e+002, 1.189895e-001
8.234553e+002, 1.199544e-001
8.253837e+002, 1.203829e-001
8.273122e+002, 1.210105e-001
8.292407e+002, 1.224544e-001
8.311691e+002, 1.251799e-001
8.330976e+002, 1.277328e-001
8.350261e+002, 1.310687e-001
8.369545e+002, 1.348421e-001
8.388830e+002, 1.399989e-001
8.408115e+002, 1.474248e-001
8.427399e+002, 1.597389e-001
8.446684e+002, 1.766933e-001
8.465969e+002, 1.940147e-001
8.485253e+002, 2.041078e-001
8.504538e+002, 1.953654e-001
8.523823e+002, 1.691166e-001
8.543107e+002, 1.416601e-001
8.562392e+002, 1.232280e-001
8.581677e+002, 1.130371e-001
8.600961e+002, 1.049860e-001
8.620246e+002, 9.959553e-002
8.639531e+002, 9.729464e-002
8.658815e+002, 9.751139e-002
8.678100e+002, 9.846140e-002
8.697385e+002, 9.838396e-002
8.716669e+002, 9.798703e-002
8.735954e+002, 9.785902e-002
8.755239e+002, 9.886466e-002
8.774523e+002, 9.893544e-002
8.793808e+002, 9.948406e-002
8.813093e+002, 9.986779e-002
8.832377e+002, 9.998865e-002
8.851662e+002, 1.001074e-001
8.870947e+002, 1.006111e-001
8.890231e+002, 1.018636e-001
8.909516e+002, 1.015924e-001
8.928801e+002, 1.013962e-001
8.948085e+002, 1.022150e-001
8.967370e+002, 1.019543e-001
8.986655e+002, 1.011669e-001
9.005939e+002, 1.013697e-001
9.025224e+002, 1.032646e-001
9.044509e+002, 1.028016e-001
9.063793e+002, 1.022073e-001
9.083078e+002, 1.029427e-001
9.102363e+002, 1.028452e-001
9.121647e+002, 1.033211e-001
9.140932e+002, 1.045259e-001
9.160217e+002, 1.053651e-001
9.179501e+002, 1.042444e-001
9.198786e+002, 1.046648e-001
9.218071e+002, 1.056050e-001
9.237355e+002, 1.058498e-001
9.256640e+002, 1.059052e-001
9.275925e+002, 1.061872e-001
9.295209e+002, 1.072658e-001
9.314494e+002, 1.067843e-001
9.333779e+002, 1.078427e-001
9.353063e+002, 1.091662e-001
9.372348e+002, 1.081219e-001
9.391633e+002, 1.081618e-001
9.410917e+002, 1.087285e-001
9.430202e+002, 1.083880e-001
9.449487e+002, 1.086273e-001
9.468771e+002, 1.088634e-001
9.488056e+002, 1.085037e-001
9.507341e+002, 1.087341e-001
9.526625e+002, 1.094651e-001
9.545910e+002, 1.102454e-001
9.565195e+002, 1.102618e-001
9.584479e+002, 1.111799e-001
9.603764e+002, 1.125507e-001
9.623049e+002, 1.123681e-001
9.642333e+002, 1.123967e-001
9.661618e+002, 1.127187e-001
9.680903e+002, 1.125303e-001
9.700187e+002, 1.138433e-001
9.719472e+002, 1.141219e-001
9.738757e+002, 1.139432e-001
9.758041e+002, 1.141689e-001
9.777326e+002, 1.143876e-001
9.796611e+002, 1.150138e-001
9.815895e+002, 1.151533e-001
9.835180e+002, 1.144373e-001
9.854465e+002, 1.145080e-001
9.873749e+002, 1.142903e-001
9.893034e+002, 1.137352e-001
9.912319e+002, 1.141948e-001
9.931603e+002, 1.150332e-001
9.950888e+002, 1.146851e-001
9.970173e+002, 1.147693e-001
9.989457e+002, 1.144724e-001
1.000874e+003, 1.140414e-001
1.002803e+003, 1.142065e-001
1.004731e+003, 1.147606e-001
1.006660e+003, 1.142308e-001
1.008588e+003, 1.144349e-001
1.010517e+003, 1.146846e-001
1.012445e+003, 1.139682e-001
1.014373e+003, 1.131841e-001
1.016302e+003, 1.127389e-001
1.018230e+003, 1.115369e-001
1.020159e+003, 1.114841e-001
1.022087e+003, 1.122044e-001
1.024016e+003, 1.135176e-001
1.025944e+003, 1.131953e-001
1.027873e+003, 1.128200e-001
1.029801e+003, 1.107073e-001
1.031730e+003, 1.085663e-001
1.033658e+003, 1.084110e-001
1.035587e+003, 1.073866e-001
1.037515e+003, 1.052706e-001
1.039443e+003, 1.037438e-001
1.041372e+003, 1.016210e-001
1.043300e+003, 9.921106e-002
1.045229e+003, 9.654901e-002
1.047157e+003, 9.404550e-002
1.049086e+003, 9.510656e-002
1.051014e+003, 1.033110e-001
1.052943e+003, 1.141256e-001
1.054871e+003, 1.218205e-001
1.056800e+003, 1.256476e-001
1.058728e+003, 1.262852e-001
1.060657e+003, 1.250391e-001
1.062585e+003, 1.248659e-001
1.064514e+003, 1.256206e-001
1.066442e+003, 1.248223e-001
1.068370e+003, 1.234506e-001
1.070299e+003, 1.225576e-001
1.072227e+003, 1.225103e-001
1.074156e+003, 1.210296e-001
1.076084e+003, 1.200191e-001
1.078013e+003, 1.200783e-001
1.079941e+003, 1.180907e-001
1.081870e+003, 1.187607e-001
1.083798e+003, 1.202351e-001
1.085727e+003, 1.212777e-001
1.087655e+003, 1.206147e-001
1.089584e+003, 1.191025e-001
1.091512e+003, 1.178931e-001
1.093441e+003, 1.170714e-001
1.095369e+003, 1.165781e-001
1.097297e+003, 1.179871e-001
1.099226e+003, 1.181704e-001
1.101154e+003, 1.175457e-001
1.103083e+003, 1.180694e-001
1.105011e+003, 1.179726e-001
1.106940e+003, 1.166674e-001
1.108868e+003, 1.157217e-001
1.110797e+003, 1.160708e-001
1.112725e+003, 1.166902e-001
1.114654e+003, 1.159987e-001
1.116582e+003, 1.154914e-001
1.118511e+003, 1.161506e-001
1.120439e+003, 1.170773e-001
1.122368e+003, 1.165962e-001
1.124296e+003, 1.160645e-001
1.126224e+003, 1.152831e-001
1.128153e+003, 1.150252e-001
1.130081e+003, 1.159409e-001
1.132010e+003, 1.163918e-001
1.133938e+003, 1.162539e-001
1.135867e+003, 1.159897e-001
1.137795e+003, 1.163249e-001
1.139724e+003, 1.170373e-001
1.141652e+003, 1.169635e-001
1.143581e+003, 1.168335e-001
1.145509e+003, 1.171199e-001
1.147438e+003, 1.181121e-001
1.149366e+003, 1.195361e-001
1.151295e+003, 1.191457e-001
1.153223e+003, 1.187176e-001
1.155151e+003, 1.180534e-001
1.157080e+003, 1.186126e-001
1.159008e+003, 1.201307e-001
1.160937e+003, 1.197557e-001
1.162865e+003, 1.197753e-001
1.164794e+003, 1.208752e-001
1.166722e+003, 1.212168e-001
1.168651e+003, 1.220611e-001
1.170579e+003, 1.232054e-001
1.172508e+003, 1.232396e-001
1.174436e+003, 1.240439e-001
1.176365e+003, 1.247589e-001
1.178293e+003, 1.247157e-001
1.180222e+003, 1.248984e-001
1.182150e+003, 1.244188e-001
1.184078e+003, 1.232476e-001
1.186007e+003, 1.224046e-001
1.187935e+003, 1.211234e-001
1.189864e+003, 1.210390e-001
1.191792e+003, 1.214735e-001
1.193721e+003, 1.200164e-001
1.195649e+003, 1.187717e-001
1.197578e+003, 1.184317e-001
1.199506e+003, 1.177386e-001
1.201435e+003, 1.166664e-001
1.203363e+003, 1.157695e-001
1.205292e+003, 1.149758e-001
1.207220e+003, 1.137559e-001
1.209149e+003, 1.115529e-001
1.211077e+003, 1.097087e-001
1.213005e+003, 1.088289e-001
1.214934e+003, 1.082320e-001
1.216862e+003, 1.078609e-001
1.218791e+003, 1.069627e-001
1.220719e+003, 1.061300e-001
1.222648e+003, 1.051564e-001
1.224576e+003, 1.048574e-001
1.226505e+003, 1.037361e-001
1.228433e+003, 1.013632e-001
1.230362e+003, 1.005918e-001
1.232290e+003, 1.003631e-001
1.234219e+003, 9.989541e-002
1.236147e+003, 1.003159e-001
1.238076e+003, 9.923091e-002
1.240004e+003, 9.770028e-002
1.241932e+003, 9.771324e-002
1.243861e+003, 9.807478e-002
1.245789e+003, 9.698109e-002
1.247718e+003, 9.448678e-002
1.249646e+003, 9.314959e-002
1.251575e+003, 9.331724e-002
1.253503e+003, 9.354241e-002
1.255432e+003, 9.255265e-002
1.257360e+003, 9.169535e-002
1.259289e+003, 9.107894e-002
1.261217e+003, 9.067013e-002
1.263146e+003, 9.117059e-002
1.265074e+003, 9.156667e-002
1.267003e+003, 9.090581e-002
1.268931e+003, 9.076929e-002
1.270859e+003, 9.084110e-002
1.272788e+003, 8.997781e-002
1.274716e+003, 8.898710e-002
1.276645e+003, 8.819324e-002
1.278573e+003, 8.817890e-002
1.280502e+003, 8.811197e-002
1.282430e+003, 8.829882e-002
1.284359e+003, 8.728278e-002
1.286287e+003, 8.616823e-002
1.288216e+003, 8.530685e-002
1.290144e+003, 8.543325e-002
1.292073e+003, 8.576394e-002
1.294001e+003, 8.605830e-002
1.295930e+003, 8.642036e-002
1.297858e+003, 8.622322e-002
1.299786e+003, 8.557363e-002
1.301715e+003, 8.517002e-002
1.303643e+003, 8.554881e-002
1.305572e+003, 8.574217e-002
1.307500e+003, 8.475639e-002
1.309429e+003, 8.483811e-002
1.311357e+003, 8.548719e-002
1.313286e+003, 8.499322e-002
1.315214e+003, 8.390982e-002
1.317143e+003, 8.388292e-002
1.319071e+003, 8.372453e-002
1.321000e+003, 8.323396e-002
1.322928e+003, 8.351907e-002
1.324857e+003, 8.328930e-002
1.326785e+003, 8.240929e-002
1.328714e+003, 8.318388e-002
1.330642e+003, 8.354387e-002
1.332570e+003, 8.423773e-002
1.334499e+003, 8.493278e-002
1.336427e+003, 8.387855e-002
1.338356e+003, 8.332613e-002
1.340284e+003, 8.308568e-002
1.342213e+003, 8.298729e-002
1.344141e+003, 8.339427e-002
1.346070e+003, 8.323871e-002
1.347998e+003, 8.340300e-002
1.349927e+003, 8.401623e-002
1.351855e+003, 8.360539e-002
1.353784e+003, 8.354689e-002
1.355712e+003, 8.396067e-002
1.357641e+003, 8.451992e-002
1.359569e+003, 8.466811e-002
1.361497e+003, 8.436698e-002
1.363426e+003, 8.534707e-002
1.365354e+003, 8.568001e-002
1.367283e+003, 8.571783e-002
1.369211e+003, 8.669728e-002
1.371140e+003, 8.567002e-002
1.373068e+003, 8.494598e-002
1.374997e+003, 8.679713e-002
1.376925e+003, 8.744150e-002
1.378854e+003, 8.636806e-002
1.380782e+003, 8.651010e-002
1.382711e+003, 8.735682e-002
1.384639e+003, 8.793914e-002
1.386568e+003, 8.842092e-002
1.388496e+003, 8.902959e-002
1.390424e+003, 9.050551e-002
1.392353e+003, 9.199946e-002
1.394281e+003, 9.207646e-002
1.396210e+003, 9.067725e-002
1.398138e+003, 9.061002e-002
1.400067e+003, 9.199186e-002
1.401995e+003, 9.345932e-002
1.403924e+003, 9.480638e-002
1.405852e+003, 9.539437e-002
1.407781e+003, 9.638955e-002
1.409709e+003, 9.829323e-002
1.411638e+003, 1.003887e-001
1.413566e+003, 1.024813e-001
1.415495e+003, 1.045012e-001
1.417423e+003, 1.053811e-001
1.419351e+003, 1.060133e-001
1.421280e+003, 1.075473e-001
1.423208e+003, 1.092476e-001
1.425137e+003, 1.113796e-001
1.427065e+003, 1.141520e-001
1.428994e+003, 1.168533e-001
1.430922e+003, 1.193281e-001
1.432851e+003, 1.223768e-001
1.434779e+003, 1.247365e-001
1.436708e+003, 1.262467e-001
1.438636e+003, 1.298186e-001
1.440565e+003, 1.325013e-001
1.442493e+003, 1.350790e-001
1.444422e+003, 1.380025e-001
1.446350e+003, 1.412259e-001
1.448278e+003, 1.435456e-001
1.450207e+003, 1.439403e-001
1.452135e+003, 1.438023e-001
1.454064e+003, 1.448222e-001
1.455992e+003, 1.454467e-001
1.457921e+003, 1.443186e-001
1.459849e+003, 1.418423e-001
1.461778e+003, 1.406582e-001
1.463706e+003, 1.393070e-001
1.465635e+003, 1.362702e-001
1.467563e+003, 1.325194e-001
1.469492e+003, 1.298177e-001
1.471420e+003, 1.258332e-001
1.473349e+003, 1.202629e-001
1.475277e+003, 1.152396e-001
1.477205e+003, 1.109815e-001
1.479134e+003, 1.063868e-001
1.481062e+003, 1.008777e-001
1.482991e+003, 9.683166e-002
1.484919e+003, 9.306619e-002
1.486848e+003, 8.786158e-002
1.488776e+003, 8.315041e-002
1.490705e+003, 7.978828e-002
1.492633e+003, 7.596696e-002
1.494562e+003, 7.302968e-002
1.496490e+003, 7.012044e-002
1.498419e+003, 6.775364e-002
1.500347e+003, 6.585142e-002
1.502276e+003, 6.432021e-002
1.504204e+003, 6.165261e-002
1.506132e+003, 5.965340e-002
1.508061e+003, 5.824941e-002
1.509989e+003, 5.726201e-002
1.511918e+003, 5.625047e-002
1.513846e+003, 5.557032e-002
1.515775e+003, 5.440221e-002
1.517703e+003, 5.271110e-002
1.519632e+003, 5.190176e-002
1.521560e+003, 5.065217e-002
1.523489e+003, 4.987057e-002
1.525417e+003, 4.965156e-002
1.527346e+003, 4.927918e-002
1.529274e+003, 4.931346e-002
1.531203e+003, 4.931396e-002
1.533131e+003, 4.833020e-002
1.535059e+003, 4.726300e-002
1.536988e+003, 4.735900e-002
1.538916e+003, 4.725609e-002
1.540845e+003, 4.694990e-002
1.542773e+003, 4.701287e-002
1.544702e+003, 4.536645e-002
1.546630e+003, 4.490756e-002
1.548559e+003, 4.480289e-002
1.550487e+003, 4.520075e-002
1.552416e+003, 4.548875e-002
1.554344e+003, 4.423460e-002
1.556273e+003, 4.299195e-002
1.558201e+003, 4.156825e-002
1.560130e+003, 4.143041e-002
1.562058e+003, 4.233874e-002
1.563986e+003, 4.130004e-002
1.565915e+003, 4.062898e-002
1.567843e+003, 4.092788e-002
1.569772e+003, 3.995593e-002
1.571700e+003, 4.080195e-002
1.573629e+003, 4.168807e-002
1.575557e+003, 4.112444e-002
1.577486e+003, 4.083708e-002
1.579414e+003, 4.203556e-002
1.581343e+003, 4.209152e-002
1.583271e+003, 4.085443e-002
1.585200e+003, 3.966079e-002
1.587128e+003, 4.022590e-002
1.589057e+003, 4.153086e-002
1.590985e+003, 4.192157e-002
1.592913e+003, 4.228135e-002
1.594842e+003, 4.318266e-002
1.596770e+003, 4.348545e-002
1.598699e+003, 4.393468e-002
1.600627e+003, 4.417308e-002
1.602556e+003, 4.531202e-002
1.604484e+003, 4.667079e-002
1.606413e+003, 4.797044e-002
1.608341e+003, 4.830164e-002
1.610270e+003, 4.785202e-002
1.612198e+003, 4.979097e-002
1.614127e+003, 5.231027e-002
1.616055e+003, 5.323840e-002
1.617984e+003, 5.363919e-002
1.619912e+003, 5.506836e-002
1.621840e+003, 5.678010e-002
1.623769e+003, 5.925881e-002
1.625697e+003, 6.125684e-002
1.627626e+003, 6.069460e-002
1.629554e+003, 6.167715e-002
1.631483e+003, 6.351957e-002
1.633411e+003, 6.518354e-002
1.635340e+003, 6.603259e-002
1.637268e+003, 6.733637e-002
1.639197e+003, 6.901432e-002
1.641125e+003, 7.098892e-002
1.643054e+003, 7.170916e-002
1.644982e+003, 7.250816e-002
1.646911e+003, 7.366174e-002
1.648839e+003, 7.476138e-002
1.650767e+003, 7.486901e-002
1.652696e+003, 7.430002e-002
1.654624e+003, 7.625759e-002
1.656553e+003, 7.827425e-002
1.658481e+003, 7.891279e-002
1.660410e+003, 8.005422e-002
1.662338e+003, 8.069852e-002
1.664267e+003, 8.183226e-002
1.666195e+003, 8.420390e-002
1.668124e+003, 8.639808e-002
1.670052e+003, 8.702899e-002
1.671981e+003, 8.746521e-002
1.673909e+003, 9.026834e-002
1.675838e+003, 9.355186e-002
1.677766e+003, 9.527495e-002
1.679694e+003, 9.747444e-002
1.681623e+003, 9.834791e-002
1.683551e+003, 9.740178e-002
1.685480e+003, 9.751047e-002
1.687408e+003, 9.791163e-002
1.689337e+003, 9.792936e-002
1.691265e+003, 9.659742e-002
1.693194e+003, 9.492785e-002
1.695122e+003, 9.309559e-002
1.697051e+003, 9.250510e-002
1.698979e+003, 9.160210e-002
1.700908e+003, 8.934288e-002
1.702836e+003, 8.922154e-002
1.704765e+003, 8.853100e-002
1.706693e+003, 8.740071e-002
1.708621e+003, 8.664824e-002
1.710550e+003, 8.450703e-002
1.712478e+003, 8.146937e-002
1.714407e+003, 8.032326e-002
1.716335e+003, 7.830208e-002
1.718264e+003, 7.667312e-002
1.720192e+003, 7.627689e-002
1.722121e+003, 7.556514e-002
1.724049e+003, 7.378595e-002
1.725978e+003, 7.264630e-002
1.727906e+003, 7.077663e-002
1.729835e+003, 7.021447e-002
1.731763e+003, 6.930851e-002
1.733692e+003, 6.679519e-002
1.735620e+003, 6.491764e-002
1.737548e+003, 6.509610e-002
1.739477e+003, 6.500176e-002
1.741405e+003, 6.386367e-002
1.743334e+003, 6.290539e-002
1.745262e+003, 6.285830e-002
1.747191e+003, 6.196418e-002
1.749119e+003, 6.113566e-002
1.751048e+003, 5.908958e-002
1.752976e+003, 5.735886e-002
1.754905e+003, 5.581432e-002
1.756833e+003, 5.396507e-002
1.758762e+003, 5.370140e-002
1.760690e+003, 5.211198e-002
1.762619e+003, 5.014401e-002
1.764547e+003, 5.006267e-002
1.766475e+003, 5.141500e-002
1.768404e+003, 5.082237e-002
1.770332e+003, 4.907921e-002
1.772261e+003, 4.738998e-002
1.774189e+003, 4.753239e-002
1.776118e+003, 4.739841e-002
1.778046e+003, 4.599153e-002
1.779975e+003, 4.593846e-002
1.781903e+003, 4.622397e-002
1.783832e+003, 4.614677e-002
1.785760e+003, 4.486845e-002
1.787689e+003, 4.305322e-002
1.789617e+003, 4.236876e-002
1.791546e+003, 4.175381e-002
1.793474e+003, 4.354024e-002
1.795402e+003, 4.230656e-002
1.797331e+003, 4.085420e-002
1.799259e+003, 3.968984e-002
1.801188e+003, 3.998852e-002
1.803116e+003, 4.142202e-002
1.805045e+003, 4.093621e-002
1.806973e+003, 3.912241e-002
1.808902e+003, 3.770974e-002
1.810830e+003, 3.839229e-002
1.812759e+003, 3.730621e-002
1.814687e+003, 3.641256e-002
1.816616e+003, 3.784257e-002
1.818544e+003, 3.817872e-002
1.820473e+003, 3.680072e-002
1.822401e+003, 3.724100e-002
1.824329e+003, 3.740442e-002
1.826258e+003, 3.452346e-002
1.828186e+003, 3.316024e-002
1.830115e+003, 3.571700e-002
1.832043e+003, 3.807618e-002
1.833972e+003, 3.506003e-002
1.835900e+003, 3.342995e-002
1.837829e+003, 3.346857e-002
1.839757e+003, 3.256014e-002
1.841686e+003, 3.072202e-002
1.843614e+003, 3.027915e-002
1.845543e+003, 2.977433e-002
1.847471e+003, 3.094929e-002
1.849400e+003, 3.077803e-002
1.851328e+003, 3.035760e-002
1.853256e+003, 3.178389e-002
1.855185e+003, 3.301464e-002
1.857113e+003, 3.443781e-002
1.859042e+003, 3.512613e-002
1.860970e+003, 3.275219e-002
1.862899e+003, 3.021542e-002
1.864827e+003, 2.796815e-002
1.866756e+003, 2.750943e-002
1.868684e+003, 2.937620e-002
1.870613e+003, 3.024967e-002
1.872541e+003, 2.925875e-002
1.874470e+003, 2.974299e-002
1.876398e+003, 3.053480e-002
1.878327e+003, 2.821454e-002
1.880255e+003, 2.543754e-002
1.882183e+003, 2.608265e-002
1.884112e+003, 2.658568e-002
1.886040e+003, 2.458168e-002
1.887969e+003, 2.669828e-002
1.889897e+003, 2.983461e-002
1.891826e+003, 3.120163e-002
1.893754e+003, 2.923437e-002
1.895683e+003, 2.668982e-002
1.897611e+003, 2.843920e-002
1.899540e+003, 2.911578e-002
1.901468e+003, 2.728662e-002
1.903397e+003, 2.684070e-002
1.905325e+003, 2.704065e-002
1.907254e+003, 2.671774e-002
1.909182e+003, 2.678729e-002
1.911110e+003, 2.480360e-002
1.913039e+003, 2.726684e-002
1.914967e+003, 2.757288e-002
1.916896e+003, 2.558218e-002
1.918824e+003, 2.511844e-002
1.920753e+003, 2.535421e-002
1.922681e+003, 2.570518e-002
1.924610e+003, 2.491524e-002
1.926538e+003, 2.300611e-002
1.928467e+003, 2.444358e-002
1.930395e+003, 2.307176e-002
1.932324e+003, 2.227002e-002
1.934252e+003, 2.187182e-002
1.936181e+003, 2.149371e-002
1.938109e+003, 2.073759e-002
1.940037e+003, 2.510768e-002
1.941966e+003, 2.496931e-002
1.943894e+003, 2.432838e-002
1.945823e+003, 2.498583e-002
1.947751e+003, 2.429261e-002
1.949680e+003, 2.189116e-002
1.951608e+003, 2.505957e-002
1.953537e+003, 3.123118e-002
1.955465e+003, 2.746177e-002
1.957394e+003, 2.338484e-002
1.959322e+003, 2.417184e-002
1.961251e+003, 2.683784e-002
1.963179e+003, 2.519195e-002
1.965108e+003, 2.543866e-002
1.967036e+003, 2.606488e-002
1.968964e+003, 2.248444e-002
1.970893e+003, 2.200070e-002
1.972821e+003, 2.469457e-002
1.974750e+003, 3.048634e-002
1.976678e+003, 2.163031e-002
1.978607e+003, 1.640319e-002
1.980535e+003, 1.733742e-002
1.982464e+003, 2.139027e-002
1.984392e+003, 2.540915e-002
1.986321e+003, 2.516641e-002
1.988249e+003, 2.042750e-002
1.990178e+003, 1.941150e-002
1.992106e+003, 1.588742e-002
1.994035e+003, 1.392498e-002
1.995963e+003, 2.073772e-002
1.997891e+003, 2.578217e-002
1.999820e+003, 2.716945e-002
2.001748e+003, 2.310260e-002
2.003677e+003, 2.193832e-002
2.005605e+003, 2.998035e-002
2.007534e+003, 3.570006e-002
2.009462e+003, 2.977905e-002
2.011391e+003, 1.699517e-002
2.013319e+003, 1.817609e-002
2.015248e+003, 2.354736e-002
2.017176e+003, 1.854012e-002
2.019105e+003, 1.928184e-002
2.021033e+003, 1.762758e-002
2.022962e+003, 1.766171e-002
2.024890e+003, 2.195790e-002
2.026818e+003, 2.549988e-002
2.028747e+003, 2.734063e-002
2.030675e+003, 2.136345e-002
2.032604e+003, 2.425494e-002
2.034532e+003, 3.325402e-002
2.036461e+003, 3.082705e-002
2.038389e+003, 2.784683e-002
2.040318e+003, 2.469838e-002
2.042246e+003, 2.126933e-002
2.044175e+003, 2.312130e-002
2.046103e+003, 2.690127e-002
2.048031e+003, 2.251366e-002
2.049960e+003, 1.850654e-002
2.051888e+003, 2.246083e-002
2.053817e+003, 2.540751e-002
2.055745e+003, 2.398023e-002
2.057674e+003, 2.315491e-002
2.059602e+003, 2.312539e-002
2.061531e+003, 2.168733e-002
2.063459e+003, 2.593881e-002
2.065388e+003, 2.818777e-002
2.067316e+003, 2.201794e-002
2.069245e+003, 1.724193e-002
2.071173e+003, 1.629448e-002
2.073102e+003, 2.112649e-002
2.075030e+003, 1.914084e-002
2.076958e+003, 1.532941e-002
2.078887e+003, 1.711069e-002
2.080815e+003, 1.906625e-002
2.082744e+003, 2.033837e-002
2.084672e+003, 2.254849e-002
2.086601e+003, 2.142609e-002
2.088529e+003, 2.252008e-002
2.090458e+003, 2.605782e-002
2.092386e+003, 2.375156e-002
2.094315e+003, 2.192023e-002
2.096243e+003, 1.757446e-002
2.098172e+003, 1.698487e-002
2.100100e+003, 1.688639e-002
2.102029e+003, 1.781365e-002
2.103957e+003, 1.998645e-002
2.105885e+003, 2.204499e-002
2.107814e+003, 2.317171e-002
2.109742e+003, 2.282067e-002
2.111671e+003, 1.777691e-002
2.113599e+003, 1.462177e-002
2.115528e+003, 1.674317e-002
2.117456e+003, 1.813983e-002
2.119385e+003, 1.939685e-002
2.121313e+003, 1.985432e-002
2.123242e+003, 1.723506e-002
2.125170e+003, 1.971554e-002
2.127099e+003, 2.355915e-002
2.129027e+003, 1.860773e-002
2.130956e+003, 1.906449e-002
2.132884e+003, 2.526312e-002
2.134813e+003, 2.480125e-002
2.136741e+003, 2.051223e-002
2.138669e+003, 1.939510e-002
2.140598e+003, 2.285391e-002
2.142526e+003, 2.537376e-002
2.144455e+003, 2.551200e-002
2.146383e+003, 2.057142e-002
2.148312e+003, 2.115346e-002
2.150240e+003, 2.113803e-002
2.152169e+003, 2.066032e-002
2.154097e+003, 2.508020e-002
2.156026e+003, 2.705685e-002
2.157954e+003, 1.937899e-002
2.159883e+003, 1.901728e-002
2.161811e+003, 1.948118e-002
2.163740e+003, 1.759149e-002
2.165668e+003, 2.007962e-002
2.167596e+003, 2.701058e-002
2.169525e+003, 2.862193e-002
2.171453e+003, 2.323429e-002
2.173382e+003, 1.411086e-002
2.175310e+003, 7.541679e-003
2.177239e+003, 1.551496e-002
2.179167e+003, 2.087875e-002
2.181096e+003, 1.643163e-002
2.183024e+003, 1.825445e-002
2.184953e+003, 2.540403e-002
2.186881e+003, 2.406073e-002
2.188810e+003, 2.182704e-002
2.190738e+003, 1.970986e-002
2.192667e+003, 1.317476e-002
2.194595e+003, 1.337838e-002
2.196523e+003, 1.249432e-002
2.198452e+003, 1.008342e-002
2.200380e+003, 9.628776e-003
2.202309e+003, 9.916645e-003
2.204237e+003, 1.294861e-002
2.206166e+003, 1.490892e-002
2.208094e+003, 1.904435e-002
2.210023e+003, 2.424466e-002
2.211951e+003, 1.820050e-002
2.213880e+003, 1.360709e-002
2.215808e+003, 1.796615e-002
2.217737e+003, 2.055259e-002
2.219665e+003, 2.089825e-002
2.221594e+003, 2.231061e-002
2.223522e+003, 2.225075e-002
2.225450e+003, 2.274723e-002
2.227379e+003, 2.554554e-002
2.229307e+003, 1.999221e-002
2.231236e+003, 2.090825e-002
2.233164e+003, 2.605909e-002
2.235093e+003, 2.404801e-002
2.237021e+003, 2.480342e-002
2.238950e+003, 2.823778e-002
2.240878e+003, 2.510027e-002
2.242807e+003, 2.310197e-002
2.244735e+003, 1.959150e-002
2.246664e+003, 1.922085e-002
2.248592e+003, 1.868584e-002
2.250521e+003, 1.763120e-002
2.252449e+003, 1.805436e-002
2.254377e+003, 2.225840e-002
2.256306e+003, 2.218159e-002
2.258234e+003, 1.960173e-002
2.260163e+003, 2.004151e-002
2.262091e+003, 2.304865e-002
2.264020e+003, 2.374892e-002
2.265948e+003, 2.300975e-002
2.267877e+003, 1.889925e-002
2.269805e+003, 1.715482e-002
2.271734e+003, 1.721667e-002
2.273662e+003, 1.666836e-002
2.275591e+003, 1.712649e-002
2.277519e+003, 2.110611e-002
2.279448e+003, 2.295364e-002
2.281376e+003, 2.252210e-002
2.283304e+003, 2.016933e-002
2.285233e+003, 1.657464e-002
2.287161e+003, 1.538473e-002
2.289090e+003, 1.838410e-002
2.291018e+003, 1.995528e-002
2.292947e+003, 1.864921e-002
2.294875e+003, 1.704273e-002
2.296804e+003, 1.813226e-002
2.298732e+003, 1.921851e-002
2.300661e+003, 2.035875e-002
2.302589e+003, 2.261389e-002
2.304518e+003, 2.052886e-002
2.306446e+003, 1.984668e-002
2.308375e+003, 1.981411e-002
2.310303e+003, 1.546938e-002
2.312231e+003, 1.532034e-002
2.314160e+003, 1.837632e-002
2.316088e+003, 1.905827e-002
2.318017e+003, 1.915823e-002
2.319945e+003, 1.901237e-002
2.321874e+003, 2.004044e-002
2.323802e+003, 2.045415e-002
2.325731e+003, 1.744106e-002
2.327659e+003, 1.747882e-002
2.329588e+003, 1.892121e-002
2.331516e+003, 1.934095e-002
2.333445e+003, 1.943291e-002
2.335373e+003, 1.882087e-002
2.337302e+003, 1.791725e-002
2.339230e+003, 1.594678e-002
2.341158e+003, 1.473292e-002
2.343087e+003, 1.550784e-002
2.345015e+003, 1.676551e-002
2.346944e+003, 1.709278e-002
2.348872e+003, 1.912814e-002
2.350801e+003, 1.906513e-002
2.352729e+003, 1.814339e-002
2.354658e+003, 1.783126e-002
2.356586e+003, 1.729799e-002
2.358515e+003, 1.662546e-002
2.360443e+003, 1.920530e-002
2.362372e+003, 1.942443e-002
2.364300e+003, 1.725121e-002
2.366229e+003, 1.610511e-002
2.368157e+003, 1.800670e-002
2.370085e+003, 1.784195e-002
2.372014e+003, 1.788048e-002
2.373942e+003, 1.754608e-002
2.375871e+003, 1.628810e-002
2.377799e+003, 1.487071e-002
2.379728e+003, 1.592838e-002
2.381656e+003, 1.879485e-002
2.383585e+003, 1.943555e-002
2.385513e+003, 1.760500e-002
2.387442e+003, 1.676571e-002
2.389370e+003, 1.711479e-002
2.391299e+003, 1.872457e-002
2.393227e+003, 2.053134e-002
2.395156e+003, 1.923191e-002
2.397084e+003, 1.579499e-002
2.399012e+003, 1.348171e-002
2.400941e+003, 1.350486e-002
2.402869e+003, 1.396491e-002
2.404798e+003, 1.403309e-002
2.406726e+003, 1.627236e-002
2.408655e+003, 1.624039e-002
2.410583e+003, 1.567407e-002
2.412512e+003, 1.867274e-002
2.414440e+003, 2.110311e-002
2.416369e+003, 1.802226e-002
2.418297e+003, 1.472322e-002
2.420226e+003, 1.667422e-002
2.422154e+003, 2.133632e-002
2.424083e+003, 2.241367e-002
2.426011e+003, 1.889122e-002
2.427939e+003, 1.840780e-002
2.429868e+003, 1.829532e-002
2.431796e+003, 2.083607e-002
2.433725e+003, 2.267549e-002
2.435653e+003, 1.998916e-002
2.437582e+003, 2.014065e-002
2.439510e+003, 2.087786e-002
2.441439e+003, 1.809247e-002
2.443367e+003, 1.788680e-002
2.445296e+003, 2.161394e-002
2.447224e+003, 2.232681e-002
2.449153e+003, 2.052786e-002
2.451081e+003, 1.966926e-002
2.453010e+003, 1.772875e-002
2.454938e+003, 1.691950e-002
2.456866e+003, 1.919170e-002
2.458795e+003, 2.130673e-002
2.460723e+003, 1.950526e-002
2.462652e+003, 1.402611e-002
2.464580e+003, 1.353800e-002
2.466509e+003, 1.636673e-002
2.468437e+003, 1.742306e-002
2.470366e+003, 1.734781e-002
2.472294e+003, 1.744163e-002
2.474223e+003, 1.930955e-002
2.476151e+003, 2.089003e-002
2.478080e+003, 1.784517e-002
2.480008e+003, 1.643552e-002
2.481937e+003, 1.960787e-002
2.483865e+003, 1.913495e-002
2.485793e+003, 1.906347e-002
2.487722e+003, 2.313105e-002
2.489650e+003, 2.267795e-002
2.491579e+003, 2.120185e-002
2.493507e+003, 1.691466e-002
2.495436e+003, 1.598849e-002
2.497364e+003, 1.885413e-002
2.499293e+003, 1.749354e-002
2.501221e+003, 1.442322e-002
2.503150e+003, 1.539998e-002
2.505078e+003, 1.883675e-002
2.507007e+003, 1.808223e-002
2.508935e+003, 1.622986e-002
2.510864e+003, 1.941727e-002
2.512792e+003, 2.156732e-002
2.514720e+003, 2.169339e-002
2.516649e+003, 1.955260e-002
2.518577e+003, 1.974766e-002
2.520506e+003, 1.960695e-002
2.522434e+003, 2.087957e-002
2.524363e+003, 2.427392e-002
2.526291e+003, 2.054873e-002
2.528220e+003, 2.018942e-002
2.530148e+003, 2.113152e-002
2.532077e+003, 2.006549e-002
2.534005e+003, 1.990436e-002
2.535934e+003, 2.067613e-002
2.537862e+003, 1.927255e-002
2.539791e+003, 1.778764e-002
2.541719e+003, 1.715267e-002
2.543647e+003, 1.854676e-002
2.545576e+003, 2.250466e-002
2.547504e+003, 2.208899e-002
2.549433e+003, 2.050000e-002
2.551361e+003, 2.075306e-002
2.553290e+003, 2.083074e-002
2.555218e+003, 1.750707e-002
2.557147e+003, 1.696487e-002
2.559075e+003, 1.986984e-002
2.561004e+003, 1.937577e-002
2.562932e+003, 1.835483e-002
2.564861e+003, 1.756588e-002
2.566789e+003, 1.693306e-002
2.568718e+003, 1.410902e-002
2.570646e+003, 1.675204e-002
2.572574e+003, 1.754721e-002
2.574503e+003, 1.685064e-002
2.576431e+003, 1.905121e-002
2.578360e+003, 1.986054e-002
2.580288e+003, 1.914566e-002
2.582217e+003, 1.925062e-002
2.584145e+003, 1.860102e-002
2.586074e+003, 1.959446e-002
2.588002e+003, 1.906654e-002
2.589931e+003, 1.846824e-002
2.591859e+003, 1.940575e-002
2.593788e+003, 2.020995e-002
2.595716e+003, 1.864946e-002
2.597645e+003, 1.576099e-002
2.599573e+003, 1.605724e-002
2.601501e+003, 1.775620e-002
2.603430e+003, 1.733667e-002
2.605358e+003, 1.759168e-002
2.607287e+003, 1.813475e-002
2.609215e+003, 1.530361e-002
2.611144e+003, 1.505922e-002
2.613072e+003, 1.751005e-002
2.615001e+003, 1.951558e-002
2.616929e+003, 1.769214e-002
2.618858e+003, 1.913052e-002
2.620786e+003, 2.106552e-002
2.622715e+003, 2.038030e-002
2.624643e+003, 1.918793e-002
2.626572e+003, 1.899980e-002
2.628500e+003, 1.826092e-002
2.630428e+003, 1.793211e-002
2.632357e+003, 1.944135e-002
2.634285e+003, 1.905184e-002
2.636214e+003, 1.791277e-002
2.638142e+003, 1.691198e-002
2.640071e+003, 1.894034e-002
2.641999e+003, 1.867545e-002
2.643928e+003, 1.624155e-002
2.645856e+003, 1.888167e-002
2.647785e+003, 2.132495e-002
2.649713e+003, 2.191828e-002
2.651642e+003, 2.154257e-002
2.653570e+003, 1.856932e-002
2.655499e+003, 1.785824e-002
2.657427e+003, 1.891723e-002
2.659355e+003, 1.954739e-002
2.661284e+003, 2.052229e-002
2.663212e+003, 2.158444e-002
2.665141e+003, 1.877898e-002
2.667069e+003, 1.773348e-002
2.668998e+003, 1.782985e-002
2.670926e+003, 1.840607e-002
2.672855e+003, 1.869224e-002
2.674783e+003, 1.898192e-002
2.676712e+003, 2.014208e-002
2.678640e+003, 2.022432e-002
2.680569e+003, 1.982340e-002
2.682497e+003, 2.202612e-002
2.684426e+003, 2.157973e-002
2.686354e+003, 1.881910e-002
2.688282e+003, 1.758140e-002
2.690211e+003, 1.833790e-002
2.692139e+003, 1.875711e-002
2.694068e+003, 1.881463e-002
2.695996e+003, 2.056701e-002
2.697925e+003, 2.084843e-002
2.699853e+003, 1.966915e-002
2.701782e+003, 1.942770e-002
2.703710e+003, 1.902904e-002
2.705639e+003, 1.722232e-002
2.707567e+003, 1.794698e-002
2.709496e+003, 1.887188e-002
2.711424e+003, 1.713802e-002
2.713353e+003, 1.631201e-002
2.715281e+003, 1.808811e-002
2.717209e+003, 2.118589e-002
2.719138e+003, 2.246951e-002
2.721066e+003, 2.387168e-002
2.722995e+003, 2.402242e-002
2.724923e+003, 2.234115e-002
2.726852e+003, 2.327955e-002
2.728780e+003, 2.447998e-002
2.730709e+003, 2.250804e-002
2.732637e+003, 1.994459e-002
2.734566e+003, 1.985186e-002
2.736494e+003, 2.224439e-002
2.738423e+003, 2.339584e-002
2.740351e+003, 2.343738e-002
2.742280e+003, 2.357681e-002
2.744208e+003, 2.255561e-002
2.746136e+003, 2.277333e-002
2.748065e+003, 2.318397e-002
2.749993e+003, 2.447192e-002
2.751922e+003, 2.404814e-002
2.753850e+003, 2.329249e-002
2.755779e+003, 2.423633e-002
2.757707e+003, 2.511719e-002
2.759636e+003, 2.507215e-002
2.761564e+003, 2.451696e-002
2.763493e+003, 2.361363e-002
2.765421e+003, 2.298076e-002
2.767350e+003, 2.379603e-002
2.769278e+003, 2.182716e-002
2.771207e+003, 2.149321e-002
2.773135e+003, 2.450699e-002
2.775063e+003, 2.459161e-002
2.776992e+003, 2.361538e-002
2.778920e+003, 2.387786e-002
2.780849e+003, 2.486381e-002
2.782777e+003, 2.465200e-002
2.784706e+003, 2.366635e-002
2.786634e+003, 2.367300e-002
2.788563e+003, 2.521830e-002
2.790491e+003, 2.693026e-002
2.792420e+003, 2.636546e-002
2.794348e+003, 2.396141e-002
2.796277e+003, 2.340186e-002
2.798205e+003, 2.501928e-002
2.800134e+003, 2.652970e-002
2.802062e+003, 2.790510e-002
2.803990e+003, 2.738057e-002
2.805919e+003, 2.435370e-002
2.807847e+003, 2.654519e-002
2.809776e+003, 2.602237e-002
2.811704e+003, 2.492834e-002
2.813633e+003, 2.827951e-002
2.815561e+003, 3.154028e-002
2.817490e+003, 3.060630e-002
2.819418e+003, 2.647817e-002
2.821347e+003, 2.638450e-002
2.823275e+003, 2.994513e-002
2.825204e+003, 3.175789e-002
2.827132e+003, 3.013637e-002
2.829061e+003, 2.836664e-002
2.830989e+003, 2.766288e-002
2.832917e+003, 2.754613e-002
2.834846e+003, 3.052427e-002
2.836774e+003, 3.240089e-002
2.838703e+003, 3.062418e-002
2.840631e+003, 3.099462e-002
2.842560e+003, 3.240914e-002
2.844488e+003, 3.131775e-002
2.846417e+003, 2.860663e-002
2.848345e+003, 3.022265e-002
2.850274e+003, 3.211186e-002
2.852202e+003, 2.908164e-002
2.854131e+003, 2.639584e-002
2.856059e+003, 2.788946e-002
2.857988e+003, 3.004686e-002
2.859916e+003, 3.230489e-002
2.861844e+003, 3.164830e-002
2.863773e+003, 3.241092e-002
2.865701e+003, 3.364065e-002
2.867630e+003, 3.442345e-002
2.869558e+003, 3.612500e-002
2.871487e+003, 3.513020e-002
2.873415e+003, 3.327114e-002
2.875344e+003, 3.285106e-002
2.877272e+003, 3.232557e-002
2.879201e+003, 3.472914e-002
2.881129e+003, 3.290593e-002
2.883058e+003, 2.872904e-002
2.884986e+003, 2.756168e-002
2.886915e+003, 2.939654e-002
2.888843e+003, 3.446208e-002
2.890771e+003, 3.312062e-002
2.892700e+003, 3.040140e-002
2.894628e+003, 3.163113e-002
2.896557e+003, 3.369985e-002
2.898485e+003, 3.386023e-002
2.900414e+003, 3.707202e-002
2.902342e+003, 4.063122e-002
2.904271e+003, 4.278045e-002
2.906199e+003, 4.167822e-002
2.908128e+003, 3.728108e-002
2.910056e+003, 3.337817e-002
2.911985e+003, 3.551007e-002
2.913913e+003, 3.534080e-002
2.915842e+003, 3.680166e-002
2.917770e+003, 4.053560e-002
2.919698e+003, 4.264566e-002
2.921627e+003, 4.292693e-002
2.923555e+003, 4.328047e-002
2.925484e+003, 4.228304e-002
2.927412e+003, 3.853519e-002
2.929341e+003, 4.001163e-002
2.931269e+003, 4.239998e-002
2.933198e+003, 4.051192e-002
2.935126e+003, 4.191817e-002
2.937055e+003, 4.314963e-002
2.938983e+003, 4.265967e-002
2.940912e+003, 4.471563e-002
2.942840e+003, 4.567941e-002
2.944769e+003, 4.425133e-002
2.946697e+003, 4.507893e-002
2.948625e+003, 4.710159e-002
2.950554e+003, 4.563095e-002
2.952482e+003, 4.475860e-002
2.954411e+003, 4.572437e-002
2.956339e+003, 4.669981e-002
2.958268e+003, 4.697153e-002
2.960196e+003, 4.547063e-002
2.962125e+003, 4.606650e-002
2.964053e+003, 4.747846e-002
2.965982e+003, 4.662004e-002
2.967910e+003, 4.620415e-002
2.969839e+003, 4.898604e-002
2.971767e+003, 5.174188e-002
2.973696e+003, 5.130600e-002
2.975624e+003, 4.959917e-002
2.977552e+003, 5.108424e-002
2.979481e+003, 5.105950e-002
2.981409e+003, 4.988431e-002
2.983338e+003, 5.011467e-002
2.985266e+003, 5.150057e-002
2.987195e+003, 5.086016e-002
2.989123e+003, 5.370978e-002
2.991052e+003, 5.625673e-002
2.992980e+003, 5.476169e-002
2.994909e+003, 5.404414e-002
2.996837e+003, 5.463853e-002
2.998766e+003, 5.626403e-002
3.000694e+003, 5.555287e-002
3.002623e+003, 5.398865e-002
3.004551e+003, 5.656955e-002
3.006479e+003, 6.062410e-002
3.008408e+003, 5.809025e-002
3.010336e+003, 5.455110e-002
3.012265e+003, 5.287089e-002
3.014193e+003, 5.601256e-002
3.016122e+003, 6.012706e-002
3.018050e+003, 5.978206e-002
3.019979e+003, 5.735099e-002
3.021907e+003, 5.754172e-002
3.023836e+003, 6.095081e-002
3.025764e+003, 5.963946e-002
3.027693e+003, 5.873701e-002
3.029621e+003, 6.223838e-002
3.031550e+003, 6.397791e-002
3.033478e+003, 6.593440e-002
3.035406e+003, 6.377275e-002
3.037335e+003, 6.402878e-002
3.039263e+003, 6.489716e-002
3.041192e+003, 6.076458e-002
3.043120e+003, 5.853795e-002
3.045049e+003, 5.778630e-002
3.046977e+003, 6.027363e-002
3.048906e+003, 6.169542e-002
3.050834e+003, 6.022189e-002
3.052763e+003, 5.875737e-002
3.054691e+003, 5.853473e-002
3.056620e+003, 5.857684e-002
3.058548e+003, 5.992388e-002
3.060477e+003, 6.039674e-002
3.062405e+003, 6.067199e-002
3.064333e+003, 6.056521e-002
3.066262e+003, 5.773972e-002
3.068190e+003, 5.617239e-002
3.070119e+003, 5.633659e-002
3.072047e+003, 5.900031e-002
3.073976e+003, 5.820258e-002
3.075904e+003, 5.571574e-002
3.077833e+003, 5.686037e-002
3.079761e+003, 5.803345e-002
3.081690e+003, 5.624683e-002
3.083618e+003, 5.613497e-002
3.085547e+003, 5.643852e-002
3.087475e+003, 5.580238e-002
3.089404e+003, 5.610387e-002
3.091332e+003, 5.519072e-002
3.093260e+003, 5.197057e-002
3.095189e+003, 5.088958e-002
3.097117e+003, 5.054416e-002
3.099046e+003, 5.372672e-002
3.100974e+003, 5.602146e-002
3.102903e+003, 5.851530e-002
3.104831e+003, 5.774600e-002
3.106760e+003, 5.753225e-002
3.108688e+003, 5.700823e-002
3.110617e+003, 5.166283e-002
3.112545e+003, 5.379597e-002
3.114474e+003, 5.445313e-002
3.116402e+003, 5.719792e-002
3.118331e+003, 5.639336e-002
3.120259e+003, 5.106320e-002
3.122188e+003, 4.794691e-002
3.124116e+003, 4.625037e-002
3.126044e+003, 4.851351e-002
3.127973e+003, 5.085693e-002
3.129901e+003, 4.940454e-002
3.131830e+003, 5.211354e-002
3.133758e+003, 5.284797e-002
3.135687e+003, 4.986830e-002
3.137615e+003, 4.778679e-002
3.139544e+003, 4.746689e-002
3.141472e+003, 5.022396e-002
3.143401e+003, 5.465285e-002
3.145329e+003, 5.676701e-002
3.147258e+003, 5.647324e-002
3.149186e+003, 5.237458e-002
3.151115e+003, 4.454936e-002
3.153043e+003, 4.326698e-002
3.154971e+003, 4.446710e-002
3.156900e+003, 4.436543e-002
3.158828e+003, 4.538540e-002
3.160757e+003, 4.963664e-002
3.162685e+003, 4.900407e-002
3.164614e+003, 4.475341e-002
3.166542e+003, 4.545328e-002
3.168471e+003, 4.795685e-002
3.170399e+003, 4.923562e-002
3.172328e+003, 5.156466e-002
3.174256e+003, 5.100922e-002
3.176185e+003, 4.719680e-002
3.178113e+003, 4.353521e-002
3.180042e+003, 4.749057e-002
3.181970e+003, 5.115098e-002
3.183898e+003, 5.071998e-002
3.185827e+003, 4.981101e-002
3.187755e+003, 5.088829e-002
3.189684e+003, 4.878414e-002
3.191612e+003, 4.573848e-002
3.193541e+003, 4.261188e-002
3.195469e+003, 4.411264e-002
3.197398e+003, 4.657158e-002
3.199326e+003, 4.334820e-002
3.201255e+003, 4.626662e-002
3.203183e+003, 4.654748e-002
3.205112e+003, 4.197098e-002
3.207040e+003, 4.312299e-002
3.208969e+003, 4.904276e-002
3.210897e+003, 5.055582e-002
3.212825e+003, 4.837310e-002
3.214754e+003, 4.893692e-002
3.216682e+003, 4.433515e-002
3.218611e+003, 4.202795e-002
3.220539e+003, 4.391722e-002
3.222468e+003, 4.446424e-002
3.224396e+003, 4.235459e-002
3.226325e+003, 4.338448e-002
3.228253e+003, 4.436833e-002
3.230182e+003, 4.313643e-002
3.232110e+003, 4.451789e-002
3.234039e+003, 4.732097e-002
3.235967e+003, 4.641184e-002
3.237896e+003, 4.147808e-002
3.239824e+003, 4.380719e-002
3.241752e+003, 4.698992e-002
3.243681e+003, 4.446270e-002
3.245609e+003, 4.306728e-002
3.247538e+003, 4.140694e-002
3.249466e+003, 4.042443e-002
3.251395e+003, 4.179780e-002
3.253323e+003, 4.311741e-002
3.255252e+003, 4.107228e-002
3.257180e+003, 3.981989e-002
3.259109e+003, 4.462931e-002
3.261037e+003, 4.796167e-002
3.262966e+003, 4.461123e-002
3.264894e+003, 4.147819e-002
3.266823e+003, 4.068309e-002
3.268751e+003, 4.158487e-002
3.270679e+003, 4.494043e-002
3.272608e+003, 4.745899e-002
3.274536e+003, 4.142092e-002
3.276465e+003, 3.528015e-002
3.278393e+003, 4.040344e-002
3.280322e+003, 4.455475e-002
3.282250e+003, 4.624536e-002
3.284179e+003, 4.291783e-002
3.286107e+003, 3.886654e-002
3.288036e+003, 3.998067e-002
3.289964e+003, 4.292836e-002
3.291893e+003, 4.384208e-002
3.293821e+003, 4.752659e-002
3.295750e+003, 4.789546e-002
3.297678e+003, 4.514344e-002
3.299606e+003, 4.145384e-002
3.301535e+003, 3.864211e-002
3.303463e+003, 4.154192e-002
3.305392e+003, 4.731258e-002
3.307320e+003, 4.515023e-002
3.309249e+003, 4.321399e-002
3.311177e+003, 4.151637e-002
3.313106e+003, 3.582345e-002
3.315034e+003, 3.860418e-002
3.316963e+003, 4.056818e-002
3.318891e+003, 4.063759e-002
3.320820e+003, 4.685726e-002
3.322748e+003, 4.763310e-002
3.324677e+003, 4.292696e-002
3.326605e+003, 4.291226e-002
3.328533e+003, 4.361647e-002
3.330462e+003, 4.330365e-002
3.332390e+003, 4.714813e-002
3.334319e+003, 4.726550e-002
3.336247e+003, 4.635258e-002
3.338176e+003, 4.642873e-002
3.340104e+003, 4.232536e-002
3.342033e+003, 4.298884e-002
3.343961e+003, 4.295120e-002
3.345890e+003, 4.016986e-002
3.347818e+003, 4.112318e-002
3.349747e+003, 4.259947e-002
3.351675e+003, 4.758723e-002
3.353604e+003, 4.623478e-002
3.355532e+003, 4.509034e-002
3.357460e+003, 4.750450e-002
3.359389e+003, 4.634942e-002
3.361317e+003, 4.806510e-002
3.363246e+003, 5.039853e-002
3.365174e+003, 4.822838e-002
3.367103e+003, 4.407548e-002
3.369031e+003, 4.568220e-002
3.370960e+003, 4.622217e-002
3.372888e+003, 4.593099e-002
3.374817e+003, 4.861227e-002
3.376745e+003, 5.540203e-002
3.378674e+003, 5.382572e-002
3.380602e+003, 5.129708e-002
3.382531e+003, 4.661245e-002
3.384459e+003, 4.781150e-002
3.386387e+003, 5.248337e-002
3.388316e+003, 5.387586e-002
3.390244e+003, 5.484316e-002
3.392173e+003, 5.399970e-002
3.394101e+003, 5.494508e-002
3.396030e+003, 5.639506e-002
3.397958e+003, 5.662880e-002
3.399887e+003, 5.616707e-002
3.401815e+003, 5.726459e-002
3.403744e+003, 5.917449e-002
3.405672e+003, 5.932408e-002
3.407601e+003, 6.100900e-002
3.409529e+003, 6.313548e-002
3.411458e+003, 6.301776e-002
3.413386e+003, 6.408880e-002
3.415314e+003, 6.777182e-002
3.417243e+003, 7.108305e-002
3.419171e+003, 7.076635e-002
3.421100e+003, 7.543810e-002
3.423028e+003, 8.059317e-002
3.424957e+003, 7.653994e-002
3.426885e+003, 7.361796e-002
3.428814e+003, 7.878911e-002
3.430742e+003, 8.488872e-002
3.432671e+003, 8.436228e-002
3.434599e+003, 8.154899e-002
3.436528e+003, 8.919190e-002
3.438456e+003, 9.775024e-002
3.440385e+003, 9.210765e-002
3.442313e+003, 9.120517e-002
3.444241e+003, 9.876987e-002
3.446170e+003, 1.044832e-001
3.448098e+003, 1.010899e-001
3.450027e+003, 9.611246e-002
3.451955e+003, 9.774271e-002
3.453884e+003, 1.038333e-001
3.455812e+003, 1.076774e-001
3.457741e+003, 1.095208e-001
3.459669e+003, 1.127249e-001
3.461598e+003, 1.104066e-001
3.463526e+003, 1.067356e-001
3.465455e+003, 1.033963e-001
3.467383e+003, 1.034454e-001
3.469312e+003, 1.047911e-001
3.471240e+003, 1.020550e-001
3.473168e+003, 9.725995e-002
3.475097e+003, 9.233119e-002
3.477025e+003, 8.492948e-002
3.478954e+003, 8.528175e-002
3.480882e+003, 8.716576e-002
3.482811e+003, 8.450940e-002
3.484739e+003, 8.409193e-002
3.486668e+003, 8.312482e-002
3.488596e+003, 8.017816e-002
3.490525e+003, 8.089750e-002
3.492453e+003, 7.741371e-002
3.494382e+003, 7.232564e-002
3.496310e+003, 6.767772e-002
3.498239e+003, 7.039122e-002
3.500167e+003, 7.448640e-002
3.502095e+003, 6.933337e-002
3.504024e+003, 6.397522e-002
3.505952e+003, 6.770212e-002
3.507881e+003, 6.818739e-002
3.509809e+003, 6.682526e-002
3.511738e+003, 6.761504e-002
3.513666e+003, 6.163209e-002
3.515595e+003, 5.569568e-002
3.517523e+003, 5.671047e-002
3.519452e+003, 5.579102e-002
3.521380e+003, 5.388094e-002
3.523309e+003, 5.832571e-002
3.525237e+003, 5.694954e-002
3.527166e+003, 5.227888e-002
3.529094e+003, 4.672328e-002
3.531022e+003, 4.127439e-002
3.532951e+003, 3.802845e-002
3.534879e+003, 3.836908e-002
3.536808e+003, 4.081436e-002
3.538736e+003, 4.561495e-002
3.540665e+003, 4.420175e-002
3.542593e+003, 3.777728e-002
3.544522e+003, 3.172781e-002
3.546450e+003, 3.323287e-002
3.548379e+003, 3.503801e-002
3.550307e+003, 3.313130e-002
3.552236e+003, 3.076163e-002
3.554164e+003, 3.124858e-002
3.556093e+003, 3.144767e-002
3.558021e+003, 2.794168e-002
3.559949e+003, 2.851294e-002
3.561878e+003, 3.297733e-002
3.563806e+003, 3.206209e-002
3.565735e+003, 2.840475e-002
3.567663e+003, 2.868249e-002
3.569592e+003, 2.794309e-002
3.571520e+003, 1.971606e-002
3.573449e+003, 1.659754e-002
3.575377e+003, 2.102796e-002
3.577306e+003, 2.625777e-002
3.579234e+003, 2.414260e-002
3.581163e+003, 2.096925e-002
3.583091e+003, 2.158625e-002
3.585020e+003, 2.215249e-002
3.586948e+003, 1.763257e-002
3.588876e+003, 1.022024e-002
3.590805e+003, 7.212946e-003
3.592733e+003, 9.127948e-003
3.594662e+003, 1.332285e-002
3.596590e+003, 1.747216e-002
3.598519e+003, 1.556858e-002
3.600447e+003, 1.453433e-002
3.602376e+003, 1.836712e-002
3.604304e+003, 1.764311e-002
3.606233e+003, 1.811152e-002
3.608161e+003, 1.828444e-002
3.610090e+003, 1.501126e-002
3.612018e+003, 1.066754e-002
3.613947e+003, 9.471270e-003
3.615875e+003, 1.499186e-002
3.617803e+003, 1.639157e-002
3.619732e+003, 1.740799e-002
3.621660e+003, 1.712121e-002
3.623589e+003, 9.826117e-003
3.625517e+003, 9.963178e-003
3.627446e+003, 2.019050e-002
3.629374e+003, 1.773826e-002
3.631303e+003, 1.106040e-002
3.633231e+003, 1.435820e-002
3.635160e+003, 1.402406e-002
3.637088e+003, 1.222813e-002
3.639017e+003, 4.350532e-003
3.640945e+003, 5.274383e-003
3.642874e+003, 1.597212e-002
3.644802e+003, 1.721258e-002
3.646730e+003, 1.342378e-002
3.648659e+003, 1.749620e-002
3.650587e+003, 1.548556e-002
3.652516e+003, 1.445403e-002
3.654444e+003, 1.783202e-002
3.656373e+003, 1.257248e-002
3.658301e+003, 2.529863e-003
3.660230e+003, 1.991561e-003
3.662158e+003, 1.093629e-002
3.664087e+003, 1.406034e-002
3.666015e+003, 1.100658e-002
3.667944e+003, 1.364721e-002
3.669872e+003, 1.523224e-002
3.671801e+003, 8.978431e-003
3.673729e+003, 8.930509e-003
3.675657e+003, 8.640178e-003
3.677586e+003, 1.109463e-002
3.679514e+003, 1.721020e-002
3.681443e+003, 1.587009e-002
3.683371e+003, 1.298600e-002
3.685300e+003, 1.092700e-002
3.687228e+003, 7.415394e-003
3.689157e+003, 8.788540e-003
3.691085e+003, 1.354622e-002
3.693014e+003, 1.418680e-002
3.694942e+003, 7.337068e-003
3.696871e+003, 7.014653e-003
3.698799e+003, 7.851611e-003
3.700728e+003, 9.334757e-003
3.702656e+003, 1.408306e-002
3.704584e+003, 1.599100e-002
3.706513e+003, 1.992312e-002
3.708441e+003, 1.815016e-002
3.710370e+003, 1.308208e-002
3.712298e+003, 1.308475e-002
3.714227e+003, 1.357988e-002
3.716155e+003, 1.671834e-002
3.718084e+003, 1.472996e-002
3.720012e+003, 7.150776e-003
3.721941e+003, 4.797012e-003
3.723869e+003, 6.136165e-003
3.725798e+003, 6.671682e-003
3.727726e+003, 9.569082e-003
3.729655e+003, 1.123284e-002
3.731583e+003, 1.316343e-002
3.733511e+003, 1.502842e-002
3.735440e+003, 9.749254e-003
3.737368e+003, 8.372858e-003
3.739297e+003, 1.060746e-002
3.741225e+003, 1.179442e-002
3.743154e+003, 1.476884e-002
3.745082e+003, 1.750167e-002
3.747011e+003, 1.416170e-002
3.748939e+003, 8.582173e-003
3.750868e+003, 4.946912e-003
3.752796e+003, 8.904944e-003
3.754725e+003, 1.315090e-002
3.756653e+003, 1.396308e-002
3.758582e+003, 1.618419e-002
3.760510e+003, 1.600803e-002
3.762438e+003, 1.548324e-002
3.764367e+003, 1.550407e-002
3.766295e+003, 1.385401e-002
3.768224e+003, 1.535414e-002
3.770152e+003, 1.106834e-002
3.772081e+003, 1.138390e-002
3.774009e+003, 1.344625e-002
3.775938e+003, 1.524048e-002
3.777866e+003, 1.384301e-002
3.779795e+003, 9.600552e-003
3.781723e+003, 9.324985e-003
3.783652e+003, 1.004109e-002
3.785580e+003, 9.593025e-003
3.787509e+003, 1.145774e-002
3.789437e+003, 1.269596e-002
3.791365e+003, 8.874836e-003
3.793294e+003, 6.450600e-003
3.795222e+003, 5.217845e-003
3.797151e+003, 5.324661e-003
3.799079e+003, 1.167760e-002
3.801008e+003, 1.281873e-002
3.802936e+003, 6.206373e-003
3.804865e+003, 5.573685e-003
3.806793e+003, 6.949699e-003
3.808722e+003, 9.157299e-003
3.810650e+003, 1.435706e-002
3.812579e+003, 1.378763e-002
3.814507e+003, 1.398862e-002
3.816436e+003, 1.403152e-002
3.818364e+003, 1.062652e-002
3.820292e+003, 1.155814e-002
3.822221e+003, 8.961525e-003
3.824149e+003, 8.270189e-003
3.826078e+003, 8.248592e-003
3.828006e+003, 1.333421e-002
3.829935e+003, 1.935951e-002
3.831863e+003, 1.487323e-002
3.833792e+003, 1.098209e-002
3.835720e+003, 1.635614e-002
3.837649e+003, 2.055234e-002
3.839577e+003, 1.494205e-002
3.841506e+003, 1.132040e-002
3.843434e+003, 9.894690e-003
3.845363e+003, 1.198708e-002
3.847291e+003, 1.573831e-002
3.849219e+003, 1.570697e-002
3.851148e+003, 1.287235e-002
3.853076e+003, 1.254003e-002
3.855005e+003, 1.233787e-002
3.856933e+003, 1.534144e-002
3.858862e+003, 1.750475e-002
3.860790e+003, 1.342423e-002
3.862719e+003, 1.438178e-002
3.864647e+003, 1.776733e-002
3.866576e+003, 1.661399e-002
3.868504e+003, 1.353011e-002
3.870433e+003, 7.911794e-003
3.872361e+003, 3.485898e-003
3.874290e+003, 4.860540e-003
3.876218e+003, 5.860562e-003
3.878146e+003, 1.014064e-002
3.880075e+003, 1.688224e-002
3.882003e+003, 1.209247e-002
3.883932e+003, 3.228094e-003
3.885860e+003, 2.338797e-003
3.887789e+003, 5.329883e-003
3.889717e+003, 8.090265e-003
3.891646e+003, 1.165231e-002
3.893574e+003, 1.603017e-002
3.895503e+003, 1.554608e-002
3.897431e+003, 1.171586e-002
3.899360e+003, 1.080402e-002
3.901288e+003, 1.146922e-002
3.903217e+003, 1.450072e-002
3.905145e+003, 1.141633e-002
3.907073e+003, 9.550545e-003
3.909002e+003, 1.171896e-002
3.910930e+003, 7.519372e-003
3.912859e+003, 7.388787e-003
3.914787e+003, 1.369182e-002
3.916716e+003, 1.487922e-002
3.918644e+003, 9.806484e-003
3.920573e+003, 7.685612e-003
3.922501e+003, 7.274717e-003
3.924430e+003, 1.035299e-002
3.926358e+003, 1.396109e-002
3.928287e+003, 1.924355e-002
3.930215e+003, 1.924740e-002
3.932144e+003, 1.449953e-002
3.934072e+003, 1.151288e-002
3.936000e+003, 9.877935e-003
3.937929e+003, 1.359227e-002
3.939857e+003, 1.306895e-002
3.941786e+003, 1.201420e-002
3.943714e+003, 1.311090e-002
3.945643e+003, 1.002136e-002
3.947571e+003, 4.398260e-003
3.949500e+003, 7.211818e-003
3.951428e+003, 9.402559e-003
3.953357e+003, 1.464196e-002
3.955285e+003, 2.214118e-002
3.957214e+003, 2.255063e-002
3.959142e+003, 1.595567e-002
3.961071e+003, 1.385833e-002
3.962999e+003, 1.446255e-002
3.964927e+003, 1.348072e-002
3.966856e+003, 1.049224e-002
3.968784e+003, 1.192580e-002
3.970713e+003, 9.374884e-003
3.972641e+003, 7.127889e-003
3.974570e+003, 8.623706e-003
3.976498e+003, 1.289772e-002
3.978427e+003, 1.061144e-002
3.980355e+003, 1.383125e-002
3.982284e+003, 2.098508e-002
3.984212e+003, 2.029491e-002
3.986141e+003, 1.230480e-002
3.988069e+003, 1.274460e-002
3.989998e+003, 8.054285e-003
3.991926e+003, 5.918590e-003
3.993854e+003, 9.574887e-003
3.995783e+003, 8.779884e-003
3.997711e+003, 8.715544e-003
3.999640e+003, 8.712914e-003
##END=



