##NAMES=Tugtupite
##RRUFFID=R050278
##IDEAL CHEMISTRY=Na_4_BeAlSi_4_O_12_Cl
##LOCALITY=Kvanefjeld, Ilimaussag, Greenland
##OWNER=RRUFF
##SOURCE=Marcus Origlieri
##DESCRIPTION=Pink fine-grained aggregate associated with albite
##STATUS=The identification of this mineral has been confirmed by X-ray diffraction and chemical analysis
##URL=rruff.info/R050278
##MEASURED CHEMISTRY=Na_4.00_Be_1.00_Al_1.00_Si_4.00_O_12_Cl_1.00_ ; Be not measured but estimated by charge balance
3.991926e+002, 1.793071e-001
4.011211e+002, 1.744598e-001
4.030496e+002, 1.752985e-001
4.049780e+002, 1.729537e-001
4.069065e+002, 1.737243e-001
4.088350e+002, 1.788319e-001
4.107634e+002, 1.911498e-001
4.126919e+002, 2.012724e-001
4.146204e+002, 2.040073e-001
4.165488e+002, 2.108219e-001
4.184773e+002, 2.150009e-001
4.204058e+002, 2.141291e-001
4.223342e+002, 2.119537e-001
4.242627e+002, 2.125183e-001
4.261912e+002, 2.119159e-001
4.281196e+002, 2.130515e-001
4.300481e+002, 2.129795e-001
4.319766e+002, 2.092419e-001
4.339050e+002, 2.100529e-001
4.358335e+002, 2.130195e-001
4.377620e+002, 2.130807e-001
4.396904e+002, 2.155344e-001
4.416189e+002, 2.230128e-001
4.435474e+002, 2.258920e-001
4.454758e+002, 2.266899e-001
4.474043e+002, 2.331214e-001
4.493328e+002, 2.461539e-001
4.512612e+002, 2.604252e-001
4.531897e+002, 2.768028e-001
4.551182e+002, 2.938390e-001
4.570466e+002, 3.089831e-001
4.589751e+002, 3.178872e-001
4.609036e+002, 3.221077e-001
4.628320e+002, 3.216456e-001
4.647605e+002, 3.135938e-001
4.666890e+002, 2.962697e-001
4.686174e+002, 2.756422e-001
4.705459e+002, 2.578129e-001
4.724744e+002, 2.426257e-001
4.744028e+002, 2.307251e-001
4.763313e+002, 2.214946e-001
4.782598e+002, 2.104243e-001
4.801882e+002, 1.985231e-001
4.821167e+002, 1.872061e-001
4.840452e+002, 1.743013e-001
4.859736e+002, 1.598502e-001
4.879021e+002, 1.464899e-001
4.898306e+002, 1.337083e-001
4.917590e+002, 1.217269e-001
4.936875e+002, 1.113234e-001
4.956160e+002, 1.020722e-001
4.975444e+002, 9.288204e-002
4.994729e+002, 8.504460e-002
5.014014e+002, 7.706049e-002
5.033298e+002, 6.774099e-002
5.052583e+002, 5.764607e-002
5.071868e+002, 4.870406e-002
5.091152e+002, 4.223998e-002
5.110437e+002, 3.839185e-002
5.129722e+002, 3.580919e-002
5.149006e+002, 3.462802e-002
5.168291e+002, 3.454152e-002
5.187576e+002, 3.585505e-002
5.206860e+002, 3.719154e-002
5.226145e+002, 3.905300e-002
5.245430e+002, 4.170658e-002
5.264714e+002, 4.433815e-002
5.283999e+002, 4.754141e-002
5.303284e+002, 4.999715e-002
5.322568e+002, 5.062298e-002
5.341853e+002, 4.866868e-002
5.361138e+002, 4.548796e-002
5.380422e+002, 4.238864e-002
5.399707e+002, 3.928255e-002
5.418992e+002, 3.623071e-002
5.438276e+002, 3.543023e-002
5.457561e+002, 3.522391e-002
5.476846e+002, 3.463369e-002
5.496130e+002, 3.408632e-002
5.515415e+002, 3.462609e-002
5.534700e+002, 3.609192e-002
5.553984e+002, 3.719686e-002
5.573269e+002, 3.829525e-002
5.592554e+002, 3.925427e-002
5.611838e+002, 4.057069e-002
5.631123e+002, 4.224922e-002
5.650408e+002, 4.394265e-002
5.669692e+002, 4.590926e-002
5.688977e+002, 4.807545e-002
5.708262e+002, 5.042752e-002
5.727546e+002, 5.331370e-002
5.746831e+002, 5.656039e-002
5.766116e+002, 6.004792e-002
5.785400e+002, 6.372724e-002
5.804685e+002, 6.687117e-002
5.823970e+002, 7.018904e-002
5.843254e+002, 7.428209e-002
5.862539e+002, 7.763588e-002
5.881824e+002, 7.983054e-002
5.901108e+002, 8.200088e-002
5.920393e+002, 8.383367e-002
5.939678e+002, 8.444952e-002
5.958962e+002, 8.368918e-002
5.978247e+002, 8.245672e-002
5.997532e+002, 8.137533e-002
6.016816e+002, 8.123033e-002
6.036101e+002, 8.211204e-002
6.055386e+002, 8.571557e-002
6.074670e+002, 9.241431e-002
6.093955e+002, 1.005963e-001
6.113240e+002, 1.085192e-001
6.132524e+002, 1.120795e-001
6.151809e+002, 1.047279e-001
6.171094e+002, 8.918324e-002
6.190378e+002, 7.346465e-002
6.209663e+002, 6.163633e-002
6.228948e+002, 5.405610e-002
6.248232e+002, 4.977766e-002
6.267517e+002, 4.753693e-002
6.286802e+002, 4.674531e-002
6.306086e+002, 4.688674e-002
6.325371e+002, 4.752216e-002
6.344656e+002, 4.887272e-002
6.363940e+002, 5.124144e-002
6.383225e+002, 5.507341e-002
6.402510e+002, 5.996530e-002
6.421794e+002, 6.659891e-002
6.441079e+002, 7.624290e-002
6.460364e+002, 8.816093e-002
6.479648e+002, 9.954575e-002
6.498933e+002, 1.075617e-001
6.518218e+002, 1.082315e-001
6.537502e+002, 9.945522e-002
6.556787e+002, 8.522689e-002
6.576072e+002, 7.194760e-002
6.595356e+002, 6.221743e-002
6.614641e+002, 5.635690e-002
6.633926e+002, 5.348820e-002
6.653210e+002, 5.225812e-002
6.672495e+002, 5.142746e-002
6.691780e+002, 5.165736e-002
6.711064e+002, 5.291349e-002
6.730349e+002, 5.430503e-002
6.749634e+002, 5.593917e-002
6.768918e+002, 5.791508e-002
6.788203e+002, 6.022757e-002
6.807488e+002, 6.259552e-002
6.826772e+002, 6.484031e-002
6.846057e+002, 6.770312e-002
6.865342e+002, 7.113138e-002
6.884626e+002, 7.466875e-002
6.903911e+002, 7.867026e-002
6.923196e+002, 8.321695e-002
6.942480e+002, 8.870082e-002
6.961765e+002, 9.528870e-002
6.981050e+002, 1.023038e-001
7.000334e+002, 1.103913e-001
7.019619e+002, 1.199206e-001
7.038904e+002, 1.305459e-001
7.058188e+002, 1.429081e-001
7.077473e+002, 1.575750e-001
7.096758e+002, 1.748868e-001
7.116042e+002, 1.949278e-001
7.135327e+002, 2.176116e-001
7.154612e+002, 2.422893e-001
7.173896e+002, 2.664123e-001
7.193181e+002, 2.858913e-001
7.212466e+002, 2.960285e-001
7.231750e+002, 2.915642e-001
7.251035e+002, 2.720948e-001
7.270320e+002, 2.439636e-001
7.289604e+002, 2.136420e-001
7.308889e+002, 1.857811e-001
7.328174e+002, 1.619526e-001
7.347458e+002, 1.432066e-001
7.366743e+002, 1.314017e-001
7.386028e+002, 1.275153e-001
7.405313e+002, 1.308272e-001
7.424597e+002, 1.393081e-001
7.443882e+002, 1.522397e-001
7.463167e+002, 1.663605e-001
7.482451e+002, 1.786810e-001
7.501736e+002, 1.859482e-001
7.521021e+002, 1.856235e-001
7.540305e+002, 1.783735e-001
7.559590e+002, 1.670730e-001
7.578875e+002, 1.544752e-001
7.598159e+002, 1.412437e-001
7.617444e+002, 1.277194e-001
7.636729e+002, 1.146773e-001
7.656013e+002, 1.026231e-001
7.675298e+002, 9.284960e-002
7.694583e+002, 8.607703e-002
7.713867e+002, 8.280182e-002
7.733152e+002, 8.266747e-002
7.752437e+002, 8.568382e-002
7.771721e+002, 9.179590e-002
7.791006e+002, 9.906309e-002
7.810291e+002, 1.040316e-001
7.829575e+002, 1.039893e-001
7.848860e+002, 9.786958e-002
7.868145e+002, 8.764420e-002
7.887429e+002, 7.633618e-002
7.906714e+002, 6.526873e-002
7.925999e+002, 5.591719e-002
7.945283e+002, 4.917452e-002
7.964568e+002, 4.457438e-002
7.983853e+002, 4.171117e-002
8.003137e+002, 3.971814e-002
8.022422e+002, 3.817152e-002
8.041707e+002, 3.704567e-002
8.060991e+002, 3.645813e-002
8.080276e+002, 3.582754e-002
8.099561e+002, 3.535692e-002
8.118845e+002, 3.500233e-002
8.138130e+002, 3.461768e-002
8.157415e+002, 3.439923e-002
8.176699e+002, 3.422040e-002
8.195984e+002, 3.430718e-002
8.215269e+002, 3.444738e-002
8.234553e+002, 3.433183e-002
8.253838e+002, 3.427002e-002
8.273123e+002, 3.438411e-002
8.292407e+002, 3.440446e-002
8.311692e+002, 3.459282e-002
8.330977e+002, 3.504001e-002
8.350261e+002, 3.532559e-002
8.369546e+002, 3.561589e-002
8.388831e+002, 3.602678e-002
8.408115e+002, 3.648403e-002
8.427400e+002, 3.713966e-002
8.446685e+002, 3.778699e-002
8.465969e+002, 3.851387e-002
8.485254e+002, 3.933509e-002
8.504539e+002, 4.038682e-002
8.523823e+002, 4.165684e-002
8.543108e+002, 4.288147e-002
8.562393e+002, 4.377701e-002
8.581677e+002, 4.451660e-002
8.600962e+002, 4.584007e-002
8.620247e+002, 4.721816e-002
8.639531e+002, 4.839896e-002
8.658816e+002, 4.995408e-002
8.678101e+002, 5.150847e-002
8.697385e+002, 5.300872e-002
8.716670e+002, 5.435990e-002
8.735955e+002, 5.584614e-002
8.755239e+002, 5.778603e-002
8.774524e+002, 5.949205e-002
8.793809e+002, 6.093441e-002
8.813093e+002, 6.233018e-002
8.832378e+002, 6.401139e-002
8.851663e+002, 6.638637e-002
8.870947e+002, 6.874789e-002
8.890232e+002, 7.130028e-002
8.909517e+002, 7.414076e-002
8.928801e+002, 7.720094e-002
8.948085e+002, 8.062658e-002
8.967370e+002, 8.406267e-002
8.986655e+002, 8.764209e-002
9.005939e+002, 9.202867e-002
9.025224e+002, 9.639940e-002
9.044509e+002, 1.005377e-001
9.063793e+002, 1.053281e-001
9.083078e+002, 1.107050e-001
9.102363e+002, 1.160944e-001
9.121647e+002, 1.216619e-001
9.140932e+002, 1.281819e-001
9.160217e+002, 1.354147e-001
9.179501e+002, 1.427988e-001
9.198786e+002, 1.505556e-001
9.218071e+002, 1.590121e-001
9.237355e+002, 1.681204e-001
9.256640e+002, 1.784921e-001
9.275925e+002, 1.896601e-001
9.295209e+002, 2.013701e-001
9.314494e+002, 2.145238e-001
9.333779e+002, 2.292834e-001
9.353063e+002, 2.447588e-001
9.372348e+002, 2.611471e-001
9.391633e+002, 2.772872e-001
9.410917e+002, 2.921217e-001
9.430202e+002, 3.038537e-001
9.449487e+002, 3.097299e-001
9.468771e+002, 3.109254e-001
9.488056e+002, 3.125291e-001
9.507341e+002, 3.188709e-001
9.526625e+002, 3.297571e-001
9.545910e+002, 3.442848e-001
9.565195e+002, 3.617340e-001
9.584479e+002, 3.806739e-001
9.603764e+002, 3.995245e-001
9.623049e+002, 4.179123e-001
9.642333e+002, 4.352423e-001
9.661618e+002, 4.503812e-001
9.680903e+002, 4.626618e-001
9.700187e+002, 4.708444e-001
9.719472e+002, 4.740032e-001
9.738757e+002, 4.734914e-001
9.758041e+002, 4.688092e-001
9.777326e+002, 4.592351e-001
9.796611e+002, 4.461778e-001
9.815895e+002, 4.315030e-001
9.835180e+002, 4.162873e-001
9.854465e+002, 4.010106e-001
9.873749e+002, 3.851805e-001
9.893034e+002, 3.695240e-001
9.912319e+002, 3.545422e-001
9.931603e+002, 3.400829e-001
9.950888e+002, 3.260927e-001
9.970173e+002, 3.128182e-001
9.989457e+002, 3.003559e-001
1.000874e+003, 2.884632e-001
1.002803e+003, 2.773230e-001
1.004731e+003, 2.669521e-001
1.006660e+003, 2.569897e-001
1.008588e+003, 2.478839e-001
1.010517e+003, 2.399905e-001
1.012445e+003, 2.329380e-001
1.014373e+003, 2.270121e-001
1.016302e+003, 2.232114e-001
1.018230e+003, 2.218897e-001
1.020159e+003, 2.230922e-001
1.022087e+003, 2.272683e-001
1.024016e+003, 2.343951e-001
1.025944e+003, 2.437458e-001
1.027873e+003, 2.549862e-001
1.029801e+003, 2.683575e-001
1.031730e+003, 2.836088e-001
1.033658e+003, 2.999270e-001
1.035587e+003, 3.164854e-001
1.037515e+003, 3.316481e-001
1.039444e+003, 3.417999e-001
1.041372e+003, 3.440658e-001
1.043301e+003, 3.369527e-001
1.045229e+003, 3.205820e-001
1.047157e+003, 2.982707e-001
1.049086e+003, 2.741335e-001
1.051014e+003, 2.514150e-001
1.052943e+003, 2.319205e-001
1.054871e+003, 2.163562e-001
1.056800e+003, 2.050317e-001
1.058728e+003, 1.985533e-001
1.060657e+003, 1.957334e-001
1.062585e+003, 1.924750e-001
1.064514e+003, 1.856950e-001
1.066442e+003, 1.761577e-001
1.068371e+003, 1.655200e-001
1.070299e+003, 1.559795e-001
1.072228e+003, 1.480164e-001
1.074156e+003, 1.413693e-001
1.076084e+003, 1.360836e-001
1.078013e+003, 1.313476e-001
1.079941e+003, 1.272060e-001
1.081870e+003, 1.234736e-001
1.083798e+003, 1.198361e-001
1.085727e+003, 1.166827e-001
1.087655e+003, 1.138959e-001
1.089584e+003, 1.113969e-001
1.091512e+003, 1.088629e-001
1.093441e+003, 1.061550e-001
1.095369e+003, 1.032165e-001
1.097298e+003, 1.001753e-001
1.099226e+003, 9.701456e-002
1.101155e+003, 9.336106e-002
1.103083e+003, 8.951945e-002
1.105011e+003, 8.598969e-002
1.106940e+003, 8.261843e-002
1.108868e+003, 7.941057e-002
1.110797e+003, 7.654812e-002
1.112725e+003, 7.378890e-002
1.114654e+003, 7.102363e-002
1.116582e+003, 6.843530e-002
1.118511e+003, 6.578060e-002
1.120439e+003, 6.326392e-002
1.122368e+003, 6.134238e-002
1.124296e+003, 5.988326e-002
1.126225e+003, 5.916741e-002
1.128153e+003, 5.857217e-002
1.130082e+003, 5.780123e-002
1.132010e+003, 5.764127e-002
1.133938e+003, 5.779553e-002
1.135867e+003, 5.795448e-002
1.137795e+003, 5.855561e-002
1.139724e+003, 5.941058e-002
1.141652e+003, 6.033752e-002
1.143581e+003, 6.094734e-002
1.145509e+003, 6.184074e-002
1.147438e+003, 6.252470e-002
1.149366e+003, 6.277906e-002
1.151295e+003, 6.290001e-002
1.153223e+003, 6.265539e-002
1.155152e+003, 6.216338e-002
1.157080e+003, 6.135775e-002
1.159009e+003, 6.033457e-002
1.160937e+003, 5.882236e-002
1.162865e+003, 5.716041e-002
1.164794e+003, 5.548132e-002
1.166722e+003, 5.356123e-002
1.168651e+003, 5.155861e-002
1.170579e+003, 4.951194e-002
1.172508e+003, 4.746635e-002
1.174436e+003, 4.552085e-002
1.176365e+003, 4.364534e-002
1.178293e+003, 4.174898e-002
1.180222e+003, 3.996043e-002
1.182150e+003, 3.833728e-002
1.184079e+003, 3.645697e-002
1.186007e+003, 3.428042e-002
1.187936e+003, 3.223116e-002
1.189864e+003, 3.036979e-002
1.191792e+003, 2.835918e-002
1.193721e+003, 2.647932e-002
1.195649e+003, 2.480229e-002
1.197578e+003, 2.310975e-002
1.199506e+003, 2.149994e-002
1.201435e+003, 1.991249e-002
1.203363e+003, 1.862500e-002
1.205292e+003, 1.791860e-002
1.207220e+003, 1.692478e-002
1.209149e+003, 1.587282e-002
1.211077e+003, 1.495203e-002
1.213006e+003, 1.390156e-002
1.214934e+003, 1.307435e-002
1.216863e+003, 1.239984e-002
1.218791e+003, 1.171990e-002
1.220719e+003, 1.111938e-002
1.222648e+003, 1.060966e-002
1.224576e+003, 1.020087e-002
1.226505e+003, 9.800104e-003
1.228433e+003, 9.433896e-003
1.230362e+003, 9.125233e-003
1.232290e+003, 8.819320e-003
1.234219e+003, 8.277439e-003
1.236147e+003, 7.870501e-003
1.238076e+003, 7.743593e-003
1.240004e+003, 7.416634e-003
1.241933e+003, 7.113934e-003
1.243861e+003, 6.932328e-003
1.245790e+003, 6.694023e-003
1.247718e+003, 6.732388e-003
1.249646e+003, 6.648893e-003
1.251575e+003, 6.629894e-003
1.253503e+003, 6.587978e-003
1.255432e+003, 6.438856e-003
1.257360e+003, 6.163171e-003
1.259289e+003, 5.867357e-003
1.261217e+003, 5.939833e-003
1.263146e+003, 5.691649e-003
1.265074e+003, 5.139432e-003
1.267003e+003, 5.039263e-003
1.268931e+003, 5.274244e-003
1.270860e+003, 5.292632e-003
1.272788e+003, 5.167067e-003
1.274717e+003, 5.249253e-003
1.276645e+003, 5.259885e-003
1.278573e+003, 5.185893e-003
1.280502e+003, 4.923332e-003
1.282430e+003, 4.644278e-003
1.284359e+003, 4.598224e-003
1.286287e+003, 4.554338e-003
1.288216e+003, 4.623653e-003
1.290144e+003, 4.447290e-003
1.292073e+003, 4.233125e-003
1.294001e+003, 4.286490e-003
1.295930e+003, 4.320138e-003
1.297858e+003, 4.252253e-003
1.299787e+003, 4.182421e-003
1.301715e+003, 4.513957e-003
1.303644e+003, 4.637913e-003
1.305572e+003, 4.273342e-003
1.307500e+003, 4.019382e-003
1.309429e+003, 4.128833e-003
1.311357e+003, 4.200262e-003
1.313286e+003, 4.181058e-003
1.315214e+003, 4.177144e-003
1.317143e+003, 4.040585e-003
1.319071e+003, 4.169319e-003
1.321000e+003, 4.491889e-003
1.322928e+003, 4.380988e-003
1.324857e+003, 4.066636e-003
1.326785e+003, 3.989327e-003
1.328714e+003, 4.158866e-003
1.330642e+003, 4.339142e-003
1.332571e+003, 4.290937e-003
1.334499e+003, 4.142413e-003
1.336427e+003, 4.184525e-003
1.338356e+003, 3.966652e-003
1.340284e+003, 3.745001e-003
1.342213e+003, 4.132407e-003
1.344141e+003, 4.619149e-003
1.346070e+003, 4.440906e-003
1.347998e+003, 4.298095e-003
1.349927e+003, 4.499017e-003
1.351855e+003, 4.723183e-003
1.353784e+003, 4.550746e-003
1.355712e+003, 4.484304e-003
1.357641e+003, 4.550656e-003
1.359569e+003, 4.362762e-003
1.361498e+003, 4.369495e-003
1.363426e+003, 4.467760e-003
1.365354e+003, 4.526956e-003
1.367283e+003, 4.459355e-003
1.369211e+003, 4.543357e-003
1.371140e+003, 4.805950e-003
1.373068e+003, 4.739835e-003
1.374997e+003, 4.702270e-003
1.376925e+003, 4.945590e-003
1.378854e+003, 5.198148e-003
1.380782e+003, 5.337051e-003
1.382711e+003, 5.655444e-003
1.384639e+003, 5.897442e-003
1.386568e+003, 5.833006e-003
1.388496e+003, 5.839213e-003
1.390424e+003, 5.687831e-003
1.392353e+003, 5.717283e-003
1.394281e+003, 5.870541e-003
1.396210e+003, 5.927477e-003
1.398138e+003, 6.309840e-003
1.400067e+003, 6.341606e-003
1.401995e+003, 6.193532e-003
1.403924e+003, 6.519809e-003
1.405852e+003, 6.867240e-003
1.407781e+003, 7.191479e-003
1.409709e+003, 7.138239e-003
1.411638e+003, 6.936038e-003
1.413566e+003, 6.903498e-003
1.415495e+003, 7.072734e-003
1.417423e+003, 7.477339e-003
1.419351e+003, 7.743197e-003
1.421280e+003, 7.547405e-003
1.423208e+003, 7.682872e-003
1.425137e+003, 7.860549e-003
1.427065e+003, 7.943885e-003
1.428994e+003, 8.130128e-003
1.430922e+003, 8.401660e-003
1.432851e+003, 8.491572e-003
1.434779e+003, 8.447052e-003
1.436708e+003, 8.294510e-003
1.438636e+003, 8.072467e-003
1.440565e+003, 8.015549e-003
1.442493e+003, 8.166544e-003
1.444422e+003, 8.108905e-003
1.446350e+003, 7.956927e-003
1.448278e+003, 7.946104e-003
1.450207e+003, 7.810812e-003
1.452135e+003, 7.897588e-003
1.454064e+003, 8.249623e-003
1.455992e+003, 8.419339e-003
1.457921e+003, 8.379335e-003
1.459849e+003, 8.229865e-003
1.461778e+003, 7.923105e-003
1.463706e+003, 7.878902e-003
1.465635e+003, 8.045854e-003
1.467563e+003, 8.079981e-003
1.469492e+003, 7.989616e-003
1.471420e+003, 7.790023e-003
1.473349e+003, 7.691377e-003
1.475277e+003, 7.415704e-003
1.477205e+003, 7.125651e-003
1.479134e+003, 7.062901e-003
1.481062e+003, 7.102723e-003
1.482991e+003, 7.124839e-003
1.484919e+003, 7.194304e-003
1.486848e+003, 6.767489e-003
1.488776e+003, 6.456565e-003
1.490705e+003, 6.693459e-003
1.492633e+003, 6.868442e-003
1.494562e+003, 6.982226e-003
1.496490e+003, 7.036397e-003
1.498419e+003, 6.924368e-003
1.500347e+003, 7.031566e-003
1.502276e+003, 7.035220e-003
1.504204e+003, 7.288794e-003
1.506132e+003, 7.365361e-003
1.508061e+003, 6.925547e-003
1.509989e+003, 6.710595e-003
1.511918e+003, 6.784406e-003
1.513846e+003, 6.680102e-003
1.515775e+003, 6.595821e-003
1.517703e+003, 6.520610e-003
1.519632e+003, 6.524421e-003
1.521560e+003, 6.705126e-003
1.523489e+003, 6.588802e-003
1.525417e+003, 6.173469e-003
1.527346e+003, 6.132698e-003
1.529274e+003, 6.397631e-003
1.531203e+003, 6.299721e-003
1.533131e+003, 6.197560e-003
1.535059e+003, 6.502002e-003
1.536988e+003, 6.554451e-003
1.538916e+003, 6.773215e-003
1.540845e+003, 6.738072e-003
1.542773e+003, 6.499835e-003
1.544702e+003, 6.307932e-003
1.546630e+003, 6.390148e-003
1.548559e+003, 6.323320e-003
1.550487e+003, 6.247446e-003
1.552416e+003, 6.452843e-003
1.554344e+003, 6.515457e-003
1.556273e+003, 6.428425e-003
1.558201e+003, 6.872748e-003
1.560130e+003, 7.069902e-003
1.562058e+003, 6.651953e-003
1.563986e+003, 6.347084e-003
1.565915e+003, 6.250489e-003
1.567843e+003, 6.022665e-003
1.569772e+003, 5.682148e-003
1.571700e+003, 5.804140e-003
1.573629e+003, 6.387426e-003
1.575557e+003, 6.710019e-003
1.577486e+003, 6.333443e-003
1.579414e+003, 6.108824e-003
1.581343e+003, 6.262047e-003
1.583271e+003, 6.005507e-003
1.585200e+003, 6.319301e-003
1.587128e+003, 6.718567e-003
1.589057e+003, 6.752942e-003
1.590985e+003, 6.603104e-003
1.592913e+003, 6.666313e-003
1.594842e+003, 6.499880e-003
1.596770e+003, 6.648909e-003
1.598699e+003, 7.046287e-003
1.600627e+003, 7.061109e-003
1.602556e+003, 6.939924e-003
1.604484e+003, 7.045418e-003
1.606413e+003, 7.274638e-003
1.608341e+003, 7.265224e-003
1.610270e+003, 7.515343e-003
1.612198e+003, 7.990428e-003
1.614127e+003, 8.024600e-003
1.616055e+003, 8.200217e-003
1.617984e+003, 8.141663e-003
1.619912e+003, 8.303368e-003
1.621840e+003, 8.911318e-003
1.623769e+003, 9.383734e-003
1.625697e+003, 9.599720e-003
1.627626e+003, 9.595966e-003
1.629554e+003, 9.616038e-003
1.631483e+003, 9.816328e-003
1.633411e+003, 1.022705e-002
1.635340e+003, 1.019427e-002
1.637268e+003, 9.568683e-003
1.639197e+003, 9.343227e-003
1.641125e+003, 9.165487e-003
1.643054e+003, 9.179565e-003
1.644982e+003, 9.085557e-003
1.646911e+003, 9.110967e-003
1.648839e+003, 9.003729e-003
1.650767e+003, 8.881395e-003
1.652696e+003, 8.802678e-003
1.654624e+003, 8.168262e-003
1.656553e+003, 7.721366e-003
1.658481e+003, 7.530088e-003
1.660410e+003, 7.058669e-003
1.662338e+003, 7.297456e-003
1.664267e+003, 7.414497e-003
1.666195e+003, 6.864585e-003
1.668124e+003, 6.911200e-003
1.670052e+003, 6.839921e-003
1.671981e+003, 6.835068e-003
1.673909e+003, 6.652058e-003
1.675838e+003, 6.438070e-003
1.677766e+003, 6.173181e-003
1.679694e+003, 6.018083e-003
1.681623e+003, 5.985105e-003
1.683551e+003, 6.434782e-003
1.685480e+003, 6.275517e-003
1.687408e+003, 5.344652e-003
1.689337e+003, 4.964574e-003
1.691265e+003, 5.151764e-003
1.693194e+003, 5.296182e-003
1.695122e+003, 5.423967e-003
1.697051e+003, 5.300373e-003
1.698979e+003, 5.165793e-003
1.700908e+003, 4.962946e-003
1.702836e+003, 4.754005e-003
1.704765e+003, 4.682702e-003
1.706693e+003, 4.422114e-003
1.708621e+003, 4.314297e-003
1.710550e+003, 4.455941e-003
1.712478e+003, 4.737810e-003
1.714407e+003, 4.964305e-003
1.716335e+003, 5.156718e-003
1.718264e+003, 4.757312e-003
1.720192e+003, 4.302696e-003
1.722121e+003, 4.070018e-003
1.724049e+003, 3.800540e-003
1.725978e+003, 3.945342e-003
1.727906e+003, 4.479151e-003
1.729835e+003, 4.700290e-003
1.731763e+003, 4.574586e-003
1.733692e+003, 4.560782e-003
1.735620e+003, 4.067230e-003
1.737548e+003, 3.962183e-003
1.739477e+003, 3.763299e-003
1.741405e+003, 3.012671e-003
1.743334e+003, 2.853989e-003
1.745262e+003, 2.713379e-003
1.747191e+003, 2.729682e-003
1.749119e+003, 3.002102e-003
1.751048e+003, 3.148485e-003
1.752976e+003, 2.813456e-003
1.754905e+003, 2.715416e-003
1.756833e+003, 2.957311e-003
1.758762e+003, 2.901416e-003
1.760690e+003, 2.936045e-003
1.762619e+003, 2.676127e-003
1.764547e+003, 2.260608e-003
1.766475e+003, 2.384194e-003
1.768404e+003, 2.411953e-003
1.770332e+003, 2.292553e-003
1.772261e+003, 2.493737e-003
1.774189e+003, 2.582031e-003
1.776118e+003, 2.277616e-003
1.778046e+003, 1.809832e-003
1.779975e+003, 2.177811e-003
1.781903e+003, 2.353966e-003
1.783832e+003, 1.979371e-003
1.785760e+003, 1.758912e-003
1.787689e+003, 1.662920e-003
1.789617e+003, 1.748506e-003
1.791546e+003, 1.734625e-003
1.793474e+003, 1.976606e-003
1.795402e+003, 1.844552e-003
1.797331e+003, 1.603438e-003
1.799259e+003, 1.464366e-003
1.801188e+003, 1.523637e-003
1.803116e+003, 1.483666e-003
1.805045e+003, 1.752131e-003
1.806973e+003, 1.787787e-003
1.808902e+003, 1.158342e-003
1.810830e+003, 1.036225e-003
1.812759e+003, 1.462716e-003
1.814687e+003, 1.564999e-003
1.816616e+003, 1.309234e-003
1.818544e+003, 8.728643e-004
1.820473e+003, 6.239509e-004
1.822401e+003, 1.464749e-003
1.824329e+003, 1.679315e-003
1.826258e+003, 1.350006e-003
1.828186e+003, 1.479959e-003
1.830115e+003, 1.025583e-003
1.832043e+003, 4.611729e-004
1.833972e+003, 5.925761e-004
1.835900e+003, 1.108377e-003
1.837829e+003, 1.247489e-003
1.839757e+003, 1.314189e-003
1.841686e+003, 1.179091e-003
1.843614e+003, 6.422754e-004
1.845543e+003, 7.417872e-005
1.847471e+003, -1.181959e-004
1.849400e+003, 6.281248e-005
1.851328e+003, -1.282037e-005
1.853256e+003, 2.597888e-004
1.855185e+003, 6.216377e-004
1.857113e+003, 8.838614e-004
1.859042e+003, 2.751416e-004
1.860970e+003, 1.208655e-004
1.862899e+003, 1.635739e-005
1.864827e+003, -7.340944e-004
1.866756e+003, -5.918423e-004
1.868684e+003, -4.709283e-004
1.870613e+003, -6.599530e-004
1.872541e+003, -1.985411e-005
1.874470e+003, 4.037169e-005
1.876398e+003, -7.538676e-004
1.878327e+003, -8.150782e-004
1.880255e+003, -7.806252e-004
1.882183e+003, -9.549884e-004
1.884112e+003, -7.801059e-004
1.886040e+003, -5.435013e-004
1.887969e+003, -1.180208e-003
1.889897e+003, -1.712558e-003
1.891826e+003, -1.589878e-003
1.893754e+003, -1.927358e-003
1.895683e+003, -2.242334e-003
1.897611e+003, -1.594928e-003
1.899540e+003, -1.729586e-003
1.901468e+003, -1.747751e-003
1.903397e+003, -1.370575e-003
1.905325e+003, -1.437761e-003
1.907254e+003, -1.822749e-003
1.909182e+003, -1.317585e-003
1.911110e+003, -5.816062e-004
1.913039e+003, -4.714000e-004
1.914967e+003, -9.098914e-004
1.916896e+003, -2.023651e-003
1.918824e+003, -3.370966e-003
1.920753e+003, -4.486660e-003
1.922681e+003, -4.669136e-003
1.924610e+003, -3.853150e-003
1.926538e+003, -2.743677e-003
1.928467e+003, -2.697637e-003
1.930395e+003, -3.503786e-003
1.932324e+003, -3.877069e-003
1.934252e+003, -4.550447e-003
1.936181e+003, -4.352245e-003
1.938109e+003, -3.117688e-003
1.940037e+003, -3.066928e-003
1.941966e+003, -5.149684e-003
1.943894e+003, -5.797604e-003
1.945823e+003, -4.239407e-003
1.947751e+003, -3.477639e-003
1.949680e+003, -4.647650e-003
1.951608e+003, -6.340971e-003
1.953537e+003, -7.786220e-003
1.955465e+003, -7.775417e-003
1.957394e+003, -7.489020e-003
1.959322e+003, -8.416247e-003
1.961251e+003, -1.011267e-002
1.963179e+003, -9.725789e-003
1.965108e+003, -7.750850e-003
1.967036e+003, -6.239061e-003
1.968964e+003, -7.926572e-003
1.970893e+003, -9.356448e-003
1.972821e+003, -8.990642e-003
1.974750e+003, -6.458113e-003
1.976678e+003, -5.055733e-003
1.978607e+003, -5.564901e-003
1.980535e+003, -6.565996e-003
1.982464e+003, -7.094254e-003
1.984392e+003, -4.498555e-003
1.986321e+003, -2.832490e-003
1.988249e+003, -4.741885e-003
1.990178e+003, -7.011649e-003
1.992106e+003, -7.548549e-003
1.994035e+003, -6.769345e-003
1.995963e+003, -7.157319e-003
1.997891e+003, -7.324415e-003
1.999820e+003, -7.630194e-003
2.001748e+003, -1.063106e-002
2.003677e+003, -9.054914e-003
2.005605e+003, -7.315991e-003
2.007534e+003, -5.989124e-003
2.009462e+003, -5.931593e-003
2.011391e+003, -5.884725e-003
2.013319e+003, -7.494478e-003
2.015248e+003, -1.010051e-002
2.017176e+003, -8.912499e-003
2.019105e+003, -8.922676e-003
2.021033e+003, -1.011885e-002
2.022962e+003, -8.389437e-003
2.024890e+003, -6.696599e-003
2.026818e+003, -7.652520e-003
2.028747e+003, -7.663533e-003
2.030675e+003, -6.417802e-003
2.032604e+003, -4.518671e-003
2.034532e+003, -3.689647e-003
2.036461e+003, -5.501058e-003
2.038389e+003, -6.646661e-003
2.040318e+003, -5.792197e-003
2.042246e+003, -4.945160e-003
2.044175e+003, -3.281560e-003
2.046103e+003, -3.861780e-003
2.048032e+003, -3.455812e-003
2.049960e+003, -3.059647e-003
2.051889e+003, -3.644953e-003
2.053817e+003, -4.181731e-003
2.055746e+003, -3.524668e-003
2.057674e+003, -3.353360e-003
2.059603e+003, -3.784789e-003
2.061531e+003, -4.867406e-003
2.063459e+003, -4.446314e-003
2.065388e+003, -3.078650e-003
2.067316e+003, -1.211948e-003
2.069245e+003, -2.036053e-003
2.071173e+003, -4.833383e-003
2.073102e+003, -6.836886e-003
2.075030e+003, -6.747918e-003
2.076959e+003, -6.022417e-003
2.078887e+003, -5.257985e-003
2.080816e+003, -2.699193e-003
2.082744e+003, -1.529755e-003
2.084673e+003, -1.942475e-003
2.086601e+003, -2.463475e-003
2.088530e+003, -2.523446e-003
2.090458e+003, -4.429844e-003
2.092386e+003, -5.703664e-003
2.094315e+003, -4.937151e-003
2.096243e+003, -3.573140e-003
2.098172e+003, -3.507661e-003
2.100100e+003, -4.104535e-003
2.102029e+003, -3.828768e-003
2.103957e+003, -3.152675e-003
2.105886e+003, -2.386171e-003
2.107814e+003, -2.428549e-003
2.109743e+003, -1.947420e-003
2.111671e+003, -1.412898e-003
2.113600e+003, -2.365575e-003
2.115528e+003, -3.390728e-003
2.117457e+003, -3.822424e-003
2.119385e+003, -3.855766e-003
2.121313e+003, -4.961578e-003
2.123242e+003, -4.644223e-003
2.125170e+003, -3.330130e-003
2.127099e+003, -4.853967e-003
2.129027e+003, -7.101410e-003
2.130956e+003, -6.534868e-003
2.132884e+003, -4.714252e-003
2.134813e+003, -3.944268e-003
2.136741e+003, -5.156090e-003
2.138670e+003, -7.569528e-003
2.140598e+003, -7.422554e-003
2.142527e+003, -6.235106e-003
2.144455e+003, -6.450882e-003
2.146384e+003, -5.974526e-003
2.148312e+003, -6.432369e-003
2.150240e+003, -5.157065e-003
2.152169e+003, -5.131053e-003
2.154097e+003, -8.029486e-003
2.156026e+003, -1.063448e-002
2.157954e+003, -6.678293e-003
2.159883e+003, -1.685935e-004
2.161811e+003, -1.303397e-003
2.163740e+003, -2.938845e-003
2.165668e+003, -3.570890e-003
2.167597e+003, -3.089057e-003
2.169525e+003, -1.479456e-003
2.171454e+003, -1.799454e-003
2.173382e+003, -1.739956e-003
2.175311e+003, -1.341046e-003
2.177239e+003, -1.401089e-003
2.179167e+003, -3.251415e-003
2.181096e+003, -3.589201e-003
2.183024e+003, -1.950172e-003
2.184953e+003, -5.377522e-004
2.186881e+003, 1.227762e-003
2.188810e+003, 6.277584e-004
2.190738e+003, -2.938104e-003
2.192667e+003, -3.650002e-003
2.194595e+003, -3.252766e-003
2.196524e+003, -4.072561e-003
2.198452e+003, -3.275760e-003
2.200381e+003, -3.303918e-003
2.202309e+003, -3.281579e-003
2.204238e+003, -2.184110e-003
2.206166e+003, -1.740153e-003
2.208094e+003, -1.910944e-003
2.210023e+003, -2.821604e-003
2.211951e+003, -1.528584e-003
2.213880e+003, 8.557708e-004
2.215808e+003, 1.400893e-003
2.217737e+003, 1.144878e-003
2.219665e+003, 1.906370e-003
2.221594e+003, 3.164689e-003
2.223522e+003, 2.730615e-003
2.225451e+003, 8.604650e-004
2.227379e+003, 1.414491e-003
2.229308e+003, 2.603876e-003
2.231236e+003, 2.314253e-003
2.233165e+003, 2.654085e-003
2.235093e+003, 3.829363e-003
2.237021e+003, 3.432102e-003
2.238950e+003, 2.853592e-004
2.240878e+003, 4.429982e-004
2.242807e+003, -3.715592e-005
2.244735e+003, -1.175863e-003
2.246664e+003, 9.553973e-004
2.248592e+003, 2.712690e-003
2.250521e+003, 2.499535e-003
2.252449e+003, 2.831481e-003
2.254378e+003, 2.286518e-003
2.256306e+003, 2.645605e-003
2.258235e+003, 1.858228e-003
2.260163e+003, 9.728320e-004
2.262092e+003, 1.717907e-003
2.264020e+003, 2.452708e-003
2.265948e+003, 2.094332e-003
2.267877e+003, 1.216655e-003
2.269805e+003, 1.203006e-003
2.271734e+003, 2.067847e-003
2.273662e+003, 3.362070e-003
2.275591e+003, 4.391056e-003
2.277519e+003, 4.457390e-003
2.279448e+003, 3.447246e-003
2.281376e+003, 3.646266e-003
2.283305e+003, 4.475096e-003
2.285233e+003, 4.721541e-003
2.287162e+003, 3.736295e-003
2.289090e+003, 3.218150e-003
2.291019e+003, 3.736652e-003
2.292947e+003, 3.361465e-003
2.294875e+003, 3.031165e-003
2.296804e+003, 3.794673e-003
2.298732e+003, 3.567828e-003
2.300661e+003, 3.235334e-003
2.302589e+003, 3.113827e-003
2.304518e+003, 2.621517e-003
2.306446e+003, 2.390652e-003
2.308375e+003, 2.635490e-003
2.310303e+003, 2.376541e-003
2.312232e+003, 3.316941e-003
2.314160e+003, 4.038656e-003
2.316089e+003, 3.426731e-003
2.318017e+003, 3.560067e-003
2.319946e+003, 3.488668e-003
2.321874e+003, 3.632467e-003
2.323802e+003, 4.241114e-003
2.325731e+003, 3.480588e-003
2.327659e+003, 1.926869e-003
2.329588e+003, 1.557244e-003
2.331516e+003, 1.777596e-003
2.333445e+003, 1.909194e-003
2.335373e+003, 1.674810e-003
2.337302e+003, 1.561780e-003
2.339230e+003, 1.492352e-003
2.341159e+003, 2.180560e-003
2.343087e+003, 2.786050e-003
2.345016e+003, 2.581428e-003
2.346944e+003, 2.315243e-003
2.348873e+003, 2.042684e-003
2.350801e+003, 1.562219e-003
2.352729e+003, 1.373328e-003
2.354658e+003, 1.882153e-003
2.356586e+003, 1.671252e-003
2.358515e+003, 1.701582e-003
2.360443e+003, 2.116462e-003
2.362372e+003, 1.893887e-003
2.364300e+003, 9.153270e-004
2.366229e+003, 8.600456e-004
2.368157e+003, 1.238635e-003
2.370086e+003, 2.231506e-003
2.372014e+003, 2.329419e-003
2.373942e+003, 1.808366e-003
2.375871e+003, 1.513993e-003
2.377799e+003, 1.506859e-003
2.379728e+003, 1.202768e-003
2.381656e+003, 8.965346e-004
2.383585e+003, 1.792926e-003
2.385513e+003, 2.708581e-003
2.387442e+003, 2.514253e-003
2.389370e+003, 2.078617e-003
2.391299e+003, 2.092601e-003
2.393227e+003, 1.832430e-003
2.395156e+003, 6.770124e-004
2.397084e+003, 5.305358e-004
2.399012e+003, 1.270611e-003
2.400941e+003, 2.151418e-003
2.402869e+003, 2.450693e-003
2.404798e+003, 1.724996e-003
2.406726e+003, 5.392123e-004
2.408655e+003, 7.566184e-004
2.410583e+003, 1.360791e-003
2.412512e+003, 1.091859e-003
2.414440e+003, 1.717168e-003
2.416369e+003, 2.191077e-003
2.418297e+003, 2.831609e-003
2.420226e+003, 3.178313e-003
2.422154e+003, 3.206364e-003
2.424083e+003, 2.815512e-003
2.426011e+003, 2.652940e-003
2.427939e+003, 3.646060e-003
2.429868e+003, 3.626497e-003
2.431796e+003, 2.095987e-003
2.433725e+003, 1.636628e-003
2.435653e+003, 1.884479e-003
2.437582e+003, 2.806734e-003
2.439510e+003, 2.574840e-003
2.441439e+003, 2.676542e-003
2.443367e+003, 2.644081e-003
2.445296e+003, 2.712855e-003
2.447224e+003, 3.114141e-003
2.449153e+003, 2.598033e-003
2.451081e+003, 2.550011e-003
2.453010e+003, 2.156213e-003
2.454938e+003, 2.284659e-003
2.456866e+003, 2.207813e-003
2.458795e+003, 1.853090e-003
2.460723e+003, 2.427649e-003
2.462652e+003, 3.492689e-003
2.464580e+003, 2.687176e-003
2.466509e+003, 1.790546e-003
2.468437e+003, 2.323369e-003
2.470366e+003, 1.822371e-003
2.472294e+003, 1.269892e-003
2.474223e+003, 1.385059e-003
2.476151e+003, 2.212975e-003
2.478080e+003, 2.579745e-003
2.480008e+003, 3.355649e-003
2.481937e+003, 2.890294e-003
2.483865e+003, 3.511545e-003
2.485793e+003, 3.142405e-003
2.487722e+003, 2.338133e-003
2.489650e+003, 2.757184e-003
2.491579e+003, 1.957523e-003
2.493507e+003, 2.311860e-003
2.495436e+003, 2.726040e-003
2.497364e+003, 2.234007e-003
2.499293e+003, 2.700782e-003
2.501221e+003, 3.157752e-003
2.503150e+003, 4.641983e-003
2.505078e+003, 5.301205e-003
2.507007e+003, 4.046406e-003
2.508935e+003, 2.997839e-003
2.510864e+003, 2.734470e-003
2.512792e+003, 3.504495e-003
2.514720e+003, 3.201786e-003
2.516649e+003, 2.605019e-003
2.518577e+003, 2.704806e-003
2.520506e+003, 3.618730e-003
2.522434e+003, 3.995473e-003
2.524363e+003, 4.077862e-003
2.526291e+003, 2.519267e-003
2.528220e+003, 1.666698e-003
2.530148e+003, 3.209154e-003
2.532077e+003, 3.250895e-003
2.534005e+003, 3.280571e-003
2.535934e+003, 4.834428e-003
2.537862e+003, 3.898048e-003
2.539791e+003, 2.019850e-003
2.541719e+003, 2.365758e-003
2.543647e+003, 3.245548e-003
2.545576e+003, 4.313638e-003
2.547504e+003, 4.978577e-003
2.549433e+003, 3.718912e-003
2.551361e+003, 2.496311e-003
2.553290e+003, 2.726310e-003
2.555218e+003, 3.595347e-003
2.557147e+003, 4.541831e-003
2.559075e+003, 4.194961e-003
2.561004e+003, 4.436644e-003
2.562932e+003, 4.492677e-003
2.564861e+003, 4.193781e-003
2.566789e+003, 4.265744e-003
2.568718e+003, 3.307670e-003
2.570646e+003, 3.180138e-003
2.572574e+003, 4.060693e-003
2.574503e+003, 3.655003e-003
2.576431e+003, 3.748359e-003
2.578360e+003, 4.161059e-003
2.580288e+003, 3.947255e-003
2.582217e+003, 4.131730e-003
2.584145e+003, 4.000673e-003
2.586074e+003, 4.340286e-003
2.588002e+003, 3.952859e-003
2.589931e+003, 4.001362e-003
2.591859e+003, 4.267666e-003
2.593788e+003, 3.430722e-003
2.595716e+003, 2.905430e-003
2.597645e+003, 3.376428e-003
2.599573e+003, 4.524648e-003
2.601501e+003, 4.376995e-003
2.603430e+003, 4.182729e-003
2.605358e+003, 4.082377e-003
2.607287e+003, 3.839711e-003
2.609215e+003, 4.656188e-003
2.611144e+003, 5.418554e-003
2.613072e+003, 5.535743e-003
2.615001e+003, 5.201006e-003
2.616929e+003, 4.315561e-003
2.618858e+003, 4.177207e-003
2.620786e+003, 4.510917e-003
2.622715e+003, 5.359267e-003
2.624643e+003, 5.988461e-003
2.626572e+003, 6.079477e-003
2.628500e+003, 5.448358e-003
2.630428e+003, 5.029452e-003
2.632357e+003, 4.215022e-003
2.634285e+003, 3.626215e-003
2.636214e+003, 4.167282e-003
2.638142e+003, 4.711934e-003
2.640071e+003, 4.205424e-003
2.641999e+003, 4.124503e-003
2.643928e+003, 4.225987e-003
2.645856e+003, 3.796675e-003
2.647785e+003, 4.207321e-003
2.649713e+003, 4.294453e-003
2.651642e+003, 4.381272e-003
2.653570e+003, 4.299027e-003
2.655499e+003, 3.992998e-003
2.657427e+003, 4.194275e-003
2.659355e+003, 4.491229e-003
2.661284e+003, 4.556099e-003
2.663212e+003, 4.585447e-003
2.665141e+003, 4.474937e-003
2.667069e+003, 3.579948e-003
2.668998e+003, 3.601254e-003
2.670926e+003, 3.743062e-003
2.672855e+003, 2.984758e-003
2.674783e+003, 3.385671e-003
2.676712e+003, 3.896923e-003
2.678640e+003, 3.401056e-003
2.680569e+003, 3.062742e-003
2.682497e+003, 3.410945e-003
2.684426e+003, 3.212700e-003
2.686354e+003, 2.549799e-003
2.688282e+003, 3.363987e-003
2.690211e+003, 5.321221e-003
2.692139e+003, 5.451928e-003
2.694068e+003, 4.311327e-003
2.695996e+003, 4.630324e-003
2.697925e+003, 4.492203e-003
2.699853e+003, 4.094433e-003
2.701782e+003, 3.932793e-003
2.703710e+003, 3.863815e-003
2.705639e+003, 3.864957e-003
2.707567e+003, 4.087864e-003
2.709496e+003, 4.388904e-003
2.711424e+003, 4.533766e-003
2.713353e+003, 4.387041e-003
2.715281e+003, 4.329812e-003
2.717209e+003, 4.238600e-003
2.719138e+003, 4.150579e-003
2.721066e+003, 3.552787e-003
2.722995e+003, 4.113384e-003
2.724923e+003, 4.735895e-003
2.726852e+003, 4.377970e-003
2.728780e+003, 3.972416e-003
2.730709e+003, 3.387423e-003
2.732637e+003, 3.915146e-003
2.734566e+003, 4.937805e-003
2.736494e+003, 4.924405e-003
2.738423e+003, 4.569687e-003
2.740351e+003, 4.833765e-003
2.742280e+003, 5.595466e-003
2.744208e+003, 5.148437e-003
2.746136e+003, 3.765458e-003
2.748065e+003, 3.066304e-003
2.749993e+003, 3.399640e-003
2.751922e+003, 3.440184e-003
2.753850e+003, 3.342483e-003
2.755779e+003, 4.045298e-003
2.757707e+003, 3.937369e-003
2.759636e+003, 4.032276e-003
2.761564e+003, 4.274749e-003
2.763493e+003, 4.218083e-003
2.765421e+003, 4.044302e-003
2.767350e+003, 4.268054e-003
2.769278e+003, 5.157779e-003
2.771207e+003, 5.367053e-003
2.773135e+003, 5.276531e-003
2.775063e+003, 5.314311e-003
2.776992e+003, 5.519702e-003
2.778920e+003, 4.979392e-003
2.780849e+003, 5.105747e-003
2.782777e+003, 5.291098e-003
2.784706e+003, 4.956054e-003
2.786634e+003, 4.782623e-003
2.788563e+003, 4.840423e-003
2.790491e+003, 4.749373e-003
2.792420e+003, 4.381738e-003
2.794348e+003, 4.851096e-003
2.796277e+003, 5.070997e-003
2.798205e+003, 4.703478e-003
2.800134e+003, 4.538314e-003
2.802062e+003, 4.522936e-003
2.803990e+003, 4.983130e-003
2.805919e+003, 5.747186e-003
2.807847e+003, 5.934901e-003
2.809776e+003, 5.409189e-003
2.811704e+003, 4.716384e-003
2.813633e+003, 4.833088e-003
2.815561e+003, 5.569097e-003
2.817490e+003, 5.561514e-003
2.819418e+003, 4.573256e-003
2.821347e+003, 4.008275e-003
2.823275e+003, 4.273548e-003
2.825204e+003, 4.487917e-003
2.827132e+003, 5.300002e-003
2.829061e+003, 5.509181e-003
2.830989e+003, 5.495038e-003
2.832917e+003, 6.162771e-003
2.834846e+003, 6.184863e-003
2.836774e+003, 5.458626e-003
2.838703e+003, 5.500031e-003
2.840631e+003, 6.438978e-003
2.842560e+003, 6.457727e-003
2.844488e+003, 6.327526e-003
2.846417e+003, 5.765245e-003
2.848345e+003, 4.907582e-003
2.850274e+003, 4.727902e-003
2.852202e+003, 5.335061e-003
2.854131e+003, 5.065809e-003
2.856059e+003, 4.959143e-003
2.857988e+003, 5.532454e-003
2.859916e+003, 5.088605e-003
2.861844e+003, 5.199219e-003
2.863773e+003, 5.292775e-003
2.865701e+003, 4.418098e-003
2.867630e+003, 4.510476e-003
2.869558e+003, 6.244148e-003
2.871487e+003, 6.287973e-003
2.873415e+003, 5.745997e-003
2.875344e+003, 5.408505e-003
2.877272e+003, 5.431793e-003
2.879201e+003, 5.697438e-003
2.881129e+003, 5.715471e-003
2.883058e+003, 5.524953e-003
2.884986e+003, 5.627014e-003
2.886915e+003, 6.225594e-003
2.888843e+003, 5.971803e-003
2.890771e+003, 6.496144e-003
2.892700e+003, 7.711410e-003
2.894628e+003, 7.759360e-003
2.896557e+003, 7.056953e-003
2.898485e+003, 7.015228e-003
2.900414e+003, 6.168985e-003
2.902342e+003, 5.298184e-003
2.904271e+003, 5.953033e-003
2.906199e+003, 6.873108e-003
2.908128e+003, 7.019844e-003
2.910056e+003, 6.403731e-003
2.911985e+003, 6.650541e-003
2.913913e+003, 6.753567e-003
2.915842e+003, 7.731861e-003
2.917770e+003, 7.639033e-003
2.919698e+003, 6.255989e-003
2.921627e+003, 5.046073e-003
2.923555e+003, 4.775431e-003
2.925484e+003, 5.915530e-003
2.927412e+003, 6.722882e-003
2.929341e+003, 6.208495e-003
2.931269e+003, 5.674771e-003
2.933198e+003, 5.149154e-003
2.935126e+003, 5.382505e-003
2.937055e+003, 5.090200e-003
2.938983e+003, 4.925046e-003
2.940912e+003, 6.353662e-003
2.942840e+003, 6.366783e-003
2.944769e+003, 5.331528e-003
2.946697e+003, 5.705201e-003
2.948625e+003, 5.798792e-003
2.950554e+003, 6.203528e-003
2.952482e+003, 6.314947e-003
2.954411e+003, 6.970948e-003
2.956339e+003, 7.250596e-003
2.958268e+003, 6.414525e-003
2.960196e+003, 5.673667e-003
2.962125e+003, 5.075607e-003
2.964053e+003, 4.972900e-003
2.965982e+003, 6.257231e-003
2.967910e+003, 6.889873e-003
2.969839e+003, 6.855140e-003
2.971767e+003, 6.790709e-003
2.973696e+003, 6.411273e-003
2.975624e+003, 5.388150e-003
2.977552e+003, 5.611503e-003
2.979481e+003, 6.564545e-003
2.981409e+003, 6.712660e-003
2.983338e+003, 6.749007e-003
2.985266e+003, 7.317374e-003
2.987195e+003, 8.905215e-003
2.989123e+003, 8.611560e-003
2.991052e+003, 6.369150e-003
2.992980e+003, 5.109193e-003
2.994909e+003, 6.602030e-003
2.996837e+003, 7.847381e-003
2.998766e+003, 7.340993e-003
3.000694e+003, 6.424411e-003
3.002623e+003, 6.478695e-003
3.004551e+003, 6.878958e-003
3.006479e+003, 7.612149e-003
3.008408e+003, 7.451826e-003
3.010336e+003, 5.879504e-003
3.012265e+003, 5.534154e-003
3.014193e+003, 6.954991e-003
3.016122e+003, 8.933124e-003
3.018050e+003, 1.030252e-002
3.019979e+003, 1.035325e-002
3.021907e+003, 9.200162e-003
3.023836e+003, 8.001430e-003
3.025764e+003, 7.836672e-003
3.027693e+003, 8.142822e-003
3.029621e+003, 8.515583e-003
3.031550e+003, 8.858639e-003
3.033478e+003, 8.758409e-003
3.035406e+003, 9.816804e-003
3.037335e+003, 9.856343e-003
3.039263e+003, 8.867304e-003
3.041192e+003, 8.556928e-003
3.043120e+003, 8.835834e-003
3.045049e+003, 9.915550e-003
3.046977e+003, 9.720420e-003
3.048906e+003, 9.995288e-003
3.050834e+003, 1.077077e-002
3.052763e+003, 9.310203e-003
3.054691e+003, 7.528726e-003
3.056620e+003, 6.884181e-003
3.058548e+003, 6.909662e-003
3.060477e+003, 7.084393e-003
3.062405e+003, 8.318628e-003
3.064333e+003, 8.611734e-003
3.066262e+003, 9.135815e-003
3.068190e+003, 1.046094e-002
3.070119e+003, 1.221141e-002
3.072047e+003, 1.133252e-002
3.073976e+003, 1.063500e-002
3.075904e+003, 9.214388e-003
3.077833e+003, 9.540170e-003
3.079761e+003, 1.145343e-002
3.081690e+003, 1.145733e-002
3.083618e+003, 1.027730e-002
3.085547e+003, 9.368786e-003
3.087475e+003, 8.613199e-003
3.089404e+003, 7.994016e-003
3.091332e+003, 1.009546e-002
3.093260e+003, 1.207270e-002
3.095189e+003, 1.091219e-002
3.097117e+003, 1.007058e-002
3.099046e+003, 1.005024e-002
3.100974e+003, 9.688575e-003
3.102903e+003, 9.663602e-003
3.104831e+003, 1.086311e-002
3.106760e+003, 1.069781e-002
3.108688e+003, 9.483843e-003
3.110617e+003, 9.599713e-003
3.112545e+003, 1.022088e-002
3.114474e+003, 1.135714e-002
3.116402e+003, 1.182968e-002
3.118331e+003, 1.156681e-002
3.120259e+003, 1.189457e-002
3.122188e+003, 1.243866e-002
3.124116e+003, 1.323837e-002
3.126044e+003, 1.263050e-002
3.127973e+003, 1.201264e-002
3.129901e+003, 1.091645e-002
3.131830e+003, 1.106189e-002
3.133758e+003, 1.316625e-002
3.135687e+003, 1.291145e-002
3.137615e+003, 1.086599e-002
3.139544e+003, 1.146604e-002
3.141472e+003, 1.355362e-002
3.143401e+003, 1.355601e-002
3.145329e+003, 1.231575e-002
3.147258e+003, 1.075122e-002
3.149186e+003, 1.052543e-002
3.151115e+003, 1.113152e-002
3.153043e+003, 1.164178e-002
3.154971e+003, 1.233827e-002
3.156900e+003, 1.286837e-002
3.158828e+003, 1.234849e-002
3.160757e+003, 1.203968e-002
3.162685e+003, 1.238884e-002
3.164614e+003, 1.246803e-002
3.166542e+003, 1.303943e-002
3.168471e+003, 1.454171e-002
3.170399e+003, 1.441956e-002
3.172328e+003, 1.399312e-002
3.174256e+003, 1.326466e-002
3.176185e+003, 1.236590e-002
3.178113e+003, 1.192255e-002
3.180042e+003, 1.221486e-002
3.181970e+003, 1.348065e-002
3.183898e+003, 1.443885e-002
3.185827e+003, 1.386553e-002
3.187755e+003, 1.442582e-002
3.189684e+003, 1.633508e-002
3.191612e+003, 1.647326e-002
3.193541e+003, 1.383209e-002
3.195469e+003, 1.355142e-002
3.197398e+003, 1.429208e-002
3.199326e+003, 1.380394e-002
3.201255e+003, 1.358902e-002
3.203183e+003, 1.561552e-002
3.205112e+003, 1.649490e-002
3.207040e+003, 1.669645e-002
3.208969e+003, 1.661460e-002
3.210897e+003, 1.553155e-002
3.212825e+003, 1.502708e-002
3.214754e+003, 1.524488e-002
3.216682e+003, 1.436170e-002
3.218611e+003, 1.418898e-002
3.220539e+003, 1.464049e-002
3.222468e+003, 1.590089e-002
3.224396e+003, 1.643577e-002
3.226325e+003, 1.525447e-002
3.228253e+003, 1.526359e-002
3.230182e+003, 1.409079e-002
3.232110e+003, 1.329624e-002
3.234039e+003, 1.501852e-002
3.235967e+003, 1.620349e-002
3.237896e+003, 1.395648e-002
3.239824e+003, 1.538656e-002
3.241752e+003, 1.710482e-002
3.243681e+003, 1.558450e-002
3.245609e+003, 1.362820e-002
3.247538e+003, 1.446630e-002
3.249466e+003, 1.572509e-002
3.251395e+003, 1.525179e-002
3.253323e+003, 1.441268e-002
3.255252e+003, 1.432774e-002
3.257180e+003, 1.665442e-002
3.259109e+003, 1.688775e-002
3.261037e+003, 1.660570e-002
3.262966e+003, 1.744418e-002
3.264894e+003, 1.716670e-002
3.266823e+003, 1.688259e-002
3.268751e+003, 1.608884e-002
3.270679e+003, 1.601624e-002
3.272608e+003, 1.659485e-002
3.274536e+003, 1.635052e-002
3.276465e+003, 1.782533e-002
3.278393e+003, 1.874170e-002
3.280322e+003, 1.846400e-002
3.282250e+003, 1.826003e-002
3.284179e+003, 1.641078e-002
3.286107e+003, 1.587796e-002
3.288036e+003, 1.626718e-002
3.289964e+003, 1.631112e-002
3.291893e+003, 1.716327e-002
3.293821e+003, 1.840355e-002
3.295750e+003, 1.858026e-002
3.297678e+003, 1.706881e-002
3.299606e+003, 1.646443e-002
3.301535e+003, 1.647682e-002
3.303463e+003, 1.526979e-002
3.305392e+003, 1.606461e-002
3.307320e+003, 1.842459e-002
3.309249e+003, 2.043332e-002
3.311177e+003, 2.010741e-002
3.313106e+003, 1.840734e-002
3.315034e+003, 1.754030e-002
3.316963e+003, 1.613607e-002
3.318891e+003, 1.510760e-002
3.320820e+003, 1.576600e-002
3.322748e+003, 1.685623e-002
3.324677e+003, 1.659008e-002
3.326605e+003, 1.905708e-002
3.328533e+003, 2.008118e-002
3.330462e+003, 2.089051e-002
3.332390e+003, 1.973134e-002
3.334319e+003, 1.735003e-002
3.336247e+003, 1.777955e-002
3.338176e+003, 1.886113e-002
3.340104e+003, 1.954076e-002
3.342033e+003, 1.862335e-002
3.343961e+003, 1.886766e-002
3.345890e+003, 1.721996e-002
3.347818e+003, 1.644581e-002
3.349747e+003, 1.790812e-002
3.351675e+003, 1.774721e-002
3.353604e+003, 1.918641e-002
3.355532e+003, 1.997622e-002
3.357460e+003, 1.823883e-002
3.359389e+003, 1.777735e-002
3.361317e+003, 1.745851e-002
3.363246e+003, 1.897151e-002
3.365174e+003, 2.101368e-002
3.367103e+003, 1.963810e-002
3.369031e+003, 1.816210e-002
3.370960e+003, 1.741115e-002
3.372888e+003, 1.654862e-002
3.374817e+003, 1.734055e-002
3.376745e+003, 1.830168e-002
3.378674e+003, 1.859894e-002
3.380602e+003, 2.015920e-002
3.382531e+003, 2.032399e-002
3.384459e+003, 1.887067e-002
3.386387e+003, 2.046423e-002
3.388316e+003, 2.171842e-002
3.390244e+003, 2.030507e-002
3.392173e+003, 2.000795e-002
3.394101e+003, 2.158318e-002
3.396030e+003, 2.179071e-002
3.397958e+003, 1.963811e-002
3.399887e+003, 1.838912e-002
3.401815e+003, 1.813183e-002
3.403744e+003, 1.988643e-002
3.405672e+003, 2.031224e-002
3.407601e+003, 1.948206e-002
3.409529e+003, 1.870118e-002
3.411458e+003, 1.808527e-002
3.413386e+003, 1.767950e-002
3.415314e+003, 1.805715e-002
3.417243e+003, 1.899979e-002
3.419171e+003, 2.004363e-002
3.421100e+003, 2.112488e-002
3.423028e+003, 2.016637e-002
3.424957e+003, 2.085612e-002
3.426885e+003, 2.232718e-002
3.428814e+003, 2.095450e-002
3.430742e+003, 1.967208e-002
3.432671e+003, 1.947409e-002
3.434599e+003, 2.107515e-002
3.436528e+003, 2.244641e-002
3.438456e+003, 2.048410e-002
3.440385e+003, 1.703509e-002
3.442313e+003, 1.701026e-002
3.444241e+003, 1.815499e-002
3.446170e+003, 1.954882e-002
3.448098e+003, 2.017395e-002
3.450027e+003, 2.174197e-002
3.451955e+003, 2.150963e-002
3.453884e+003, 1.942226e-002
3.455812e+003, 1.792659e-002
3.457741e+003, 2.086302e-002
3.459669e+003, 2.101403e-002
3.461598e+003, 1.911873e-002
3.463526e+003, 1.756691e-002
3.465455e+003, 1.456454e-002
3.467383e+003, 1.475664e-002
3.469312e+003, 1.928592e-002
3.471240e+003, 2.049389e-002
3.473168e+003, 2.188407e-002
3.475097e+003, 2.214789e-002
3.477025e+003, 2.016443e-002
3.478954e+003, 1.910170e-002
3.480882e+003, 1.927898e-002
3.482811e+003, 1.802075e-002
3.484739e+003, 1.565568e-002
3.486668e+003, 1.640400e-002
3.488596e+003, 1.858665e-002
3.490525e+003, 1.825087e-002
3.492453e+003, 1.679051e-002
3.494382e+003, 1.711567e-002
3.496310e+003, 1.655465e-002
3.498239e+003, 1.517055e-002
3.500167e+003, 1.567683e-002
3.502095e+003, 1.662627e-002
3.504024e+003, 1.600887e-002
3.505952e+003, 1.679891e-002
3.507881e+003, 1.849420e-002
3.509809e+003, 1.845870e-002
3.511738e+003, 1.696652e-002
3.513666e+003, 1.818276e-002
3.515595e+003, 1.585174e-002
3.517523e+003, 1.294016e-002
3.519452e+003, 1.369247e-002
3.521380e+003, 1.534174e-002
3.523309e+003, 1.808794e-002
3.525237e+003, 1.783642e-002
3.527166e+003, 1.578678e-002
3.529094e+003, 1.647300e-002
3.531022e+003, 1.747607e-002
3.532951e+003, 1.753748e-002
3.534879e+003, 1.774301e-002
3.536808e+003, 1.780557e-002
3.538736e+003, 1.707301e-002
3.540665e+003, 1.780006e-002
3.542593e+003, 1.851635e-002
3.544522e+003, 1.881696e-002
3.546450e+003, 1.670463e-002
3.548379e+003, 1.357642e-002
3.550307e+003, 1.626860e-002
3.552236e+003, 1.942432e-002
3.554164e+003, 1.984803e-002
3.556093e+003, 1.927885e-002
3.558021e+003, 1.832401e-002
3.559949e+003, 1.722701e-002
3.561878e+003, 1.425662e-002
3.563806e+003, 1.220384e-002
3.565735e+003, 1.283313e-002
3.567663e+003, 1.219607e-002
3.569592e+003, 1.075054e-002
3.571520e+003, 1.040152e-002
3.573449e+003, 1.334855e-002
3.575377e+003, 1.497389e-002
3.577306e+003, 1.392688e-002
3.579234e+003, 1.286653e-002
3.581163e+003, 1.124583e-002
3.583091e+003, 1.169058e-002
3.585020e+003, 1.390669e-002
3.586948e+003, 1.338843e-002
3.588876e+003, 1.274976e-002
3.590805e+003, 1.031839e-002
3.592733e+003, 9.942912e-003
3.594662e+003, 1.265528e-002
3.596590e+003, 1.287833e-002
3.598519e+003, 8.638809e-003
3.600447e+003, 9.251507e-003
3.602376e+003, 1.093041e-002
3.604304e+003, 1.049436e-002
3.606233e+003, 1.264855e-002
3.608161e+003, 1.219595e-002
3.610090e+003, 1.139896e-002
3.612018e+003, 1.222225e-002
3.613947e+003, 1.416776e-002
3.615875e+003, 1.176374e-002
3.617803e+003, 7.514163e-003
3.619732e+003, 7.331748e-003
3.621660e+003, 8.887680e-003
3.623589e+003, 1.141026e-002
3.625517e+003, 1.175433e-002
3.627446e+003, 1.084877e-002
3.629374e+003, 1.008522e-002
3.631303e+003, 7.918113e-003
3.633231e+003, 6.424090e-003
3.635160e+003, 6.828342e-003
3.637088e+003, 9.298985e-003
3.639017e+003, 8.436949e-003
3.640945e+003, 9.188713e-003
3.642874e+003, 1.095568e-002
3.644802e+003, 9.942873e-003
3.646730e+003, 6.782241e-003
3.648659e+003, 4.908307e-003
3.650587e+003, 8.894807e-003
3.652516e+003, 7.767337e-003
3.654444e+003, 7.038845e-003
3.656373e+003, 7.427021e-003
3.658301e+003, 5.943087e-003
3.660230e+003, 6.559019e-003
3.662158e+003, 6.792898e-003
3.664087e+003, 5.848420e-003
3.666015e+003, 3.763452e-003
3.667944e+003, 3.735707e-003
3.669872e+003, 4.758404e-003
3.671801e+003, 2.188855e-003
3.673729e+003, 4.097790e-003
3.675657e+003, 6.418032e-003
3.677586e+003, 6.707833e-003
3.679514e+003, 9.220324e-003
3.681443e+003, 9.280611e-003
3.683371e+003, 7.004953e-003
3.685300e+003, 6.936629e-003
3.687228e+003, 8.394464e-003
3.689157e+003, 7.854838e-003
3.691085e+003, 5.393591e-003
3.693014e+003, 2.959911e-003
3.694942e+003, 2.158761e-003
3.696871e+003, 3.908091e-003
3.698799e+003, 3.645891e-003
3.700728e+003, 2.471222e-003
3.702656e+003, 4.870930e-003
3.704584e+003, 3.764044e-003
3.706513e+003, 2.383206e-003
3.708441e+003, 4.952122e-003
3.710370e+003, 6.393475e-003
3.712298e+003, 3.783348e-003
3.714227e+003, 2.105702e-003
3.716155e+003, 2.654552e-003
3.718084e+003, 2.835360e-003
3.720012e+003, 3.772306e-003
3.721941e+003, 2.061053e-003
3.723869e+003, 1.800228e-003
3.725798e+003, 4.065645e-003
3.727726e+003, 2.479478e-003
3.729655e+003, 3.448208e-004
3.731583e+003, 3.349470e-003
3.733511e+003, 6.768224e-003
3.735440e+003, 4.988174e-003
3.737368e+003, 3.987523e-003
3.739297e+003, 4.095032e-003
3.741225e+003, 4.784903e-003
3.743154e+003, 7.870475e-003
3.745082e+003, 5.949554e-003
3.747011e+003, 2.793618e-003
3.748939e+003, 4.145069e-003
3.750868e+003, 5.344157e-003
3.752796e+003, 5.947705e-003
3.754725e+003, 7.222998e-003
3.756653e+003, 7.391250e-003
3.758582e+003, 3.761737e-003
3.760510e+003, 2.303625e-003
3.762438e+003, 3.182673e-003
3.764367e+003, 4.980887e-003
3.766295e+003, 5.303288e-003
3.768224e+003, 6.080180e-003
3.770152e+003, 7.842013e-003
3.772081e+003, 8.317410e-003
3.774009e+003, 5.949322e-003
3.775938e+003, 8.389922e-003
3.777866e+003, 8.390558e-003
3.779795e+003, 3.735895e-003
3.781723e+003, 5.606376e-003
3.783652e+003, 7.497768e-003
3.785580e+003, 1.051202e-003
3.787509e+003, -2.209620e-003
3.789437e+003, 5.072677e-005
3.791365e+003, 1.641709e-003
3.793294e+003, 3.359144e-003
3.795222e+003, 5.749420e-003
3.797151e+003, 4.619596e-003
3.799079e+003, 8.971306e-004
3.801008e+003, 2.057801e-003
3.802936e+003, 3.299249e-003
3.804865e+003, 2.721960e-003
3.806793e+003, 6.679174e-003
3.808722e+003, 9.644755e-003
3.810650e+003, 5.228310e-003
3.812579e+003, 2.765187e-003
3.814507e+003, 5.042033e-003
3.816436e+003, 3.806965e-003
3.818364e+003, 1.425583e-003
3.820292e+003, 7.757475e-004
3.822221e+003, 1.420558e-003
3.824149e+003, 2.937315e-003
3.826078e+003, 4.737932e-003
3.828006e+003, 6.214962e-003
3.829935e+003, 5.425108e-003
3.831863e+003, 9.531460e-004
3.833792e+003, -5.721674e-004
3.835720e+003, 2.745434e-003
3.837649e+003, 1.947909e-003
3.839577e+003, 1.817447e-003
3.841506e+003, 3.820108e-003
3.843434e+003, 8.460792e-003
3.845363e+003, 7.562331e-003
3.847291e+003, 6.807373e-005
3.849219e+003, 8.567795e-004
3.851148e+003, 5.082785e-003
3.853076e+003, 4.963809e-003
3.855005e+003, 3.025123e-003
3.856933e+003, 2.586410e-003
3.858862e+003, 2.743428e-003
3.860790e+003, 5.425180e-003
3.862719e+003, 6.681436e-003
3.864647e+003, 6.098886e-003
3.866576e+003, 3.059744e-003
3.868504e+003, 4.716429e-003
3.870433e+003, 4.332114e-003
3.872361e+003, 5.093923e-003
3.874290e+003, 8.196514e-003
3.876218e+003, 7.924811e-003
3.878146e+003, 5.735527e-003
3.880075e+003, 2.698760e-003
3.882003e+003, 2.370708e-003
3.883932e+003, 4.500251e-003
3.885860e+003, 2.537722e-003
3.887789e+003, 1.730786e-003
3.889717e+003, 6.709373e-003
3.891646e+003, 6.719950e-003
3.893574e+003, 6.200861e-003
3.895503e+003, 5.614462e-003
3.897431e+003, 5.582518e-003
3.899360e+003, 9.728471e-003
3.901288e+003, 9.388400e-003
3.903217e+003, 5.673072e-003
3.905145e+003, 5.081632e-003
3.907073e+003, 5.792597e-003
3.909002e+003, 5.484091e-003
3.910930e+003, 2.819515e-003
3.912859e+003, 1.173362e-004
3.914787e+003, 1.011789e-004
3.916716e+003, 2.048069e-003
3.918644e+003, 5.511556e-003
3.920573e+003, 8.995830e-003
3.922501e+003, 6.292456e-003
3.924430e+003, 5.576051e-003
3.926358e+003, 7.538536e-003
3.928287e+003, 9.499967e-003
3.930215e+003, 9.783579e-003
3.932144e+003, 5.821921e-003
3.934072e+003, 5.756109e-003
3.936000e+003, 6.714969e-003
3.937929e+003, 6.766989e-003
3.939857e+003, 7.039523e-003
3.941786e+003, 4.986921e-003
3.943714e+003, 7.767549e-004
3.945643e+003, 2.164902e-003
3.947571e+003, 5.944513e-003
3.949500e+003, 4.887619e-003
3.951428e+003, 6.330976e-003
3.953357e+003, 8.008689e-003
3.955285e+003, 7.865791e-003
3.957214e+003, 8.292632e-003
3.959142e+003, 8.611350e-003
3.961071e+003, 7.602151e-003
3.962999e+003, 6.780144e-003
3.964927e+003, 6.125689e-003
3.966856e+003, 3.561046e-003
3.968784e+003, 3.400572e-003
3.970713e+003, 4.846450e-003
3.972641e+003, 4.413787e-003
3.974570e+003, 5.766210e-003
3.976498e+003, 7.676492e-003
3.978427e+003, 8.344636e-003
3.980355e+003, 8.666237e-003
3.982284e+003, 6.881759e-003
3.984212e+003, 3.206001e-003
3.986141e+003, 1.262984e-003
3.988069e+003, 2.449244e-003
3.989998e+003, 4.391452e-003
3.991926e+003, 8.259982e-003
3.993854e+003, 1.055287e-002
3.995783e+003, 1.032594e-002
3.997711e+003, 1.262262e-002
3.999640e+003, 1.262871e-002
4.001568e+003, 0.000000e+000
##END=



