##NAMES=Vanuralite
##RRUFFID=R050544
##IDEAL CHEMISTRY=Al(U^6+^O_2_)_2_(V^5+^O_4_)_2_(OH)&#183;8.5H_2_O
##LOCALITY=Mounana mine, Franceville, Haut-Ogoou√©, Gabon
##OWNER=RRUFF
##SOURCE=University of Arizona Mineral Museum
##DESCRIPTION=Yellowish-green branching aggregates
##STATUS=The identification of this mineral has been confirmed by single-crystal X-ray diffraction.
##URL=rruff.info/R050544
3.991926e+002, 6.316605e-001
4.011211e+002, 5.950387e-001
4.030496e+002, 5.950387e-001
4.049780e+002, 6.039027e-001
4.069065e+002, 6.075922e-001
4.088350e+002, 6.160408e-001
4.107634e+002, 6.354676e-001
4.126919e+002, 6.458412e-001
4.146204e+002, 6.476259e-001
4.165488e+002, 6.557230e-001
4.184773e+002, 6.646849e-001
4.204058e+002, 6.744117e-001
4.223342e+002, 6.888629e-001
4.242627e+002, 7.019552e-001
4.261912e+002, 7.030503e-001
4.281196e+002, 6.976423e-001
4.300481e+002, 7.085602e-001
4.319766e+002, 7.265992e-001
4.339050e+002, 7.327498e-001
4.358335e+002, 7.337351e-001
4.377620e+002, 7.229405e-001
4.396904e+002, 7.280251e-001
4.416189e+002, 7.443489e-001
4.435474e+002, 7.388074e-001
4.454758e+002, 7.364823e-001
4.474043e+002, 7.386793e-001
4.493328e+002, 7.385170e-001
4.512612e+002, 7.357142e-001
4.531897e+002, 7.393628e-001
4.551182e+002, 7.420285e-001
4.570466e+002, 7.383002e-001
4.589751e+002, 7.336475e-001
4.609036e+002, 7.259601e-001
4.628320e+002, 7.125072e-001
4.647605e+002, 7.058330e-001
4.666890e+002, 7.009893e-001
4.686174e+002, 6.980857e-001
4.705459e+002, 6.830318e-001
4.724744e+002, 6.690210e-001
4.744028e+002, 6.571662e-001
4.763313e+002, 6.427489e-001
4.782598e+002, 6.298643e-001
4.801882e+002, 6.218280e-001
4.821167e+002, 6.094275e-001
4.840452e+002, 5.965859e-001
4.859736e+002, 5.879739e-001
4.879021e+002, 5.762110e-001
4.898306e+002, 5.666956e-001
4.917590e+002, 5.575613e-001
4.936875e+002, 5.519487e-001
4.956160e+002, 5.445071e-001
4.975444e+002, 5.338839e-001
4.994729e+002, 5.306557e-001
5.014014e+002, 5.290714e-001
5.033298e+002, 5.226834e-001
5.052583e+002, 5.156229e-001
5.071868e+002, 5.128514e-001
5.091152e+002, 5.112125e-001
5.110437e+002, 5.070093e-001
5.129722e+002, 5.028350e-001
5.149006e+002, 5.011938e-001
5.168291e+002, 5.006939e-001
5.187576e+002, 5.033498e-001
5.206860e+002, 5.053448e-001
5.226145e+002, 5.058167e-001
5.245430e+002, 5.094031e-001
5.264714e+002, 5.139364e-001
5.283999e+002, 5.180185e-001
5.303284e+002, 5.229753e-001
5.322568e+002, 5.276914e-001
5.341853e+002, 5.343891e-001
5.361138e+002, 5.396760e-001
5.380422e+002, 5.455537e-001
5.399707e+002, 5.513903e-001
5.418992e+002, 5.537626e-001
5.438276e+002, 5.604509e-001
5.457561e+002, 5.667046e-001
5.476846e+002, 5.672956e-001
5.496130e+002, 5.673681e-001
5.515415e+002, 5.635298e-001
5.534700e+002, 5.551293e-001
5.553984e+002, 5.475417e-001
5.573269e+002, 5.419251e-001
5.592554e+002, 5.386628e-001
5.611838e+002, 5.397394e-001
5.631123e+002, 5.391173e-001
5.650408e+002, 5.316214e-001
5.669692e+002, 5.266160e-001
5.688977e+002, 5.274730e-001
5.708262e+002, 5.300707e-001
5.727546e+002, 5.290098e-001
5.746831e+002, 5.262265e-001
5.766116e+002, 5.205229e-001
5.785400e+002, 5.134901e-001
5.804685e+002, 5.079598e-001
5.823970e+002, 5.003818e-001
5.843254e+002, 4.907329e-001
5.862539e+002, 4.799413e-001
5.881824e+002, 4.688558e-001
5.901108e+002, 4.590441e-001
5.920393e+002, 4.490115e-001
5.939678e+002, 4.411983e-001
5.958962e+002, 4.339474e-001
5.978247e+002, 4.258570e-001
5.997532e+002, 4.180136e-001
6.016816e+002, 4.104012e-001
6.036101e+002, 4.038349e-001
6.055386e+002, 3.986088e-001
6.074670e+002, 3.937145e-001
6.093955e+002, 3.885287e-001
6.113240e+002, 3.832013e-001
6.132524e+002, 3.786344e-001
6.151809e+002, 3.769262e-001
6.171094e+002, 3.757476e-001
6.190378e+002, 3.723100e-001
6.209663e+002, 3.688157e-001
6.228948e+002, 3.668844e-001
6.248232e+002, 3.640863e-001
6.267517e+002, 3.610693e-001
6.286802e+002, 3.577085e-001
6.306086e+002, 3.538924e-001
6.325371e+002, 3.495168e-001
6.344656e+002, 3.454800e-001
6.363940e+002, 3.405052e-001
6.383225e+002, 3.348544e-001
6.402510e+002, 3.296275e-001
6.421794e+002, 3.251703e-001
6.441079e+002, 3.211330e-001
6.460364e+002, 3.173276e-001
6.479648e+002, 3.132392e-001
6.498933e+002, 3.101623e-001
6.518218e+002, 3.071402e-001
6.537502e+002, 3.025664e-001
6.556787e+002, 2.980340e-001
6.576072e+002, 2.936690e-001
6.595356e+002, 2.898356e-001
6.614641e+002, 2.868271e-001
6.633926e+002, 2.821315e-001
6.653210e+002, 2.773082e-001
6.672495e+002, 2.739725e-001
6.691780e+002, 2.710656e-001
6.711064e+002, 2.676543e-001
6.730349e+002, 2.639962e-001
6.749634e+002, 2.605287e-001
6.768918e+002, 2.578954e-001
6.788203e+002, 2.558880e-001
6.807488e+002, 2.539981e-001
6.826772e+002, 2.515733e-001
6.846057e+002, 2.485558e-001
6.865342e+002, 2.459451e-001
6.884626e+002, 2.441663e-001
6.903911e+002, 2.426602e-001
6.923196e+002, 2.413949e-001
6.942480e+002, 2.404734e-001
6.961765e+002, 2.397457e-001
6.981050e+002, 2.389884e-001
7.000334e+002, 2.386020e-001
7.019619e+002, 2.382717e-001
7.038904e+002, 2.384255e-001
7.058188e+002, 2.386235e-001
7.077473e+002, 2.389131e-001
7.096758e+002, 2.398475e-001
7.116042e+002, 2.413262e-001
7.135327e+002, 2.425230e-001
7.154612e+002, 2.445525e-001
7.173896e+002, 2.468824e-001
7.193181e+002, 2.483147e-001
7.212466e+002, 2.509102e-001
7.231750e+002, 2.535863e-001
7.251035e+002, 2.556375e-001
7.270320e+002, 2.580206e-001
7.289604e+002, 2.593699e-001
7.308889e+002, 2.604135e-001
7.328174e+002, 2.616448e-001
7.347458e+002, 2.616897e-001
7.366743e+002, 2.605029e-001
7.386028e+002, 2.585805e-001
7.405313e+002, 2.561438e-001
7.424597e+002, 2.533255e-001
7.443882e+002, 2.500254e-001
7.463167e+002, 2.460948e-001
7.482451e+002, 2.416906e-001
7.501736e+002, 2.376858e-001
7.521021e+002, 2.336854e-001
7.540305e+002, 2.293211e-001
7.559590e+002, 2.256178e-001
7.578875e+002, 2.226310e-001
7.598159e+002, 2.196410e-001
7.617444e+002, 2.173383e-001
7.636729e+002, 2.154106e-001
7.656013e+002, 2.134704e-001
7.675298e+002, 2.115807e-001
7.694583e+002, 2.103797e-001
7.713867e+002, 2.093812e-001
7.733152e+002, 2.090688e-001
7.752437e+002, 2.089180e-001
7.771721e+002, 2.084996e-001
7.791006e+002, 2.077529e-001
7.810291e+002, 2.074941e-001
7.829575e+002, 2.080935e-001
7.848860e+002, 2.079671e-001
7.868145e+002, 2.073381e-001
7.887429e+002, 2.075188e-001
7.906714e+002, 2.081041e-001
7.925999e+002, 2.080331e-001
7.945283e+002, 2.077892e-001
7.964568e+002, 2.074097e-001
7.983853e+002, 2.068285e-001
8.003137e+002, 2.059614e-001
8.022422e+002, 2.053042e-001
8.041707e+002, 2.044876e-001
8.060991e+002, 2.033272e-001
8.080276e+002, 2.023201e-001
8.099561e+002, 2.009956e-001
8.118845e+002, 1.990179e-001
8.138130e+002, 1.965262e-001
8.157415e+002, 1.944470e-001
8.176699e+002, 1.922876e-001
8.195984e+002, 1.899790e-001
8.215269e+002, 1.883085e-001
8.234553e+002, 1.869570e-001
8.253838e+002, 1.860113e-001
8.273123e+002, 1.853475e-001
8.292407e+002, 1.846308e-001
8.311692e+002, 1.845795e-001
8.330977e+002, 1.848199e-001
8.350261e+002, 1.844786e-001
8.369546e+002, 1.842227e-001
8.388831e+002, 1.847930e-001
8.408115e+002, 1.858386e-001
8.427400e+002, 1.865917e-001
8.446685e+002, 1.872567e-001
8.465969e+002, 1.885657e-001
8.485254e+002, 1.902186e-001
8.504539e+002, 1.916099e-001
8.523823e+002, 1.926785e-001
8.543108e+002, 1.936023e-001
8.562393e+002, 1.948865e-001
8.581677e+002, 1.963287e-001
8.600962e+002, 1.975527e-001
8.620247e+002, 1.987539e-001
8.639531e+002, 2.006212e-001
8.658816e+002, 2.021878e-001
8.678101e+002, 2.039883e-001
8.697385e+002, 2.056910e-001
8.716670e+002, 2.071409e-001
8.735955e+002, 2.084508e-001
8.755239e+002, 2.090709e-001
8.774524e+002, 2.088601e-001
8.793809e+002, 2.084266e-001
8.813093e+002, 2.076585e-001
8.832378e+002, 2.060829e-001
8.851663e+002, 2.039830e-001
8.870947e+002, 2.011681e-001
8.890232e+002, 1.973177e-001
8.909517e+002, 1.928582e-001
8.928801e+002, 1.882154e-001
8.948085e+002, 1.836504e-001
8.967370e+002, 1.791530e-001
8.986655e+002, 1.751705e-001
9.005939e+002, 1.720659e-001
9.025224e+002, 1.704327e-001
9.044509e+002, 1.694450e-001
9.063793e+002, 1.681530e-001
9.083078e+002, 1.672700e-001
9.102363e+002, 1.665293e-001
9.121647e+002, 1.658078e-001
9.140932e+002, 1.652760e-001
9.160217e+002, 1.647751e-001
9.179501e+002, 1.641881e-001
9.198786e+002, 1.631562e-001
9.218071e+002, 1.620367e-001
9.237355e+002, 1.606754e-001
9.256640e+002, 1.593545e-001
9.275925e+002, 1.581218e-001
9.295209e+002, 1.562767e-001
9.314494e+002, 1.543478e-001
9.333779e+002, 1.524151e-001
9.353063e+002, 1.505242e-001
9.372348e+002, 1.485375e-001
9.391633e+002, 1.462827e-001
9.410917e+002, 1.442482e-001
9.430202e+002, 1.425317e-001
9.449487e+002, 1.406673e-001
9.468771e+002, 1.388583e-001
9.488056e+002, 1.372424e-001
9.507341e+002, 1.358258e-001
9.526625e+002, 1.345156e-001
9.545910e+002, 1.338443e-001
9.565195e+002, 1.334140e-001
9.584479e+002, 1.331126e-001
9.603764e+002, 1.333315e-001
9.623049e+002, 1.337219e-001
9.642333e+002, 1.341327e-001
9.661618e+002, 1.344065e-001
9.680903e+002, 1.342140e-001
9.700187e+002, 1.338779e-001
9.719472e+002, 1.327571e-001
9.738757e+002, 1.307479e-001
9.758041e+002, 1.283418e-001
9.777326e+002, 1.252029e-001
9.796611e+002, 1.210837e-001
9.815895e+002, 1.158184e-001
9.835180e+002, 1.092778e-001
9.854465e+002, 1.023985e-001
9.873749e+002, 9.556871e-002
9.893034e+002, 8.864327e-002
9.912319e+002, 8.196536e-002
9.931603e+002, 7.548580e-002
9.950888e+002, 6.919322e-002
9.970173e+002, 6.342850e-002
9.989457e+002, 5.830265e-002
1.000874e+003, 5.380050e-002
1.002803e+003, 4.992633e-002
1.004731e+003, 4.618929e-002
1.006660e+003, 4.339126e-002
1.008588e+003, 4.112515e-002
1.010517e+003, 3.881011e-002
1.012445e+003, 3.735536e-002
1.014373e+003, 3.621051e-002
1.016302e+003, 3.527987e-002
1.018230e+003, 3.496449e-002
1.020159e+003, 3.489565e-002
1.022087e+003, 3.455353e-002
1.024016e+003, 3.414611e-002
1.025944e+003, 3.362564e-002
1.027873e+003, 3.312303e-002
1.029801e+003, 3.259964e-002
1.031730e+003, 3.193720e-002
1.033658e+003, 3.159017e-002
1.035587e+003, 3.112763e-002
1.037515e+003, 3.065421e-002
1.039444e+003, 3.038200e-002
1.041372e+003, 3.009181e-002
1.043301e+003, 2.951131e-002
1.045229e+003, 2.925126e-002
1.047157e+003, 2.912585e-002
1.049086e+003, 2.888164e-002
1.051014e+003, 2.858492e-002
1.052943e+003, 2.817991e-002
1.054871e+003, 2.777391e-002
1.056800e+003, 2.694952e-002
1.058728e+003, 2.665944e-002
1.060657e+003, 2.670739e-002
1.062585e+003, 2.631339e-002
1.064514e+003, 2.587476e-002
1.066442e+003, 2.558388e-002
1.068371e+003, 2.546025e-002
1.070299e+003, 2.510666e-002
1.072228e+003, 2.501442e-002
1.074156e+003, 2.510154e-002
1.076084e+003, 2.529178e-002
1.078013e+003, 2.523809e-002
1.079941e+003, 2.491271e-002
1.081870e+003, 2.487510e-002
1.083798e+003, 2.498616e-002
1.085727e+003, 2.498332e-002
1.087655e+003, 2.503193e-002
1.089584e+003, 2.494619e-002
1.091512e+003, 2.459018e-002
1.093441e+003, 2.432489e-002
1.095369e+003, 2.418824e-002
1.097298e+003, 2.432840e-002
1.099226e+003, 2.437658e-002
1.101155e+003, 2.430593e-002
1.103083e+003, 2.412432e-002
1.105011e+003, 2.378322e-002
1.106940e+003, 2.342498e-002
1.108868e+003, 2.339665e-002
1.110797e+003, 2.336225e-002
1.112725e+003, 2.299548e-002
1.114654e+003, 2.284825e-002
1.116582e+003, 2.309397e-002
1.118511e+003, 2.296173e-002
1.120439e+003, 2.269492e-002
1.122368e+003, 2.283564e-002
1.124296e+003, 2.288338e-002
1.126225e+003, 2.256598e-002
1.128153e+003, 2.241059e-002
1.130082e+003, 2.245469e-002
1.132010e+003, 2.236458e-002
1.133938e+003, 2.187726e-002
1.135867e+003, 2.158559e-002
1.137795e+003, 2.133035e-002
1.139724e+003, 2.086655e-002
1.141652e+003, 2.036799e-002
1.143581e+003, 1.988569e-002
1.145509e+003, 1.955847e-002
1.147438e+003, 1.931692e-002
1.149366e+003, 1.888977e-002
1.151295e+003, 1.849491e-002
1.153223e+003, 1.793387e-002
1.155152e+003, 1.735727e-002
1.157080e+003, 1.711912e-002
1.159009e+003, 1.704726e-002
1.160937e+003, 1.695116e-002
1.162865e+003, 1.686304e-002
1.164794e+003, 1.658986e-002
1.166722e+003, 1.641478e-002
1.168651e+003, 1.642576e-002
1.170579e+003, 1.624328e-002
1.172508e+003, 1.631463e-002
1.174436e+003, 1.637776e-002
1.176365e+003, 1.615527e-002
1.178293e+003, 1.599436e-002
1.180222e+003, 1.622725e-002
1.182150e+003, 1.645704e-002
1.184079e+003, 1.648320e-002
1.186007e+003, 1.653727e-002
1.187936e+003, 1.668716e-002
1.189864e+003, 1.685894e-002
1.191792e+003, 1.699991e-002
1.193721e+003, 1.686417e-002
1.195649e+003, 1.672493e-002
1.197578e+003, 1.695812e-002
1.199506e+003, 1.717130e-002
1.201435e+003, 1.727576e-002
1.203363e+003, 1.747054e-002
1.205292e+003, 1.755423e-002
1.207220e+003, 1.763131e-002
1.209149e+003, 1.775956e-002
1.211077e+003, 1.807036e-002
1.213006e+003, 1.865212e-002
1.214934e+003, 1.934817e-002
1.216863e+003, 1.988978e-002
1.218791e+003, 2.054433e-002
1.220719e+003, 2.142464e-002
1.222648e+003, 2.267164e-002
1.224576e+003, 2.396210e-002
1.226505e+003, 2.520209e-002
1.228433e+003, 2.651335e-002
1.230362e+003, 2.768677e-002
1.232290e+003, 2.863386e-002
1.234219e+003, 2.954873e-002
1.236147e+003, 3.062830e-002
1.238076e+003, 3.151206e-002
1.240004e+003, 3.217574e-002
1.241933e+003, 3.254878e-002
1.243861e+003, 3.272595e-002
1.245790e+003, 3.287996e-002
1.247718e+003, 3.304290e-002
1.249646e+003, 3.292057e-002
1.251575e+003, 3.263286e-002
1.253503e+003, 3.240631e-002
1.255432e+003, 3.220015e-002
1.257360e+003, 3.193874e-002
1.259289e+003, 3.152446e-002
1.261217e+003, 3.079177e-002
1.263146e+003, 3.012857e-002
1.265074e+003, 2.974856e-002
1.267003e+003, 2.932378e-002
1.268931e+003, 2.871269e-002
1.270860e+003, 2.783449e-002
1.272788e+003, 2.719635e-002
1.274717e+003, 2.657344e-002
1.276645e+003, 2.603371e-002
1.278573e+003, 2.549265e-002
1.280502e+003, 2.496991e-002
1.282430e+003, 2.449467e-002
1.284359e+003, 2.387090e-002
1.286287e+003, 2.317589e-002
1.288216e+003, 2.257498e-002
1.290144e+003, 2.210459e-002
1.292073e+003, 2.160429e-002
1.294001e+003, 2.107296e-002
1.295930e+003, 2.068372e-002
1.297858e+003, 2.004323e-002
1.299787e+003, 1.961296e-002
1.301715e+003, 1.911190e-002
1.303644e+003, 1.841712e-002
1.305572e+003, 1.804870e-002
1.307500e+003, 1.783885e-002
1.309429e+003, 1.752590e-002
1.311357e+003, 1.722232e-002
1.313286e+003, 1.692112e-002
1.315214e+003, 1.668406e-002
1.317143e+003, 1.644438e-002
1.319071e+003, 1.633293e-002
1.321000e+003, 1.624101e-002
1.322928e+003, 1.611844e-002
1.324857e+003, 1.626832e-002
1.326785e+003, 1.613343e-002
1.328714e+003, 1.574732e-002
1.330642e+003, 1.567408e-002
1.332571e+003, 1.555709e-002
1.334499e+003, 1.555455e-002
1.336427e+003, 1.582439e-002
1.338356e+003, 1.576271e-002
1.340284e+003, 1.586000e-002
1.342213e+003, 1.619324e-002
1.344141e+003, 1.625759e-002
1.346070e+003, 1.636069e-002
1.347998e+003, 1.661434e-002
1.349927e+003, 1.681523e-002
1.351855e+003, 1.733196e-002
1.353784e+003, 1.812873e-002
1.355712e+003, 1.881201e-002
1.357641e+003, 1.947304e-002
1.359569e+003, 2.029612e-002
1.361498e+003, 2.124022e-002
1.363426e+003, 2.230918e-002
1.365354e+003, 2.340788e-002
1.367283e+003, 2.440101e-002
1.369211e+003, 2.580183e-002
1.371140e+003, 2.683863e-002
1.373068e+003, 2.740628e-002
1.374997e+003, 2.771386e-002
1.376925e+003, 2.749385e-002
1.378854e+003, 2.677772e-002
1.380782e+003, 2.602217e-002
1.382711e+003, 2.530741e-002
1.384639e+003, 2.467921e-002
1.386568e+003, 2.414705e-002
1.388496e+003, 2.380380e-002
1.390424e+003, 2.380667e-002
1.392353e+003, 2.406408e-002
1.394281e+003, 2.441692e-002
1.396210e+003, 2.474315e-002
1.398138e+003, 2.525227e-002
1.400067e+003, 2.611481e-002
1.401995e+003, 2.707876e-002
1.403924e+003, 2.819794e-002
1.405852e+003, 2.943322e-002
1.407781e+003, 3.070034e-002
1.409709e+003, 3.195265e-002
1.411638e+003, 3.306689e-002
1.413566e+003, 3.418346e-002
1.415495e+003, 3.517057e-002
1.417423e+003, 3.590709e-002
1.419351e+003, 3.650410e-002
1.421280e+003, 3.676399e-002
1.423208e+003, 3.675797e-002
1.425137e+003, 3.644381e-002
1.427065e+003, 3.568048e-002
1.428994e+003, 3.472552e-002
1.430922e+003, 3.382342e-002
1.432851e+003, 3.245622e-002
1.434779e+003, 3.089781e-002
1.436708e+003, 2.955075e-002
1.438636e+003, 2.838629e-002
1.440565e+003, 2.738864e-002
1.442493e+003, 2.614152e-002
1.444422e+003, 2.501670e-002
1.446350e+003, 2.416887e-002
1.448278e+003, 2.339029e-002
1.450207e+003, 2.254546e-002
1.452135e+003, 2.169293e-002
1.454064e+003, 2.076379e-002
1.455992e+003, 1.988655e-002
1.457921e+003, 1.928059e-002
1.459849e+003, 1.881651e-002
1.461778e+003, 1.838324e-002
1.463706e+003, 1.803885e-002
1.465635e+003, 1.765950e-002
1.467563e+003, 1.773501e-002
1.469492e+003, 1.824320e-002
1.471420e+003, 1.873050e-002
1.473349e+003, 1.913641e-002
1.475277e+003, 1.917727e-002
1.477205e+003, 1.911138e-002
1.479134e+003, 1.916335e-002
1.481062e+003, 1.921862e-002
1.482991e+003, 1.912872e-002
1.484919e+003, 1.904563e-002
1.486848e+003, 1.886132e-002
1.488776e+003, 1.871199e-002
1.490705e+003, 1.879118e-002
1.492633e+003, 1.885243e-002
1.494562e+003, 1.883045e-002
1.496490e+003, 1.876901e-002
1.498419e+003, 1.882997e-002
1.500347e+003, 1.881789e-002
1.502276e+003, 1.880402e-002
1.504204e+003, 1.902050e-002
1.506132e+003, 1.926483e-002
1.508061e+003, 1.927401e-002
1.509989e+003, 1.949353e-002
1.511918e+003, 1.958412e-002
1.513846e+003, 1.970383e-002
1.515775e+003, 2.000794e-002
1.517703e+003, 2.025123e-002
1.519632e+003, 2.056312e-002
1.521560e+003, 2.092183e-002
1.523489e+003, 2.129545e-002
1.525417e+003, 2.165023e-002
1.527346e+003, 2.191151e-002
1.529274e+003, 2.215518e-002
1.531203e+003, 2.234982e-002
1.533131e+003, 2.264228e-002
1.535059e+003, 2.307653e-002
1.536988e+003, 2.325341e-002
1.538916e+003, 2.341078e-002
1.540845e+003, 2.384517e-002
1.542773e+003, 2.427237e-002
1.544702e+003, 2.454386e-002
1.546630e+003, 2.482731e-002
1.548559e+003, 2.499908e-002
1.550487e+003, 2.524212e-002
1.552416e+003, 2.562331e-002
1.554344e+003, 2.616756e-002
1.556273e+003, 2.667057e-002
1.558201e+003, 2.691540e-002
1.560130e+003, 2.717677e-002
1.562058e+003, 2.761230e-002
1.563986e+003, 2.836776e-002
1.565915e+003, 2.901687e-002
1.567843e+003, 2.923226e-002
1.569772e+003, 2.967884e-002
1.571700e+003, 3.039956e-002
1.573629e+003, 3.101812e-002
1.575557e+003, 3.150440e-002
1.577486e+003, 3.211487e-002
1.579414e+003, 3.299767e-002
1.581343e+003, 3.398717e-002
1.583271e+003, 3.497110e-002
1.585200e+003, 3.598512e-002
1.587128e+003, 3.688207e-002
1.589057e+003, 3.809220e-002
1.590985e+003, 3.938280e-002
1.592913e+003, 4.086923e-002
1.594842e+003, 4.238659e-002
1.596770e+003, 4.393028e-002
1.598699e+003, 4.559031e-002
1.600627e+003, 4.729638e-002
1.602556e+003, 4.916990e-002
1.604484e+003, 5.105336e-002
1.606413e+003, 5.273962e-002
1.608341e+003, 5.435272e-002
1.610270e+003, 5.590717e-002
1.612198e+003, 5.734066e-002
1.614127e+003, 5.874692e-002
1.616055e+003, 5.981595e-002
1.617984e+003, 6.059909e-002
1.619912e+003, 6.101450e-002
1.621840e+003, 6.102822e-002
1.623769e+003, 6.090694e-002
1.625697e+003, 6.051426e-002
1.627626e+003, 5.994400e-002
1.629554e+003, 5.921877e-002
1.631483e+003, 5.848098e-002
1.633411e+003, 5.765703e-002
1.635340e+003, 5.674272e-002
1.637268e+003, 5.572714e-002
1.639197e+003, 5.469093e-002
1.641125e+003, 5.348544e-002
1.643054e+003, 5.238214e-002
1.644982e+003, 5.165105e-002
1.646911e+003, 5.048272e-002
1.648839e+003, 4.896957e-002
1.650767e+003, 4.775994e-002
1.652696e+003, 4.665856e-002
1.654624e+003, 4.551722e-002
1.656553e+003, 4.430959e-002
1.658481e+003, 4.281132e-002
1.660410e+003, 4.142714e-002
1.662338e+003, 4.035733e-002
1.664267e+003, 3.930691e-002
1.666195e+003, 3.821846e-002
1.668124e+003, 3.706878e-002
1.670052e+003, 3.616409e-002
1.671981e+003, 3.551846e-002
1.673909e+003, 3.460240e-002
1.675838e+003, 3.349244e-002
1.677766e+003, 3.252803e-002
1.679694e+003, 3.173775e-002
1.681623e+003, 3.125865e-002
1.683551e+003, 3.084954e-002
1.685480e+003, 3.025921e-002
1.687408e+003, 2.997823e-002
1.689337e+003, 2.967650e-002
1.691265e+003, 2.914108e-002
1.693194e+003, 2.862802e-002
1.695122e+003, 2.818596e-002
1.697051e+003, 2.768116e-002
1.698979e+003, 2.735575e-002
1.700908e+003, 2.699755e-002
1.702836e+003, 2.638655e-002
1.704765e+003, 2.566619e-002
1.706693e+003, 2.494236e-002
1.708621e+003, 2.435019e-002
1.710550e+003, 2.403683e-002
1.712478e+003, 2.379281e-002
1.714407e+003, 2.377626e-002
1.716335e+003, 2.378151e-002
1.718264e+003, 2.390899e-002
1.720192e+003, 2.402692e-002
1.722121e+003, 2.402275e-002
1.724049e+003, 2.423831e-002
1.725978e+003, 2.498104e-002
1.727906e+003, 2.566310e-002
1.729835e+003, 2.602745e-002
1.731763e+003, 2.610120e-002
1.733692e+003, 2.580397e-002
1.735620e+003, 2.534798e-002
1.737548e+003, 2.440858e-002
1.739477e+003, 2.312053e-002
1.741405e+003, 2.207868e-002
1.743334e+003, 2.081951e-002
1.745262e+003, 1.930695e-002
1.747191e+003, 1.793269e-002
1.749119e+003, 1.663913e-002
1.751048e+003, 1.507029e-002
1.752976e+003, 1.373900e-002
1.754905e+003, 1.298731e-002
1.756833e+003, 1.224434e-002
1.758762e+003, 1.164200e-002
1.760690e+003, 1.146669e-002
1.762619e+003, 1.137756e-002
1.764547e+003, 1.112077e-002
1.766475e+003, 1.097231e-002
1.768404e+003, 1.098791e-002
1.770332e+003, 1.094468e-002
1.772261e+003, 1.091420e-002
1.774189e+003, 1.092623e-002
1.776118e+003, 1.088064e-002
1.778046e+003, 1.091485e-002
1.779975e+003, 1.096993e-002
1.781903e+003, 1.124507e-002
1.783832e+003, 1.121803e-002
1.785760e+003, 1.104466e-002
1.787689e+003, 1.110676e-002
1.789617e+003, 1.107620e-002
1.791546e+003, 1.087792e-002
1.793474e+003, 1.074011e-002
1.795402e+003, 1.058516e-002
1.797331e+003, 1.051933e-002
1.799259e+003, 1.074014e-002
1.801188e+003, 1.078841e-002
1.803116e+003, 1.078470e-002
1.805045e+003, 1.052595e-002
1.806973e+003, 1.017328e-002
1.808902e+003, 1.032534e-002
1.810830e+003, 1.069548e-002
1.812759e+003, 1.095138e-002
1.814687e+003, 1.076279e-002
1.816616e+003, 1.055725e-002
1.818544e+003, 1.067510e-002
1.820473e+003, 1.090615e-002
1.822401e+003, 1.089103e-002
1.824329e+003, 1.080576e-002
1.826258e+003, 1.073236e-002
1.828186e+003, 1.033548e-002
1.830115e+003, 1.041567e-002
1.832043e+003, 1.066855e-002
1.833972e+003, 1.053929e-002
1.835900e+003, 1.021277e-002
1.837829e+003, 1.030437e-002
1.839757e+003, 1.072788e-002
1.841686e+003, 1.100643e-002
1.843614e+003, 1.089732e-002
1.845543e+003, 1.056357e-002
1.847471e+003, 9.960797e-003
1.849400e+003, 1.013187e-002
1.851328e+003, 1.047819e-002
1.853256e+003, 1.039578e-002
1.855185e+003, 1.036405e-002
1.857113e+003, 1.034091e-002
1.859042e+003, 1.033915e-002
1.860970e+003, 1.012122e-002
1.862899e+003, 9.979173e-003
1.864827e+003, 9.993785e-003
1.866756e+003, 9.879336e-003
1.868684e+003, 9.799415e-003
1.870613e+003, 1.004936e-002
1.872541e+003, 1.055915e-002
1.874470e+003, 1.032971e-002
1.876398e+003, 9.826122e-003
1.878327e+003, 9.649511e-003
1.880255e+003, 1.019930e-002
1.882183e+003, 1.025490e-002
1.884112e+003, 1.010029e-002
1.886040e+003, 1.016541e-002
1.887969e+003, 1.046862e-002
1.889897e+003, 1.025446e-002
1.891826e+003, 1.014327e-002
1.893754e+003, 1.061409e-002
1.895683e+003, 1.084194e-002
1.897611e+003, 1.061296e-002
1.899540e+003, 1.109453e-002
1.901468e+003, 1.156219e-002
1.903397e+003, 1.111390e-002
1.905325e+003, 1.084140e-002
1.907254e+003, 1.090109e-002
1.909182e+003, 1.067789e-002
1.911110e+003, 1.065062e-002
1.913039e+003, 1.070832e-002
1.914967e+003, 1.025419e-002
1.916896e+003, 9.637620e-003
1.918824e+003, 1.011010e-002
1.920753e+003, 1.069979e-002
1.922681e+003, 1.037647e-002
1.924610e+003, 9.982596e-003
1.926538e+003, 1.031088e-002
1.928467e+003, 1.068617e-002
1.930395e+003, 1.032055e-002
1.932324e+003, 1.003786e-002
1.934252e+003, 1.077271e-002
1.936181e+003, 1.055688e-002
1.938109e+003, 1.023414e-002
1.940037e+003, 1.024126e-002
1.941966e+003, 9.706533e-003
1.943894e+003, 9.551411e-003
1.945823e+003, 1.004949e-002
1.947751e+003, 1.003708e-002
1.949680e+003, 1.037624e-002
1.951608e+003, 9.978630e-003
1.953537e+003, 1.032951e-002
1.955465e+003, 1.038363e-002
1.957394e+003, 9.126573e-003
1.959322e+003, 9.531223e-003
1.961251e+003, 9.429763e-003
1.963179e+003, 9.038231e-003
1.965108e+003, 9.405079e-003
1.967036e+003, 1.046421e-002
1.968964e+003, 1.101047e-002
1.970893e+003, 1.037115e-002
1.972821e+003, 9.763154e-003
1.974750e+003, 8.295638e-003
1.976678e+003, 8.416359e-003
1.978607e+003, 1.091264e-002
1.980535e+003, 1.224087e-002
1.982464e+003, 1.197951e-002
1.984392e+003, 1.104375e-002
1.986321e+003, 9.911945e-003
1.988249e+003, 9.928794e-003
1.990178e+003, 1.128077e-002
1.992106e+003, 1.156250e-002
1.994035e+003, 1.166160e-002
1.995963e+003, 1.144505e-002
1.997891e+003, 1.069371e-002
1.999820e+003, 1.032439e-002
2.001748e+003, 1.064648e-002
2.003677e+003, 9.962797e-003
2.005605e+003, 9.902149e-003
2.007534e+003, 1.122504e-002
2.009462e+003, 1.222601e-002
2.011391e+003, 1.183375e-002
2.013319e+003, 1.075994e-002
2.015248e+003, 1.113498e-002
2.017176e+003, 1.198813e-002
2.019105e+003, 1.069124e-002
2.021033e+003, 1.119376e-002
2.022962e+003, 1.188503e-002
2.024890e+003, 1.098179e-002
2.026818e+003, 1.092576e-002
2.028747e+003, 1.041126e-002
2.030675e+003, 1.040020e-002
2.032604e+003, 1.137593e-002
2.034532e+003, 1.330407e-002
2.036461e+003, 1.410378e-002
2.038389e+003, 1.358944e-002
2.040318e+003, 1.321136e-002
2.042246e+003, 1.277914e-002
2.044175e+003, 1.245979e-002
2.046103e+003, 1.278747e-002
2.048032e+003, 1.316111e-002
2.049960e+003, 1.330855e-002
2.051889e+003, 1.325607e-002
2.053817e+003, 1.281664e-002
2.055746e+003, 1.188088e-002
2.057674e+003, 1.126091e-002
2.059603e+003, 1.165976e-002
2.061531e+003, 1.237950e-002
2.063459e+003, 1.292487e-002
2.065388e+003, 1.295986e-002
2.067316e+003, 1.260982e-002
2.069245e+003, 1.284521e-002
2.071173e+003, 1.255337e-002
2.073102e+003, 1.291589e-002
2.075030e+003, 1.358978e-002
2.076959e+003, 1.332929e-002
2.078887e+003, 1.221088e-002
2.080816e+003, 1.250678e-002
2.082744e+003, 1.338642e-002
2.084673e+003, 1.235894e-002
2.086601e+003, 1.164874e-002
2.088530e+003, 1.195155e-002
2.090458e+003, 1.259307e-002
2.092386e+003, 1.203653e-002
2.094315e+003, 1.140130e-002
2.096243e+003, 1.187455e-002
2.098172e+003, 1.242815e-002
2.100100e+003, 1.263676e-002
2.102029e+003, 1.280630e-002
2.103957e+003, 1.288121e-002
2.105886e+003, 1.245972e-002
2.107814e+003, 1.198482e-002
2.109743e+003, 1.255599e-002
2.111671e+003, 1.321378e-002
2.113600e+003, 1.322447e-002
2.115528e+003, 1.256687e-002
2.117457e+003, 1.200189e-002
2.119385e+003, 1.164737e-002
2.121313e+003, 1.157526e-002
2.123242e+003, 1.159843e-002
2.125170e+003, 1.155093e-002
2.127099e+003, 1.185854e-002
2.129027e+003, 1.229042e-002
2.130956e+003, 1.202590e-002
2.132884e+003, 1.061300e-002
2.134813e+003, 1.073562e-002
2.136741e+003, 1.168784e-002
2.138670e+003, 1.133314e-002
2.140598e+003, 1.121756e-002
2.142527e+003, 1.183716e-002
2.144455e+003, 1.244029e-002
2.146384e+003, 1.340422e-002
2.148312e+003, 1.391485e-002
2.150240e+003, 1.298789e-002
2.152169e+003, 1.275031e-002
2.154097e+003, 1.315066e-002
2.156026e+003, 1.118261e-002
2.157954e+003, 9.619428e-003
2.159883e+003, 1.234234e-002
2.161811e+003, 1.359012e-002
2.163740e+003, 1.347349e-002
2.165668e+003, 1.202815e-002
2.167597e+003, 1.233610e-002
2.169525e+003, 1.140321e-002
2.171454e+003, 1.086548e-002
2.173382e+003, 1.217067e-002
2.175311e+003, 1.343880e-002
2.177239e+003, 1.231261e-002
2.179167e+003, 1.190033e-002
2.181096e+003, 1.387188e-002
2.183024e+003, 1.421192e-002
2.184953e+003, 1.330014e-002
2.186881e+003, 1.335136e-002
2.188810e+003, 1.324873e-002
2.190738e+003, 1.225252e-002
2.192667e+003, 1.156876e-002
2.194595e+003, 1.200880e-002
2.196524e+003, 1.299646e-002
2.198452e+003, 1.311436e-002
2.200381e+003, 1.256565e-002
2.202309e+003, 1.275310e-002
2.204238e+003, 1.343019e-002
2.206166e+003, 1.325426e-002
2.208094e+003, 1.288927e-002
2.210023e+003, 1.251456e-002
2.211951e+003, 1.176566e-002
2.213880e+003, 1.204869e-002
2.215808e+003, 1.257039e-002
2.217737e+003, 1.266934e-002
2.219665e+003, 1.259628e-002
2.221594e+003, 1.231207e-002
2.223522e+003, 1.273799e-002
2.225451e+003, 1.340600e-002
2.227379e+003, 1.336014e-002
2.229308e+003, 1.284057e-002
2.231236e+003, 1.248919e-002
2.233165e+003, 1.298830e-002
2.235093e+003, 1.407428e-002
2.237021e+003, 1.466870e-002
2.238950e+003, 1.403913e-002
2.240878e+003, 1.339240e-002
2.242807e+003, 1.322133e-002
2.244735e+003, 1.264710e-002
2.246664e+003, 1.269121e-002
2.248592e+003, 1.319855e-002
2.250521e+003, 1.426160e-002
2.252449e+003, 1.467271e-002
2.254378e+003, 1.473941e-002
2.256306e+003, 1.556551e-002
2.258235e+003, 1.515455e-002
2.260163e+003, 1.396939e-002
2.262092e+003, 1.414041e-002
2.264020e+003, 1.521514e-002
2.265948e+003, 1.519658e-002
2.267877e+003, 1.437197e-002
2.269805e+003, 1.453403e-002
2.271734e+003, 1.519356e-002
2.273662e+003, 1.491379e-002
2.275591e+003, 1.479412e-002
2.277519e+003, 1.466781e-002
2.279448e+003, 1.513375e-002
2.281376e+003, 1.544876e-002
2.283305e+003, 1.519870e-002
2.285233e+003, 1.539152e-002
2.287162e+003, 1.539908e-002
2.289090e+003, 1.529198e-002
2.291019e+003, 1.507142e-002
2.292947e+003, 1.511029e-002
2.294875e+003, 1.529891e-002
2.296804e+003, 1.527235e-002
2.298732e+003, 1.543361e-002
2.300661e+003, 1.538586e-002
2.302589e+003, 1.519418e-002
2.304518e+003, 1.524613e-002
2.306446e+003, 1.529785e-002
2.308375e+003, 1.542486e-002
2.310303e+003, 1.582525e-002
2.312232e+003, 1.553374e-002
2.314160e+003, 1.530375e-002
2.316089e+003, 1.566363e-002
2.318017e+003, 1.564368e-002
2.319946e+003, 1.572891e-002
2.321874e+003, 1.617233e-002
2.323802e+003, 1.654246e-002
2.325731e+003, 1.592103e-002
2.327659e+003, 1.530911e-002
2.329588e+003, 1.544062e-002
2.331516e+003, 1.543035e-002
2.333445e+003, 1.532215e-002
2.335373e+003, 1.564186e-002
2.337302e+003, 1.593516e-002
2.339230e+003, 1.607800e-002
2.341159e+003, 1.585384e-002
2.343087e+003, 1.569909e-002
2.345016e+003, 1.584319e-002
2.346944e+003, 1.586000e-002
2.348873e+003, 1.587092e-002
2.350801e+003, 1.596421e-002
2.352729e+003, 1.589952e-002
2.354658e+003, 1.573258e-002
2.356586e+003, 1.575701e-002
2.358515e+003, 1.587202e-002
2.360443e+003, 1.564684e-002
2.362372e+003, 1.558543e-002
2.364300e+003, 1.580436e-002
2.366229e+003, 1.555400e-002
2.368157e+003, 1.567549e-002
2.370086e+003, 1.596431e-002
2.372014e+003, 1.589419e-002
2.373942e+003, 1.599460e-002
2.375871e+003, 1.614361e-002
2.377799e+003, 1.628893e-002
2.379728e+003, 1.660794e-002
2.381656e+003, 1.643681e-002
2.383585e+003, 1.600288e-002
2.385513e+003, 1.648712e-002
2.387442e+003, 1.685759e-002
2.389370e+003, 1.650261e-002
2.391299e+003, 1.664126e-002
2.393227e+003, 1.685994e-002
2.395156e+003, 1.660615e-002
2.397084e+003, 1.657430e-002
2.399012e+003, 1.668062e-002
2.400941e+003, 1.704857e-002
2.402869e+003, 1.704612e-002
2.404798e+003, 1.701924e-002
2.406726e+003, 1.722670e-002
2.408655e+003, 1.757465e-002
2.410583e+003, 1.772583e-002
2.412512e+003, 1.773950e-002
2.414440e+003, 1.754188e-002
2.416369e+003, 1.772469e-002
2.418297e+003, 1.753270e-002
2.420226e+003, 1.707865e-002
2.422154e+003, 1.663565e-002
2.424083e+003, 1.685973e-002
2.426011e+003, 1.747109e-002
2.427939e+003, 1.775586e-002
2.429868e+003, 1.758614e-002
2.431796e+003, 1.771210e-002
2.433725e+003, 1.778645e-002
2.435653e+003, 1.767130e-002
2.437582e+003, 1.779197e-002
2.439510e+003, 1.801260e-002
2.441439e+003, 1.756254e-002
2.443367e+003, 1.774796e-002
2.445296e+003, 1.842725e-002
2.447224e+003, 1.854985e-002
2.449153e+003, 1.830489e-002
2.451081e+003, 1.815299e-002
2.453010e+003, 1.817707e-002
2.454938e+003, 1.799831e-002
2.456866e+003, 1.740642e-002
2.458795e+003, 1.749610e-002
2.460723e+003, 1.804611e-002
2.462652e+003, 1.792282e-002
2.464580e+003, 1.771406e-002
2.466509e+003, 1.818239e-002
2.468437e+003, 1.800490e-002
2.470366e+003, 1.731993e-002
2.472294e+003, 1.751241e-002
2.474223e+003, 1.712432e-002
2.476151e+003, 1.696332e-002
2.478080e+003, 1.766954e-002
2.480008e+003, 1.814297e-002
2.481937e+003, 1.794101e-002
2.483865e+003, 1.779193e-002
2.485793e+003, 1.802815e-002
2.487722e+003, 1.794872e-002
2.489650e+003, 1.791218e-002
2.491579e+003, 1.810721e-002
2.493507e+003, 1.781082e-002
2.495436e+003, 1.748996e-002
2.497364e+003, 1.782832e-002
2.499293e+003, 1.849356e-002
2.501221e+003, 1.806652e-002
2.503150e+003, 1.753501e-002
2.505078e+003, 1.772784e-002
2.507007e+003, 1.754353e-002
2.508935e+003, 1.732562e-002
2.510864e+003, 1.757151e-002
2.512792e+003, 1.784668e-002
2.514720e+003, 1.794764e-002
2.516649e+003, 1.782966e-002
2.518577e+003, 1.764394e-002
2.520506e+003, 1.777188e-002
2.522434e+003, 1.786495e-002
2.524363e+003, 1.809084e-002
2.526291e+003, 1.858533e-002
2.528220e+003, 1.838355e-002
2.530148e+003, 1.846196e-002
2.532077e+003, 1.873074e-002
2.534005e+003, 1.860076e-002
2.535934e+003, 1.825274e-002
2.537862e+003, 1.818508e-002
2.539791e+003, 1.806058e-002
2.541719e+003, 1.816784e-002
2.543647e+003, 1.832794e-002
2.545576e+003, 1.843758e-002
2.547504e+003, 1.850182e-002
2.549433e+003, 1.808538e-002
2.551361e+003, 1.753760e-002
2.553290e+003, 1.798056e-002
2.555218e+003, 1.867235e-002
2.557147e+003, 1.889160e-002
2.559075e+003, 1.878336e-002
2.561004e+003, 1.845235e-002
2.562932e+003, 1.810821e-002
2.564861e+003, 1.831591e-002
2.566789e+003, 1.855943e-002
2.568718e+003, 1.849601e-002
2.570646e+003, 1.839648e-002
2.572574e+003, 1.881319e-002
2.574503e+003, 1.927976e-002
2.576431e+003, 1.903078e-002
2.578360e+003, 1.902649e-002
2.580288e+003, 1.878357e-002
2.582217e+003, 1.871189e-002
2.584145e+003, 1.914739e-002
2.586074e+003, 1.915075e-002
2.588002e+003, 1.876215e-002
2.589931e+003, 1.908628e-002
2.591859e+003, 1.961743e-002
2.593788e+003, 1.965560e-002
2.595716e+003, 1.947395e-002
2.597645e+003, 1.941234e-002
2.599573e+003, 1.961113e-002
2.601501e+003, 1.987015e-002
2.603430e+003, 1.974721e-002
2.605358e+003, 1.974502e-002
2.607287e+003, 1.981136e-002
2.609215e+003, 1.945752e-002
2.611144e+003, 1.945277e-002
2.613072e+003, 1.965130e-002
2.615001e+003, 1.956475e-002
2.616929e+003, 1.979222e-002
2.618858e+003, 2.011752e-002
2.620786e+003, 2.010392e-002
2.622715e+003, 2.012283e-002
2.624643e+003, 2.015983e-002
2.626572e+003, 2.026855e-002
2.628500e+003, 2.019045e-002
2.630428e+003, 2.021981e-002
2.632357e+003, 2.058543e-002
2.634285e+003, 2.109547e-002
2.636214e+003, 2.124008e-002
2.638142e+003, 2.100483e-002
2.640071e+003, 2.078879e-002
2.641999e+003, 2.083227e-002
2.643928e+003, 2.077864e-002
2.645856e+003, 2.109140e-002
2.647785e+003, 2.123389e-002
2.649713e+003, 2.113665e-002
2.651642e+003, 2.125946e-002
2.653570e+003, 2.146422e-002
2.655499e+003, 2.156348e-002
2.657427e+003, 2.169018e-002
2.659355e+003, 2.165239e-002
2.661284e+003, 2.161011e-002
2.663212e+003, 2.173832e-002
2.665141e+003, 2.167238e-002
2.667069e+003, 2.152640e-002
2.668998e+003, 2.168969e-002
2.670926e+003, 2.184541e-002
2.672855e+003, 2.183019e-002
2.674783e+003, 2.160809e-002
2.676712e+003, 2.164131e-002
2.678640e+003, 2.195888e-002
2.680569e+003, 2.213182e-002
2.682497e+003, 2.208276e-002
2.684426e+003, 2.212672e-002
2.686354e+003, 2.216933e-002
2.688282e+003, 2.234724e-002
2.690211e+003, 2.252186e-002
2.692139e+003, 2.276720e-002
2.694068e+003, 2.303160e-002
2.695996e+003, 2.307248e-002
2.697925e+003, 2.298583e-002
2.699853e+003, 2.301259e-002
2.701782e+003, 2.321510e-002
2.703710e+003, 2.322042e-002
2.705639e+003, 2.357880e-002
2.707567e+003, 2.382842e-002
2.709496e+003, 2.390607e-002
2.711424e+003, 2.384135e-002
2.713353e+003, 2.444869e-002
2.715281e+003, 2.505608e-002
2.717209e+003, 2.473226e-002
2.719138e+003, 2.414089e-002
2.721066e+003, 2.426375e-002
2.722995e+003, 2.496973e-002
2.724923e+003, 2.510130e-002
2.726852e+003, 2.513085e-002
2.728780e+003, 2.549283e-002
2.730709e+003, 2.564364e-002
2.732637e+003, 2.561170e-002
2.734566e+003, 2.553063e-002
2.736494e+003, 2.593899e-002
2.738423e+003, 2.627977e-002
2.740351e+003, 2.571416e-002
2.742280e+003, 2.533702e-002
2.744208e+003, 2.550213e-002
2.746136e+003, 2.608229e-002
2.748065e+003, 2.685436e-002
2.749993e+003, 2.721034e-002
2.751922e+003, 2.724843e-002
2.753850e+003, 2.745979e-002
2.755779e+003, 2.741442e-002
2.757707e+003, 2.764422e-002
2.759636e+003, 2.767864e-002
2.761564e+003, 2.766901e-002
2.763493e+003, 2.771974e-002
2.765421e+003, 2.777287e-002
2.767350e+003, 2.774837e-002
2.769278e+003, 2.807770e-002
2.771207e+003, 2.824211e-002
2.773135e+003, 2.824530e-002
2.775063e+003, 2.897529e-002
2.776992e+003, 2.938593e-002
2.778920e+003, 2.950515e-002
2.780849e+003, 3.011711e-002
2.782777e+003, 2.974910e-002
2.784706e+003, 2.969591e-002
2.786634e+003, 3.033723e-002
2.788563e+003, 3.014729e-002
2.790491e+003, 3.007450e-002
2.792420e+003, 3.032547e-002
2.794348e+003, 3.052746e-002
2.796277e+003, 3.063304e-002
2.798205e+003, 3.076765e-002
2.800134e+003, 3.127435e-002
2.802062e+003, 3.141983e-002
2.803990e+003, 3.117072e-002
2.805919e+003, 3.133618e-002
2.807847e+003, 3.193206e-002
2.809776e+003, 3.234094e-002
2.811704e+003, 3.226547e-002
2.813633e+003, 3.243165e-002
2.815561e+003, 3.203393e-002
2.817490e+003, 3.226877e-002
2.819418e+003, 3.273598e-002
2.821347e+003, 3.264945e-002
2.823275e+003, 3.307070e-002
2.825204e+003, 3.372889e-002
2.827132e+003, 3.356308e-002
2.829061e+003, 3.347414e-002
2.830989e+003, 3.395700e-002
2.832917e+003, 3.393885e-002
2.834846e+003, 3.379602e-002
2.836774e+003, 3.418151e-002
2.838703e+003, 3.452617e-002
2.840631e+003, 3.379999e-002
2.842560e+003, 3.349625e-002
2.844488e+003, 3.373697e-002
2.846417e+003, 3.367633e-002
2.848345e+003, 3.380159e-002
2.850274e+003, 3.428148e-002
2.852202e+003, 3.442331e-002
2.854131e+003, 3.424362e-002
2.856059e+003, 3.444358e-002
2.857988e+003, 3.555558e-002
2.859916e+003, 3.621178e-002
2.861844e+003, 3.635746e-002
2.863773e+003, 3.631689e-002
2.865701e+003, 3.669642e-002
2.867630e+003, 3.661899e-002
2.869558e+003, 3.589454e-002
2.871487e+003, 3.657398e-002
2.873415e+003, 3.789818e-002
2.875344e+003, 3.778969e-002
2.877272e+003, 3.765512e-002
2.879201e+003, 3.804947e-002
2.881129e+003, 3.854791e-002
2.883058e+003, 3.848626e-002
2.884986e+003, 3.853649e-002
2.886915e+003, 3.851595e-002
2.888843e+003, 3.920987e-002
2.890771e+003, 3.968171e-002
2.892700e+003, 3.933299e-002
2.894628e+003, 3.943468e-002
2.896557e+003, 3.977732e-002
2.898485e+003, 4.039853e-002
2.900414e+003, 4.069354e-002
2.902342e+003, 4.040990e-002
2.904271e+003, 4.023251e-002
2.906199e+003, 4.079873e-002
2.908128e+003, 4.163335e-002
2.910056e+003, 4.194377e-002
2.911985e+003, 4.192838e-002
2.913913e+003, 4.238370e-002
2.915842e+003, 4.209578e-002
2.917770e+003, 4.238754e-002
2.919698e+003, 4.342919e-002
2.921627e+003, 4.322162e-002
2.923555e+003, 4.250314e-002
2.925484e+003, 4.281048e-002
2.927412e+003, 4.327583e-002
2.929341e+003, 4.413961e-002
2.931269e+003, 4.427323e-002
2.933198e+003, 4.475995e-002
2.935126e+003, 4.558935e-002
2.937055e+003, 4.503762e-002
2.938983e+003, 4.475009e-002
2.940912e+003, 4.540204e-002
2.942840e+003, 4.584952e-002
2.944769e+003, 4.566856e-002
2.946697e+003, 4.527207e-002
2.948625e+003, 4.507151e-002
2.950554e+003, 4.546328e-002
2.952482e+003, 4.612521e-002
2.954411e+003, 4.633645e-002
2.956339e+003, 4.754979e-002
2.958268e+003, 4.820769e-002
2.960196e+003, 4.777863e-002
2.962125e+003, 4.807705e-002
2.964053e+003, 4.900604e-002
2.965982e+003, 4.906669e-002
2.967910e+003, 4.913962e-002
2.969839e+003, 4.926868e-002
2.971767e+003, 4.918800e-002
2.973696e+003, 4.871219e-002
2.975624e+003, 4.873667e-002
2.977552e+003, 4.889070e-002
2.979481e+003, 4.985268e-002
2.981409e+003, 5.035908e-002
2.983338e+003, 5.051874e-002
2.985266e+003, 5.111995e-002
2.987195e+003, 5.156317e-002
2.989123e+003, 5.159140e-002
2.991052e+003, 5.155321e-002
2.992980e+003, 5.176756e-002
2.994909e+003, 5.154111e-002
2.996837e+003, 5.168838e-002
2.998766e+003, 5.244800e-002
3.000694e+003, 5.283733e-002
3.002623e+003, 5.305811e-002
3.004551e+003, 5.435660e-002
3.006479e+003, 5.454248e-002
3.008408e+003, 5.349197e-002
3.010336e+003, 5.321478e-002
3.012265e+003, 5.333314e-002
3.014193e+003, 5.374376e-002
3.016122e+003, 5.434179e-002
3.018050e+003, 5.473235e-002
3.019979e+003, 5.498550e-002
3.021907e+003, 5.573570e-002
3.023836e+003, 5.612653e-002
3.025764e+003, 5.624302e-002
3.027693e+003, 5.613835e-002
3.029621e+003, 5.614638e-002
3.031550e+003, 5.521631e-002
3.033478e+003, 5.481128e-002
3.035406e+003, 5.605749e-002
3.037335e+003, 5.631402e-002
3.039263e+003, 5.636317e-002
3.041192e+003, 5.700266e-002
3.043120e+003, 5.692456e-002
3.045049e+003, 5.672484e-002
3.046977e+003, 5.707804e-002
3.048906e+003, 5.694496e-002
3.050834e+003, 5.727017e-002
3.052763e+003, 5.775934e-002
3.054691e+003, 5.776361e-002
3.056620e+003, 5.857034e-002
3.058548e+003, 5.898519e-002
3.060477e+003, 5.851530e-002
3.062405e+003, 5.860374e-002
3.064333e+003, 5.830086e-002
3.066262e+003, 5.843333e-002
3.068190e+003, 5.873712e-002
3.070119e+003, 5.803239e-002
3.072047e+003, 5.766471e-002
3.073976e+003, 5.843264e-002
3.075904e+003, 5.929679e-002
3.077833e+003, 6.017549e-002
3.079761e+003, 6.023235e-002
3.081690e+003, 6.034048e-002
3.083618e+003, 6.037574e-002
3.085547e+003, 6.072202e-002
3.087475e+003, 6.189670e-002
3.089404e+003, 6.197605e-002
3.091332e+003, 6.124403e-002
3.093260e+003, 6.143710e-002
3.095189e+003, 6.116110e-002
3.097117e+003, 6.096790e-002
3.099046e+003, 6.133267e-002
3.100974e+003, 6.212181e-002
3.102903e+003, 6.321041e-002
3.104831e+003, 6.312911e-002
3.106760e+003, 6.223693e-002
3.108688e+003, 6.178096e-002
3.110617e+003, 6.250460e-002
3.112545e+003, 6.395343e-002
3.114474e+003, 6.430560e-002
3.116402e+003, 6.382649e-002
3.118331e+003, 6.332134e-002
3.120259e+003, 6.353630e-002
3.122188e+003, 6.406613e-002
3.124116e+003, 6.394409e-002
3.126044e+003, 6.456889e-002
3.127973e+003, 6.518800e-002
3.129901e+003, 6.497410e-002
3.131830e+003, 6.556367e-002
3.133758e+003, 6.560344e-002
3.135687e+003, 6.529251e-002
3.137615e+003, 6.505065e-002
3.139544e+003, 6.507827e-002
3.141472e+003, 6.560122e-002
3.143401e+003, 6.634153e-002
3.145329e+003, 6.644445e-002
3.147258e+003, 6.666423e-002
3.149186e+003, 6.635968e-002
3.151115e+003, 6.590798e-002
3.153043e+003, 6.673141e-002
3.154971e+003, 6.700272e-002
3.156900e+003, 6.695997e-002
3.158828e+003, 6.687474e-002
3.160757e+003, 6.696291e-002
3.162685e+003, 6.706749e-002
3.164614e+003, 6.691056e-002
3.166542e+003, 6.731217e-002
3.168471e+003, 6.741083e-002
3.170399e+003, 6.768509e-002
3.172328e+003, 6.828353e-002
3.174256e+003, 6.831513e-002
3.176185e+003, 6.792969e-002
3.178113e+003, 6.782874e-002
3.180042e+003, 6.824433e-002
3.181970e+003, 6.895253e-002
3.183898e+003, 6.926395e-002
3.185827e+003, 6.920220e-002
3.187755e+003, 6.861596e-002
3.189684e+003, 6.842939e-002
3.191612e+003, 6.831653e-002
3.193541e+003, 6.828101e-002
3.195469e+003, 6.838156e-002
3.197398e+003, 6.855376e-002
3.199326e+003, 6.891549e-002
3.201255e+003, 6.924347e-002
3.203183e+003, 6.917442e-002
3.205112e+003, 6.880611e-002
3.207040e+003, 6.840619e-002
3.208969e+003, 6.878813e-002
3.210897e+003, 6.907345e-002
3.212825e+003, 6.872564e-002
3.214754e+003, 6.855807e-002
3.216682e+003, 6.879986e-002
3.218611e+003, 6.880646e-002
3.220539e+003, 6.836388e-002
3.222468e+003, 6.778915e-002
3.224396e+003, 6.793980e-002
3.226325e+003, 6.836601e-002
3.228253e+003, 6.869897e-002
3.230182e+003, 6.849673e-002
3.232110e+003, 6.834196e-002
3.234039e+003, 6.841197e-002
3.235967e+003, 6.830020e-002
3.237896e+003, 6.712441e-002
3.239824e+003, 6.668616e-002
3.241752e+003, 6.720025e-002
3.243681e+003, 6.771223e-002
3.245609e+003, 6.780704e-002
3.247538e+003, 6.791989e-002
3.249466e+003, 6.764602e-002
3.251395e+003, 6.759349e-002
3.253323e+003, 6.764404e-002
3.255252e+003, 6.693275e-002
3.257180e+003, 6.726377e-002
3.259109e+003, 6.802800e-002
3.261037e+003, 6.764653e-002
3.262966e+003, 6.767173e-002
3.264894e+003, 6.752501e-002
3.266823e+003, 6.678276e-002
3.268751e+003, 6.626754e-002
3.270679e+003, 6.606542e-002
3.272608e+003, 6.608209e-002
3.274536e+003, 6.618511e-002
3.276465e+003, 6.600162e-002
3.278393e+003, 6.642296e-002
3.280322e+003, 6.697156e-002
3.282250e+003, 6.704348e-002
3.284179e+003, 6.705175e-002
3.286107e+003, 6.677124e-002
3.288036e+003, 6.626692e-002
3.289964e+003, 6.623343e-002
3.291893e+003, 6.636358e-002
3.293821e+003, 6.637350e-002
3.295750e+003, 6.632374e-002
3.297678e+003, 6.605721e-002
3.299606e+003, 6.594473e-002
3.301535e+003, 6.626330e-002
3.303463e+003, 6.658372e-002
3.305392e+003, 6.671912e-002
3.307320e+003, 6.700779e-002
3.309249e+003, 6.693028e-002
3.311177e+003, 6.679624e-002
3.313106e+003, 6.703451e-002
3.315034e+003, 6.706795e-002
3.316963e+003, 6.675339e-002
3.318891e+003, 6.710039e-002
3.320820e+003, 6.720083e-002
3.322748e+003, 6.684057e-002
3.324677e+003, 6.713976e-002
3.326605e+003, 6.752973e-002
3.328533e+003, 6.744214e-002
3.330462e+003, 6.698181e-002
3.332390e+003, 6.702484e-002
3.334319e+003, 6.759182e-002
3.336247e+003, 6.778799e-002
3.338176e+003, 6.764168e-002
3.340104e+003, 6.742647e-002
3.342033e+003, 6.695478e-002
3.343961e+003, 6.698722e-002
3.345890e+003, 6.748363e-002
3.347818e+003, 6.800207e-002
3.349747e+003, 6.800358e-002
3.351675e+003, 6.813923e-002
3.353604e+003, 6.828687e-002
3.355532e+003, 6.831095e-002
3.357460e+003, 6.834421e-002
3.359389e+003, 6.810585e-002
3.361317e+003, 6.797801e-002
3.363246e+003, 6.801916e-002
3.365174e+003, 6.809632e-002
3.367103e+003, 6.828500e-002
3.369031e+003, 6.788079e-002
3.370960e+003, 6.778896e-002
3.372888e+003, 6.784756e-002
3.374817e+003, 6.773540e-002
3.376745e+003, 6.792070e-002
3.378674e+003, 6.753252e-002
3.380602e+003, 6.724129e-002
3.382531e+003, 6.792244e-002
3.384459e+003, 6.815764e-002
3.386387e+003, 6.820436e-002
3.388316e+003, 6.759670e-002
3.390244e+003, 6.783276e-002
3.392173e+003, 6.821405e-002
3.394101e+003, 6.785988e-002
3.396030e+003, 6.762213e-002
3.397958e+003, 6.766651e-002
3.399887e+003, 6.795778e-002
3.401815e+003, 6.792376e-002
3.403744e+003, 6.719662e-002
3.405672e+003, 6.694787e-002
3.407601e+003, 6.770391e-002
3.409529e+003, 6.793620e-002
3.411458e+003, 6.729932e-002
3.413386e+003, 6.669451e-002
3.415314e+003, 6.699159e-002
3.417243e+003, 6.650856e-002
3.419171e+003, 6.584451e-002
3.421100e+003, 6.614560e-002
3.423028e+003, 6.635636e-002
3.424957e+003, 6.583086e-002
3.426885e+003, 6.562324e-002
3.428814e+003, 6.588083e-002
3.430742e+003, 6.579515e-002
3.432671e+003, 6.534954e-002
3.434599e+003, 6.518327e-002
3.436528e+003, 6.540798e-002
3.438456e+003, 6.577372e-002
3.440385e+003, 6.597215e-002
3.442313e+003, 6.564043e-002
3.444241e+003, 6.474610e-002
3.446170e+003, 6.351896e-002
3.448098e+003, 6.384581e-002
3.450027e+003, 6.429956e-002
3.451955e+003, 6.377132e-002
3.453884e+003, 6.335489e-002
3.455812e+003, 6.354927e-002
3.457741e+003, 6.351125e-002
3.459669e+003, 6.279685e-002
3.461598e+003, 6.270206e-002
3.463526e+003, 6.286424e-002
3.465455e+003, 6.296459e-002
3.467383e+003, 6.251713e-002
3.469312e+003, 6.142759e-002
3.471240e+003, 6.101526e-002
3.473168e+003, 6.148851e-002
3.475097e+003, 6.102319e-002
3.477025e+003, 6.069777e-002
3.478954e+003, 6.064569e-002
3.480882e+003, 6.042477e-002
3.482811e+003, 6.083432e-002
3.484739e+003, 6.132397e-002
3.486668e+003, 6.179320e-002
3.488596e+003, 6.127654e-002
3.490525e+003, 6.076679e-002
3.492453e+003, 5.963536e-002
3.494382e+003, 5.802633e-002
3.496310e+003, 5.716113e-002
3.498239e+003, 5.788464e-002
3.500167e+003, 5.811886e-002
3.502095e+003, 5.818008e-002
3.504024e+003, 5.769483e-002
3.505952e+003, 5.690288e-002
3.507881e+003, 5.645532e-002
3.509809e+003, 5.625202e-002
3.511738e+003, 5.625338e-002
3.513666e+003, 5.578908e-002
3.515595e+003, 5.485951e-002
3.517523e+003, 5.445904e-002
3.519452e+003, 5.447016e-002
3.521380e+003, 5.351062e-002
3.523309e+003, 5.334391e-002
3.525237e+003, 5.399463e-002
3.527166e+003, 5.337209e-002
3.529094e+003, 5.300787e-002
3.531022e+003, 5.298103e-002
3.532951e+003, 5.206059e-002
3.534879e+003, 5.065296e-002
3.536808e+003, 5.012847e-002
3.538736e+003, 4.976493e-002
3.540665e+003, 4.868219e-002
3.542593e+003, 4.787091e-002
3.544522e+003, 4.808613e-002
3.546450e+003, 4.852562e-002
3.548379e+003, 4.774141e-002
3.550307e+003, 4.684491e-002
3.552236e+003, 4.645921e-002
3.554164e+003, 4.660519e-002
3.556093e+003, 4.604707e-002
3.558021e+003, 4.498902e-002
3.559949e+003, 4.458829e-002
3.561878e+003, 4.386338e-002
3.563806e+003, 4.287689e-002
3.565735e+003, 4.252265e-002
3.567663e+003, 4.217126e-002
3.569592e+003, 4.097543e-002
3.571520e+003, 4.063089e-002
3.573449e+003, 4.087720e-002
3.575377e+003, 3.979632e-002
3.577306e+003, 3.838282e-002
3.579234e+003, 3.802641e-002
3.581163e+003, 3.814031e-002
3.583091e+003, 3.718643e-002
3.585020e+003, 3.634851e-002
3.586948e+003, 3.610864e-002
3.588876e+003, 3.490172e-002
3.590805e+003, 3.389771e-002
3.592733e+003, 3.348732e-002
3.594662e+003, 3.268319e-002
3.596590e+003, 3.193827e-002
3.598519e+003, 3.090835e-002
3.600447e+003, 3.038449e-002
3.602376e+003, 3.046235e-002
3.604304e+003, 2.955103e-002
3.606233e+003, 2.843953e-002
3.608161e+003, 2.738843e-002
3.610090e+003, 2.642979e-002
3.612018e+003, 2.572701e-002
3.613947e+003, 2.555485e-002
3.615875e+003, 2.458078e-002
3.617803e+003, 2.336029e-002
3.619732e+003, 2.278539e-002
3.621660e+003, 2.183409e-002
3.623589e+003, 2.135343e-002
3.625517e+003, 2.043057e-002
3.627446e+003, 1.979197e-002
3.629374e+003, 1.943437e-002
3.631303e+003, 1.877925e-002
3.633231e+003, 1.806946e-002
3.635160e+003, 1.749247e-002
3.637088e+003, 1.696363e-002
3.639017e+003, 1.590076e-002
3.640945e+003, 1.493247e-002
3.642874e+003, 1.437766e-002
3.644802e+003, 1.373859e-002
3.646730e+003, 1.311846e-002
3.648659e+003, 1.287534e-002
3.650587e+003, 1.229963e-002
3.652516e+003, 1.165660e-002
3.654444e+003, 1.057782e-002
3.656373e+003, 9.520352e-003
3.658301e+003, 9.994769e-003
3.660230e+003, 1.115357e-002
3.662158e+003, 1.074710e-002
3.664087e+003, 9.646462e-003
3.666015e+003, 9.771593e-003
3.667944e+003, 8.864004e-003
3.669872e+003, 8.893765e-003
3.671801e+003, 9.258120e-003
3.673729e+003, 9.136521e-003
3.675657e+003, 8.819672e-003
3.677586e+003, 7.773449e-003
3.679514e+003, 7.644071e-003
3.681443e+003, 7.063826e-003
3.683371e+003, 5.921814e-003
3.685300e+003, 5.898302e-003
3.687228e+003, 5.813906e-003
3.689157e+003, 6.192222e-003
3.691085e+003, 6.428059e-003
3.693014e+003, 6.270405e-003
3.694942e+003, 6.114691e-003
3.696871e+003, 5.490846e-003
3.698799e+003, 5.434779e-003
3.700728e+003, 5.957554e-003
3.702656e+003, 5.846917e-003
3.704584e+003, 6.031092e-003
3.706513e+003, 5.961417e-003
3.708441e+003, 6.403208e-003
3.710370e+003, 6.324631e-003
3.712298e+003, 5.557124e-003
3.714227e+003, 5.462493e-003
3.716155e+003, 5.397337e-003
3.718084e+003, 4.763970e-003
3.720012e+003, 5.190225e-003
3.721941e+003, 6.204859e-003
3.723869e+003, 5.810044e-003
3.725798e+003, 5.396063e-003
3.727726e+003, 4.544335e-003
3.729655e+003, 4.471986e-003
3.731583e+003, 5.443469e-003
3.733511e+003, 6.349948e-003
3.735440e+003, 6.973782e-003
3.737368e+003, 6.081996e-003
3.739297e+003, 4.348540e-003
3.741225e+003, 4.615927e-003
3.743154e+003, 5.663357e-003
3.745082e+003, 5.948686e-003
3.747011e+003, 5.618947e-003
3.748939e+003, 5.111767e-003
3.750868e+003, 5.402068e-003
3.752796e+003, 4.967828e-003
3.754725e+003, 5.422264e-003
3.756653e+003, 6.890322e-003
3.758582e+003, 7.113167e-003
3.760510e+003, 5.885774e-003
3.762438e+003, 5.403107e-003
3.764367e+003, 5.758266e-003
3.766295e+003, 5.010697e-003
3.768224e+003, 4.357275e-003
3.770152e+003, 5.017400e-003
3.772081e+003, 5.046362e-003
3.774009e+003, 4.449422e-003
3.775938e+003, 5.079348e-003
3.777866e+003, 5.565951e-003
3.779795e+003, 5.407134e-003
3.781723e+003, 5.538700e-003
3.783652e+003, 6.444066e-003
3.785580e+003, 6.535279e-003
3.787509e+003, 6.184357e-003
3.789437e+003, 5.846547e-003
3.791365e+003, 5.595553e-003
3.793294e+003, 5.499168e-003
3.795222e+003, 5.679168e-003
3.797151e+003, 5.804101e-003
3.799079e+003, 5.230365e-003
3.801008e+003, 4.767722e-003
3.802936e+003, 4.544972e-003
3.804865e+003, 4.442092e-003
3.806793e+003, 5.279297e-003
3.808722e+003, 5.754976e-003
3.810650e+003, 5.277116e-003
3.812579e+003, 5.245591e-003
3.814507e+003, 5.782173e-003
3.816436e+003, 5.666982e-003
3.818364e+003, 4.817204e-003
3.820292e+003, 4.887768e-003
3.822221e+003, 5.257060e-003
3.824149e+003, 5.415118e-003
3.826078e+003, 5.653957e-003
3.828006e+003, 6.357009e-003
3.829935e+003, 5.852928e-003
3.831863e+003, 4.909884e-003
3.833792e+003, 4.847659e-003
3.835720e+003, 4.710775e-003
3.837649e+003, 5.017601e-003
3.839577e+003, 5.861459e-003
3.841506e+003, 5.698807e-003
3.843434e+003, 5.910360e-003
3.845363e+003, 6.592195e-003
3.847291e+003, 6.954860e-003
3.849219e+003, 7.015906e-003
3.851148e+003, 6.811185e-003
3.853076e+003, 6.200759e-003
3.855005e+003, 5.376840e-003
3.856933e+003, 5.223692e-003
3.858862e+003, 5.489504e-003
3.860790e+003, 5.691858e-003
3.862719e+003, 6.268321e-003
3.864647e+003, 6.513617e-003
3.866576e+003, 6.144734e-003
3.868504e+003, 5.684203e-003
3.870433e+003, 5.944688e-003
3.872361e+003, 6.114153e-003
3.874290e+003, 6.054712e-003
3.876218e+003, 6.572818e-003
3.878146e+003, 6.595997e-003
3.880075e+003, 6.260993e-003
3.882003e+003, 6.352436e-003
3.883932e+003, 6.434179e-003
3.885860e+003, 5.924837e-003
3.887789e+003, 6.175081e-003
3.889717e+003, 6.469390e-003
3.891646e+003, 6.088111e-003
3.893574e+003, 5.384455e-003
3.895503e+003, 5.528666e-003
3.897431e+003, 6.053637e-003
3.899360e+003, 6.354621e-003
3.901288e+003, 6.196894e-003
3.903217e+003, 5.665673e-003
3.905145e+003, 5.232880e-003
3.907073e+003, 5.715828e-003
3.909002e+003, 6.604542e-003
3.910930e+003, 6.439627e-003
3.912859e+003, 6.535548e-003
3.914787e+003, 6.696965e-003
3.916716e+003, 6.684246e-003
3.918644e+003, 5.454910e-003
3.920573e+003, 4.567003e-003
3.922501e+003, 4.775762e-003
3.924430e+003, 4.934515e-003
3.926358e+003, 5.255820e-003
3.928287e+003, 5.505343e-003
3.930215e+003, 5.044317e-003
3.932144e+003, 5.779420e-003
3.934072e+003, 5.973376e-003
3.936000e+003, 5.637442e-003
3.937929e+003, 5.679302e-003
3.939857e+003, 6.287079e-003
3.941786e+003, 7.021530e-003
3.943714e+003, 6.869215e-003
3.945643e+003, 7.056889e-003
3.947571e+003, 7.148298e-003
3.949500e+003, 6.543385e-003
3.951428e+003, 5.653286e-003
3.953357e+003, 5.452394e-003
3.955285e+003, 5.863574e-003
3.957214e+003, 5.820756e-003
3.959142e+003, 6.096579e-003
3.961071e+003, 6.367331e-003
3.962999e+003, 5.989938e-003
3.964927e+003, 6.083171e-003
3.966856e+003, 6.858510e-003
3.968784e+003, 6.467574e-003
3.970713e+003, 5.686587e-003
3.972641e+003, 5.908815e-003
3.974570e+003, 5.700754e-003
3.976498e+003, 5.182077e-003
3.978427e+003, 5.741647e-003
3.980355e+003, 6.657632e-003
3.982284e+003, 6.125713e-003
3.984212e+003, 5.770388e-003
3.986141e+003, 6.673546e-003
3.988069e+003, 6.836698e-003
3.989998e+003, 5.643619e-003
3.991926e+003, 5.914760e-003
3.993854e+003, 6.805799e-003
3.995783e+003, 6.265766e-003
3.997711e+003, 5.850174e-003
3.999640e+003, 5.850174e-003
4.001568e+003, 0.000000e+000
##END=



