##NAMES=Vayrynenite
##RRUFFID=R050243
##IDEAL CHEMISTRY=Mn^2+^Be(PO_4_)OH
##LOCALITY=Viitaniemi pegmatite, Erajarvi, Orivesi, Finland
##OWNER=RRUFF
##SOURCE=Marcus Origlieri
##DESCRIPTION=Pink massive with defined cleavage planes
##STATUS=The identification of this mineral has been confirmed by X-ray diffraction and chemical analysis
##URL=rruff.info/R050243
##MEASURED CHEMISTRY=(Mn^2+^_0.95_Fe^2+^_0.05_)_Σ=1_Be_1.00_(P_1.00_O_4_)((OH)_0.94_F_0.06_)_Σ=1_ ; Be not measured but estimated by difference and charge balance.
3.721941e+002, 0.000000e+000
3.741225e+002, 5.715133e-002
3.760510e+002, 5.554892e-002
3.779795e+002, 6.193616e-002
3.799079e+002, 6.909116e-002
3.818364e+002, 6.976107e-002
3.837649e+002, 7.605387e-002
3.856933e+002, 8.272502e-002
3.876218e+002, 8.494502e-002
3.895503e+002, 8.776092e-002
3.914787e+002, 8.766899e-002
3.934072e+002, 8.335432e-002
3.953357e+002, 7.113530e-002
3.972641e+002, 6.188431e-002
3.991926e+002, 5.906016e-002
4.011211e+002, 5.278062e-002
4.030495e+002, 4.759719e-002
4.049780e+002, 4.838106e-002
4.069065e+002, 5.323852e-002
4.088349e+002, 5.748452e-002
4.107634e+002, 6.133587e-002
4.126919e+002, 6.789310e-002
4.146203e+002, 7.423935e-002
4.165488e+002, 7.775660e-002
4.184773e+002, 6.950677e-002
4.204057e+002, 5.620591e-002
4.223342e+002, 4.660607e-002
4.242627e+002, 4.224958e-002
4.261911e+002, 4.163451e-002
4.281196e+002, 4.249291e-002
4.300481e+002, 4.383636e-002
4.319765e+002, 4.605607e-002
4.339050e+002, 4.732389e-002
4.358335e+002, 4.928548e-002
4.377619e+002, 5.328577e-002
4.396904e+002, 5.663703e-002
4.416189e+002, 5.909311e-002
4.435473e+002, 6.256885e-002
4.454758e+002, 6.627871e-002
4.474043e+002, 6.937712e-002
4.493327e+002, 7.260993e-002
4.512612e+002, 7.730133e-002
4.531897e+002, 8.281221e-002
4.551181e+002, 8.799555e-002
4.570466e+002, 9.309581e-002
4.589751e+002, 9.946423e-002
4.609035e+002, 1.060131e-001
4.628320e+002, 1.138662e-001
4.647605e+002, 1.222003e-001
4.666889e+002, 1.315223e-001
4.686174e+002, 1.388287e-001
4.705459e+002, 1.378774e-001
4.724743e+002, 1.223100e-001
4.744028e+002, 9.739726e-002
4.763313e+002, 7.548603e-002
4.782597e+002, 6.253754e-002
4.801882e+002, 5.747286e-002
4.821167e+002, 5.658999e-002
4.840451e+002, 5.727070e-002
4.859736e+002, 5.920986e-002
4.879021e+002, 6.230761e-002
4.898305e+002, 6.614171e-002
4.917590e+002, 6.960604e-002
4.936875e+002, 7.290713e-002
4.956159e+002, 7.680462e-002
4.975444e+002, 8.181668e-002
4.994729e+002, 8.682799e-002
5.014013e+002, 9.202575e-002
5.033298e+002, 9.792494e-002
5.052583e+002, 1.050499e-001
5.071867e+002, 1.129587e-001
5.091152e+002, 1.209499e-001
5.110437e+002, 1.287311e-001
5.129721e+002, 1.326077e-001
5.149006e+002, 1.286219e-001
5.168290e+002, 1.170252e-001
5.187575e+002, 1.039669e-001
5.206860e+002, 9.631284e-002
5.226144e+002, 9.476198e-002
5.245429e+002, 9.494732e-002
5.264714e+002, 9.339534e-002
5.283998e+002, 9.241668e-002
5.303283e+002, 9.505458e-002
5.322568e+002, 1.010524e-001
5.341852e+002, 1.093204e-001
5.361137e+002, 1.181239e-001
5.380422e+002, 1.254276e-001
5.399706e+002, 1.302929e-001
5.418991e+002, 1.309356e-001
5.438276e+002, 1.278599e-001
5.457560e+002, 1.220580e-001
5.476845e+002, 1.138489e-001
5.496130e+002, 1.037176e-001
5.515414e+002, 9.392159e-002
5.534699e+002, 8.572865e-002
5.553984e+002, 7.890713e-002
5.573268e+002, 7.488411e-002
5.592553e+002, 7.375457e-002
5.611838e+002, 7.476330e-002
5.631122e+002, 7.715030e-002
5.650407e+002, 8.032682e-002
5.669692e+002, 8.321201e-002
5.688976e+002, 8.562933e-002
5.708261e+002, 8.907983e-002
5.727546e+002, 9.391893e-002
5.746830e+002, 1.000504e-001
5.766115e+002, 1.070145e-001
5.785400e+002, 1.153215e-001
5.804684e+002, 1.235767e-001
5.823969e+002, 1.310168e-001
5.843254e+002, 1.366402e-001
5.862538e+002, 1.373368e-001
5.881823e+002, 1.308463e-001
5.901108e+002, 1.198065e-001
5.920392e+002, 1.103223e-001
5.939677e+002, 1.084324e-001
5.958962e+002, 1.154499e-001
5.978246e+002, 1.267009e-001
5.997531e+002, 1.363997e-001
6.016816e+002, 1.406736e-001
6.036100e+002, 1.400849e-001
6.055385e+002, 1.395139e-001
6.074670e+002, 1.392266e-001
6.093954e+002, 1.364354e-001
6.113239e+002, 1.303170e-001
6.132524e+002, 1.226045e-001
6.151808e+002, 1.152548e-001
6.171093e+002, 1.080823e-001
6.190378e+002, 9.987658e-002
6.209662e+002, 9.049619e-002
6.228947e+002, 8.334441e-002
6.248232e+002, 8.022552e-002
6.267516e+002, 8.095951e-002
6.286801e+002, 8.439913e-002
6.306086e+002, 8.934112e-002
6.325370e+002, 9.478775e-002
6.344655e+002, 1.006316e-001
6.363940e+002, 1.065173e-001
6.383224e+002, 1.116225e-001
6.402509e+002, 1.159392e-001
6.421794e+002, 1.194631e-001
6.441078e+002, 1.221061e-001
6.460363e+002, 1.238922e-001
6.479648e+002, 1.250526e-001
6.498932e+002, 1.254860e-001
6.518217e+002, 1.250277e-001
6.537502e+002, 1.240380e-001
6.556786e+002, 1.227526e-001
6.576071e+002, 1.209982e-001
6.595356e+002, 1.185466e-001
6.614641e+002, 1.157666e-001
6.633925e+002, 1.127329e-001
6.653210e+002, 1.097099e-001
6.672495e+002, 1.066250e-001
6.691779e+002, 1.030700e-001
6.711064e+002, 9.920147e-002
6.730349e+002, 9.554930e-002
6.749633e+002, 9.186081e-002
6.768918e+002, 8.822984e-002
6.788203e+002, 8.508678e-002
6.807487e+002, 8.232452e-002
6.826772e+002, 7.968605e-002
6.846057e+002, 7.752532e-002
6.865341e+002, 7.596325e-002
6.884626e+002, 7.473142e-002
6.903911e+002, 7.404562e-002
6.923195e+002, 7.367607e-002
6.942480e+002, 7.345561e-002
6.961765e+002, 7.322891e-002
6.981049e+002, 7.263329e-002
7.000334e+002, 7.198903e-002
7.019619e+002, 7.136206e-002
7.038903e+002, 7.114101e-002
7.058188e+002, 7.147294e-002
7.077473e+002, 7.238974e-002
7.096757e+002, 7.403840e-002
7.116042e+002, 7.636651e-002
7.135327e+002, 7.940651e-002
7.154611e+002, 8.262567e-002
7.173896e+002, 8.588154e-002
7.193181e+002, 8.947593e-002
7.212465e+002, 9.348548e-002
7.231750e+002, 9.788781e-002
7.251035e+002, 1.025348e-001
7.270319e+002, 1.075077e-001
7.289604e+002, 1.127120e-001
7.308889e+002, 1.180285e-001
7.328173e+002, 1.235034e-001
7.347458e+002, 1.289134e-001
7.366743e+002, 1.340940e-001
7.386027e+002, 1.383574e-001
7.405312e+002, 1.413945e-001
7.424597e+002, 1.436276e-001
7.443881e+002, 1.442599e-001
7.463166e+002, 1.427992e-001
7.482451e+002, 1.393030e-001
7.501735e+002, 1.339346e-001
7.521020e+002, 1.271997e-001
7.540305e+002, 1.191560e-001
7.559589e+002, 1.106407e-001
7.578874e+002, 1.019565e-001
7.598159e+002, 9.313185e-002
7.617443e+002, 8.454889e-002
7.636728e+002, 7.649485e-002
7.656013e+002, 6.929778e-002
7.675297e+002, 6.319149e-002
7.694582e+002, 5.805558e-002
7.713867e+002, 5.395554e-002
7.733151e+002, 5.115581e-002
7.752436e+002, 5.003805e-002
7.771721e+002, 5.013064e-002
7.791005e+002, 5.108519e-002
7.810290e+002, 5.294907e-002
7.829575e+002, 5.531994e-002
7.848859e+002, 5.754819e-002
7.868144e+002, 5.978028e-002
7.887429e+002, 6.269928e-002
7.906713e+002, 6.652599e-002
7.925998e+002, 7.105264e-002
7.945283e+002, 7.538340e-002
7.964567e+002, 7.851487e-002
7.983852e+002, 7.922383e-002
8.003137e+002, 7.703473e-002
8.022421e+002, 7.232838e-002
8.041706e+002, 6.585022e-002
8.060991e+002, 5.858991e-002
8.080275e+002, 5.141582e-002
8.099560e+002, 4.498101e-002
8.118845e+002, 3.957462e-002
8.138129e+002, 3.537244e-002
8.157414e+002, 3.236213e-002
8.176699e+002, 3.040909e-002
8.195983e+002, 2.916056e-002
8.215268e+002, 2.845342e-002
8.234553e+002, 2.801830e-002
8.253837e+002, 2.762732e-002
8.273122e+002, 2.748093e-002
8.292407e+002, 2.740099e-002
8.311691e+002, 2.760032e-002
8.330976e+002, 2.810375e-002
8.350261e+002, 2.872197e-002
8.369545e+002, 2.928060e-002
8.388830e+002, 2.999661e-002
8.408115e+002, 3.107314e-002
8.427399e+002, 3.221500e-002
8.446684e+002, 3.343377e-002
8.465969e+002, 3.474122e-002
8.485253e+002, 3.599044e-002
8.504538e+002, 3.745631e-002
8.523823e+002, 3.900439e-002
8.543107e+002, 4.055597e-002
8.562392e+002, 4.252815e-002
8.581677e+002, 4.467092e-002
8.600961e+002, 4.647446e-002
8.620246e+002, 4.833237e-002
8.639531e+002, 5.047661e-002
8.658815e+002, 5.285618e-002
8.678100e+002, 5.531954e-002
8.697385e+002, 5.805020e-002
8.716669e+002, 6.110232e-002
8.735954e+002, 6.427007e-002
8.755239e+002, 6.745302e-002
8.774523e+002, 7.079951e-002
8.793808e+002, 7.428839e-002
8.813093e+002, 7.779370e-002
8.832377e+002, 8.148767e-002
8.851662e+002, 8.544731e-002
8.870947e+002, 8.955704e-002
8.890231e+002, 9.346220e-002
8.909516e+002, 9.712686e-002
8.928801e+002, 1.000425e-001
8.948085e+002, 1.014983e-001
8.967370e+002, 1.018532e-001
8.986655e+002, 1.015728e-001
9.005939e+002, 1.012697e-001
9.025224e+002, 1.018561e-001
9.044509e+002, 1.035557e-001
9.063793e+002, 1.061656e-001
9.083078e+002, 1.097844e-001
9.102363e+002, 1.141372e-001
9.121647e+002, 1.190059e-001
9.140932e+002, 1.237872e-001
9.160217e+002, 1.277967e-001
9.179501e+002, 1.304137e-001
9.198786e+002, 1.308860e-001
9.218071e+002, 1.289163e-001
9.237355e+002, 1.246164e-001
9.256640e+002, 1.182245e-001
9.275925e+002, 1.103528e-001
9.295209e+002, 1.022290e-001
9.314494e+002, 9.501267e-002
9.333779e+002, 8.984309e-002
9.353063e+002, 8.717285e-002
9.372348e+002, 8.692113e-002
9.391633e+002, 8.853426e-002
9.410917e+002, 9.145220e-002
9.430202e+002, 9.572408e-002
9.449487e+002, 1.011981e-001
9.468771e+002, 1.073080e-001
9.488056e+002, 1.137856e-001
9.507341e+002, 1.210321e-001
9.526625e+002, 1.287590e-001
9.545910e+002, 1.365241e-001
9.565195e+002, 1.441726e-001
9.584479e+002, 1.517685e-001
9.603764e+002, 1.592115e-001
9.623049e+002, 1.664309e-001
9.642333e+002, 1.736299e-001
9.661618e+002, 1.804660e-001
9.680903e+002, 1.873659e-001
9.700187e+002, 1.945798e-001
9.719472e+002, 2.015744e-001
9.738757e+002, 2.082549e-001
9.758041e+002, 2.145758e-001
9.777326e+002, 2.200556e-001
9.796611e+002, 2.246246e-001
9.815895e+002, 2.283490e-001
9.835180e+002, 2.303960e-001
9.854465e+002, 2.300279e-001
9.873749e+002, 2.268140e-001
9.893034e+002, 2.204497e-001
9.912319e+002, 2.120610e-001
9.931603e+002, 2.038595e-001
9.950888e+002, 1.973692e-001
9.970173e+002, 1.921029e-001
9.989457e+002, 1.867419e-001
1.000874e+003, 1.805507e-001
1.002803e+003, 1.736068e-001
1.004731e+003, 1.663910e-001
1.006660e+003, 1.594281e-001
1.008588e+003, 1.530984e-001
1.010517e+003, 1.478583e-001
1.012445e+003, 1.444281e-001
1.014373e+003, 1.438101e-001
1.016302e+003, 1.465019e-001
1.018230e+003, 1.526576e-001
1.020159e+003, 1.616518e-001
1.022087e+003, 1.727725e-001
1.024016e+003, 1.848118e-001
1.025944e+003, 1.963980e-001
1.027873e+003, 2.061371e-001
1.029801e+003, 2.125987e-001
1.031730e+003, 2.152563e-001
1.033658e+003, 2.149449e-001
1.035587e+003, 2.142413e-001
1.037515e+003, 2.159317e-001
1.039443e+003, 2.213778e-001
1.041372e+003, 2.279250e-001
1.043300e+003, 2.320462e-001
1.045229e+003, 2.326907e-001
1.047157e+003, 2.307278e-001
1.049086e+003, 2.266459e-001
1.051014e+003, 2.211990e-001
1.052943e+003, 2.152900e-001
1.054871e+003, 2.093639e-001
1.056800e+003, 2.029605e-001
1.058728e+003, 1.960064e-001
1.060657e+003, 1.886913e-001
1.062585e+003, 1.815098e-001
1.064514e+003, 1.750031e-001
1.066442e+003, 1.704843e-001
1.068370e+003, 1.688064e-001
1.070299e+003, 1.698480e-001
1.072227e+003, 1.723993e-001
1.074156e+003, 1.744303e-001
1.076084e+003, 1.740241e-001
1.078013e+003, 1.703317e-001
1.079941e+003, 1.644603e-001
1.081870e+003, 1.579223e-001
1.083798e+003, 1.512323e-001
1.085727e+003, 1.447351e-001
1.087655e+003, 1.384901e-001
1.089584e+003, 1.323909e-001
1.091512e+003, 1.262522e-001
1.093441e+003, 1.201263e-001
1.095369e+003, 1.140413e-001
1.097297e+003, 1.080093e-001
1.099226e+003, 1.021705e-001
1.101154e+003, 9.642479e-002
1.103083e+003, 9.046455e-002
1.105011e+003, 8.455526e-002
1.106940e+003, 7.888750e-002
1.108868e+003, 7.320692e-002
1.110797e+003, 6.769835e-002
1.112725e+003, 6.286891e-002
1.114654e+003, 5.898254e-002
1.116582e+003, 5.618815e-002
1.118511e+003, 5.455514e-002
1.120439e+003, 5.395013e-002
1.122368e+003, 5.440765e-002
1.124296e+003, 5.610289e-002
1.126224e+003, 5.897499e-002
1.128153e+003, 6.244431e-002
1.130081e+003, 6.548434e-002
1.132010e+003, 6.668042e-002
1.133938e+003, 6.569619e-002
1.135867e+003, 6.346539e-002
1.137795e+003, 6.075867e-002
1.139724e+003, 5.772742e-002
1.141652e+003, 5.474245e-002
1.143581e+003, 5.188293e-002
1.145509e+003, 4.905636e-002
1.147438e+003, 4.617314e-002
1.149366e+003, 4.335888e-002
1.151295e+003, 4.068090e-002
1.153223e+003, 3.801038e-002
1.155151e+003, 3.551270e-002
1.157080e+003, 3.320564e-002
1.159008e+003, 3.122624e-002
1.160937e+003, 2.957235e-002
1.162865e+003, 2.825487e-002
1.164794e+003, 2.735735e-002
1.166722e+003, 2.682135e-002
1.168651e+003, 2.698049e-002
1.170579e+003, 2.780395e-002
1.172508e+003, 2.868546e-002
1.174436e+003, 2.873548e-002
1.176365e+003, 2.750040e-002
1.178293e+003, 2.511599e-002
1.180222e+003, 2.219976e-002
1.182150e+003, 1.918481e-002
1.184078e+003, 1.643008e-002
1.186007e+003, 1.415360e-002
1.187935e+003, 1.229000e-002
1.189864e+003, 1.088179e-002
1.191792e+003, 9.790536e-003
1.193721e+003, 8.993519e-003
1.195649e+003, 8.349676e-003
1.197578e+003, 7.681224e-003
1.199506e+003, 7.096354e-003
1.201435e+003, 6.649644e-003
1.203363e+003, 6.241320e-003
1.205292e+003, 5.835105e-003
1.207220e+003, 5.439528e-003
1.209149e+003, 5.036454e-003
1.211077e+003, 4.755389e-003
1.213005e+003, 4.488194e-003
1.214934e+003, 4.141395e-003
1.216862e+003, 3.824000e-003
1.218791e+003, 3.630630e-003
1.220719e+003, 3.381956e-003
1.222648e+003, 3.221639e-003
1.224576e+003, 3.065548e-003
1.226505e+003, 2.884852e-003
1.228433e+003, 2.629028e-003
1.230362e+003, 2.351709e-003
1.232290e+003, 2.301596e-003
1.234219e+003, 2.226186e-003
1.236147e+003, 1.943827e-003
1.238076e+003, 1.828108e-003
1.240004e+003, 1.773949e-003
1.241932e+003, 1.700668e-003
1.243861e+003, 1.662345e-003
1.245789e+003, 1.460183e-003
1.247718e+003, 1.329695e-003
1.249646e+003, 1.376787e-003
1.251575e+003, 1.242492e-003
1.253503e+003, 1.005904e-003
1.255432e+003, 1.090726e-003
1.257360e+003, 1.185461e-003
1.259289e+003, 1.074103e-003
1.261217e+003, 9.621350e-004
1.263146e+003, 9.591237e-004
1.265074e+003, 8.817484e-004
1.267003e+003, 7.426011e-004
1.268931e+003, 7.004641e-004
1.270859e+003, 7.741380e-004
1.272788e+003, 8.075027e-004
1.274716e+003, 7.938907e-004
1.276645e+003, 7.406739e-004
1.278573e+003, 6.263048e-004
1.280502e+003, 5.840195e-004
1.282430e+003, 6.320836e-004
1.284359e+003, 7.774438e-004
1.286287e+003, 8.316739e-004
1.288216e+003, 7.025285e-004
1.290144e+003, 5.994297e-004
1.292073e+003, 6.465774e-004
1.294001e+003, 6.966193e-004
1.295930e+003, 5.465328e-004
1.297858e+003, 4.939470e-004
1.299786e+003, 4.855582e-004
1.301715e+003, 2.343464e-004
1.303643e+003, -1.360044e-004
1.305572e+003, -1.477841e-004
1.307500e+003, 2.834962e-004
1.309429e+003, 4.768567e-004
1.311357e+003, 6.003040e-004
1.313286e+003, 7.173427e-004
1.315214e+003, 5.845256e-004
1.317143e+003, 4.979505e-004
1.319071e+003, 3.429051e-004
1.321000e+003, 3.040557e-004
1.322928e+003, 4.634720e-004
1.324857e+003, 3.966004e-004
1.326785e+003, 2.309787e-004
1.328714e+003, 1.558576e-004
1.330642e+003, 1.233836e-004
1.332570e+003, 1.389470e-004
1.334499e+003, 2.872081e-004
1.336427e+003, 3.318592e-004
1.338356e+003, 3.979361e-004
1.340284e+003, 3.175281e-004
1.342213e+003, 1.030465e-004
1.344141e+003, 2.430941e-004
1.346070e+003, 2.595735e-004
1.347998e+003, 2.199798e-004
1.349927e+003, 2.649744e-004
1.351855e+003, 2.636702e-004
1.353784e+003, 2.336471e-004
1.355712e+003, 3.143520e-004
1.357641e+003, 3.150048e-004
1.359569e+003, 1.697844e-004
1.361497e+003, 1.180270e-004
1.363426e+003, 4.444175e-005
1.365354e+003, 4.570329e-005
1.367283e+003, 1.041512e-004
1.369211e+003, 1.176657e-004
1.371140e+003, 1.272608e-004
1.373068e+003, 1.104502e-004
1.374997e+003, 2.321704e-004
1.376925e+003, 2.710913e-004
1.378854e+003, 3.307336e-004
1.380782e+003, 3.198237e-004
1.382711e+003, 2.998574e-004
1.384639e+003, 3.593775e-004
1.386568e+003, 5.005880e-004
1.388496e+003, 5.432621e-004
1.390424e+003, 5.987327e-004
1.392353e+003, 7.223492e-004
1.394281e+003, 8.793625e-004
1.396210e+003, 1.050935e-003
1.398138e+003, 1.075293e-003
1.400067e+003, 1.132902e-003
1.401995e+003, 1.202540e-003
1.403924e+003, 1.330124e-003
1.405852e+003, 1.511129e-003
1.407781e+003, 1.561681e-003
1.409709e+003, 1.686836e-003
1.411638e+003, 1.830736e-003
1.413566e+003, 1.872405e-003
1.415495e+003, 1.914842e-003
1.417423e+003, 2.105951e-003
1.419351e+003, 2.150003e-003
1.421280e+003, 2.168603e-003
1.423208e+003, 2.164391e-003
1.425137e+003, 2.258484e-003
1.427065e+003, 2.254646e-003
1.428994e+003, 2.219194e-003
1.430922e+003, 2.156090e-003
1.432851e+003, 2.166801e-003
1.434779e+003, 2.211022e-003
1.436708e+003, 2.203859e-003
1.438636e+003, 2.243591e-003
1.440565e+003, 2.397261e-003
1.442493e+003, 2.416871e-003
1.444422e+003, 2.423070e-003
1.446350e+003, 2.484222e-003
1.448278e+003, 2.584659e-003
1.450207e+003, 2.709926e-003
1.452135e+003, 2.771561e-003
1.454064e+003, 2.782978e-003
1.455992e+003, 2.724210e-003
1.457921e+003, 2.838721e-003
1.459849e+003, 2.873665e-003
1.461778e+003, 2.841747e-003
1.463706e+003, 2.853574e-003
1.465635e+003, 2.915136e-003
1.467563e+003, 3.100708e-003
1.469492e+003, 3.297137e-003
1.471420e+003, 3.393348e-003
1.473349e+003, 3.381299e-003
1.475277e+003, 3.341503e-003
1.477205e+003, 3.387140e-003
1.479134e+003, 3.385993e-003
1.481062e+003, 3.304674e-003
1.482991e+003, 3.387410e-003
1.484919e+003, 3.296459e-003
1.486848e+003, 3.121318e-003
1.488776e+003, 3.066880e-003
1.490705e+003, 3.072832e-003
1.492633e+003, 3.064286e-003
1.494562e+003, 2.925168e-003
1.496490e+003, 2.838102e-003
1.498419e+003, 2.847141e-003
1.500347e+003, 2.802227e-003
1.502276e+003, 2.630840e-003
1.504204e+003, 2.421983e-003
1.506132e+003, 2.309597e-003
1.508061e+003, 2.508236e-003
1.509989e+003, 2.507427e-003
1.511918e+003, 2.304340e-003
1.513846e+003, 2.228764e-003
1.515775e+003, 2.220772e-003
1.517703e+003, 2.244137e-003
1.519632e+003, 2.115699e-003
1.521560e+003, 1.944926e-003
1.523489e+003, 1.956052e-003
1.525417e+003, 2.125024e-003
1.527346e+003, 2.228548e-003
1.529274e+003, 2.254855e-003
1.531203e+003, 2.298023e-003
1.533131e+003, 2.189045e-003
1.535059e+003, 2.140615e-003
1.536988e+003, 2.220255e-003
1.538916e+003, 2.091223e-003
1.540845e+003, 2.004643e-003
1.542773e+003, 1.980335e-003
1.544702e+003, 2.053104e-003
1.546630e+003, 2.101568e-003
1.548559e+003, 2.122922e-003
1.550487e+003, 2.301537e-003
1.552416e+003, 2.234063e-003
1.554344e+003, 2.050338e-003
1.556273e+003, 2.072079e-003
1.558201e+003, 2.084184e-003
1.560130e+003, 2.134105e-003
1.562058e+003, 2.362015e-003
1.563986e+003, 2.573859e-003
1.565915e+003, 2.605011e-003
1.567843e+003, 2.456862e-003
1.569772e+003, 2.535014e-003
1.571700e+003, 2.625487e-003
1.573629e+003, 2.501430e-003
1.575557e+003, 2.577862e-003
1.577486e+003, 2.800575e-003
1.579414e+003, 2.854929e-003
1.581343e+003, 2.815232e-003
1.583271e+003, 2.979932e-003
1.585200e+003, 3.042605e-003
1.587128e+003, 2.976019e-003
1.589057e+003, 2.980907e-003
1.590985e+003, 3.032611e-003
1.592913e+003, 3.175361e-003
1.594842e+003, 3.374813e-003
1.596770e+003, 3.456054e-003
1.598699e+003, 3.388272e-003
1.600627e+003, 3.266772e-003
1.602556e+003, 3.138689e-003
1.604484e+003, 3.255382e-003
1.606413e+003, 3.371776e-003
1.608341e+003, 3.263505e-003
1.610270e+003, 3.145603e-003
1.612198e+003, 3.321811e-003
1.614127e+003, 3.385450e-003
1.616055e+003, 3.249570e-003
1.617984e+003, 3.323752e-003
1.619912e+003, 3.392823e-003
1.621840e+003, 3.321558e-003
1.623769e+003, 3.283524e-003
1.625697e+003, 3.386589e-003
1.627626e+003, 3.442691e-003
1.629554e+003, 3.457422e-003
1.631483e+003, 3.413839e-003
1.633411e+003, 3.426920e-003
1.635340e+003, 3.490715e-003
1.637268e+003, 3.513822e-003
1.639197e+003, 3.502369e-003
1.641125e+003, 3.567485e-003
1.643054e+003, 3.732234e-003
1.644982e+003, 3.816357e-003
1.646911e+003, 3.778062e-003
1.648839e+003, 3.614468e-003
1.650767e+003, 3.500974e-003
1.652696e+003, 3.410114e-003
1.654624e+003, 3.507974e-003
1.656553e+003, 3.669626e-003
1.658481e+003, 3.712141e-003
1.660410e+003, 3.779246e-003
1.662338e+003, 3.820091e-003
1.664267e+003, 3.843282e-003
1.666195e+003, 3.849644e-003
1.668124e+003, 3.769714e-003
1.670052e+003, 3.721422e-003
1.671981e+003, 3.714549e-003
1.673909e+003, 3.583851e-003
1.675838e+003, 3.510555e-003
1.677766e+003, 3.483785e-003
1.679694e+003, 3.434914e-003
1.681623e+003, 3.509468e-003
1.683551e+003, 3.476021e-003
1.685480e+003, 3.539115e-003
1.687408e+003, 3.516616e-003
1.689337e+003, 3.340817e-003
1.691265e+003, 3.203992e-003
1.693194e+003, 3.050988e-003
1.695122e+003, 3.105748e-003
1.697051e+003, 3.187517e-003
1.698979e+003, 2.862871e-003
1.700908e+003, 2.710861e-003
1.702836e+003, 2.833910e-003
1.704765e+003, 2.817244e-003
1.706693e+003, 2.934733e-003
1.708621e+003, 2.958415e-003
1.710550e+003, 2.773855e-003
1.712478e+003, 2.682645e-003
1.714407e+003, 2.609362e-003
1.716335e+003, 2.335140e-003
1.718264e+003, 2.367205e-003
1.720192e+003, 2.451944e-003
1.722121e+003, 2.293521e-003
1.724049e+003, 2.311990e-003
1.725978e+003, 2.333019e-003
1.727906e+003, 2.259794e-003
1.729835e+003, 2.253378e-003
1.731763e+003, 2.311516e-003
1.733692e+003, 2.156373e-003
1.735620e+003, 2.330445e-003
1.737548e+003, 2.512677e-003
1.739477e+003, 2.348047e-003
1.741405e+003, 2.318328e-003
1.743334e+003, 2.383504e-003
1.745262e+003, 2.445518e-003
1.747191e+003, 2.612455e-003
1.749119e+003, 2.855694e-003
1.751048e+003, 3.229935e-003
1.752976e+003, 3.835083e-003
1.754905e+003, 4.152579e-003
1.756833e+003, 4.239002e-003
1.758762e+003, 4.339152e-003
1.760690e+003, 4.560174e-003
1.762619e+003, 4.670718e-003
1.764547e+003, 4.735158e-003
1.766475e+003, 4.818405e-003
1.768404e+003, 4.636514e-003
1.770332e+003, 4.524238e-003
1.772261e+003, 4.529496e-003
1.774189e+003, 4.301396e-003
1.776118e+003, 4.246033e-003
1.778046e+003, 4.273308e-003
1.779975e+003, 4.159378e-003
1.781903e+003, 4.081712e-003
1.783832e+003, 4.033880e-003
1.785760e+003, 3.979753e-003
1.787689e+003, 3.776856e-003
1.789617e+003, 3.705594e-003
1.791546e+003, 3.839839e-003
1.793474e+003, 3.732881e-003
1.795402e+003, 3.688218e-003
1.797331e+003, 3.757978e-003
1.799259e+003, 3.832199e-003
1.801188e+003, 3.712859e-003
1.803116e+003, 3.420629e-003
1.805045e+003, 3.432315e-003
1.806973e+003, 3.276079e-003
1.808902e+003, 3.026572e-003
1.810830e+003, 3.196153e-003
1.812759e+003, 3.197425e-003
1.814687e+003, 2.918305e-003
1.816616e+003, 2.747894e-003
1.818544e+003, 2.804788e-003
1.820473e+003, 3.131118e-003
1.822401e+003, 3.318061e-003
1.824329e+003, 2.859754e-003
1.826258e+003, 2.760920e-003
1.828186e+003, 2.785872e-003
1.830115e+003, 2.660951e-003
1.832043e+003, 2.806695e-003
1.833972e+003, 2.850906e-003
1.835900e+003, 2.697066e-003
1.837829e+003, 2.574268e-003
1.839757e+003, 2.569122e-003
1.841686e+003, 2.606069e-003
1.843614e+003, 2.286974e-003
1.845543e+003, 2.415932e-003
1.847471e+003, 2.563352e-003
1.849400e+003, 2.215869e-003
1.851328e+003, 2.237415e-003
1.853256e+003, 2.658865e-003
1.855185e+003, 2.879956e-003
1.857113e+003, 2.931533e-003
1.859042e+003, 2.927450e-003
1.860970e+003, 2.747867e-003
1.862899e+003, 3.041102e-003
1.864827e+003, 3.365630e-003
1.866756e+003, 2.971996e-003
1.868684e+003, 2.621828e-003
1.870613e+003, 2.851012e-003
1.872541e+003, 3.237562e-003
1.874470e+003, 3.079145e-003
1.876398e+003, 3.059561e-003
1.878327e+003, 2.794621e-003
1.880255e+003, 2.517457e-003
1.882183e+003, 2.767838e-003
1.884112e+003, 2.947223e-003
1.886040e+003, 2.902946e-003
1.887969e+003, 3.180353e-003
1.889897e+003, 3.028467e-003
1.891826e+003, 3.076795e-003
1.893754e+003, 3.364828e-003
1.895683e+003, 3.181304e-003
1.897611e+003, 3.208001e-003
1.899540e+003, 2.872598e-003
1.901468e+003, 2.303892e-003
1.903397e+003, 2.445569e-003
1.905325e+003, 3.092304e-003
1.907254e+003, 3.462230e-003
1.909182e+003, 2.921301e-003
1.911110e+003, 2.653338e-003
1.913039e+003, 2.783014e-003
1.914967e+003, 2.543989e-003
1.916896e+003, 2.373405e-003
1.918824e+003, 2.486454e-003
1.920753e+003, 2.200807e-003
1.922681e+003, 1.943940e-003
1.924610e+003, 1.596766e-003
1.926538e+003, 1.413111e-003
1.928467e+003, 1.567626e-003
1.930395e+003, 1.838689e-003
1.932324e+003, 2.115259e-003
1.934252e+003, 2.073838e-003
1.936181e+003, 1.708876e-003
1.938109e+003, 2.150540e-003
1.940037e+003, 2.558433e-003
1.941966e+003, 2.408135e-003
1.943894e+003, 1.757560e-003
1.945823e+003, 1.565457e-003
1.947751e+003, 2.349899e-003
1.949680e+003, 2.742909e-003
1.951608e+003, 1.959861e-003
1.953537e+003, 1.312169e-003
1.955465e+003, 1.724572e-003
1.957394e+003, 2.563859e-003
1.959322e+003, 2.297804e-003
1.961251e+003, 2.391348e-003
1.963179e+003, 2.489293e-003
1.965108e+003, 1.811416e-003
1.967036e+003, 2.286725e-003
1.968964e+003, 2.539253e-003
1.970893e+003, 2.656039e-003
1.972821e+003, 2.839193e-003
1.974750e+003, 2.097833e-003
1.976678e+003, 2.204352e-003
1.978607e+003, 3.511360e-003
1.980535e+003, 3.208373e-003
1.982464e+003, 3.157023e-003
1.984392e+003, 4.192067e-003
1.986321e+003, 4.861472e-003
1.988249e+003, 4.716674e-003
1.990178e+003, 4.229768e-003
1.992106e+003, 4.255856e-003
1.994035e+003, 3.302827e-003
1.995963e+003, 1.742647e-003
1.997891e+003, 1.739499e-003
1.999820e+003, 3.152199e-003
2.001748e+003, 2.619767e-003
2.003677e+003, 1.140958e-003
2.005605e+003, 2.079960e-003
2.007534e+003, 3.602793e-003
2.009462e+003, 3.491068e-003
2.011391e+003, 3.407600e-003
2.013319e+003, 3.945034e-003
2.015248e+003, 3.741532e-003
2.017176e+003, 3.276379e-003
2.019105e+003, 2.987253e-003
2.021033e+003, 2.752348e-003
2.022962e+003, 2.970686e-003
2.024890e+003, 3.920455e-003
2.026818e+003, 5.385412e-003
2.028747e+003, 6.122480e-003
2.030675e+003, 6.413909e-003
2.032604e+003, 6.247662e-003
2.034532e+003, 6.192008e-003
2.036461e+003, 5.550437e-003
2.038389e+003, 5.033669e-003
2.040318e+003, 4.854969e-003
2.042246e+003, 4.706234e-003
2.044175e+003, 5.099738e-003
2.046103e+003, 5.238945e-003
2.048031e+003, 4.291113e-003
2.049960e+003, 4.207163e-003
2.051888e+003, 3.281792e-003
2.053817e+003, 2.581233e-003
2.055745e+003, 2.910545e-003
2.057674e+003, 3.475568e-003
2.059602e+003, 3.716373e-003
2.061531e+003, 3.619160e-003
2.063459e+003, 3.028607e-003
2.065388e+003, 2.573019e-003
2.067316e+003, 2.709961e-003
2.069245e+003, 3.088599e-003
2.071173e+003, 3.113973e-003
2.073102e+003, 3.345797e-003
2.075030e+003, 3.798965e-003
2.076958e+003, 3.909442e-003
2.078887e+003, 3.424081e-003
2.080815e+003, 3.437778e-003
2.082744e+003, 3.721924e-003
2.084672e+003, 3.830983e-003
2.086601e+003, 3.364894e-003
2.088529e+003, 2.726166e-003
2.090458e+003, 2.762793e-003
2.092386e+003, 3.147834e-003
2.094315e+003, 3.266124e-003
2.096243e+003, 2.917544e-003
2.098172e+003, 2.605491e-003
2.100100e+003, 3.190445e-003
2.102029e+003, 3.536470e-003
2.103957e+003, 3.682034e-003
2.105885e+003, 3.716591e-003
2.107814e+003, 2.812869e-003
2.109742e+003, 2.445642e-003
2.111671e+003, 3.257020e-003
2.113599e+003, 3.800238e-003
2.115528e+003, 3.700093e-003
2.117456e+003, 3.002744e-003
2.119385e+003, 1.874274e-003
2.121313e+003, 1.791061e-003
2.123242e+003, 2.659958e-003
2.125170e+003, 2.881963e-003
2.127099e+003, 2.515911e-003
2.129027e+003, 1.716651e-003
2.130956e+003, 1.159502e-003
2.132884e+003, 1.420982e-003
2.134813e+003, 2.398931e-003
2.136741e+003, 3.304892e-003
2.138669e+003, 3.060221e-003
2.140598e+003, 2.688706e-003
2.142526e+003, 2.753035e-003
2.144455e+003, 2.553086e-003
2.146383e+003, 2.015828e-003
2.148312e+003, 8.996141e-004
2.150240e+003, 9.042576e-004
2.152169e+003, 1.848483e-003
2.154097e+003, 2.946964e-003
2.156026e+003, 2.579068e-003
2.157954e+003, 2.909837e-003
2.159883e+003, 4.824135e-003
2.161811e+003, 5.379299e-003
2.163740e+003, 4.746161e-003
2.165668e+003, 5.407913e-003
2.167596e+003, 5.661343e-003
2.169525e+003, 5.638876e-003
2.171453e+003, 5.953209e-003
2.173382e+003, 5.134186e-003
2.175310e+003, 4.011177e-003
2.177239e+003, 3.527872e-003
2.179167e+003, 3.960155e-003
2.181096e+003, 5.182498e-003
2.183024e+003, 6.292296e-003
2.184953e+003, 5.881971e-003
2.186881e+003, 4.769984e-003
2.188810e+003, 5.472127e-003
2.190738e+003, 6.215949e-003
2.192667e+003, 6.914643e-003
2.194595e+003, 7.781051e-003
2.196523e+003, 7.355700e-003
2.198452e+003, 5.936211e-003
2.200380e+003, 5.021553e-003
2.202309e+003, 4.744137e-003
2.204237e+003, 4.887203e-003
2.206166e+003, 5.846309e-003
2.208094e+003, 6.332581e-003
2.210023e+003, 5.738824e-003
2.211951e+003, 5.613555e-003
2.213880e+003, 6.374517e-003
2.215808e+003, 6.817413e-003
2.217737e+003, 6.433595e-003
2.219665e+003, 5.779843e-003
2.221594e+003, 5.923522e-003
2.223522e+003, 6.180970e-003
2.225450e+003, 5.790394e-003
2.227379e+003, 5.714920e-003
2.229307e+003, 5.920135e-003
2.231236e+003, 5.559957e-003
2.233164e+003, 5.924608e-003
2.235093e+003, 6.579070e-003
2.237021e+003, 6.570572e-003
2.238950e+003, 5.896278e-003
2.240878e+003, 5.413011e-003
2.242807e+003, 5.598963e-003
2.244735e+003, 5.320772e-003
2.246664e+003, 5.555490e-003
2.248592e+003, 5.640332e-003
2.250521e+003, 5.662700e-003
2.252449e+003, 5.638383e-003
2.254377e+003, 5.572850e-003
2.256306e+003, 5.461465e-003
2.258234e+003, 5.349047e-003
2.260163e+003, 5.641368e-003
2.262091e+003, 5.117794e-003
2.264020e+003, 4.603946e-003
2.265948e+003, 4.746339e-003
2.267877e+003, 4.892115e-003
2.269805e+003, 5.114077e-003
2.271734e+003, 5.326758e-003
2.273662e+003, 6.025655e-003
2.275591e+003, 5.981748e-003
2.277519e+003, 5.488100e-003
2.279448e+003, 5.782806e-003
2.281376e+003, 6.073021e-003
2.283304e+003, 6.133879e-003
2.285233e+003, 6.516348e-003
2.287161e+003, 6.521176e-003
2.289090e+003, 6.305811e-003
2.291018e+003, 6.323518e-003
2.292947e+003, 6.344214e-003
2.294875e+003, 5.801055e-003
2.296804e+003, 5.524631e-003
2.298732e+003, 5.781755e-003
2.300661e+003, 5.924339e-003
2.302589e+003, 5.797880e-003
2.304518e+003, 5.666887e-003
2.306446e+003, 5.548818e-003
2.308375e+003, 5.517937e-003
2.310303e+003, 5.436199e-003
2.312231e+003, 5.576311e-003
2.314160e+003, 5.413654e-003
2.316088e+003, 5.412935e-003
2.318017e+003, 5.725092e-003
2.319945e+003, 6.094535e-003
2.321874e+003, 6.292502e-003
2.323802e+003, 6.472887e-003
2.325731e+003, 6.171898e-003
2.327659e+003, 5.775134e-003
2.329588e+003, 5.441044e-003
2.331516e+003, 5.187004e-003
2.333445e+003, 5.277914e-003
2.335373e+003, 5.722677e-003
2.337302e+003, 5.556148e-003
2.339230e+003, 5.198431e-003
2.341158e+003, 5.180358e-003
2.343087e+003, 5.249453e-003
2.345015e+003, 4.916261e-003
2.346944e+003, 4.591116e-003
2.348872e+003, 4.442256e-003
2.350801e+003, 4.572393e-003
2.352729e+003, 4.833978e-003
2.354658e+003, 4.803563e-003
2.356586e+003, 4.643593e-003
2.358515e+003, 4.551413e-003
2.360443e+003, 4.635149e-003
2.362372e+003, 4.895157e-003
2.364300e+003, 5.127970e-003
2.366229e+003, 4.917675e-003
2.368157e+003, 4.467073e-003
2.370085e+003, 4.133246e-003
2.372014e+003, 4.127476e-003
2.373942e+003, 4.226363e-003
2.375871e+003, 4.014404e-003
2.377799e+003, 3.723238e-003
2.379728e+003, 3.501859e-003
2.381656e+003, 3.422884e-003
2.383585e+003, 3.341382e-003
2.385513e+003, 3.593847e-003
2.387442e+003, 3.811050e-003
2.389370e+003, 3.933947e-003
2.391299e+003, 3.814787e-003
2.393227e+003, 3.641943e-003
2.395156e+003, 3.666413e-003
2.397084e+003, 3.698103e-003
2.399012e+003, 3.704811e-003
2.400941e+003, 3.787062e-003
2.402869e+003, 3.582083e-003
2.404798e+003, 3.810751e-003
2.406726e+003, 4.189825e-003
2.408655e+003, 4.389573e-003
2.410583e+003, 4.184656e-003
2.412512e+003, 3.764642e-003
2.414440e+003, 4.122974e-003
2.416369e+003, 4.493495e-003
2.418297e+003, 4.409225e-003
2.420226e+003, 4.304870e-003
2.422154e+003, 3.905098e-003
2.424083e+003, 3.943847e-003
2.426011e+003, 4.152017e-003
2.427939e+003, 4.269112e-003
2.429868e+003, 4.785716e-003
2.431796e+003, 4.981318e-003
2.433725e+003, 4.647769e-003
2.435653e+003, 4.473898e-003
2.437582e+003, 4.613750e-003
2.439510e+003, 4.992719e-003
2.441439e+003, 4.847157e-003
2.443367e+003, 4.507388e-003
2.445296e+003, 4.324662e-003
2.447224e+003, 4.147137e-003
2.449153e+003, 3.825444e-003
2.451081e+003, 4.394188e-003
2.453010e+003, 4.757647e-003
2.454938e+003, 4.614193e-003
2.456866e+003, 4.661266e-003
2.458795e+003, 4.779263e-003
2.460723e+003, 4.742344e-003
2.462652e+003, 4.335413e-003
2.464580e+003, 4.654378e-003
2.466509e+003, 4.895207e-003
2.468437e+003, 3.941982e-003
2.470366e+003, 3.576380e-003
2.472294e+003, 4.220701e-003
2.474223e+003, 4.449393e-003
2.476151e+003, 4.760144e-003
2.478080e+003, 4.985828e-003
2.480008e+003, 4.687731e-003
2.481937e+003, 4.578588e-003
2.483865e+003, 4.748150e-003
2.485793e+003, 4.765927e-003
2.487722e+003, 4.838544e-003
2.489650e+003, 5.171758e-003
2.491579e+003, 4.787161e-003
2.493507e+003, 4.579647e-003
2.495436e+003, 4.891307e-003
2.497364e+003, 4.930866e-003
2.499293e+003, 4.355048e-003
2.501221e+003, 4.141049e-003
2.503150e+003, 4.411556e-003
2.505078e+003, 4.574086e-003
2.507007e+003, 4.837261e-003
2.508935e+003, 4.855706e-003
2.510864e+003, 4.637886e-003
2.512792e+003, 4.590058e-003
2.514720e+003, 4.530959e-003
2.516649e+003, 4.761479e-003
2.518577e+003, 4.500770e-003
2.520506e+003, 4.363888e-003
2.522434e+003, 4.526360e-003
2.524363e+003, 4.652232e-003
2.526291e+003, 4.625891e-003
2.528220e+003, 4.928552e-003
2.530148e+003, 4.724534e-003
2.532077e+003, 4.883048e-003
2.534005e+003, 5.388953e-003
2.535934e+003, 5.028468e-003
2.537862e+003, 5.056574e-003
2.539791e+003, 5.349781e-003
2.541719e+003, 4.871545e-003
2.543647e+003, 4.868584e-003
2.545576e+003, 5.092510e-003
2.547504e+003, 5.086740e-003
2.549433e+003, 4.634511e-003
2.551361e+003, 4.672521e-003
2.553290e+003, 5.050886e-003
2.555218e+003, 5.000311e-003
2.557147e+003, 4.920286e-003
2.559075e+003, 5.277107e-003
2.561004e+003, 5.195358e-003
2.562932e+003, 4.888115e-003
2.564861e+003, 5.108572e-003
2.566789e+003, 5.525785e-003
2.568718e+003, 5.393989e-003
2.570646e+003, 5.487340e-003
2.572574e+003, 5.683300e-003
2.574503e+003, 5.270906e-003
2.576431e+003, 5.046346e-003
2.578360e+003, 5.294163e-003
2.580288e+003, 5.461802e-003
2.582217e+003, 5.127837e-003
2.584145e+003, 4.862770e-003
2.586074e+003, 5.275195e-003
2.588002e+003, 5.304155e-003
2.589931e+003, 5.600122e-003
2.591859e+003, 5.695734e-003
2.593788e+003, 5.663381e-003
2.595716e+003, 5.486303e-003
2.597645e+003, 5.188178e-003
2.599573e+003, 5.221059e-003
2.601501e+003, 5.144954e-003
2.603430e+003, 4.797833e-003
2.605358e+003, 5.313538e-003
2.607287e+003, 5.756680e-003
2.609215e+003, 5.932778e-003
2.611144e+003, 6.011915e-003
2.613072e+003, 5.900120e-003
2.615001e+003, 5.779970e-003
2.616929e+003, 5.875350e-003
2.618858e+003, 5.966073e-003
2.620786e+003, 5.585000e-003
2.622715e+003, 5.601815e-003
2.624643e+003, 5.644596e-003
2.626572e+003, 5.551449e-003
2.628500e+003, 5.812017e-003
2.630428e+003, 5.822623e-003
2.632357e+003, 5.632689e-003
2.634285e+003, 5.438110e-003
2.636214e+003, 5.255305e-003
2.638142e+003, 5.690343e-003
2.640071e+003, 5.871609e-003
2.641999e+003, 5.584742e-003
2.643928e+003, 5.816079e-003
2.645856e+003, 6.013686e-003
2.647785e+003, 5.897037e-003
2.649713e+003, 5.740871e-003
2.651642e+003, 5.496999e-003
2.653570e+003, 5.574014e-003
2.655499e+003, 5.904295e-003
2.657427e+003, 5.637406e-003
2.659355e+003, 5.259892e-003
2.661284e+003, 5.143635e-003
2.663212e+003, 5.017310e-003
2.665141e+003, 4.961382e-003
2.667069e+003, 4.733853e-003
2.668998e+003, 4.737578e-003
2.670926e+003, 5.117245e-003
2.672855e+003, 4.984988e-003
2.674783e+003, 4.745751e-003
2.676712e+003, 4.829456e-003
2.678640e+003, 5.214829e-003
2.680569e+003, 5.387971e-003
2.682497e+003, 5.201262e-003
2.684426e+003, 5.072473e-003
2.686354e+003, 5.205258e-003
2.688282e+003, 5.312472e-003
2.690211e+003, 5.104852e-003
2.692139e+003, 4.919709e-003
2.694068e+003, 5.018839e-003
2.695996e+003, 5.056739e-003
2.697925e+003, 5.187356e-003
2.699853e+003, 5.043494e-003
2.701782e+003, 4.990856e-003
2.703710e+003, 5.283466e-003
2.705639e+003, 5.312036e-003
2.707567e+003, 5.415183e-003
2.709496e+003, 5.356580e-003
2.711424e+003, 5.184199e-003
2.713353e+003, 5.129512e-003
2.715281e+003, 5.099593e-003
2.717209e+003, 5.016283e-003
2.719138e+003, 5.162754e-003
2.721066e+003, 5.284097e-003
2.722995e+003, 5.358118e-003
2.724923e+003, 5.423454e-003
2.726852e+003, 5.413717e-003
2.728780e+003, 5.502610e-003
2.730709e+003, 5.484460e-003
2.732637e+003, 5.562781e-003
2.734566e+003, 5.645408e-003
2.736494e+003, 5.894333e-003
2.738423e+003, 5.705516e-003
2.740351e+003, 5.602663e-003
2.742280e+003, 5.832160e-003
2.744208e+003, 5.759562e-003
2.746136e+003, 5.715101e-003
2.748065e+003, 5.798854e-003
2.749993e+003, 5.896909e-003
2.751922e+003, 6.050369e-003
2.753850e+003, 5.851079e-003
2.755779e+003, 5.808706e-003
2.757707e+003, 5.739004e-003
2.759636e+003, 5.738557e-003
2.761564e+003, 5.823066e-003
2.763493e+003, 5.778502e-003
2.765421e+003, 6.135086e-003
2.767350e+003, 6.383656e-003
2.769278e+003, 6.450052e-003
2.771207e+003, 6.256600e-003
2.773135e+003, 6.051907e-003
2.775063e+003, 6.151168e-003
2.776992e+003, 6.218835e-003
2.778920e+003, 6.282254e-003
2.780849e+003, 6.211174e-003
2.782777e+003, 5.957082e-003
2.784706e+003, 5.945870e-003
2.786634e+003, 6.047923e-003
2.788563e+003, 5.890877e-003
2.790491e+003, 6.101742e-003
2.792420e+003, 6.224205e-003
2.794348e+003, 6.421758e-003
2.796277e+003, 6.578911e-003
2.798205e+003, 6.486455e-003
2.800134e+003, 6.537802e-003
2.802062e+003, 6.883662e-003
2.803990e+003, 7.005892e-003
2.805919e+003, 6.768327e-003
2.807847e+003, 6.513914e-003
2.809776e+003, 6.579373e-003
2.811704e+003, 6.802095e-003
2.813633e+003, 6.824063e-003
2.815561e+003, 6.677767e-003
2.817490e+003, 6.560096e-003
2.819418e+003, 6.406303e-003
2.821347e+003, 6.542952e-003
2.823275e+003, 6.613499e-003
2.825204e+003, 6.492716e-003
2.827132e+003, 6.513484e-003
2.829061e+003, 6.646145e-003
2.830989e+003, 6.991504e-003
2.832917e+003, 7.018787e-003
2.834846e+003, 6.532963e-003
2.836774e+003, 6.466406e-003
2.838703e+003, 6.504327e-003
2.840631e+003, 6.383335e-003
2.842560e+003, 6.137540e-003
2.844488e+003, 5.866534e-003
2.846417e+003, 4.877124e-003
2.848345e+003, 3.772421e-003
2.850274e+003, 3.362372e-003
2.852202e+003, 3.238678e-003
2.854131e+003, 3.013001e-003
2.856059e+003, 3.481229e-003
2.857988e+003, 4.023117e-003
2.859916e+003, 4.493888e-003
2.861844e+003, 5.008586e-003
2.863773e+003, 5.562793e-003
2.865701e+003, 5.747621e-003
2.867630e+003, 5.443754e-003
2.869558e+003, 5.475928e-003
2.871487e+003, 5.966056e-003
2.873415e+003, 6.118212e-003
2.875344e+003, 5.987382e-003
2.877272e+003, 6.098649e-003
2.879201e+003, 6.391463e-003
2.881129e+003, 6.341014e-003
2.883058e+003, 6.336865e-003
2.884986e+003, 6.433001e-003
2.886915e+003, 6.727364e-003
2.888843e+003, 6.888484e-003
2.890771e+003, 6.865403e-003
2.892700e+003, 6.600609e-003
2.894628e+003, 5.929301e-003
2.896557e+003, 5.663730e-003
2.898485e+003, 5.964806e-003
2.900414e+003, 6.011510e-003
2.902342e+003, 5.675582e-003
2.904271e+003, 5.506300e-003
2.906199e+003, 5.335546e-003
2.908128e+003, 5.358400e-003
2.910056e+003, 5.311757e-003
2.911985e+003, 4.825740e-003
2.913913e+003, 4.075305e-003
2.915842e+003, 3.223092e-003
2.917770e+003, 2.640698e-003
2.919698e+003, 2.569594e-003
2.921627e+003, 2.034184e-003
2.923555e+003, 1.664238e-003
2.925484e+003, 1.665870e-003
2.927412e+003, 2.106092e-003
2.929341e+003, 2.850307e-003
2.931269e+003, 3.455797e-003
2.933198e+003, 3.719704e-003
2.935126e+003, 4.037186e-003
2.937055e+003, 4.826872e-003
2.938983e+003, 5.555013e-003
2.940912e+003, 6.250530e-003
2.942840e+003, 6.835562e-003
2.944769e+003, 7.243326e-003
2.946697e+003, 7.040567e-003
2.948625e+003, 7.110759e-003
2.950554e+003, 7.494387e-003
2.952482e+003, 7.730603e-003
2.954411e+003, 7.811052e-003
2.956339e+003, 7.253301e-003
2.958268e+003, 7.409214e-003
2.960196e+003, 8.714046e-003
2.962125e+003, 9.316155e-003
2.964053e+003, 9.278745e-003
2.965982e+003, 9.428980e-003
2.967910e+003, 9.648265e-003
2.969839e+003, 9.996265e-003
2.971767e+003, 1.017648e-002
2.973696e+003, 1.035932e-002
2.975624e+003, 1.064829e-002
2.977552e+003, 1.023434e-002
2.979481e+003, 1.041179e-002
2.981409e+003, 1.120713e-002
2.983338e+003, 1.140897e-002
2.985266e+003, 1.122503e-002
2.987195e+003, 1.060382e-002
2.989123e+003, 1.056649e-002
2.991052e+003, 1.108523e-002
2.992980e+003, 1.148496e-002
2.994909e+003, 1.170458e-002
2.996837e+003, 1.179302e-002
2.998766e+003, 1.192029e-002
3.000694e+003, 1.208063e-002
3.002623e+003, 1.238391e-002
3.004551e+003, 1.277961e-002
3.006479e+003, 1.299481e-002
3.008408e+003, 1.260569e-002
3.010336e+003, 1.268967e-002
3.012265e+003, 1.274362e-002
3.014193e+003, 1.160055e-002
3.016122e+003, 1.010644e-002
3.018050e+003, 1.096506e-002
3.019979e+003, 1.355525e-002
3.021907e+003, 1.448084e-002
3.023836e+003, 1.453452e-002
3.025764e+003, 1.460204e-002
3.027693e+003, 1.456748e-002
3.029621e+003, 1.462574e-002
3.031550e+003, 1.473048e-002
3.033478e+003, 1.530973e-002
3.035406e+003, 1.573442e-002
3.037335e+003, 1.572146e-002
3.039263e+003, 1.626378e-002
3.041192e+003, 1.690403e-002
3.043120e+003, 1.704985e-002
3.045049e+003, 1.721218e-002
3.046977e+003, 1.713795e-002
3.048906e+003, 1.680986e-002
3.050834e+003, 1.707108e-002
3.052763e+003, 1.756513e-002
3.054691e+003, 1.767894e-002
3.056620e+003, 1.707112e-002
3.058548e+003, 1.768116e-002
3.060477e+003, 1.883651e-002
3.062405e+003, 1.949738e-002
3.064333e+003, 1.938330e-002
3.066262e+003, 1.833967e-002
3.068190e+003, 1.882805e-002
3.070119e+003, 2.026777e-002
3.072047e+003, 2.047765e-002
3.073976e+003, 2.002317e-002
3.075904e+003, 1.936175e-002
3.077833e+003, 2.030051e-002
3.079761e+003, 2.143445e-002
3.081690e+003, 2.137520e-002
3.083618e+003, 2.108263e-002
3.085547e+003, 2.098350e-002
3.087475e+003, 2.186890e-002
3.089404e+003, 2.242709e-002
3.091332e+003, 2.239347e-002
3.093260e+003, 2.273811e-002
3.095189e+003, 2.310724e-002
3.097117e+003, 2.392455e-002
3.099046e+003, 2.430539e-002
3.100974e+003, 2.423155e-002
3.102903e+003, 2.405796e-002
3.104831e+003, 2.403015e-002
3.106760e+003, 2.472875e-002
3.108688e+003, 2.560036e-002
3.110617e+003, 2.608895e-002
3.112545e+003, 2.582397e-002
3.114474e+003, 2.590662e-002
3.116402e+003, 2.620893e-002
3.118331e+003, 2.671579e-002
3.120259e+003, 2.733966e-002
3.122188e+003, 2.818317e-002
3.124116e+003, 2.873996e-002
3.126044e+003, 2.861262e-002
3.127973e+003, 2.856155e-002
3.129901e+003, 2.888606e-002
3.131830e+003, 2.955660e-002
3.133758e+003, 3.022635e-002
3.135687e+003, 3.083195e-002
3.137615e+003, 3.093616e-002
3.139544e+003, 3.123332e-002
3.141472e+003, 3.223581e-002
3.143401e+003, 3.282195e-002
3.145329e+003, 3.308311e-002
3.147258e+003, 3.379849e-002
3.149186e+003, 3.442435e-002
3.151115e+003, 3.477434e-002
3.153043e+003, 3.581322e-002
3.154971e+003, 3.700789e-002
3.156900e+003, 3.806368e-002
3.158828e+003, 3.912895e-002
3.160757e+003, 3.967993e-002
3.162685e+003, 4.037777e-002
3.164614e+003, 4.185495e-002
3.166542e+003, 4.289934e-002
3.168471e+003, 4.359052e-002
3.170399e+003, 4.487413e-002
3.172328e+003, 4.665725e-002
3.174256e+003, 4.845170e-002
3.176185e+003, 4.998735e-002
3.178113e+003, 5.187980e-002
3.180042e+003, 5.384998e-002
3.181970e+003, 5.582229e-002
3.183898e+003, 5.797908e-002
3.185827e+003, 6.010997e-002
3.187755e+003, 6.300367e-002
3.189684e+003, 6.608918e-002
3.191612e+003, 6.827033e-002
3.193541e+003, 7.068450e-002
3.195469e+003, 7.398579e-002
3.197398e+003, 7.725564e-002
3.199326e+003, 8.017515e-002
3.201255e+003, 8.238562e-002
3.203183e+003, 8.472289e-002
3.205112e+003, 8.739603e-002
3.207040e+003, 8.917715e-002
3.208969e+003, 9.055796e-002
3.210897e+003, 9.167913e-002
3.212825e+003, 9.203319e-002
3.214754e+003, 9.138644e-002
3.216682e+003, 8.984215e-002
3.218611e+003, 8.771003e-002
3.220539e+003, 8.551756e-002
3.222468e+003, 8.336975e-002
3.224396e+003, 8.071620e-002
3.226325e+003, 7.686868e-002
3.228253e+003, 7.312151e-002
3.230182e+003, 6.955347e-002
3.232110e+003, 6.570241e-002
3.234039e+003, 6.169006e-002
3.235967e+003, 5.756536e-002
3.237896e+003, 5.342403e-002
3.239824e+003, 5.009011e-002
3.241752e+003, 4.678341e-002
3.243681e+003, 4.283570e-002
3.245609e+003, 3.933361e-002
3.247538e+003, 3.632570e-002
3.249466e+003, 3.327299e-002
3.251395e+003, 3.064334e-002
3.253323e+003, 2.850105e-002
3.255252e+003, 2.633093e-002
3.257180e+003, 2.418872e-002
3.259109e+003, 2.232936e-002
3.261037e+003, 2.140740e-002
3.262966e+003, 2.035565e-002
3.264894e+003, 1.855542e-002
3.266823e+003, 1.713898e-002
3.268751e+003, 1.574332e-002
3.270679e+003, 1.483866e-002
3.272608e+003, 1.437640e-002
3.274536e+003, 1.371436e-002
3.276465e+003, 1.306422e-002
3.278393e+003, 1.264680e-002
3.280322e+003, 1.270761e-002
3.282250e+003, 1.240663e-002
3.284179e+003, 1.213005e-002
3.286107e+003, 1.195299e-002
3.288036e+003, 1.181244e-002
3.289964e+003, 1.166667e-002
3.291893e+003, 1.131513e-002
3.293821e+003, 1.108085e-002
3.295750e+003, 1.105879e-002
3.297678e+003, 1.089038e-002
3.299606e+003, 1.110107e-002
3.301535e+003, 1.098207e-002
3.303463e+003, 1.088324e-002
3.305392e+003, 1.092707e-002
3.307320e+003, 1.079252e-002
3.309249e+003, 1.090140e-002
3.311177e+003, 1.082083e-002
3.313106e+003, 1.013046e-002
3.315034e+003, 9.950500e-003
3.316963e+003, 9.620205e-003
3.318891e+003, 9.166189e-003
3.320820e+003, 9.164514e-003
3.322748e+003, 9.262532e-003
3.324677e+003, 9.430524e-003
3.326605e+003, 9.384253e-003
3.328533e+003, 9.101964e-003
3.330462e+003, 9.201040e-003
3.332390e+003, 9.197881e-003
3.334319e+003, 8.547234e-003
3.336247e+003, 7.911455e-003
3.338176e+003, 7.914326e-003
3.340104e+003, 7.543128e-003
3.342033e+003, 6.769822e-003
3.343961e+003, 6.456593e-003
3.345890e+003, 6.761751e-003
3.347818e+003, 7.201530e-003
3.349747e+003, 7.481722e-003
3.351675e+003, 7.358301e-003
3.353604e+003, 7.165057e-003
3.355532e+003, 7.276518e-003
3.357460e+003, 7.035172e-003
3.359389e+003, 7.059079e-003
3.361317e+003, 6.859320e-003
3.363246e+003, 6.101294e-003
3.365174e+003, 5.478217e-003
3.367103e+003, 5.479409e-003
3.369031e+003, 5.534953e-003
3.370960e+003, 5.721304e-003
3.372888e+003, 5.598098e-003
3.374817e+003, 5.250422e-003
3.376745e+003, 5.721906e-003
3.378674e+003, 5.993876e-003
3.380602e+003, 5.753216e-003
3.382531e+003, 5.275767e-003
3.384459e+003, 4.945645e-003
3.386387e+003, 4.961039e-003
3.388316e+003, 5.065666e-003
3.390244e+003, 4.862924e-003
3.392173e+003, 4.549043e-003
3.394101e+003, 4.407089e-003
3.396030e+003, 4.556736e-003
3.397958e+003, 4.222106e-003
3.399887e+003, 3.718551e-003
3.401815e+003, 3.454540e-003
3.403744e+003, 3.776399e-003
3.405672e+003, 3.561763e-003
3.407601e+003, 3.524918e-003
3.409529e+003, 4.115047e-003
3.411458e+003, 3.658579e-003
3.413386e+003, 3.286962e-003
3.415314e+003, 3.247051e-003
3.417243e+003, 2.979254e-003
3.419171e+003, 2.937426e-003
3.421100e+003, 2.991410e-003
3.423028e+003, 2.895218e-003
3.424957e+003, 2.787998e-003
3.426885e+003, 2.637790e-003
3.428814e+003, 2.868813e-003
3.430742e+003, 2.278153e-003
3.432671e+003, 2.021074e-003
3.434599e+003, 2.490594e-003
3.436528e+003, 2.054055e-003
3.438456e+003, 1.552821e-003
3.440385e+003, 1.311422e-003
3.442313e+003, 1.452200e-003
3.444241e+003, 1.723151e-003
3.446170e+003, 1.285758e-003
3.448098e+003, 9.272044e-004
3.450027e+003, 9.448478e-004
3.451955e+003, 1.370337e-003
3.453884e+003, 1.423647e-003
3.455812e+003, 1.092874e-003
3.457741e+003, 1.178859e-003
3.459669e+003, 1.591503e-003
3.461598e+003, 1.495905e-003
3.463526e+003, 1.529215e-003
3.465455e+003, 1.645659e-003
3.467383e+003, 1.467824e-003
3.469312e+003, 1.443524e-003
3.471240e+003, 1.948508e-003
3.473168e+003, 1.808873e-003
3.475097e+003, 1.322740e-003
3.477025e+003, 1.398854e-003
3.478954e+003, 1.162969e-003
3.480882e+003, 5.689259e-004
3.482811e+003, 5.667752e-004
3.484739e+003, 9.787718e-004
3.486668e+003, 7.514503e-004
3.488596e+003, 5.928184e-004
3.490525e+003, 5.391992e-004
3.492453e+003, 7.177339e-004
3.494382e+003, 8.589608e-004
3.496310e+003, 4.567828e-004
3.498239e+003, 3.749165e-004
3.500167e+003, 3.696389e-004
3.502095e+003, 5.839559e-004
3.504024e+003, 4.399998e-004
3.505952e+003, 8.490846e-005
3.507881e+003, 5.663275e-004
3.509809e+003, 4.395736e-004
3.511738e+003, 4.545554e-004
3.513666e+003, 2.978000e-004
3.515595e+003, 1.567226e-004
3.517523e+003, 2.658804e-004
3.519452e+003, 4.906348e-004
3.521380e+003, 4.264564e-004
3.523309e+003, 5.584902e-004
3.525237e+003, 1.671459e-004
3.527166e+003, -2.216054e-004
3.529094e+003, 2.938486e-005
3.531022e+003, 5.934001e-004
3.532951e+003, 6.808112e-004
3.534879e+003, 2.142798e-004
3.536808e+003, 5.124324e-004
3.538736e+003, 8.134405e-004
3.540665e+003, 6.740626e-004
3.542593e+003, 7.858339e-004
3.544522e+003, 9.275918e-004
3.546450e+003, 1.252015e-003
3.548379e+003, 1.186076e-003
3.550307e+003, 7.518654e-004
3.552236e+003, 6.330782e-004
3.554164e+003, 2.367739e-004
3.556093e+003, -4.853528e-004
3.558021e+003, -3.333745e-004
3.559949e+003, 3.568128e-005
3.561878e+003, 4.695723e-004
3.563806e+003, 1.290210e-003
3.565735e+003, 8.118261e-004
3.567663e+003, 4.756236e-005
3.569592e+003, 1.134289e-004
3.571520e+003, 1.431637e-004
3.573449e+003, -2.940240e-004
3.575377e+003, -3.336549e-004
3.577306e+003, 1.981767e-004
3.579234e+003, 3.273150e-006
3.581163e+003, 3.636459e-004
3.583091e+003, 2.870917e-004
3.585020e+003, -2.274876e-004
3.586948e+003, 1.090337e-004
3.588876e+003, 2.392842e-004
3.590805e+003, 1.928462e-004
3.592733e+003, -1.211161e-004
3.594662e+003, -7.080094e-004
3.596590e+003, -4.452763e-004
3.598519e+003, -8.036850e-004
3.600447e+003, -1.175884e-003
3.602376e+003, -3.761601e-004
3.604304e+003, 4.057089e-004
3.606233e+003, 1.784681e-004
3.608161e+003, -5.089428e-004
3.610090e+003, -1.357768e-003
3.612018e+003, -1.202591e-003
3.613947e+003, -3.392742e-004
3.615875e+003, -1.788520e-004
3.617803e+003, -6.495955e-004
3.619732e+003, -1.490621e-003
3.621660e+003, -1.197830e-003
3.623589e+003, -8.250963e-004
3.625517e+003, -3.663776e-004
3.627446e+003, -3.227529e-004
3.629374e+003, -4.683060e-004
3.631303e+003, -4.020776e-004
3.633231e+003, -3.039921e-004
3.635160e+003, -5.951076e-004
3.637088e+003, -1.104695e-003
3.639017e+003, -1.417348e-003
3.640945e+003, -1.225521e-003
3.642874e+003, -1.048053e-003
3.644802e+003, -3.154848e-005
3.646730e+003, 7.368067e-004
3.648659e+003, 2.646871e-004
3.650587e+003, -5.237785e-004
3.652516e+003, -1.018699e-003
3.654444e+003, -1.130237e-003
3.656373e+003, -4.295158e-004
3.658301e+003, -1.069604e-003
3.660230e+003, -1.932750e-003
3.662158e+003, -1.064254e-003
3.664087e+003, -1.064686e-004
3.666015e+003, -4.037401e-004
3.667944e+003, -3.245285e-004
3.669872e+003, 2.823905e-004
3.671801e+003, -3.289541e-004
3.673729e+003, -6.354343e-004
3.675657e+003, -4.693815e-004
3.677586e+003, -1.502257e-004
3.679514e+003, -2.827171e-004
3.681443e+003, -4.752208e-004
3.683371e+003, -7.231551e-004
3.685300e+003, -4.965407e-004
3.687228e+003, -5.052582e-004
3.689157e+003, -9.874318e-004
3.691085e+003, -1.475087e-003
3.693014e+003, -1.019830e-003
3.694942e+003, 1.924099e-004
3.696871e+003, 6.255942e-004
3.698799e+003, 6.082357e-004
3.700728e+003, 1.203925e-003
3.702656e+003, 1.429328e-003
3.704584e+003, 6.536611e-004
3.706513e+003, 2.840733e-004
3.708441e+003, -1.390059e-004
3.710370e+003, -8.816635e-004
3.712298e+003, -9.056414e-004
3.714227e+003, -8.975322e-004
3.716155e+003, -7.462963e-004
3.718084e+003, 2.578996e-004
3.720012e+003, 6.514280e-004
3.721941e+003, 4.162284e-004
3.723869e+003, 5.318221e-004
3.725798e+003, 6.900091e-004
3.727726e+003, 3.918292e-004
3.729655e+003, 3.120211e-004
3.731583e+003, -2.014686e-004
3.733511e+003, -2.921499e-004
3.735440e+003, -1.559567e-004
3.737368e+003, -8.231480e-005
3.739297e+003, 8.127860e-004
3.741225e+003, 1.167500e-003
3.743154e+003, 4.629609e-005
3.745082e+003, -5.363850e-004
3.747011e+003, -7.789920e-004
3.748939e+003, -7.613406e-004
3.750868e+003, -9.534460e-005
3.752796e+003, -4.316387e-004
3.754725e+003, -1.050208e-003
3.756653e+003, -3.145153e-004
3.758582e+003, -1.162663e-004
3.760510e+003, -4.854034e-004
3.762438e+003, -1.266368e-004
3.764367e+003, 1.936478e-007
3.766295e+003, 2.316169e-004
3.768224e+003, 6.105722e-004
3.770152e+003, 1.617392e-004
3.772081e+003, -3.737665e-004
3.774009e+003, 3.895028e-004
3.775938e+003, 3.339449e-004
3.777866e+003, 8.103529e-005
3.779795e+003, 3.267466e-004
3.781723e+003, 5.361543e-004
3.783652e+003, 5.965462e-004
3.785580e+003, 1.209290e-004
3.787509e+003, -4.123910e-004
3.789437e+003, -3.511600e-004
3.791365e+003, 6.197969e-005
3.793294e+003, 5.799879e-004
3.795222e+003, 6.422333e-004
3.797151e+003, 3.137620e-004
3.799079e+003, 8.522988e-004
3.801008e+003, 1.047348e-003
3.802936e+003, 7.643969e-004
3.804865e+003, -3.902589e-005
3.806793e+003, -5.425573e-004
3.808722e+003, -3.238761e-004
3.810650e+003, -3.563044e-004
3.812579e+003, -4.223496e-004
3.814507e+003, -6.060972e-004
3.816436e+003, -4.982601e-004
3.818364e+003, -7.636457e-004
3.820292e+003, -7.504396e-004
3.822221e+003, -1.756943e-004
3.824149e+003, 4.489978e-004
3.826078e+003, 2.981411e-004
3.828006e+003, -6.658866e-004
3.829935e+003, -1.040322e-003
3.831863e+003, -8.811522e-004
3.833792e+003, -1.425879e-004
3.835720e+003, 1.601419e-004
3.837649e+003, -2.195299e-004
3.839577e+003, -3.161184e-004
3.841506e+003, -4.341856e-004
3.843434e+003, -1.684815e-004
3.845363e+003, -6.242799e-004
3.847291e+003, -1.254922e-003
3.849219e+003, -1.086483e-003
3.851148e+003, -5.474587e-004
3.853076e+003, -4.409653e-004
3.855005e+003, -3.895352e-004
3.856933e+003, -1.778113e-004
3.858862e+003, -2.426561e-004
3.860790e+003, -2.086840e-004
3.862719e+003, -5.727567e-004
3.864647e+003, -8.719800e-004
3.866576e+003, -7.112509e-004
3.868504e+003, -6.777180e-004
3.870433e+003, -5.645307e-004
3.872361e+003, 7.348503e-005
3.874290e+003, 9.203221e-004
3.876218e+003, 9.617187e-004
3.878146e+003, 3.646358e-004
3.880075e+003, 1.996603e-004
3.882003e+003, -5.241447e-004
3.883932e+003, -4.382613e-004
3.885860e+003, 1.102939e-004
3.887789e+003, 3.294436e-004
3.889717e+003, 1.920152e-004
3.891646e+003, -2.548710e-004
3.893574e+003, -1.112491e-003
3.895503e+003, -8.228538e-004
3.897431e+003, 1.202307e-004
3.899360e+003, 5.355760e-005
3.901288e+003, -6.114305e-004
3.903217e+003, -8.826105e-004
3.905145e+003, 1.750172e-005
3.907073e+003, 6.577546e-004
3.909002e+003, 1.351489e-004
3.910930e+003, -1.915139e-004
3.912859e+003, 2.590025e-004
3.914787e+003, 2.760757e-004
3.916716e+003, 1.619438e-004
3.918644e+003, -2.015763e-004
3.920573e+003, -8.609164e-004
3.922501e+003, -1.064424e-003
3.924430e+003, -9.074874e-004
3.926358e+003, -1.282973e-004
3.928287e+003, -2.779840e-005
3.930215e+003, -5.829076e-004
3.932144e+003, -1.145812e-003
3.934072e+003, -3.384561e-004
3.936000e+003, -3.341141e-004
3.937929e+003, -1.039026e-003
3.939857e+003, -6.018244e-004
3.941786e+003, -5.945922e-004
3.943714e+003, -4.300697e-004
3.945643e+003, 5.532277e-004
3.947571e+003, 1.214072e-003
3.949500e+003, 2.998619e-004
3.951428e+003, -2.480986e-004
3.953357e+003, -8.993460e-004
3.955285e+003, -2.078962e-003
3.957214e+003, -2.804090e-003
3.959142e+003, -1.544324e-003
3.961071e+003, 9.241884e-005
3.962999e+003, -3.656967e-004
3.964927e+003, -1.208960e-003
3.966856e+003, -7.921287e-004
3.968784e+003, 7.794553e-005
3.970713e+003, 3.051742e-004
3.972641e+003, -2.729788e-004
3.974570e+003, -7.306588e-004
3.976498e+003, -3.994033e-004
3.978427e+003, -1.424917e-004
3.980355e+003, -2.889860e-004
3.982284e+003, -7.193310e-004
3.984212e+003, -8.163108e-004
3.986141e+003, -8.374717e-004
3.988069e+003, -9.641783e-004
3.989998e+003, -4.601368e-004
3.991926e+003, -1.094877e-003
3.993854e+003, -1.211037e-003
3.995783e+003, -3.870680e-004
3.997711e+003, -3.537959e-004
3.999640e+003, -3.987880e-004
##END=



