##NAMES=Vesuvianite
##RRUFFID=R050233
##IDEAL CHEMISTRY=(Ca,Na)_19_(Al,Mg,Fe^3+^)_13_(SiO_4_)_10_(Si_2_O_7_)_4_(OH,F,O)_10_
##LOCALITY=Ludwig, Nevada, USA
##OWNER=RRUFF
##SOURCE=Marcus Origlieri
##DESCRIPTION=Pale green euhedral single crystal
##STATUS=The identification of this mineral has been confirmed by X-ray diffraction and chemical analysis
##URL=rruff.info/R050233
##MEASURED CHEMISTRY=Ca_19.00_(Al_10.04_Mg_2.54_Fe^2+^_0.42_)_Σ=13_(Si_17.96_Al_0.04_)_Σ=18_O_68_((OH)_9.66_F_0.34_)_Σ=10_ ; Boron not analyzed.
3.953357e+002, 9.989189e-002
3.972641e+002, 1.049914e-001
3.991926e+002, 1.088321e-001
4.011211e+002, 1.100553e-001
4.030495e+002, 1.109247e-001
4.049780e+002, 1.140153e-001
4.069065e+002, 1.160941e-001
4.088349e+002, 1.167383e-001
4.107634e+002, 1.183211e-001
4.126919e+002, 1.173432e-001
4.146203e+002, 1.149501e-001
4.165488e+002, 1.135513e-001
4.184773e+002, 1.148973e-001
4.204057e+002, 1.173040e-001
4.223342e+002, 1.174615e-001
4.242627e+002, 1.187599e-001
4.261911e+002, 1.214277e-001
4.281196e+002, 1.240498e-001
4.300481e+002, 1.248754e-001
4.319765e+002, 1.248116e-001
4.339050e+002, 1.242894e-001
4.358335e+002, 1.245252e-001
4.377619e+002, 1.244649e-001
4.396904e+002, 1.220123e-001
4.416189e+002, 1.194835e-001
4.435473e+002, 1.181386e-001
4.454758e+002, 1.171427e-001
4.474043e+002, 1.152023e-001
4.493327e+002, 1.122597e-001
4.512612e+002, 1.098226e-001
4.531897e+002, 1.077999e-001
4.551181e+002, 1.065416e-001
4.570466e+002, 1.058980e-001
4.589751e+002, 1.055107e-001
4.609035e+002, 1.050859e-001
4.628320e+002, 1.051160e-001
4.647605e+002, 1.049151e-001
4.666889e+002, 1.048527e-001
4.686174e+002, 1.041219e-001
4.705459e+002, 1.031050e-001
4.724743e+002, 1.023478e-001
4.744028e+002, 1.017701e-001
4.763313e+002, 1.017422e-001
4.782597e+002, 1.022031e-001
4.801882e+002, 1.029034e-001
4.821167e+002, 1.037695e-001
4.840451e+002, 1.044652e-001
4.859736e+002, 1.047345e-001
4.879021e+002, 1.041585e-001
4.898305e+002, 1.028169e-001
4.917590e+002, 1.008896e-001
4.936875e+002, 9.865881e-002
4.956159e+002, 9.625487e-002
4.975444e+002, 9.350897e-002
4.994729e+002, 9.088429e-002
5.014013e+002, 8.823014e-002
5.033298e+002, 8.508191e-002
5.052583e+002, 8.149137e-002
5.071867e+002, 7.777540e-002
5.091152e+002, 7.436851e-002
5.110437e+002, 7.126474e-002
5.129721e+002, 6.877671e-002
5.149006e+002, 6.682852e-002
5.168290e+002, 6.505068e-002
5.187575e+002, 6.380253e-002
5.206860e+002, 6.274821e-002
5.226144e+002, 6.163252e-002
5.245429e+002, 6.092697e-002
5.264714e+002, 5.995162e-002
5.283998e+002, 5.919481e-002
5.303283e+002, 5.871554e-002
5.322568e+002, 5.753834e-002
5.341852e+002, 5.603604e-002
5.361137e+002, 5.483502e-002
5.380422e+002, 5.342039e-002
5.399706e+002, 5.193688e-002
5.418991e+002, 5.103650e-002
5.438276e+002, 5.047465e-002
5.457560e+002, 5.021211e-002
5.476845e+002, 5.029338e-002
5.496130e+002, 5.029874e-002
5.515414e+002, 4.982916e-002
5.534699e+002, 4.955094e-002
5.553984e+002, 4.957758e-002
5.573268e+002, 4.955407e-002
5.592553e+002, 5.024988e-002
5.611838e+002, 5.164784e-002
5.631122e+002, 5.280337e-002
5.650407e+002, 5.402020e-002
5.669692e+002, 5.524295e-002
5.688976e+002, 5.616626e-002
5.708261e+002, 5.717190e-002
5.727546e+002, 5.771626e-002
5.746830e+002, 5.735209e-002
5.766115e+002, 5.637699e-002
5.785400e+002, 5.479887e-002
5.804684e+002, 5.320681e-002
5.823969e+002, 5.166496e-002
5.843254e+002, 5.021477e-002
5.862538e+002, 4.914505e-002
5.881823e+002, 4.872780e-002
5.901108e+002, 4.861266e-002
5.920392e+002, 4.889351e-002
5.939677e+002, 4.990223e-002
5.958962e+002, 5.099291e-002
5.978246e+002, 5.226709e-002
5.997531e+002, 5.340811e-002
6.016816e+002, 5.439864e-002
6.036100e+002, 5.535045e-002
6.055385e+002, 5.561607e-002
6.074670e+002, 5.539637e-002
6.093954e+002, 5.464244e-002
6.113239e+002, 5.328498e-002
6.132524e+002, 5.175157e-002
6.151808e+002, 5.042256e-002
6.171093e+002, 4.935089e-002
6.190378e+002, 4.838572e-002
6.209662e+002, 4.727241e-002
6.228947e+002, 4.601295e-002
6.248232e+002, 4.494761e-002
6.267516e+002, 4.362713e-002
6.286801e+002, 4.190940e-002
6.306086e+002, 4.051998e-002
6.325370e+002, 3.937443e-002
6.344655e+002, 3.808292e-002
6.363940e+002, 3.698319e-002
6.383224e+002, 3.621104e-002
6.402509e+002, 3.507401e-002
6.421794e+002, 3.397105e-002
6.441078e+002, 3.336143e-002
6.460363e+002, 3.280691e-002
6.479648e+002, 3.213199e-002
6.498932e+002, 3.160761e-002
6.518217e+002, 3.117400e-002
6.537502e+002, 3.073484e-002
6.556786e+002, 3.040794e-002
6.576071e+002, 3.003649e-002
6.595356e+002, 2.960739e-002
6.614641e+002, 2.913345e-002
6.633925e+002, 2.854144e-002
6.653210e+002, 2.778892e-002
6.672495e+002, 2.685141e-002
6.691779e+002, 2.580481e-002
6.711064e+002, 2.528392e-002
6.730349e+002, 2.493109e-002
6.749633e+002, 2.451935e-002
6.768918e+002, 2.457163e-002
6.788203e+002, 2.488751e-002
6.807487e+002, 2.519391e-002
6.826772e+002, 2.558220e-002
6.846057e+002, 2.583090e-002
6.865341e+002, 2.598797e-002
6.884626e+002, 2.590998e-002
6.903911e+002, 2.530180e-002
6.923195e+002, 2.465438e-002
6.942480e+002, 2.408769e-002
6.961765e+002, 2.364660e-002
6.981049e+002, 2.323603e-002
7.000334e+002, 2.277355e-002
7.019619e+002, 2.243470e-002
7.038903e+002, 2.221048e-002
7.058188e+002, 2.222732e-002
7.077473e+002, 2.224300e-002
7.096757e+002, 2.204703e-002
7.116042e+002, 2.150536e-002
7.135327e+002, 2.086872e-002
7.154611e+002, 2.039955e-002
7.173896e+002, 1.979631e-002
7.193181e+002, 1.928223e-002
7.212465e+002, 1.909670e-002
7.231750e+002, 1.916192e-002
7.251035e+002, 1.948705e-002
7.270319e+002, 1.977530e-002
7.289604e+002, 1.999878e-002
7.308889e+002, 2.035977e-002
7.328173e+002, 2.092807e-002
7.347458e+002, 2.143893e-002
7.366743e+002, 2.177779e-002
7.386027e+002, 2.238257e-002
7.405312e+002, 2.295774e-002
7.424597e+002, 2.330226e-002
7.443881e+002, 2.345023e-002
7.463166e+002, 2.371493e-002
7.482451e+002, 2.433068e-002
7.501735e+002, 2.515573e-002
7.521020e+002, 2.565939e-002
7.540305e+002, 2.608842e-002
7.559589e+002, 2.695688e-002
7.578874e+002, 2.778292e-002
7.598159e+002, 2.870307e-002
7.617443e+002, 2.986819e-002
7.636728e+002, 3.108253e-002
7.656013e+002, 3.250488e-002
7.675297e+002, 3.425271e-002
7.694582e+002, 3.624189e-002
7.713867e+002, 3.843647e-002
7.733151e+002, 4.076131e-002
7.752436e+002, 4.310092e-002
7.771721e+002, 4.552590e-002
7.791005e+002, 4.792533e-002
7.810290e+002, 5.023633e-002
7.829575e+002, 5.241957e-002
7.848859e+002, 5.465725e-002
7.868144e+002, 5.669314e-002
7.887429e+002, 5.817506e-002
7.906713e+002, 5.927031e-002
7.925998e+002, 6.012219e-002
7.945283e+002, 6.062894e-002
7.964567e+002, 6.072425e-002
7.983852e+002, 6.056116e-002
8.003137e+002, 6.035521e-002
8.022421e+002, 6.016469e-002
8.041706e+002, 5.985079e-002
8.060991e+002, 5.966346e-002
8.080275e+002, 5.954530e-002
8.099560e+002, 5.923525e-002
8.118845e+002, 5.906078e-002
8.138129e+002, 5.904233e-002
8.157414e+002, 5.929229e-002
8.176699e+002, 5.991222e-002
8.195983e+002, 6.064836e-002
8.215268e+002, 6.144866e-002
8.234553e+002, 6.271949e-002
8.253837e+002, 6.439079e-002
8.273122e+002, 6.622048e-002
8.292407e+002, 6.804793e-002
8.311691e+002, 6.969365e-002
8.330976e+002, 7.130138e-002
8.350261e+002, 7.276312e-002
8.369545e+002, 7.400976e-002
8.388830e+002, 7.511350e-002
8.408115e+002, 7.607389e-002
8.427399e+002, 7.705645e-002
8.446684e+002, 7.798132e-002
8.465969e+002, 7.877221e-002
8.485253e+002, 7.932921e-002
8.504538e+002, 7.981773e-002
8.523823e+002, 8.028796e-002
8.543107e+002, 8.070967e-002
8.562392e+002, 8.113375e-002
8.581677e+002, 8.147050e-002
8.600961e+002, 8.161383e-002
8.620246e+002, 8.177785e-002
8.639531e+002, 8.183930e-002
8.658815e+002, 8.179022e-002
8.678100e+002, 8.186059e-002
8.697385e+002, 8.201099e-002
8.716669e+002, 8.210345e-002
8.735954e+002, 8.238917e-002
8.755239e+002, 8.296815e-002
8.774523e+002, 8.330864e-002
8.793808e+002, 8.351776e-002
8.813093e+002, 8.383103e-002
8.832377e+002, 8.418913e-002
8.851662e+002, 8.443417e-002
8.870947e+002, 8.441113e-002
8.890231e+002, 8.426955e-002
8.909516e+002, 8.406446e-002
8.928801e+002, 8.374213e-002
8.948085e+002, 8.338057e-002
8.967370e+002, 8.299268e-002
8.986655e+002, 8.263556e-002
9.005939e+002, 8.224646e-002
9.025224e+002, 8.206272e-002
9.044509e+002, 8.223363e-002
9.063793e+002, 8.292445e-002
9.083078e+002, 8.394527e-002
9.102363e+002, 8.501627e-002
9.121647e+002, 8.607417e-002
9.140932e+002, 8.693986e-002
9.160217e+002, 8.735140e-002
9.179501e+002, 8.701716e-002
9.198786e+002, 8.595326e-002
9.218071e+002, 8.450763e-002
9.237355e+002, 8.268105e-002
9.256640e+002, 8.059185e-002
9.275925e+002, 7.875545e-002
9.295209e+002, 7.727702e-002
9.314494e+002, 7.599980e-002
9.333779e+002, 7.518177e-002
9.353063e+002, 7.497179e-002
9.372348e+002, 7.526641e-002
9.391633e+002, 7.583287e-002
9.410917e+002, 7.676589e-002
9.430202e+002, 7.788540e-002
9.449487e+002, 7.902708e-002
9.468771e+002, 8.027055e-002
9.488056e+002, 8.146792e-002
9.507341e+002, 8.281235e-002
9.526625e+002, 8.391794e-002
9.545910e+002, 8.459055e-002
9.565195e+002, 8.498149e-002
9.584479e+002, 8.513432e-002
9.603764e+002, 8.484594e-002
9.623049e+002, 8.393755e-002
9.642333e+002, 8.279195e-002
9.661618e+002, 8.171294e-002
9.680903e+002, 8.052091e-002
9.700187e+002, 7.909149e-002
9.719472e+002, 7.741566e-002
9.738757e+002, 7.563832e-002
9.758041e+002, 7.360397e-002
9.777326e+002, 7.175729e-002
9.796611e+002, 6.993110e-002
9.815895e+002, 6.794174e-002
9.835180e+002, 6.612457e-002
9.854465e+002, 6.440793e-002
9.873749e+002, 6.298927e-002
9.893034e+002, 6.201560e-002
9.912319e+002, 6.130349e-002
9.931603e+002, 6.103647e-002
9.950888e+002, 6.152613e-002
9.970173e+002, 6.251393e-002
9.989457e+002, 6.386059e-002
1.000874e+003, 6.557020e-002
1.002803e+003, 6.720649e-002
1.004731e+003, 6.866040e-002
1.006660e+003, 6.980187e-002
1.008588e+003, 7.075403e-002
1.010517e+003, 7.149178e-002
1.012445e+003, 7.184273e-002
1.014373e+003, 7.192547e-002
1.016302e+003, 7.145208e-002
1.018230e+003, 7.038173e-002
1.020159e+003, 6.883194e-002
1.022087e+003, 6.650637e-002
1.024016e+003, 6.349194e-002
1.025944e+003, 6.019378e-002
1.027873e+003, 5.671668e-002
1.029801e+003, 5.291992e-002
1.031730e+003, 4.905460e-002
1.033658e+003, 4.528480e-002
1.035587e+003, 4.157629e-002
1.037515e+003, 3.800414e-002
1.039443e+003, 3.462927e-002
1.041372e+003, 3.125586e-002
1.043300e+003, 2.788515e-002
1.045229e+003, 2.486165e-002
1.047157e+003, 2.210983e-002
1.049086e+003, 1.957301e-002
1.051014e+003, 1.725304e-002
1.052943e+003, 1.520132e-002
1.054871e+003, 1.353557e-002
1.056800e+003, 1.206676e-002
1.058728e+003, 1.079857e-002
1.060657e+003, 9.737517e-003
1.062585e+003, 8.945432e-003
1.064514e+003, 8.372768e-003
1.066442e+003, 7.968727e-003
1.068370e+003, 7.551352e-003
1.070299e+003, 7.013782e-003
1.072227e+003, 6.555474e-003
1.074156e+003, 6.233787e-003
1.076084e+003, 5.967185e-003
1.078013e+003, 5.825342e-003
1.079941e+003, 5.581202e-003
1.081870e+003, 5.276544e-003
1.083798e+003, 5.121975e-003
1.085727e+003, 4.952337e-003
1.087655e+003, 4.718392e-003
1.089584e+003, 4.588139e-003
1.091512e+003, 4.529874e-003
1.093441e+003, 4.465201e-003
1.095369e+003, 4.264219e-003
1.097297e+003, 3.984641e-003
1.099226e+003, 3.739759e-003
1.101154e+003, 3.562896e-003
1.103083e+003, 3.408431e-003
1.105011e+003, 3.464800e-003
1.106940e+003, 3.318111e-003
1.108868e+003, 3.235295e-003
1.110797e+003, 3.169340e-003
1.112725e+003, 2.969767e-003
1.114654e+003, 2.920031e-003
1.116582e+003, 2.966437e-003
1.118511e+003, 2.918689e-003
1.120439e+003, 2.789920e-003
1.122368e+003, 2.542433e-003
1.124296e+003, 2.419123e-003
1.126224e+003, 2.346925e-003
1.128153e+003, 2.207335e-003
1.130081e+003, 2.119416e-003
1.132010e+003, 2.140964e-003
1.133938e+003, 2.114612e-003
1.135867e+003, 2.091675e-003
1.137795e+003, 2.044497e-003
1.139724e+003, 1.933835e-003
1.141652e+003, 1.869895e-003
1.143581e+003, 1.760256e-003
1.145509e+003, 1.657193e-003
1.147438e+003, 1.602538e-003
1.149366e+003, 1.484439e-003
1.151295e+003, 1.557258e-003
1.153223e+003, 1.596089e-003
1.155151e+003, 1.485845e-003
1.157080e+003, 1.371060e-003
1.159008e+003, 1.318860e-003
1.160937e+003, 1.339181e-003
1.162865e+003, 1.274846e-003
1.164794e+003, 1.097771e-003
1.166722e+003, 1.053100e-003
1.168651e+003, 1.087397e-003
1.170579e+003, 1.172456e-003
1.172508e+003, 1.140239e-003
1.174436e+003, 1.049612e-003
1.176365e+003, 1.019387e-003
1.178293e+003, 9.379358e-004
1.180222e+003, 8.336640e-004
1.182150e+003, 8.953703e-004
1.184078e+003, 8.395714e-004
1.186007e+003, 6.581768e-004
1.187935e+003, 6.629517e-004
1.189864e+003, 6.327641e-004
1.191792e+003, 5.708502e-004
1.193721e+003, 6.094711e-004
1.195649e+003, 4.933035e-004
1.197578e+003, 5.000173e-004
1.199506e+003, 4.987936e-004
1.201435e+003, 4.411439e-004
1.203363e+003, 4.027456e-004
1.205292e+003, 3.911213e-004
1.207220e+003, 4.006739e-004
1.209149e+003, 4.382824e-004
1.211077e+003, 3.309585e-004
1.213005e+003, 2.695950e-004
1.214934e+003, 3.157392e-004
1.216862e+003, 3.134163e-004
1.218791e+003, 3.575548e-004
1.220719e+003, 2.755991e-004
1.222648e+003, 1.660006e-004
1.224576e+003, 1.705241e-004
1.226505e+003, 1.833137e-004
1.228433e+003, 2.379211e-004
1.230362e+003, 2.918072e-004
1.232290e+003, 2.633414e-004
1.234219e+003, 1.886802e-004
1.236147e+003, 2.175340e-004
1.238076e+003, 2.662195e-004
1.240004e+003, 3.518551e-004
1.241932e+003, 3.651262e-004
1.243861e+003, 3.255662e-004
1.245789e+003, 3.190082e-004
1.247718e+003, 2.472812e-004
1.249646e+003, 2.220221e-004
1.251575e+003, 2.324461e-004
1.253503e+003, 2.111148e-004
1.255432e+003, 1.545151e-004
1.257360e+003, 1.087888e-004
1.259289e+003, 1.554906e-004
1.261217e+003, 2.225310e-004
1.263146e+003, 2.380703e-004
1.265074e+003, 3.223525e-004
1.267003e+003, 3.632127e-004
1.268931e+003, 3.925860e-004
1.270859e+003, 3.497394e-004
1.272788e+003, 3.038106e-004
1.274716e+003, 2.775211e-004
1.276645e+003, 2.579232e-004
1.278573e+003, 2.385623e-004
1.280502e+003, 3.662335e-004
1.282430e+003, 5.018027e-004
1.284359e+003, 4.382861e-004
1.286287e+003, 3.542410e-004
1.288216e+003, 3.673719e-004
1.290144e+003, 3.276286e-004
1.292073e+003, 3.351007e-004
1.294001e+003, 4.428209e-004
1.295930e+003, 4.454576e-004
1.297858e+003, 4.131979e-004
1.299786e+003, 3.794632e-004
1.301715e+003, 3.267260e-004
1.303643e+003, 3.442822e-004
1.305572e+003, 4.007620e-004
1.307500e+003, 3.788106e-004
1.309429e+003, 4.179237e-004
1.311357e+003, 5.072070e-004
1.313286e+003, 5.456713e-004
1.315214e+003, 5.628303e-004
1.317143e+003, 5.440412e-004
1.319071e+003, 6.773212e-004
1.321000e+003, 6.831319e-004
1.322928e+003, 5.481859e-004
1.324857e+003, 5.430971e-004
1.326785e+003, 6.587476e-004
1.328714e+003, 6.247098e-004
1.330642e+003, 5.155485e-004
1.332570e+003, 6.051301e-004
1.334499e+003, 6.374781e-004
1.336427e+003, 5.602065e-004
1.338356e+003, 5.322078e-004
1.340284e+003, 5.095946e-004
1.342213e+003, 5.103278e-004
1.344141e+003, 5.737826e-004
1.346070e+003, 5.980447e-004
1.347998e+003, 5.236589e-004
1.349927e+003, 5.618805e-004
1.351855e+003, 6.781008e-004
1.353784e+003, 6.556265e-004
1.355712e+003, 7.042309e-004
1.357641e+003, 7.251849e-004
1.359569e+003, 8.056024e-004
1.361497e+003, 8.757742e-004
1.363426e+003, 9.547921e-004
1.365354e+003, 9.245604e-004
1.367283e+003, 8.713743e-004
1.369211e+003, 8.864154e-004
1.371140e+003, 9.720254e-004
1.373068e+003, 1.042981e-003
1.374997e+003, 8.841380e-004
1.376925e+003, 7.687411e-004
1.378854e+003, 9.028155e-004
1.380782e+003, 9.854598e-004
1.382711e+003, 1.089088e-003
1.384639e+003, 1.272966e-003
1.386568e+003, 1.487527e-003
1.388496e+003, 1.440618e-003
1.390424e+003, 1.335767e-003
1.392353e+003, 1.401152e-003
1.394281e+003, 1.559625e-003
1.396210e+003, 1.599862e-003
1.398138e+003, 1.626969e-003
1.400067e+003, 1.584049e-003
1.401995e+003, 1.552558e-003
1.403924e+003, 1.613225e-003
1.405852e+003, 1.647341e-003
1.407781e+003, 1.691978e-003
1.409709e+003, 1.748678e-003
1.411638e+003, 1.726444e-003
1.413566e+003, 1.766191e-003
1.415495e+003, 2.063259e-003
1.417423e+003, 2.304935e-003
1.419351e+003, 2.291785e-003
1.421280e+003, 2.048256e-003
1.423208e+003, 2.052123e-003
1.425137e+003, 2.118583e-003
1.427065e+003, 2.062286e-003
1.428994e+003, 2.066974e-003
1.430922e+003, 2.092550e-003
1.432851e+003, 2.098609e-003
1.434779e+003, 2.257577e-003
1.436708e+003, 2.384270e-003
1.438636e+003, 2.229058e-003
1.440565e+003, 2.141661e-003
1.442493e+003, 2.129421e-003
1.444422e+003, 2.038295e-003
1.446350e+003, 2.011977e-003
1.448278e+003, 2.147591e-003
1.450207e+003, 2.238885e-003
1.452135e+003, 2.172188e-003
1.454064e+003, 2.210221e-003
1.455992e+003, 2.667808e-003
1.457921e+003, 2.729606e-003
1.459849e+003, 2.387958e-003
1.461778e+003, 2.312697e-003
1.463706e+003, 2.476009e-003
1.465635e+003, 2.457040e-003
1.467563e+003, 2.382565e-003
1.469492e+003, 2.420543e-003
1.471420e+003, 2.570261e-003
1.473349e+003, 2.586962e-003
1.475277e+003, 2.442683e-003
1.477205e+003, 2.305028e-003
1.479134e+003, 2.282904e-003
1.481062e+003, 2.269185e-003
1.482991e+003, 2.256854e-003
1.484919e+003, 2.223500e-003
1.486848e+003, 2.230194e-003
1.488776e+003, 2.236056e-003
1.490705e+003, 2.160051e-003
1.492633e+003, 2.105634e-003
1.494562e+003, 2.244895e-003
1.496490e+003, 2.443613e-003
1.498419e+003, 2.364289e-003
1.500347e+003, 2.131628e-003
1.502276e+003, 1.935689e-003
1.504204e+003, 2.140808e-003
1.506132e+003, 2.544470e-003
1.508061e+003, 2.343446e-003
1.509989e+003, 2.095735e-003
1.511918e+003, 2.130124e-003
1.513846e+003, 1.965690e-003
1.515775e+003, 1.834011e-003
1.517703e+003, 1.877193e-003
1.519632e+003, 1.984061e-003
1.521560e+003, 1.999220e-003
1.523489e+003, 1.922367e-003
1.525417e+003, 1.907718e-003
1.527346e+003, 1.784782e-003
1.529274e+003, 1.698382e-003
1.531203e+003, 1.635827e-003
1.533131e+003, 1.655558e-003
1.535059e+003, 1.673856e-003
1.536988e+003, 1.769599e-003
1.538916e+003, 2.121919e-003
1.540845e+003, 2.154387e-003
1.542773e+003, 2.013660e-003
1.544702e+003, 1.989842e-003
1.546630e+003, 1.786558e-003
1.548559e+003, 1.752929e-003
1.550487e+003, 1.972974e-003
1.552416e+003, 1.963511e-003
1.554344e+003, 1.855786e-003
1.556273e+003, 2.034848e-003
1.558201e+003, 2.461415e-003
1.560130e+003, 2.435512e-003
1.562058e+003, 1.971917e-003
1.563986e+003, 1.835965e-003
1.565915e+003, 1.900974e-003
1.567843e+003, 1.872945e-003
1.569772e+003, 1.911029e-003
1.571700e+003, 1.857239e-003
1.573629e+003, 1.889686e-003
1.575557e+003, 2.041632e-003
1.577486e+003, 1.968591e-003
1.579414e+003, 1.733815e-003
1.581343e+003, 1.647479e-003
1.583271e+003, 1.579500e-003
1.585200e+003, 1.497092e-003
1.587128e+003, 1.399892e-003
1.589057e+003, 1.403545e-003
1.590985e+003, 1.512805e-003
1.592913e+003, 1.501044e-003
1.594842e+003, 1.471246e-003
1.596770e+003, 1.464224e-003
1.598699e+003, 1.432710e-003
1.600627e+003, 1.446609e-003
1.602556e+003, 1.454896e-003
1.604484e+003, 1.481900e-003
1.606413e+003, 1.506297e-003
1.608341e+003, 1.427521e-003
1.610270e+003, 1.496814e-003
1.612198e+003, 1.515041e-003
1.614127e+003, 1.606261e-003
1.616055e+003, 1.918726e-003
1.617984e+003, 1.865379e-003
1.619912e+003, 1.652314e-003
1.621840e+003, 1.587008e-003
1.623769e+003, 1.586738e-003
1.625697e+003, 1.670040e-003
1.627626e+003, 1.724242e-003
1.629554e+003, 1.652137e-003
1.631483e+003, 1.485708e-003
1.633411e+003, 1.608202e-003
1.635340e+003, 1.834158e-003
1.637268e+003, 1.711997e-003
1.639197e+003, 1.530506e-003
1.641125e+003, 1.482120e-003
1.643054e+003, 1.561551e-003
1.644982e+003, 1.829945e-003
1.646911e+003, 1.859993e-003
1.648839e+003, 1.780068e-003
1.650767e+003, 2.016872e-003
1.652696e+003, 2.417031e-003
1.654624e+003, 2.044951e-003
1.656553e+003, 1.615253e-003
1.658481e+003, 1.553359e-003
1.660410e+003, 1.621661e-003
1.662338e+003, 1.626194e-003
1.664267e+003, 1.495891e-003
1.666195e+003, 1.536904e-003
1.668124e+003, 1.664538e-003
1.670052e+003, 1.516562e-003
1.671981e+003, 1.355005e-003
1.673909e+003, 1.474935e-003
1.675838e+003, 1.587033e-003
1.677766e+003, 1.468585e-003
1.679694e+003, 1.432018e-003
1.681623e+003, 1.425009e-003
1.683551e+003, 1.685524e-003
1.685480e+003, 1.757819e-003
1.687408e+003, 1.555407e-003
1.689337e+003, 1.509618e-003
1.691265e+003, 1.483041e-003
1.693194e+003, 1.433915e-003
1.695122e+003, 1.578840e-003
1.697051e+003, 1.516230e-003
1.698979e+003, 1.684776e-003
1.700908e+003, 1.806789e-003
1.702836e+003, 1.428513e-003
1.704765e+003, 1.383045e-003
1.706693e+003, 1.460815e-003
1.708621e+003, 1.385720e-003
1.710550e+003, 1.297742e-003
1.712478e+003, 1.453487e-003
1.714407e+003, 1.475101e-003
1.716335e+003, 1.727580e-003
1.718264e+003, 1.597427e-003
1.720192e+003, 1.277538e-003
1.722121e+003, 1.296747e-003
1.724049e+003, 1.236914e-003
1.725978e+003, 1.177065e-003
1.727906e+003, 1.317276e-003
1.729835e+003, 1.409528e-003
1.731763e+003, 1.524072e-003
1.733692e+003, 1.695363e-003
1.735620e+003, 1.475837e-003
1.737548e+003, 1.216844e-003
1.739477e+003, 1.310508e-003
1.741405e+003, 1.442196e-003
1.743334e+003, 1.358434e-003
1.745262e+003, 1.322629e-003
1.747191e+003, 1.285179e-003
1.749119e+003, 1.225353e-003
1.751048e+003, 1.267268e-003
1.752976e+003, 1.197048e-003
1.754905e+003, 1.205295e-003
1.756833e+003, 1.189420e-003
1.758762e+003, 1.015999e-003
1.760690e+003, 1.157734e-003
1.762619e+003, 1.293368e-003
1.764547e+003, 1.206296e-003
1.766475e+003, 1.251524e-003
1.768404e+003, 1.347152e-003
1.770332e+003, 1.434417e-003
1.772261e+003, 1.464278e-003
1.774189e+003, 1.252632e-003
1.776118e+003, 1.182908e-003
1.778046e+003, 1.185608e-003
1.779975e+003, 1.089142e-003
1.781903e+003, 1.117993e-003
1.783832e+003, 1.180232e-003
1.785760e+003, 1.024841e-003
1.787689e+003, 8.984379e-004
1.789617e+003, 9.791990e-004
1.791546e+003, 1.291047e-003
1.793474e+003, 1.380478e-003
1.795402e+003, 1.348292e-003
1.797331e+003, 1.284957e-003
1.799259e+003, 1.122256e-003
1.801188e+003, 1.141449e-003
1.803116e+003, 1.048082e-003
1.805045e+003, 1.032375e-003
1.806973e+003, 1.105602e-003
1.808902e+003, 1.079353e-003
1.810830e+003, 1.107482e-003
1.812759e+003, 1.098436e-003
1.814687e+003, 1.140851e-003
1.816616e+003, 1.156892e-003
1.818544e+003, 9.879678e-004
1.820473e+003, 1.106130e-003
1.822401e+003, 1.200186e-003
1.824329e+003, 1.115738e-003
1.826258e+003, 9.864634e-004
1.828186e+003, 9.634877e-004
1.830115e+003, 1.048838e-003
1.832043e+003, 1.177112e-003
1.833972e+003, 1.052449e-003
1.835900e+003, 7.921670e-004
1.837829e+003, 8.470073e-004
1.839757e+003, 1.010662e-003
1.841686e+003, 9.745735e-004
1.843614e+003, 9.135792e-004
1.845543e+003, 9.203508e-004
1.847471e+003, 9.009663e-004
1.849400e+003, 1.133157e-003
1.851328e+003, 1.194909e-003
1.853256e+003, 9.837704e-004
1.855185e+003, 9.503912e-004
1.857113e+003, 1.093641e-003
1.859042e+003, 1.168118e-003
1.860970e+003, 1.085847e-003
1.862899e+003, 9.773939e-004
1.864827e+003, 9.003372e-004
1.866756e+003, 8.847972e-004
1.868684e+003, 1.045709e-003
1.870613e+003, 1.193266e-003
1.872541e+003, 1.356066e-003
1.874470e+003, 1.041422e-003
1.876398e+003, 7.932116e-004
1.878327e+003, 9.763909e-004
1.880255e+003, 1.030352e-003
1.882183e+003, 5.695848e-004
1.884112e+003, 3.105770e-004
1.886040e+003, 3.349638e-004
1.887969e+003, 4.659872e-004
1.889897e+003, 8.365275e-004
1.891826e+003, 7.167888e-004
1.893754e+003, 5.631654e-004
1.895683e+003, 1.015914e-003
1.897611e+003, 9.253554e-004
1.899540e+003, 4.372301e-004
1.901468e+003, 6.443342e-004
1.903397e+003, 6.940306e-004
1.905325e+003, 5.673644e-004
1.907254e+003, 6.011395e-004
1.909182e+003, 2.681346e-004
1.911110e+003, 1.690891e-004
1.913039e+003, 8.986755e-004
1.914967e+003, 1.341285e-003
1.916896e+003, 8.899962e-004
1.918824e+003, 5.654674e-004
1.920753e+003, 3.755741e-004
1.922681e+003, 2.815652e-004
1.924610e+003, 1.438139e-004
1.926538e+003, 3.541621e-004
1.928467e+003, 4.804582e-004
1.930395e+003, 5.354031e-004
1.932324e+003, 3.990389e-004
1.934252e+003, 1.699828e-004
1.936181e+003, -1.888466e-004
1.938109e+003, 5.021949e-005
1.940037e+003, 4.242346e-004
1.941966e+003, 7.019761e-004
1.943894e+003, 4.086456e-004
1.945823e+003, -1.160506e-005
1.947751e+003, -4.964655e-004
1.949680e+003, -1.100598e-003
1.951608e+003, -8.484283e-004
1.953537e+003, -4.388483e-005
1.955465e+003, 1.970567e-004
1.957394e+003, 1.633240e-004
1.959322e+003, 4.232906e-005
1.961251e+003, -3.562336e-004
1.963179e+003, -8.895883e-004
1.965108e+003, -1.058194e-003
1.967036e+003, -2.382497e-004
1.968964e+003, 7.793829e-004
1.970893e+003, 2.529584e-004
1.972821e+003, 5.706776e-005
1.974750e+003, 5.198140e-004
1.976678e+003, -7.377499e-004
1.978607e+003, -1.474865e-003
1.980535e+003, -9.310163e-004
1.982464e+003, -1.355960e-003
1.984392e+003, -1.824395e-004
1.986321e+003, 5.752159e-004
1.988249e+003, -2.672945e-004
1.990178e+003, -1.516799e-003
1.992106e+003, -6.635071e-004
1.994035e+003, -1.633107e-004
1.995963e+003, -5.880653e-004
1.997891e+003, -1.001001e-003
1.999820e+003, -1.225779e-003
2.001748e+003, -5.814846e-004
2.003677e+003, -5.722256e-004
2.005605e+003, -7.707225e-004
2.007534e+003, -1.100705e-003
2.009462e+003, -2.260246e-003
2.011391e+003, -2.193812e-003
2.013319e+003, -8.623273e-004
2.015248e+003, -2.971361e-005
2.017176e+003, -5.701027e-005
2.019105e+003, -3.765723e-004
2.021033e+003, -7.935112e-004
2.022962e+003, -7.980186e-004
2.024890e+003, -8.796161e-004
2.026818e+003, -1.199071e-003
2.028747e+003, -1.195715e-003
2.030675e+003, -1.185496e-003
2.032604e+003, -1.099518e-003
2.034532e+003, -1.741698e-003
2.036461e+003, -1.916809e-003
2.038389e+003, -1.239573e-003
2.040318e+003, -5.330998e-004
2.042246e+003, -1.054788e-003
2.044175e+003, -2.330433e-003
2.046103e+003, -3.013284e-003
2.048031e+003, -2.728650e-003
2.049960e+003, -1.628876e-003
2.051888e+003, -6.453062e-004
2.053817e+003, -1.893665e-004
2.055745e+003, -6.583626e-004
2.057674e+003, -3.025956e-004
2.059602e+003, -4.512450e-004
2.061531e+003, -7.357039e-004
2.063459e+003, -3.172524e-004
2.065388e+003, -9.832089e-004
2.067316e+003, -1.852822e-003
2.069245e+003, -1.635439e-003
2.071173e+003, -8.842958e-004
2.073102e+003, -7.323520e-004
2.075030e+003, -7.494520e-004
2.076958e+003, -5.528522e-004
2.078887e+003, -6.822243e-004
2.080815e+003, -6.817548e-004
2.082744e+003, 5.362215e-005
2.084672e+003, 2.399245e-004
2.086601e+003, -3.166636e-004
2.088529e+003, -4.138150e-005
2.090458e+003, 3.371076e-004
2.092386e+003, 4.959778e-004
2.094315e+003, 1.790360e-005
2.096243e+003, -4.500703e-005
2.098172e+003, 8.815678e-005
2.100100e+003, 2.402384e-004
2.102029e+003, 9.124435e-005
2.103957e+003, 9.676620e-005
2.105885e+003, 4.666447e-004
2.107814e+003, 9.359903e-004
2.109742e+003, 5.100938e-004
2.111671e+003, 1.125857e-004
2.113599e+003, 3.437818e-004
2.115528e+003, 6.871275e-004
2.117456e+003, 7.385890e-004
2.119385e+003, 1.067880e-003
2.121313e+003, 1.829647e-003
2.123242e+003, 1.800153e-003
2.125170e+003, 1.124163e-003
2.127099e+003, 8.105159e-004
2.129027e+003, 1.364043e-003
2.130956e+003, 2.285691e-003
2.132884e+003, 1.941388e-003
2.134813e+003, 1.203842e-003
2.136741e+003, 1.349487e-003
2.138669e+003, 1.162309e-003
2.140598e+003, 1.491791e-003
2.142526e+003, 1.987301e-003
2.144455e+003, 1.385313e-003
2.146383e+003, 1.140226e-003
2.148312e+003, 6.972058e-004
2.150240e+003, 1.792725e-004
2.152169e+003, 8.520441e-004
2.154097e+003, 1.296192e-003
2.156026e+003, 2.109075e-003
2.157954e+003, 2.383321e-003
2.159883e+003, -1.348200e-004
2.161811e+003, -1.597126e-003
2.163740e+003, -8.524067e-004
2.165668e+003, -3.351007e-005
2.167596e+003, -6.377509e-005
2.169525e+003, -3.301824e-004
2.171453e+003, -2.561757e-004
2.173382e+003, 1.008235e-004
2.175310e+003, -3.661431e-005
2.177239e+003, -6.921532e-004
2.179167e+003, -7.884415e-005
2.181096e+003, 9.474802e-004
2.183024e+003, 8.879343e-004
2.184953e+003, 1.955626e-004
2.186881e+003, 1.392063e-004
2.188810e+003, 6.293549e-004
2.190738e+003, -1.144644e-004
2.192667e+003, -1.448569e-004
2.194595e+003, 1.132252e-004
2.196523e+003, 8.358770e-004
2.198452e+003, 1.135360e-003
2.200380e+003, -5.868873e-005
2.202309e+003, -5.880416e-004
2.204237e+003, 5.224179e-004
2.206166e+003, 1.079479e-003
2.208094e+003, 3.282658e-004
2.210023e+003, 7.596643e-004
2.211951e+003, 1.071524e-003
2.213880e+003, 5.087032e-004
2.215808e+003, 6.533543e-004
2.217737e+003, 8.541727e-004
2.219665e+003, 1.197786e-003
2.221594e+003, 1.724243e-003
2.223522e+003, 1.424658e-003
2.225450e+003, 1.341343e-003
2.227379e+003, 9.887886e-004
2.229307e+003, 3.940073e-004
2.231236e+003, -7.082221e-005
2.233164e+003, 5.687347e-004
2.235093e+003, 8.598939e-004
2.237021e+003, 1.005979e-003
2.238950e+003, 1.114904e-003
2.240878e+003, 9.152565e-004
2.242807e+003, 1.067128e-003
2.244735e+003, 6.854776e-004
2.246664e+003, -1.412789e-004
2.248592e+003, 2.763034e-004
2.250521e+003, 1.003914e-003
2.252449e+003, 8.027804e-004
2.254377e+003, 5.767531e-004
2.256306e+003, 7.365932e-004
2.258234e+003, 8.157010e-004
2.260163e+003, 8.896270e-004
2.262091e+003, 8.110179e-004
2.264020e+003, 3.768782e-004
2.265948e+003, 3.478321e-004
2.267877e+003, 6.172000e-004
2.269805e+003, 3.943935e-004
2.271734e+003, 6.699409e-005
2.273662e+003, 2.430626e-004
2.275591e+003, 3.860455e-004
2.277519e+003, 6.509351e-004
2.279448e+003, 4.569701e-004
2.281376e+003, 1.735726e-004
2.283304e+003, 2.765580e-004
2.285233e+003, 4.529030e-004
2.287161e+003, 2.758122e-004
2.289090e+003, -2.026420e-004
2.291018e+003, 1.357376e-004
2.292947e+003, 6.903925e-004
2.294875e+003, 9.296999e-004
2.296804e+003, 9.652168e-004
2.298732e+003, 7.525018e-004
2.300661e+003, 7.431394e-004
2.302589e+003, 1.016143e-003
2.304518e+003, 9.867259e-004
2.306446e+003, 7.671873e-004
2.308375e+003, 8.210284e-004
2.310303e+003, 9.041527e-004
2.312231e+003, 9.692462e-004
2.314160e+003, 9.842537e-004
2.316088e+003, 9.241602e-004
2.318017e+003, 1.107065e-003
2.319945e+003, 1.082900e-003
2.321874e+003, 9.451808e-004
2.323802e+003, 1.050862e-003
2.325731e+003, 1.316981e-003
2.327659e+003, 1.468055e-003
2.329588e+003, 1.654579e-003
2.331516e+003, 1.805765e-003
2.333445e+003, 1.803231e-003
2.335373e+003, 1.957987e-003
2.337302e+003, 2.077553e-003
2.339230e+003, 2.117791e-003
2.341158e+003, 2.186778e-003
2.343087e+003, 2.047066e-003
2.345015e+003, 1.953926e-003
2.346944e+003, 1.796836e-003
2.348872e+003, 1.649021e-003
2.350801e+003, 1.684079e-003
2.352729e+003, 1.943092e-003
2.354658e+003, 2.335599e-003
2.356586e+003, 2.492325e-003
2.358515e+003, 2.447129e-003
2.360443e+003, 2.535057e-003
2.362372e+003, 2.806390e-003
2.364300e+003, 3.039732e-003
2.366229e+003, 2.948954e-003
2.368157e+003, 2.671095e-003
2.370085e+003, 2.469840e-003
2.372014e+003, 2.262465e-003
2.373942e+003, 2.099639e-003
2.375871e+003, 2.048021e-003
2.377799e+003, 1.954325e-003
2.379728e+003, 1.716491e-003
2.381656e+003, 1.595369e-003
2.383585e+003, 1.453263e-003
2.385513e+003, 1.215267e-003
2.387442e+003, 1.564702e-003
2.389370e+003, 2.022613e-003
2.391299e+003, 1.978598e-003
2.393227e+003, 1.683655e-003
2.395156e+003, 1.501327e-003
2.397084e+003, 1.523693e-003
2.399012e+003, 1.593302e-003
2.400941e+003, 1.464562e-003
2.402869e+003, 1.293379e-003
2.404798e+003, 1.430690e-003
2.406726e+003, 1.322203e-003
2.408655e+003, 1.245594e-003
2.410583e+003, 1.564190e-003
2.412512e+003, 1.352595e-003
2.414440e+003, 1.142224e-003
2.416369e+003, 1.199164e-003
2.418297e+003, 1.113407e-003
2.420226e+003, 1.387673e-003
2.422154e+003, 1.725388e-003
2.424083e+003, 1.879791e-003
2.426011e+003, 1.339156e-003
2.427939e+003, 1.351659e-003
2.429868e+003, 1.926300e-003
2.431796e+003, 1.910797e-003
2.433725e+003, 1.792999e-003
2.435653e+003, 1.570597e-003
2.437582e+003, 1.405469e-003
2.439510e+003, 1.625785e-003
2.441439e+003, 1.607221e-003
2.443367e+003, 1.540870e-003
2.445296e+003, 1.748365e-003
2.447224e+003, 1.305563e-003
2.449153e+003, 1.119733e-003
2.451081e+003, 1.503362e-003
2.453010e+003, 1.509754e-003
2.454938e+003, 1.366038e-003
2.456866e+003, 1.766504e-003
2.458795e+003, 2.130931e-003
2.460723e+003, 1.812890e-003
2.462652e+003, 1.371392e-003
2.464580e+003, 1.603481e-003
2.466509e+003, 2.214840e-003
2.468437e+003, 2.266322e-003
2.470366e+003, 1.827537e-003
2.472294e+003, 1.310736e-003
2.474223e+003, 1.226972e-003
2.476151e+003, 1.828858e-003
2.478080e+003, 2.049826e-003
2.480008e+003, 1.920690e-003
2.481937e+003, 1.821351e-003
2.483865e+003, 1.818480e-003
2.485793e+003, 1.678408e-003
2.487722e+003, 1.976871e-003
2.489650e+003, 2.619741e-003
2.491579e+003, 2.368482e-003
2.493507e+003, 1.991070e-003
2.495436e+003, 1.968671e-003
2.497364e+003, 1.879588e-003
2.499293e+003, 1.785562e-003
2.501221e+003, 1.861986e-003
2.503150e+003, 2.129232e-003
2.505078e+003, 2.162892e-003
2.507007e+003, 2.001100e-003
2.508935e+003, 1.922940e-003
2.510864e+003, 2.068693e-003
2.512792e+003, 2.070865e-003
2.514720e+003, 1.993401e-003
2.516649e+003, 2.257357e-003
2.518577e+003, 2.344303e-003
2.520506e+003, 2.039068e-003
2.522434e+003, 1.697790e-003
2.524363e+003, 1.767113e-003
2.526291e+003, 2.037794e-003
2.528220e+003, 1.901552e-003
2.530148e+003, 1.668138e-003
2.532077e+003, 1.236511e-003
2.534005e+003, 8.811962e-004
2.535934e+003, 1.129717e-003
2.537862e+003, 1.705648e-003
2.539791e+003, 1.878475e-003
2.541719e+003, 1.811908e-003
2.543647e+003, 1.513633e-003
2.545576e+003, 1.496875e-003
2.547504e+003, 1.784327e-003
2.549433e+003, 1.940186e-003
2.551361e+003, 2.145509e-003
2.553290e+003, 2.157981e-003
2.555218e+003, 1.895568e-003
2.557147e+003, 1.814759e-003
2.559075e+003, 1.949308e-003
2.561004e+003, 1.918050e-003
2.562932e+003, 1.697662e-003
2.564861e+003, 1.804571e-003
2.566789e+003, 1.656181e-003
2.568718e+003, 1.415714e-003
2.570646e+003, 1.643741e-003
2.572574e+003, 1.697134e-003
2.574503e+003, 1.469212e-003
2.576431e+003, 1.462961e-003
2.578360e+003, 1.587930e-003
2.580288e+003, 1.652647e-003
2.582217e+003, 1.316846e-003
2.584145e+003, 1.172794e-003
2.586074e+003, 1.656095e-003
2.588002e+003, 1.952873e-003
2.589931e+003, 1.930431e-003
2.591859e+003, 1.580162e-003
2.593788e+003, 1.288329e-003
2.595716e+003, 1.185880e-003
2.597645e+003, 1.182108e-003
2.599573e+003, 1.162206e-003
2.601501e+003, 1.500069e-003
2.603430e+003, 1.549294e-003
2.605358e+003, 1.221136e-003
2.607287e+003, 9.536282e-004
2.609215e+003, 1.066997e-003
2.611144e+003, 1.532832e-003
2.613072e+003, 1.734169e-003
2.615001e+003, 1.596439e-003
2.616929e+003, 1.507663e-003
2.618858e+003, 1.556650e-003
2.620786e+003, 1.595188e-003
2.622715e+003, 1.461833e-003
2.624643e+003, 1.108560e-003
2.626572e+003, 9.726146e-004
2.628500e+003, 1.007760e-003
2.630428e+003, 1.349373e-003
2.632357e+003, 1.156171e-003
2.634285e+003, 1.066153e-003
2.636214e+003, 1.065360e-003
2.638142e+003, 1.052228e-003
2.640071e+003, 1.083030e-003
2.641999e+003, 1.125092e-003
2.643928e+003, 1.215009e-003
2.645856e+003, 1.068379e-003
2.647785e+003, 7.564970e-004
2.649713e+003, 8.844425e-004
2.651642e+003, 1.205361e-003
2.653570e+003, 1.225426e-003
2.655499e+003, 1.271679e-003
2.657427e+003, 1.407918e-003
2.659355e+003, 1.421820e-003
2.661284e+003, 1.243906e-003
2.663212e+003, 1.252228e-003
2.665141e+003, 1.468415e-003
2.667069e+003, 1.619289e-003
2.668998e+003, 1.577332e-003
2.670926e+003, 1.584676e-003
2.672855e+003, 1.707323e-003
2.674783e+003, 1.557145e-003
2.676712e+003, 1.548232e-003
2.678640e+003, 1.721506e-003
2.680569e+003, 1.755569e-003
2.682497e+003, 1.725053e-003
2.684426e+003, 1.887803e-003
2.686354e+003, 1.951033e-003
2.688282e+003, 1.799605e-003
2.690211e+003, 1.692611e-003
2.692139e+003, 1.507674e-003
2.694068e+003, 1.483995e-003
2.695996e+003, 1.575219e-003
2.697925e+003, 1.463654e-003
2.699853e+003, 1.305457e-003
2.701782e+003, 1.418421e-003
2.703710e+003, 1.552905e-003
2.705639e+003, 1.732304e-003
2.707567e+003, 1.883499e-003
2.709496e+003, 1.714364e-003
2.711424e+003, 1.697050e-003
2.713353e+003, 1.858979e-003
2.715281e+003, 1.590901e-003
2.717209e+003, 1.449777e-003
2.719138e+003, 1.437636e-003
2.721066e+003, 1.277625e-003
2.722995e+003, 1.249177e-003
2.724923e+003, 1.388989e-003
2.726852e+003, 1.543941e-003
2.728780e+003, 1.502845e-003
2.730709e+003, 1.633826e-003
2.732637e+003, 1.871103e-003
2.734566e+003, 1.741206e-003
2.736494e+003, 1.495745e-003
2.738423e+003, 1.430571e-003
2.740351e+003, 1.561585e-003
2.742280e+003, 1.641022e-003
2.744208e+003, 1.754175e-003
2.746136e+003, 2.046404e-003
2.748065e+003, 2.005064e-003
2.749993e+003, 1.945869e-003
2.751922e+003, 1.940292e-003
2.753850e+003, 1.853185e-003
2.755779e+003, 1.904965e-003
2.757707e+003, 1.932016e-003
2.759636e+003, 1.949486e-003
2.761564e+003, 1.945624e-003
2.763493e+003, 1.857381e-003
2.765421e+003, 1.673680e-003
2.767350e+003, 1.471389e-003
2.769278e+003, 1.641926e-003
2.771207e+003, 2.054877e-003
2.773135e+003, 2.339370e-003
2.775063e+003, 2.270152e-003
2.776992e+003, 2.262327e-003
2.778920e+003, 2.390840e-003
2.780849e+003, 2.107900e-003
2.782777e+003, 1.921966e-003
2.784706e+003, 2.069693e-003
2.786634e+003, 2.157423e-003
2.788563e+003, 2.075984e-003
2.790491e+003, 2.215337e-003
2.792420e+003, 2.319762e-003
2.794348e+003, 2.158294e-003
2.796277e+003, 2.239516e-003
2.798205e+003, 2.496619e-003
2.800134e+003, 2.505498e-003
2.802062e+003, 2.327772e-003
2.803990e+003, 2.310664e-003
2.805919e+003, 2.448630e-003
2.807847e+003, 2.414143e-003
2.809776e+003, 2.187557e-003
2.811704e+003, 2.223124e-003
2.813633e+003, 2.175430e-003
2.815561e+003, 2.373104e-003
2.817490e+003, 2.738545e-003
2.819418e+003, 2.894635e-003
2.821347e+003, 2.918635e-003
2.823275e+003, 2.647978e-003
2.825204e+003, 2.393517e-003
2.827132e+003, 2.568705e-003
2.829061e+003, 2.833972e-003
2.830989e+003, 2.742547e-003
2.832917e+003, 2.621558e-003
2.834846e+003, 2.673892e-003
2.836774e+003, 2.763978e-003
2.838703e+003, 2.711276e-003
2.840631e+003, 2.648694e-003
2.842560e+003, 2.631897e-003
2.844488e+003, 2.454618e-003
2.846417e+003, 2.598892e-003
2.848345e+003, 2.633755e-003
2.850274e+003, 2.546861e-003
2.852202e+003, 2.697840e-003
2.854131e+003, 2.537420e-003
2.856059e+003, 2.387041e-003
2.857988e+003, 2.377268e-003
2.859916e+003, 2.827365e-003
2.861844e+003, 3.227080e-003
2.863773e+003, 2.943216e-003
2.865701e+003, 2.360472e-003
2.867630e+003, 2.323887e-003
2.869558e+003, 2.585149e-003
2.871487e+003, 2.993966e-003
2.873415e+003, 3.014396e-003
2.875344e+003, 2.941070e-003
2.877272e+003, 2.600123e-003
2.879201e+003, 2.277543e-003
2.881129e+003, 2.424446e-003
2.883058e+003, 2.457176e-003
2.884986e+003, 2.560158e-003
2.886915e+003, 2.714952e-003
2.888843e+003, 2.649619e-003
2.890771e+003, 2.475075e-003
2.892700e+003, 2.371571e-003
2.894628e+003, 2.465596e-003
2.896557e+003, 2.677468e-003
2.898485e+003, 2.852597e-003
2.900414e+003, 2.912192e-003
2.902342e+003, 2.912008e-003
2.904271e+003, 2.916354e-003
2.906199e+003, 2.931803e-003
2.908128e+003, 2.724665e-003
2.910056e+003, 2.621730e-003
2.911985e+003, 2.688442e-003
2.913913e+003, 2.648521e-003
2.915842e+003, 2.782048e-003
2.917770e+003, 2.982334e-003
2.919698e+003, 3.226073e-003
2.921627e+003, 3.349622e-003
2.923555e+003, 2.986597e-003
2.925484e+003, 2.855949e-003
2.927412e+003, 3.010760e-003
2.929341e+003, 3.167640e-003
2.931269e+003, 3.217339e-003
2.933198e+003, 3.212148e-003
2.935126e+003, 3.238927e-003
2.937055e+003, 3.300278e-003
2.938983e+003, 3.068051e-003
2.940912e+003, 2.870033e-003
2.942840e+003, 2.733052e-003
2.944769e+003, 2.970126e-003
2.946697e+003, 3.156360e-003
2.948625e+003, 3.386942e-003
2.950554e+003, 3.536789e-003
2.952482e+003, 3.531056e-003
2.954411e+003, 2.984168e-003
2.956339e+003, 2.774155e-003
2.958268e+003, 2.717224e-003
2.960196e+003, 2.726662e-003
2.962125e+003, 2.981040e-003
2.964053e+003, 3.091563e-003
2.965982e+003, 2.878346e-003
2.967910e+003, 2.811129e-003
2.969839e+003, 2.469319e-003
2.971767e+003, 2.544818e-003
2.973696e+003, 3.040978e-003
2.975624e+003, 2.765574e-003
2.977552e+003, 2.623617e-003
2.979481e+003, 2.752438e-003
2.981409e+003, 2.919753e-003
2.983338e+003, 2.861902e-003
2.985266e+003, 2.921151e-003
2.987195e+003, 2.752225e-003
2.989123e+003, 2.606521e-003
2.991052e+003, 2.546834e-003
2.992980e+003, 2.308534e-003
2.994909e+003, 2.563143e-003
2.996837e+003, 2.852062e-003
2.998766e+003, 2.911754e-003
3.000694e+003, 2.793457e-003
3.002623e+003, 2.622081e-003
3.004551e+003, 2.761531e-003
3.006479e+003, 2.600694e-003
3.008408e+003, 2.657697e-003
3.010336e+003, 2.935585e-003
3.012265e+003, 2.546396e-003
3.014193e+003, 2.813130e-003
3.016122e+003, 3.486316e-003
3.018050e+003, 2.931682e-003
3.019979e+003, 2.303897e-003
3.021907e+003, 2.418716e-003
3.023836e+003, 2.597035e-003
3.025764e+003, 2.812275e-003
3.027693e+003, 2.705796e-003
3.029621e+003, 2.809823e-003
3.031550e+003, 3.245638e-003
3.033478e+003, 3.484106e-003
3.035406e+003, 3.579502e-003
3.037335e+003, 3.364630e-003
3.039263e+003, 2.904247e-003
3.041192e+003, 2.618606e-003
3.043120e+003, 2.708267e-003
3.045049e+003, 2.700480e-003
3.046977e+003, 2.841805e-003
3.048906e+003, 2.840465e-003
3.050834e+003, 2.572113e-003
3.052763e+003, 3.019943e-003
3.054691e+003, 3.314349e-003
3.056620e+003, 3.312380e-003
3.058548e+003, 3.033589e-003
3.060477e+003, 2.969337e-003
3.062405e+003, 3.042601e-003
3.064333e+003, 2.920572e-003
3.066262e+003, 3.088694e-003
3.068190e+003, 3.081567e-003
3.070119e+003, 3.042006e-003
3.072047e+003, 3.206754e-003
3.073976e+003, 3.340685e-003
3.075904e+003, 3.156942e-003
3.077833e+003, 3.201855e-003
3.079761e+003, 3.366307e-003
3.081690e+003, 2.984495e-003
3.083618e+003, 2.991482e-003
3.085547e+003, 3.117752e-003
3.087475e+003, 3.167484e-003
3.089404e+003, 3.548853e-003
3.091332e+003, 3.789865e-003
3.093260e+003, 3.297940e-003
3.095189e+003, 3.293827e-003
3.097117e+003, 3.734082e-003
3.099046e+003, 3.886339e-003
3.100974e+003, 3.497656e-003
3.102903e+003, 3.542403e-003
3.104831e+003, 3.539344e-003
3.106760e+003, 3.583962e-003
3.108688e+003, 3.602918e-003
3.110617e+003, 3.424419e-003
3.112545e+003, 3.206746e-003
3.114474e+003, 3.251454e-003
3.116402e+003, 3.625836e-003
3.118331e+003, 3.713552e-003
3.120259e+003, 3.605444e-003
3.122188e+003, 3.650097e-003
3.124116e+003, 3.910926e-003
3.126044e+003, 4.038726e-003
3.127973e+003, 3.590976e-003
3.129901e+003, 3.103944e-003
3.131830e+003, 3.201547e-003
3.133758e+003, 3.442608e-003
3.135687e+003, 3.416083e-003
3.137615e+003, 3.436318e-003
3.139544e+003, 3.496625e-003
3.141472e+003, 3.583304e-003
3.143401e+003, 3.409868e-003
3.145329e+003, 3.698156e-003
3.147258e+003, 4.181816e-003
3.149186e+003, 3.565321e-003
3.151115e+003, 3.370298e-003
3.153043e+003, 3.422004e-003
3.154971e+003, 3.484252e-003
3.156900e+003, 3.693406e-003
3.158828e+003, 3.454515e-003
3.160757e+003, 3.433210e-003
3.162685e+003, 3.778983e-003
3.164614e+003, 3.826606e-003
3.166542e+003, 4.103991e-003
3.168471e+003, 4.238646e-003
3.170399e+003, 4.056099e-003
3.172328e+003, 3.338195e-003
3.174256e+003, 3.158367e-003
3.176185e+003, 3.462945e-003
3.178113e+003, 3.601765e-003
3.180042e+003, 3.796340e-003
3.181970e+003, 3.819470e-003
3.183898e+003, 3.788145e-003
3.185827e+003, 3.938530e-003
3.187755e+003, 4.120891e-003
3.189684e+003, 3.542084e-003
3.191612e+003, 2.903790e-003
3.193541e+003, 2.912649e-003
3.195469e+003, 3.408398e-003
3.197398e+003, 3.504872e-003
3.199326e+003, 3.250463e-003
3.201255e+003, 3.282192e-003
3.203183e+003, 3.249807e-003
3.205112e+003, 3.540690e-003
3.207040e+003, 3.633376e-003
3.208969e+003, 3.792491e-003
3.210897e+003, 3.688521e-003
3.212825e+003, 3.488166e-003
3.214754e+003, 3.196741e-003
3.216682e+003, 3.451752e-003
3.218611e+003, 3.619541e-003
3.220539e+003, 3.374379e-003
3.222468e+003, 3.093652e-003
3.224396e+003, 3.070555e-003
3.226325e+003, 3.060071e-003
3.228253e+003, 3.045606e-003
3.230182e+003, 2.611260e-003
3.232110e+003, 2.542866e-003
3.234039e+003, 2.661508e-003
3.235967e+003, 3.053636e-003
3.237896e+003, 2.827428e-003
3.239824e+003, 2.411394e-003
3.241752e+003, 2.686366e-003
3.243681e+003, 2.447102e-003
3.245609e+003, 2.095687e-003
3.247538e+003, 2.535061e-003
3.249466e+003, 3.156260e-003
3.251395e+003, 3.171846e-003
3.253323e+003, 2.823835e-003
3.255252e+003, 2.218039e-003
3.257180e+003, 1.993889e-003
3.259109e+003, 2.378260e-003
3.261037e+003, 2.743919e-003
3.262966e+003, 2.944765e-003
3.264894e+003, 3.105435e-003
3.266823e+003, 3.138512e-003
3.268751e+003, 2.770160e-003
3.270679e+003, 2.558880e-003
3.272608e+003, 2.346620e-003
3.274536e+003, 2.191407e-003
3.276465e+003, 2.225208e-003
3.278393e+003, 2.519754e-003
3.280322e+003, 2.338978e-003
3.282250e+003, 2.462908e-003
3.284179e+003, 2.461957e-003
3.286107e+003, 2.332088e-003
3.288036e+003, 2.143266e-003
3.289964e+003, 2.295955e-003
3.291893e+003, 2.210997e-003
3.293821e+003, 1.752185e-003
3.295750e+003, 1.662138e-003
3.297678e+003, 2.169796e-003
3.299606e+003, 2.805291e-003
3.301535e+003, 2.977600e-003
3.303463e+003, 1.958538e-003
3.305392e+003, 1.358265e-003
3.307320e+003, 1.804901e-003
3.309249e+003, 2.204973e-003
3.311177e+003, 1.960255e-003
3.313106e+003, 2.074955e-003
3.315034e+003, 2.256463e-003
3.316963e+003, 2.085626e-003
3.318891e+003, 2.710295e-003
3.320820e+003, 2.867757e-003
3.322748e+003, 2.729549e-003
3.324677e+003, 3.009510e-003
3.326605e+003, 2.478414e-003
3.328533e+003, 2.044968e-003
3.330462e+003, 2.069359e-003
3.332390e+003, 2.293049e-003
3.334319e+003, 2.235619e-003
3.336247e+003, 2.283081e-003
3.338176e+003, 2.177611e-003
3.340104e+003, 1.821795e-003
3.342033e+003, 1.546574e-003
3.343961e+003, 1.748351e-003
3.345890e+003, 2.288902e-003
3.347818e+003, 2.514442e-003
3.349747e+003, 1.937410e-003
3.351675e+003, 1.406630e-003
3.353604e+003, 1.955330e-003
3.355532e+003, 2.656676e-003
3.357460e+003, 2.435433e-003
3.359389e+003, 1.598733e-003
3.361317e+003, 1.391725e-003
3.363246e+003, 1.656907e-003
3.365174e+003, 1.990994e-003
3.367103e+003, 2.073915e-003
3.369031e+003, 2.023234e-003
3.370960e+003, 2.310080e-003
3.372888e+003, 2.517262e-003
3.374817e+003, 2.894779e-003
3.376745e+003, 2.600951e-003
3.378674e+003, 2.245737e-003
3.380602e+003, 2.265866e-003
3.382531e+003, 2.078142e-003
3.384459e+003, 2.102685e-003
3.386387e+003, 2.544871e-003
3.388316e+003, 2.879474e-003
3.390244e+003, 2.598183e-003
3.392173e+003, 2.197526e-003
3.394101e+003, 1.978041e-003
3.396030e+003, 2.050828e-003
3.397958e+003, 1.826746e-003
3.399887e+003, 1.600864e-003
3.401815e+003, 1.612378e-003
3.403744e+003, 2.121556e-003
3.405672e+003, 2.368227e-003
3.407601e+003, 2.217698e-003
3.409529e+003, 1.988277e-003
3.411458e+003, 1.880293e-003
3.413386e+003, 2.088718e-003
3.415314e+003, 2.351583e-003
3.417243e+003, 2.299157e-003
3.419171e+003, 1.665291e-003
3.421100e+003, 1.102331e-003
3.423028e+003, 1.587462e-003
3.424957e+003, 2.253315e-003
3.426885e+003, 2.662208e-003
3.428814e+003, 2.556269e-003
3.430742e+003, 2.164226e-003
3.432671e+003, 1.843016e-003
3.434599e+003, 2.088251e-003
3.436528e+003, 2.372918e-003
3.438456e+003, 2.303730e-003
3.440385e+003, 2.463727e-003
3.442313e+003, 2.332132e-003
3.444241e+003, 1.905447e-003
3.446170e+003, 1.478062e-003
3.448098e+003, 1.887676e-003
3.450027e+003, 2.562351e-003
3.451955e+003, 2.363638e-003
3.453884e+003, 1.611968e-003
3.455812e+003, 2.145066e-003
3.457741e+003, 2.857545e-003
3.459669e+003, 2.253996e-003
3.461598e+003, 1.535196e-003
3.463526e+003, 1.340542e-003
3.465455e+003, 1.436451e-003
3.467383e+003, 1.444265e-003
3.469312e+003, 1.762790e-003
3.471240e+003, 2.330649e-003
3.473168e+003, 2.487320e-003
3.475097e+003, 2.258166e-003
3.477025e+003, 2.049210e-003
3.478954e+003, 1.098363e-003
3.480882e+003, 7.668308e-004
3.482811e+003, 1.505213e-003
3.484739e+003, 1.708207e-003
3.486668e+003, 1.202309e-003
3.488596e+003, 1.173822e-003
3.490525e+003, 1.296934e-003
3.492453e+003, 1.410114e-003
3.494382e+003, 1.223856e-003
3.496310e+003, 9.810766e-004
3.498239e+003, 1.385185e-003
3.500167e+003, 1.470226e-003
3.502095e+003, 1.078729e-003
3.504024e+003, 1.403281e-003
3.505952e+003, 1.531843e-003
3.507881e+003, 1.467533e-003
3.509809e+003, 2.037323e-003
3.511738e+003, 2.069552e-003
3.513666e+003, 2.175731e-003
3.515595e+003, 2.361013e-003
3.517523e+003, 1.622885e-003
3.519452e+003, 1.153278e-003
3.521380e+003, 1.341914e-003
3.523309e+003, 2.092035e-003
3.525237e+003, 1.872015e-003
3.527166e+003, 1.804238e-003
3.529094e+003, 2.167601e-003
3.531022e+003, 2.146877e-003
3.532951e+003, 2.130466e-003
3.534879e+003, 1.894609e-003
3.536808e+003, 1.963932e-003
3.538736e+003, 1.940701e-003
3.540665e+003, 1.800455e-003
3.542593e+003, 1.691795e-003
3.544522e+003, 1.506255e-003
3.546450e+003, 1.484374e-003
3.548379e+003, 1.488594e-003
3.550307e+003, 1.723389e-003
3.552236e+003, 1.410101e-003
3.554164e+003, 1.030306e-003
3.556093e+003, 1.309503e-003
3.558021e+003, 1.501017e-003
3.559949e+003, 1.666666e-003
3.561878e+003, 1.612868e-003
3.563806e+003, 1.831847e-003
3.565735e+003, 2.082326e-003
3.567663e+003, 1.607086e-003
3.569592e+003, 1.526736e-003
3.571520e+003, 1.739492e-003
3.573449e+003, 1.329878e-003
3.575377e+003, 1.365811e-003
3.577306e+003, 1.453865e-003
3.579234e+003, 7.483927e-004
3.581163e+003, 8.075613e-004
3.583091e+003, 7.690355e-004
3.585020e+003, 9.090984e-004
3.586948e+003, 1.110812e-003
3.588876e+003, 4.438501e-004
3.590805e+003, -2.792161e-004
3.592733e+003, -1.867654e-004
3.594662e+003, 4.869799e-004
3.596590e+003, 1.091498e-003
3.598519e+003, 1.174891e-003
3.600447e+003, 1.595087e-004
3.602376e+003, -9.059258e-005
3.604304e+003, 2.271631e-004
3.606233e+003, 4.354787e-004
3.608161e+003, 1.006481e-003
3.610090e+003, 1.839815e-004
3.612018e+003, -4.364150e-004
3.613947e+003, -5.849633e-004
3.615875e+003, -6.984683e-005
3.617803e+003, 1.103214e-003
3.619732e+003, 1.359106e-003
3.621660e+003, 3.692841e-004
3.623589e+003, 2.363040e-004
3.625517e+003, 5.598962e-004
3.627446e+003, 1.572053e-003
3.629374e+003, 1.745638e-003
3.631303e+003, 1.213530e-003
3.633231e+003, 9.486674e-004
3.635160e+003, 8.380554e-004
3.637088e+003, 8.791345e-004
3.639017e+003, 1.414412e-004
3.640945e+003, -4.108438e-004
3.642874e+003, -3.653262e-004
3.644802e+003, -3.750579e-004
3.646730e+003, -4.351732e-004
3.648659e+003, 1.424205e-004
3.650587e+003, -9.676694e-007
3.652516e+003, -6.258055e-004
3.654444e+003, -7.119500e-004
3.656373e+003, -7.498650e-004
3.658301e+003, -1.017632e-003
3.660230e+003, -1.158391e-003
3.662158e+003, -9.668026e-004
3.664087e+003, -6.615251e-004
3.666015e+003, -8.608673e-004
3.667944e+003, -1.443289e-003
3.669872e+003, -3.280368e-004
3.671801e+003, 2.037962e-004
3.673729e+003, -4.158818e-004
3.675657e+003, -9.138894e-004
3.677586e+003, -1.943839e-003
3.679514e+003, -1.842934e-003
3.681443e+003, -1.337573e-003
3.683371e+003, -1.170959e-003
3.685300e+003, -1.988894e-003
3.687228e+003, -1.853266e-003
3.689157e+003, -1.520758e-003
3.691085e+003, -2.447933e-003
3.693014e+003, -2.932596e-003
3.694942e+003, -2.690188e-003
3.696871e+003, -2.786729e-003
3.698799e+003, -3.082025e-003
3.700728e+003, -3.027334e-003
3.702656e+003, -2.616559e-003
3.704584e+003, -2.857486e-003
3.706513e+003, -2.963542e-003
3.708441e+003, -2.311474e-003
3.710370e+003, -1.995057e-003
3.712298e+003, -2.595005e-003
3.714227e+003, -3.190686e-003
3.716155e+003, -2.879808e-003
3.718084e+003, -2.486257e-003
3.720012e+003, -2.651959e-003
3.721941e+003, -3.349554e-003
3.723869e+003, -2.436411e-003
3.725798e+003, -1.377247e-003
3.727726e+003, -1.407455e-003
3.729655e+003, -2.016905e-003
3.731583e+003, -2.049807e-003
3.733511e+003, -1.511358e-003
3.735440e+003, -1.174649e-003
3.737368e+003, -1.699105e-003
3.739297e+003, -2.353347e-003
3.741225e+003, -2.400731e-003
3.743154e+003, -1.999306e-003
3.745082e+003, -1.472898e-003
3.747011e+003, -1.686125e-003
3.748939e+003, -1.505069e-003
3.750868e+003, -1.706856e-003
3.752796e+003, -2.159069e-003
3.754725e+003, -2.513119e-003
3.756653e+003, -3.021896e-003
3.758582e+003, -3.339652e-003
3.760510e+003, -3.417713e-003
3.762438e+003, -3.559165e-003
3.764367e+003, -3.177492e-003
3.766295e+003, -2.670377e-003
3.768224e+003, -2.409703e-003
3.770152e+003, -2.264988e-003
3.772081e+003, -2.491915e-003
3.774009e+003, -2.128563e-003
3.775938e+003, -2.178380e-003
3.777866e+003, -2.612720e-003
3.779795e+003, -2.979756e-003
3.781723e+003, -3.453373e-003
3.783652e+003, -3.353295e-003
3.785580e+003, -2.805265e-003
3.787509e+003, -3.338679e-003
3.789437e+003, -3.683929e-003
3.791365e+003, -3.224354e-003
3.793294e+003, -3.211066e-003
3.795222e+003, -3.684158e-003
3.797151e+003, -3.386227e-003
3.799079e+003, -2.762489e-003
3.801008e+003, -2.215483e-003
3.802936e+003, -1.734830e-003
3.804865e+003, -1.830790e-003
3.806793e+003, -2.405021e-003
3.808722e+003, -3.136209e-003
3.810650e+003, -3.462274e-003
3.812579e+003, -3.586554e-003
3.814507e+003, -3.754330e-003
3.816436e+003, -3.454659e-003
3.818364e+003, -3.451102e-003
3.820292e+003, -2.859800e-003
3.822221e+003, -2.297028e-003
3.824149e+003, -2.823980e-003
3.826078e+003, -2.896402e-003
3.828006e+003, -2.341416e-003
3.829935e+003, -2.238553e-003
3.831863e+003, -2.878475e-003
3.833792e+003, -3.249785e-003
3.835720e+003, -2.604004e-003
3.837649e+003, -2.371567e-003
3.839577e+003, -2.718144e-003
3.841506e+003, -3.475448e-003
3.843434e+003, -4.178926e-003
3.845363e+003, -3.798300e-003
3.847291e+003, -3.489841e-003
3.849219e+003, -3.026339e-003
3.851148e+003, -2.104781e-003
3.853076e+003, -9.817341e-004
3.855005e+003, -1.775553e-003
3.856933e+003, -3.089806e-003
3.858862e+003, -4.063437e-003
3.860790e+003, -4.094946e-003
3.862719e+003, -3.426946e-003
3.864647e+003, -2.949759e-003
3.866576e+003, -3.482915e-003
3.868504e+003, -3.346500e-003
3.870433e+003, -2.992196e-003
3.872361e+003, -3.593372e-003
3.874290e+003, -3.565956e-003
3.876218e+003, -3.442511e-003
3.878146e+003, -3.385491e-003
3.880075e+003, -2.878755e-003
3.882003e+003, -2.940921e-003
3.883932e+003, -2.707787e-003
3.885860e+003, -2.933818e-003
3.887789e+003, -3.367039e-003
3.889717e+003, -2.850913e-003
3.891646e+003, -2.785129e-003
3.893574e+003, -3.355311e-003
3.895503e+003, -3.491325e-003
3.897431e+003, -3.015517e-003
3.899360e+003, -2.915377e-003
3.901288e+003, -3.125081e-003
3.903217e+003, -3.352520e-003
3.905145e+003, -3.543869e-003
3.907073e+003, -3.596518e-003
3.909002e+003, -2.960987e-003
3.910930e+003, -2.919888e-003
3.912859e+003, -3.622285e-003
3.914787e+003, -4.159077e-003
3.916716e+003, -3.901021e-003
3.918644e+003, -3.959163e-003
3.920573e+003, -4.087728e-003
3.922501e+003, -4.041894e-003
3.924430e+003, -3.541127e-003
3.926358e+003, -3.853772e-003
3.928287e+003, -3.698780e-003
3.930215e+003, -2.783739e-003
3.932144e+003, -2.977996e-003
3.934072e+003, -3.475809e-003
3.936000e+003, -3.394996e-003
3.937929e+003, -3.528047e-003
3.939857e+003, -3.590481e-003
3.941786e+003, -3.131970e-003
3.943714e+003, -2.487479e-003
3.945643e+003, -2.665967e-003
3.947571e+003, -3.178998e-003
3.949500e+003, -4.278978e-003
3.951428e+003, -4.336833e-003
3.953357e+003, -3.529842e-003
3.955285e+003, -2.941882e-003
3.957214e+003, -2.863731e-003
3.959142e+003, -2.893153e-003
3.961071e+003, -3.417668e-003
3.962999e+003, -4.273825e-003
3.964927e+003, -4.111825e-003
3.966856e+003, -3.107937e-003
3.968784e+003, -3.575375e-003
3.970713e+003, -4.179511e-003
3.972641e+003, -4.358015e-003
3.974570e+003, -4.533519e-003
3.976498e+003, -3.830155e-003
3.978427e+003, -3.455008e-003
3.980355e+003, -4.150848e-003
3.982284e+003, -4.509416e-003
3.984212e+003, -4.045032e-003
3.986141e+003, -4.178490e-003
3.988069e+003, -3.915133e-003
3.989998e+003, -4.271158e-003
3.991926e+003, -4.856972e-003
3.993854e+003, -4.213639e-003
3.995783e+003, -3.443654e-003
3.997711e+003, -3.319063e-003
##END=



