##NAMES=Vivianite
##RRUFFID=R060025
##IDEAL CHEMISTRY=Fe^2+^_3_(PO_4_)_2_&#183;8H_2_O
##LOCALITY=Gypsy mine, Minas Gerais, Brazil
##OWNER=RRUFF
##SOURCE=Eric Van Valkenburg
##DESCRIPTION=Blue-green fragment
##STATUS=The identification of this mineral has been confirmed by X-ray diffraction.
##URL=rruff.info/R060025
3.741225e+002, 8.164166e-002
3.760510e+002, 8.451834e-002
3.779795e+002, 9.639604e-002
3.799079e+002, 9.844657e-002
3.818364e+002, 9.675375e-002
3.837649e+002, 9.832840e-002
3.856933e+002, 1.012448e-001
3.876218e+002, 1.025666e-001
3.895503e+002, 1.065251e-001
3.914787e+002, 1.110611e-001
3.934072e+002, 1.148003e-001
3.953357e+002, 1.135712e-001
3.972641e+002, 1.147634e-001
3.991926e+002, 1.193877e-001
4.011211e+002, 1.206904e-001
4.030495e+002, 1.218929e-001
4.049780e+002, 1.240507e-001
4.069065e+002, 1.266218e-001
4.088349e+002, 1.267864e-001
4.107634e+002, 1.285455e-001
4.126919e+002, 1.327692e-001
4.146203e+002, 1.343150e-001
4.165488e+002, 1.341915e-001
4.184773e+002, 1.353204e-001
4.204057e+002, 1.378595e-001
4.223342e+002, 1.402704e-001
4.242627e+002, 1.418406e-001
4.261911e+002, 1.440883e-001
4.281196e+002, 1.466560e-001
4.300481e+002, 1.489672e-001
4.319765e+002, 1.496150e-001
4.339050e+002, 1.499746e-001
4.358335e+002, 1.486802e-001
4.377619e+002, 1.496079e-001
4.396904e+002, 1.527705e-001
4.416189e+002, 1.544663e-001
4.435473e+002, 1.552981e-001
4.454758e+002, 1.564401e-001
4.474043e+002, 1.582456e-001
4.493327e+002, 1.593417e-001
4.512612e+002, 1.601323e-001
4.531897e+002, 1.613787e-001
4.551181e+002, 1.609825e-001
4.570466e+002, 1.619819e-001
4.589751e+002, 1.637385e-001
4.609035e+002, 1.638210e-001
4.628320e+002, 1.636876e-001
4.647605e+002, 1.639470e-001
4.666889e+002, 1.643881e-001
4.686174e+002, 1.640932e-001
4.705459e+002, 1.642308e-001
4.724743e+002, 1.637923e-001
4.744028e+002, 1.630983e-001
4.763313e+002, 1.633293e-001
4.782597e+002, 1.634653e-001
4.801882e+002, 1.636067e-001
4.821167e+002, 1.648333e-001
4.840451e+002, 1.659946e-001
4.859736e+002, 1.667791e-001
4.879021e+002, 1.680735e-001
4.898305e+002, 1.691735e-001
4.917590e+002, 1.694599e-001
4.936875e+002, 1.705340e-001
4.956159e+002, 1.721643e-001
4.975444e+002, 1.735998e-001
4.994729e+002, 1.748955e-001
5.014013e+002, 1.768442e-001
5.033298e+002, 1.788494e-001
5.052583e+002, 1.804225e-001
5.071867e+002, 1.822035e-001
5.091152e+002, 1.833192e-001
5.110437e+002, 1.843515e-001
5.129721e+002, 1.854925e-001
5.149006e+002, 1.867524e-001
5.168290e+002, 1.889016e-001
5.187575e+002, 1.908360e-001
5.206860e+002, 1.927074e-001
5.226144e+002, 1.942514e-001
5.245429e+002, 1.958716e-001
5.264714e+002, 1.974775e-001
5.283998e+002, 1.987463e-001
5.303283e+002, 2.001200e-001
5.322568e+002, 1.998953e-001
5.341852e+002, 1.978801e-001
5.361137e+002, 1.950028e-001
5.380422e+002, 1.909686e-001
5.399706e+002, 1.865557e-001
5.418991e+002, 1.822359e-001
5.438276e+002, 1.776085e-001
5.457560e+002, 1.732906e-001
5.476845e+002, 1.693311e-001
5.496130e+002, 1.656862e-001
5.515414e+002, 1.625376e-001
5.534699e+002, 1.591598e-001
5.553984e+002, 1.557293e-001
5.573268e+002, 1.528172e-001
5.592553e+002, 1.496543e-001
5.611838e+002, 1.460060e-001
5.631122e+002, 1.423261e-001
5.650407e+002, 1.390365e-001
5.669692e+002, 1.356463e-001
5.688976e+002, 1.317928e-001
5.708261e+002, 1.279104e-001
5.727546e+002, 1.236896e-001
5.746830e+002, 1.193630e-001
5.766115e+002, 1.153741e-001
5.785400e+002, 1.112708e-001
5.804684e+002, 1.068345e-001
5.823969e+002, 1.027125e-001
5.843254e+002, 9.871781e-002
5.862538e+002, 9.496471e-002
5.881823e+002, 9.191610e-002
5.901108e+002, 8.912217e-002
5.920392e+002, 8.667880e-002
5.939677e+002, 8.501562e-002
5.958962e+002, 8.385371e-002
5.978246e+002, 8.298416e-002
5.997531e+002, 8.229567e-002
6.016816e+002, 8.172558e-002
6.036100e+002, 8.163817e-002
6.055385e+002, 8.178546e-002
6.074670e+002, 8.184139e-002
6.093954e+002, 8.196141e-002
6.113239e+002, 8.248479e-002
6.132524e+002, 8.309053e-002
6.151808e+002, 8.382476e-002
6.171093e+002, 8.469961e-002
6.190378e+002, 8.559357e-002
6.209662e+002, 8.626302e-002
6.228947e+002, 8.670977e-002
6.248232e+002, 8.726028e-002
6.267516e+002, 8.798051e-002
6.286801e+002, 8.836695e-002
6.306086e+002, 8.873316e-002
6.325370e+002, 8.911822e-002
6.344655e+002, 8.948825e-002
6.363940e+002, 8.990590e-002
6.383224e+002, 9.040839e-002
6.402509e+002, 9.083545e-002
6.421794e+002, 9.117435e-002
6.441078e+002, 9.171604e-002
6.460363e+002, 9.219486e-002
6.479648e+002, 9.270768e-002
6.498932e+002, 9.328167e-002
6.518217e+002, 9.359369e-002
6.537502e+002, 9.378681e-002
6.556786e+002, 9.420718e-002
6.576071e+002, 9.457895e-002
6.595356e+002, 9.456666e-002
6.614641e+002, 9.474065e-002
6.633925e+002, 9.485608e-002
6.653210e+002, 9.493566e-002
6.672495e+002, 9.506912e-002
6.691779e+002, 9.482333e-002
6.711064e+002, 9.438311e-002
6.730349e+002, 9.415039e-002
6.749633e+002, 9.409948e-002
6.768918e+002, 9.391557e-002
6.788203e+002, 9.363184e-002
6.807487e+002, 9.332223e-002
6.826772e+002, 9.311213e-002
6.846057e+002, 9.291771e-002
6.865341e+002, 9.270789e-002
6.884626e+002, 9.248047e-002
6.903911e+002, 9.223095e-002
6.923195e+002, 9.207143e-002
6.942480e+002, 9.203535e-002
6.961765e+002, 9.201226e-002
6.981049e+002, 9.213694e-002
7.000334e+002, 9.222849e-002
7.019619e+002, 9.210417e-002
7.038903e+002, 9.245731e-002
7.058188e+002, 9.290871e-002
7.077473e+002, 9.318831e-002
7.096757e+002, 9.349184e-002
7.116042e+002, 9.398959e-002
7.135327e+002, 9.467477e-002
7.154611e+002, 9.533288e-002
7.173896e+002, 9.595425e-002
7.193181e+002, 9.650738e-002
7.212465e+002, 9.738757e-002
7.231750e+002, 9.843525e-002
7.251035e+002, 9.939179e-002
7.270319e+002, 1.002431e-001
7.289604e+002, 1.010709e-001
7.308889e+002, 1.021418e-001
7.328173e+002, 1.032016e-001
7.347458e+002, 1.045559e-001
7.366743e+002, 1.060341e-001
7.386027e+002, 1.072198e-001
7.405312e+002, 1.085414e-001
7.424597e+002, 1.100137e-001
7.443881e+002, 1.116381e-001
7.463166e+002, 1.132797e-001
7.482451e+002, 1.146711e-001
7.501735e+002, 1.162407e-001
7.521020e+002, 1.179546e-001
7.540305e+002, 1.197833e-001
7.559589e+002, 1.215190e-001
7.578874e+002, 1.232612e-001
7.598159e+002, 1.250661e-001
7.617443e+002, 1.268054e-001
7.636728e+002, 1.288572e-001
7.656013e+002, 1.309694e-001
7.675297e+002, 1.329769e-001
7.694582e+002, 1.348755e-001
7.713867e+002, 1.366957e-001
7.733151e+002, 1.383308e-001
7.752436e+002, 1.401076e-001
7.771721e+002, 1.421323e-001
7.791005e+002, 1.439787e-001
7.810290e+002, 1.454258e-001
7.829575e+002, 1.467657e-001
7.848859e+002, 1.480344e-001
7.868144e+002, 1.492267e-001
7.887429e+002, 1.503450e-001
7.906713e+002, 1.513031e-001
7.925998e+002, 1.520324e-001
7.945283e+002, 1.523604e-001
7.964567e+002, 1.526131e-001
7.983852e+002, 1.526559e-001
8.003137e+002, 1.525558e-001
8.022421e+002, 1.522182e-001
8.041706e+002, 1.515332e-001
8.060991e+002, 1.506061e-001
8.080275e+002, 1.494462e-001
8.099560e+002, 1.478378e-001
8.118845e+002, 1.460776e-001
8.138129e+002, 1.440419e-001
8.157414e+002, 1.415646e-001
8.176699e+002, 1.387750e-001
8.195983e+002, 1.359666e-001
8.215268e+002, 1.330291e-001
8.234553e+002, 1.299791e-001
8.253837e+002, 1.266885e-001
8.273122e+002, 1.233492e-001
8.292407e+002, 1.200194e-001
8.311691e+002, 1.168745e-001
8.330976e+002, 1.135899e-001
8.350261e+002, 1.105020e-001
8.369545e+002, 1.075557e-001
8.388830e+002, 1.046262e-001
8.408115e+002, 1.018496e-001
8.427399e+002, 9.921625e-002
8.446684e+002, 9.695991e-002
8.465969e+002, 9.465133e-002
8.485253e+002, 9.228729e-002
8.504538e+002, 9.015140e-002
8.523823e+002, 8.822428e-002
8.543107e+002, 8.647528e-002
8.562392e+002, 8.498637e-002
8.581677e+002, 8.383161e-002
8.600961e+002, 8.258528e-002
8.620246e+002, 8.150801e-002
8.639531e+002, 8.081061e-002
8.658815e+002, 8.036156e-002
8.678100e+002, 8.013810e-002
8.697385e+002, 7.997322e-002
8.716669e+002, 8.023614e-002
8.735954e+002, 8.107159e-002
8.755239e+002, 8.189312e-002
8.774523e+002, 8.282914e-002
8.793808e+002, 8.407021e-002
8.813093e+002, 8.544745e-002
8.832377e+002, 8.699838e-002
8.851662e+002, 8.888304e-002
8.870947e+002, 9.090133e-002
8.890231e+002, 9.304914e-002
8.909516e+002, 9.529480e-002
8.928801e+002, 9.753336e-002
8.948085e+002, 9.989673e-002
8.967370e+002, 1.024601e-001
8.986655e+002, 1.054062e-001
9.005939e+002, 1.084860e-001
9.025224e+002, 1.115705e-001
9.044509e+002, 1.147412e-001
9.063793e+002, 1.182168e-001
9.083078e+002, 1.219988e-001
9.102363e+002, 1.260881e-001
9.121647e+002, 1.305454e-001
9.140932e+002, 1.350945e-001
9.160217e+002, 1.400697e-001
9.179501e+002, 1.456520e-001
9.198786e+002, 1.515574e-001
9.218071e+002, 1.577014e-001
9.237355e+002, 1.639573e-001
9.256640e+002, 1.698533e-001
9.275925e+002, 1.753239e-001
9.295209e+002, 1.799843e-001
9.314494e+002, 1.834898e-001
9.333779e+002, 1.846661e-001
9.353063e+002, 1.822289e-001
9.372348e+002, 1.763075e-001
9.391633e+002, 1.684417e-001
9.410917e+002, 1.606311e-001
9.430202e+002, 1.548124e-001
9.449487e+002, 1.518305e-001
9.468771e+002, 1.512768e-001
9.488056e+002, 1.525936e-001
9.507341e+002, 1.551403e-001
9.526625e+002, 1.590948e-001
9.545910e+002, 1.642881e-001
9.565195e+002, 1.710334e-001
9.584479e+002, 1.798479e-001
9.603764e+002, 1.902109e-001
9.623049e+002, 2.012309e-001
9.642333e+002, 2.118034e-001
9.661618e+002, 2.204644e-001
9.680903e+002, 2.257128e-001
9.700187e+002, 2.274566e-001
9.719472e+002, 2.264408e-001
9.738757e+002, 2.233063e-001
9.758041e+002, 2.192280e-001
9.777326e+002, 2.148555e-001
9.796611e+002, 2.105027e-001
9.815895e+002, 2.064639e-001
9.835180e+002, 2.027151e-001
9.854465e+002, 1.995299e-001
9.873749e+002, 1.967182e-001
9.893034e+002, 1.942429e-001
9.912319e+002, 1.923258e-001
9.931603e+002, 1.914405e-001
9.950888e+002, 1.915645e-001
9.970173e+002, 1.923713e-001
9.989457e+002, 1.937611e-001
1.000874e+003, 1.951196e-001
1.002803e+003, 1.963401e-001
1.004731e+003, 1.978604e-001
1.006660e+003, 1.992049e-001
1.008588e+003, 2.004060e-001
1.010517e+003, 2.015723e-001
1.012445e+003, 2.026079e-001
1.014373e+003, 2.037253e-001
1.016302e+003, 2.049065e-001
1.018230e+003, 2.061578e-001
1.020159e+003, 2.077931e-001
1.022087e+003, 2.094353e-001
1.024016e+003, 2.110636e-001
1.025944e+003, 2.125848e-001
1.027873e+003, 2.136721e-001
1.029801e+003, 2.140566e-001
1.031730e+003, 2.136890e-001
1.033658e+003, 2.122301e-001
1.035587e+003, 2.096069e-001
1.037515e+003, 2.058355e-001
1.039443e+003, 2.005807e-001
1.041372e+003, 1.940424e-001
1.043300e+003, 1.867050e-001
1.045229e+003, 1.787263e-001
1.047157e+003, 1.703241e-001
1.049086e+003, 1.617119e-001
1.051014e+003, 1.530515e-001
1.052943e+003, 1.444663e-001
1.054871e+003, 1.360404e-001
1.056800e+003, 1.278480e-001
1.058728e+003, 1.201043e-001
1.060657e+003, 1.129630e-001
1.062585e+003, 1.065436e-001
1.064514e+003, 1.004087e-001
1.066442e+003, 9.472544e-002
1.068370e+003, 8.958621e-002
1.070299e+003, 8.460332e-002
1.072227e+003, 7.964654e-002
1.074156e+003, 7.483858e-002
1.076084e+003, 7.015977e-002
1.078013e+003, 6.561891e-002
1.079941e+003, 6.128025e-002
1.081870e+003, 5.692801e-002
1.083798e+003, 5.279320e-002
1.085727e+003, 4.914397e-002
1.087655e+003, 4.596745e-002
1.089584e+003, 4.327473e-002
1.091512e+003, 4.092795e-002
1.093441e+003, 3.897892e-002
1.095369e+003, 3.740085e-002
1.097297e+003, 3.606812e-002
1.099226e+003, 3.482501e-002
1.101154e+003, 3.369465e-002
1.103083e+003, 3.276348e-002
1.105011e+003, 3.187287e-002
1.106940e+003, 3.095095e-002
1.108868e+003, 3.024381e-002
1.110797e+003, 2.947729e-002
1.112725e+003, 2.864496e-002
1.114654e+003, 2.796645e-002
1.116582e+003, 2.733697e-002
1.118511e+003, 2.688157e-002
1.120439e+003, 2.633102e-002
1.122368e+003, 2.583286e-002
1.124296e+003, 2.543574e-002
1.126224e+003, 2.501747e-002
1.128153e+003, 2.462270e-002
1.130081e+003, 2.423732e-002
1.132010e+003, 2.386047e-002
1.133938e+003, 2.356263e-002
1.135867e+003, 2.316682e-002
1.137795e+003, 2.265392e-002
1.139724e+003, 2.228948e-002
1.141652e+003, 2.205937e-002
1.143581e+003, 2.186214e-002
1.145509e+003, 2.143722e-002
1.147438e+003, 2.089670e-002
1.149366e+003, 2.046214e-002
1.151295e+003, 2.000517e-002
1.153223e+003, 1.941006e-002
1.155151e+003, 1.887222e-002
1.157080e+003, 1.839856e-002
1.159008e+003, 1.785236e-002
1.160937e+003, 1.748044e-002
1.162865e+003, 1.717167e-002
1.164794e+003, 1.666286e-002
1.166722e+003, 1.617421e-002
1.168651e+003, 1.580191e-002
1.170579e+003, 1.542793e-002
1.172508e+003, 1.500301e-002
1.174436e+003, 1.471173e-002
1.176365e+003, 1.436463e-002
1.178293e+003, 1.404954e-002
1.180222e+003, 1.383792e-002
1.182150e+003, 1.359339e-002
1.184078e+003, 1.325757e-002
1.186007e+003, 1.306411e-002
1.187935e+003, 1.301311e-002
1.189864e+003, 1.289688e-002
1.191792e+003, 1.277325e-002
1.193721e+003, 1.257454e-002
1.195649e+003, 1.220660e-002
1.197578e+003, 1.201714e-002
1.199506e+003, 1.188283e-002
1.201435e+003, 1.163430e-002
1.203363e+003, 1.142461e-002
1.205292e+003, 1.118222e-002
1.207220e+003, 1.111556e-002
1.209149e+003, 1.106610e-002
1.211077e+003, 1.098092e-002
1.213005e+003, 1.079606e-002
1.214934e+003, 1.067147e-002
1.216862e+003, 1.072427e-002
1.218791e+003, 1.083628e-002
1.220719e+003, 1.083652e-002
1.222648e+003, 1.078618e-002
1.224576e+003, 1.078927e-002
1.226505e+003, 1.088408e-002
1.228433e+003, 1.098310e-002
1.230362e+003, 1.099329e-002
1.232290e+003, 1.102496e-002
1.234219e+003, 1.111654e-002
1.236147e+003, 1.119064e-002
1.238076e+003, 1.113911e-002
1.240004e+003, 1.111999e-002
1.241932e+003, 1.120414e-002
1.243861e+003, 1.121534e-002
1.245789e+003, 1.117080e-002
1.247718e+003, 1.116137e-002
1.249646e+003, 1.107218e-002
1.251575e+003, 1.098553e-002
1.253503e+003, 1.102745e-002
1.255432e+003, 1.116088e-002
1.257360e+003, 1.118359e-002
1.259289e+003, 1.110857e-002
1.261217e+003, 1.108446e-002
1.263146e+003, 1.109050e-002
1.265074e+003, 1.112273e-002
1.267003e+003, 1.111401e-002
1.268931e+003, 1.114889e-002
1.270859e+003, 1.113630e-002
1.272788e+003, 1.114458e-002
1.274716e+003, 1.110850e-002
1.276645e+003, 1.108589e-002
1.278573e+003, 1.111269e-002
1.280502e+003, 1.116251e-002
1.282430e+003, 1.102482e-002
1.284359e+003, 1.089388e-002
1.286287e+003, 1.101797e-002
1.288216e+003, 1.104074e-002
1.290144e+003, 1.103468e-002
1.292073e+003, 1.104697e-002
1.294001e+003, 1.109519e-002
1.295930e+003, 1.120150e-002
1.297858e+003, 1.130857e-002
1.299786e+003, 1.134575e-002
1.301715e+003, 1.135004e-002
1.303643e+003, 1.131956e-002
1.305572e+003, 1.136767e-002
1.307500e+003, 1.140974e-002
1.309429e+003, 1.134405e-002
1.311357e+003, 1.136638e-002
1.313286e+003, 1.151983e-002
1.315214e+003, 1.161683e-002
1.317143e+003, 1.163790e-002
1.319071e+003, 1.170409e-002
1.321000e+003, 1.178892e-002
1.322928e+003, 1.180953e-002
1.324857e+003, 1.177220e-002
1.326785e+003, 1.186140e-002
1.328714e+003, 1.196591e-002
1.330642e+003, 1.203626e-002
1.332570e+003, 1.210135e-002
1.334499e+003, 1.217877e-002
1.336427e+003, 1.228148e-002
1.338356e+003, 1.236097e-002
1.340284e+003, 1.237302e-002
1.342213e+003, 1.239700e-002
1.344141e+003, 1.242627e-002
1.346070e+003, 1.249603e-002
1.347998e+003, 1.257394e-002
1.349927e+003, 1.270079e-002
1.351855e+003, 1.276960e-002
1.353784e+003, 1.282215e-002
1.355712e+003, 1.294161e-002
1.357641e+003, 1.313381e-002
1.359569e+003, 1.322745e-002
1.361497e+003, 1.336982e-002
1.363426e+003, 1.355425e-002
1.365354e+003, 1.367849e-002
1.367283e+003, 1.377552e-002
1.369211e+003, 1.385935e-002
1.371140e+003, 1.392430e-002
1.373068e+003, 1.403019e-002
1.374997e+003, 1.421480e-002
1.376925e+003, 1.441357e-002
1.378854e+003, 1.462112e-002
1.380782e+003, 1.472676e-002
1.382711e+003, 1.486820e-002
1.384639e+003, 1.512590e-002
1.386568e+003, 1.528267e-002
1.388496e+003, 1.533323e-002
1.390424e+003, 1.550435e-002
1.392353e+003, 1.574656e-002
1.394281e+003, 1.591548e-002
1.396210e+003, 1.600446e-002
1.398138e+003, 1.613212e-002
1.400067e+003, 1.636931e-002
1.401995e+003, 1.654163e-002
1.403924e+003, 1.662968e-002
1.405852e+003, 1.671495e-002
1.407781e+003, 1.689577e-002
1.409709e+003, 1.716885e-002
1.411638e+003, 1.737973e-002
1.413566e+003, 1.752240e-002
1.415495e+003, 1.769144e-002
1.417423e+003, 1.799180e-002
1.419351e+003, 1.821054e-002
1.421280e+003, 1.827923e-002
1.423208e+003, 1.856367e-002
1.425137e+003, 1.883174e-002
1.427065e+003, 1.913181e-002
1.428994e+003, 1.945781e-002
1.430922e+003, 1.970094e-002
1.432851e+003, 1.991585e-002
1.434779e+003, 2.018735e-002
1.436708e+003, 2.043821e-002
1.438636e+003, 2.034430e-002
1.440565e+003, 2.036502e-002
1.442493e+003, 2.066812e-002
1.444422e+003, 2.093432e-002
1.446350e+003, 2.108691e-002
1.448278e+003, 2.127256e-002
1.450207e+003, 2.142761e-002
1.452135e+003, 2.154452e-002
1.454064e+003, 2.180420e-002
1.455992e+003, 2.225549e-002
1.457921e+003, 2.237090e-002
1.459849e+003, 2.213503e-002
1.461778e+003, 2.220426e-002
1.463706e+003, 2.246715e-002
1.465635e+003, 2.265556e-002
1.467563e+003, 2.269193e-002
1.469492e+003, 2.286098e-002
1.471420e+003, 2.328409e-002
1.473349e+003, 2.357810e-002
1.475277e+003, 2.363996e-002
1.477205e+003, 2.376946e-002
1.479134e+003, 2.396373e-002
1.481062e+003, 2.419643e-002
1.482991e+003, 2.458401e-002
1.484919e+003, 2.498893e-002
1.486848e+003, 2.533929e-002
1.488776e+003, 2.565815e-002
1.490705e+003, 2.590810e-002
1.492633e+003, 2.621219e-002
1.494562e+003, 2.670438e-002
1.496490e+003, 2.726524e-002
1.498419e+003, 2.778218e-002
1.500347e+003, 2.817238e-002
1.502276e+003, 2.848404e-002
1.504204e+003, 2.917841e-002
1.506132e+003, 3.014336e-002
1.508061e+003, 3.056980e-002
1.509989e+003, 3.088077e-002
1.511918e+003, 3.145789e-002
1.513846e+003, 3.197975e-002
1.515775e+003, 3.258898e-002
1.517703e+003, 3.333084e-002
1.519632e+003, 3.406728e-002
1.521560e+003, 3.474716e-002
1.523489e+003, 3.503537e-002
1.525417e+003, 3.545197e-002
1.527346e+003, 3.609738e-002
1.529274e+003, 3.674651e-002
1.531203e+003, 3.738999e-002
1.533131e+003, 3.803055e-002
1.535059e+003, 3.851804e-002
1.536988e+003, 3.925192e-002
1.538916e+003, 4.027476e-002
1.540845e+003, 4.089301e-002
1.542773e+003, 4.120243e-002
1.544702e+003, 4.167378e-002
1.546630e+003, 4.217028e-002
1.548559e+003, 4.269038e-002
1.550487e+003, 4.320524e-002
1.552416e+003, 4.370998e-002
1.554344e+003, 4.435605e-002
1.556273e+003, 4.492933e-002
1.558201e+003, 4.580977e-002
1.560130e+003, 4.624891e-002
1.562058e+003, 4.641373e-002
1.563986e+003, 4.678482e-002
1.565915e+003, 4.716511e-002
1.567843e+003, 4.766691e-002
1.569772e+003, 4.829413e-002
1.571700e+003, 4.867499e-002
1.573629e+003, 4.908551e-002
1.575557e+003, 4.982322e-002
1.577486e+003, 5.014192e-002
1.579414e+003, 5.013011e-002
1.581343e+003, 5.043316e-002
1.583271e+003, 5.069543e-002
1.585200e+003, 5.109400e-002
1.587128e+003, 5.148455e-002
1.589057e+003, 5.181014e-002
1.590985e+003, 5.228572e-002
1.592913e+003, 5.287039e-002
1.594842e+003, 5.327447e-002
1.596770e+003, 5.361415e-002
1.598699e+003, 5.410084e-002
1.600627e+003, 5.456557e-002
1.602556e+003, 5.507308e-002
1.604484e+003, 5.566119e-002
1.606413e+003, 5.604263e-002
1.608341e+003, 5.636420e-002
1.610270e+003, 5.689780e-002
1.612198e+003, 5.729861e-002
1.614127e+003, 5.767232e-002
1.616055e+003, 5.816555e-002
1.617984e+003, 5.814730e-002
1.619912e+003, 5.790018e-002
1.621840e+003, 5.773154e-002
1.623769e+003, 5.758408e-002
1.625697e+003, 5.721224e-002
1.627626e+003, 5.675243e-002
1.629554e+003, 5.621162e-002
1.631483e+003, 5.571966e-002
1.633411e+003, 5.529913e-002
1.635340e+003, 5.496385e-002
1.637268e+003, 5.427247e-002
1.639197e+003, 5.347167e-002
1.641125e+003, 5.286903e-002
1.643054e+003, 5.251045e-002
1.644982e+003, 5.256115e-002
1.646911e+003, 5.233432e-002
1.648839e+003, 5.173691e-002
1.650767e+003, 5.171192e-002
1.652696e+003, 5.208185e-002
1.654624e+003, 5.158450e-002
1.656553e+003, 5.108600e-002
1.658481e+003, 5.089099e-002
1.660410e+003, 5.060472e-002
1.662338e+003, 5.038424e-002
1.664267e+003, 4.993612e-002
1.666195e+003, 4.933881e-002
1.668124e+003, 4.869104e-002
1.670052e+003, 4.778134e-002
1.671981e+003, 4.650348e-002
1.673909e+003, 4.527279e-002
1.675838e+003, 4.389555e-002
1.677766e+003, 4.209070e-002
1.679694e+003, 4.050206e-002
1.681623e+003, 3.892543e-002
1.683551e+003, 3.783435e-002
1.685480e+003, 3.645557e-002
1.687408e+003, 3.474687e-002
1.689337e+003, 3.349362e-002
1.691265e+003, 3.235129e-002
1.693194e+003, 3.138005e-002
1.695122e+003, 3.082406e-002
1.697051e+003, 2.987789e-002
1.698979e+003, 2.914380e-002
1.700908e+003, 2.855779e-002
1.702836e+003, 2.758232e-002
1.704765e+003, 2.712659e-002
1.706693e+003, 2.674342e-002
1.708621e+003, 2.637508e-002
1.710550e+003, 2.615130e-002
1.712478e+003, 2.609273e-002
1.714407e+003, 2.617311e-002
1.716335e+003, 2.644337e-002
1.718264e+003, 2.644929e-002
1.720192e+003, 2.629380e-002
1.722121e+003, 2.647458e-002
1.724049e+003, 2.652623e-002
1.725978e+003, 2.621202e-002
1.727906e+003, 2.575131e-002
1.729835e+003, 2.543412e-002
1.731763e+003, 2.525534e-002
1.733692e+003, 2.498833e-002
1.735620e+003, 2.427557e-002
1.737548e+003, 2.344256e-002
1.739477e+003, 2.286839e-002
1.741405e+003, 2.207642e-002
1.743334e+003, 2.132144e-002
1.745262e+003, 2.078802e-002
1.747191e+003, 2.038144e-002
1.749119e+003, 1.999719e-002
1.751048e+003, 1.979076e-002
1.752976e+003, 1.930927e-002
1.754905e+003, 1.885192e-002
1.756833e+003, 1.871959e-002
1.758762e+003, 1.855006e-002
1.760690e+003, 1.839874e-002
1.762619e+003, 1.835678e-002
1.764547e+003, 1.829117e-002
1.766475e+003, 1.812181e-002
1.768404e+003, 1.783327e-002
1.770332e+003, 1.764681e-002
1.772261e+003, 1.773963e-002
1.774189e+003, 1.767934e-002
1.776118e+003, 1.739078e-002
1.778046e+003, 1.705952e-002
1.779975e+003, 1.683284e-002
1.781903e+003, 1.678131e-002
1.783832e+003, 1.678974e-002
1.785760e+003, 1.672650e-002
1.787689e+003, 1.649765e-002
1.789617e+003, 1.635325e-002
1.791546e+003, 1.628684e-002
1.793474e+003, 1.627603e-002
1.795402e+003, 1.616220e-002
1.797331e+003, 1.600939e-002
1.799259e+003, 1.595920e-002
1.801188e+003, 1.581934e-002
1.803116e+003, 1.546472e-002
1.805045e+003, 1.525795e-002
1.806973e+003, 1.516608e-002
1.808902e+003, 1.544793e-002
1.810830e+003, 1.542975e-002
1.812759e+003, 1.501880e-002
1.814687e+003, 1.458047e-002
1.816616e+003, 1.453967e-002
1.818544e+003, 1.487051e-002
1.820473e+003, 1.506921e-002
1.822401e+003, 1.516715e-002
1.824329e+003, 1.512565e-002
1.826258e+003, 1.489878e-002
1.828186e+003, 1.489549e-002
1.830115e+003, 1.486325e-002
1.832043e+003, 1.460633e-002
1.833972e+003, 1.455095e-002
1.835900e+003, 1.447153e-002
1.837829e+003, 1.439105e-002
1.839757e+003, 1.443494e-002
1.841686e+003, 1.434220e-002
1.843614e+003, 1.421456e-002
1.845543e+003, 1.408820e-002
1.847471e+003, 1.414908e-002
1.849400e+003, 1.432540e-002
1.851328e+003, 1.431335e-002
1.853256e+003, 1.399172e-002
1.855185e+003, 1.393972e-002
1.857113e+003, 1.420574e-002
1.859042e+003, 1.426224e-002
1.860970e+003, 1.405602e-002
1.862899e+003, 1.408264e-002
1.864827e+003, 1.418631e-002
1.866756e+003, 1.403815e-002
1.868684e+003, 1.389907e-002
1.870613e+003, 1.384929e-002
1.872541e+003, 1.380165e-002
1.874470e+003, 1.393565e-002
1.876398e+003, 1.436347e-002
1.878327e+003, 1.430199e-002
1.880255e+003, 1.439533e-002
1.882183e+003, 1.449258e-002
1.884112e+003, 1.431045e-002
1.886040e+003, 1.429783e-002
1.887969e+003, 1.436305e-002
1.889897e+003, 1.440382e-002
1.891826e+003, 1.418813e-002
1.893754e+003, 1.425191e-002
1.895683e+003, 1.409593e-002
1.897611e+003, 1.387698e-002
1.899540e+003, 1.405516e-002
1.901468e+003, 1.417410e-002
1.903397e+003, 1.399479e-002
1.905325e+003, 1.448727e-002
1.907254e+003, 1.480469e-002
1.909182e+003, 1.468670e-002
1.911110e+003, 1.453362e-002
1.913039e+003, 1.442951e-002
1.914967e+003, 1.470415e-002
1.916896e+003, 1.465100e-002
1.918824e+003, 1.410801e-002
1.920753e+003, 1.406079e-002
1.922681e+003, 1.401053e-002
1.924610e+003, 1.380479e-002
1.926538e+003, 1.426703e-002
1.928467e+003, 1.427992e-002
1.930395e+003, 1.395991e-002
1.932324e+003, 1.397360e-002
1.934252e+003, 1.417058e-002
1.936181e+003, 1.403627e-002
1.938109e+003, 1.332700e-002
1.940037e+003, 1.282578e-002
1.941966e+003, 1.331448e-002
1.943894e+003, 1.347418e-002
1.945823e+003, 1.323735e-002
1.947751e+003, 1.365498e-002
1.949680e+003, 1.376275e-002
1.951608e+003, 1.353516e-002
1.953537e+003, 1.325900e-002
1.955465e+003, 1.261475e-002
1.957394e+003, 1.266038e-002
1.959322e+003, 1.362742e-002
1.961251e+003, 1.404373e-002
1.963179e+003, 1.396516e-002
1.965108e+003, 1.408994e-002
1.967036e+003, 1.399590e-002
1.968964e+003, 1.339458e-002
1.970893e+003, 1.298838e-002
1.972821e+003, 1.332936e-002
1.974750e+003, 1.468902e-002
1.976678e+003, 1.593365e-002
1.978607e+003, 1.621918e-002
1.980535e+003, 1.560189e-002
1.982464e+003, 1.536966e-002
1.984392e+003, 1.589080e-002
1.986321e+003, 1.610427e-002
1.988249e+003, 1.555839e-002
1.990178e+003, 1.533790e-002
1.992106e+003, 1.519751e-002
1.994035e+003, 1.473008e-002
1.995963e+003, 1.464765e-002
1.997891e+003, 1.550826e-002
1.999820e+003, 1.599140e-002
2.001748e+003, 1.475120e-002
2.003677e+003, 1.394146e-002
2.005605e+003, 1.410943e-002
2.007534e+003, 1.547808e-002
2.009462e+003, 1.589861e-002
2.011391e+003, 1.497937e-002
2.013319e+003, 1.431014e-002
2.015248e+003, 1.419864e-002
2.017176e+003, 1.458784e-002
2.019105e+003, 1.474564e-002
2.021033e+003, 1.412542e-002
2.022962e+003, 1.347332e-002
2.024890e+003, 1.400146e-002
2.026818e+003, 1.488152e-002
2.028747e+003, 1.564882e-002
2.030675e+003, 1.569780e-002
2.032604e+003, 1.611590e-002
2.034532e+003, 1.573520e-002
2.036461e+003, 1.539104e-002
2.038389e+003, 1.511002e-002
2.040318e+003, 1.480237e-002
2.042246e+003, 1.537283e-002
2.044175e+003, 1.629288e-002
2.046103e+003, 1.584224e-002
2.048031e+003, 1.581699e-002
2.049960e+003, 1.720807e-002
2.051888e+003, 1.710550e-002
2.053817e+003, 1.644549e-002
2.055745e+003, 1.680106e-002
2.057674e+003, 1.725764e-002
2.059602e+003, 1.702814e-002
2.061531e+003, 1.710083e-002
2.063459e+003, 1.716662e-002
2.065388e+003, 1.672280e-002
2.067316e+003, 1.721852e-002
2.069245e+003, 1.761281e-002
2.071173e+003, 1.763079e-002
2.073102e+003, 1.728534e-002
2.075030e+003, 1.744729e-002
2.076958e+003, 1.824438e-002
2.078887e+003, 1.844670e-002
2.080815e+003, 1.767641e-002
2.082744e+003, 1.763336e-002
2.084672e+003, 1.805815e-002
2.086601e+003, 1.794508e-002
2.088529e+003, 1.771994e-002
2.090458e+003, 1.773362e-002
2.092386e+003, 1.777805e-002
2.094315e+003, 1.806733e-002
2.096243e+003, 1.889803e-002
2.098172e+003, 1.997658e-002
2.100100e+003, 2.035552e-002
2.102029e+003, 1.984603e-002
2.103957e+003, 1.965990e-002
2.105885e+003, 1.971176e-002
2.107814e+003, 1.970413e-002
2.109742e+003, 2.028819e-002
2.111671e+003, 2.104122e-002
2.113599e+003, 2.106589e-002
2.115528e+003, 2.074055e-002
2.117456e+003, 2.062672e-002
2.119385e+003, 2.100698e-002
2.121313e+003, 2.109773e-002
2.123242e+003, 2.106279e-002
2.125170e+003, 2.096680e-002
2.127099e+003, 2.080034e-002
2.129027e+003, 2.047438e-002
2.130956e+003, 2.009614e-002
2.132884e+003, 1.985156e-002
2.134813e+003, 2.056786e-002
2.136741e+003, 2.124168e-002
2.138669e+003, 2.107343e-002
2.140598e+003, 2.182108e-002
2.142526e+003, 2.294662e-002
2.144455e+003, 2.253884e-002
2.146383e+003, 2.177548e-002
2.148312e+003, 2.220378e-002
2.150240e+003, 2.201454e-002
2.152169e+003, 2.218200e-002
2.154097e+003, 2.291295e-002
2.156026e+003, 2.230294e-002
2.157954e+003, 2.283907e-002
2.159883e+003, 2.590441e-002
2.161811e+003, 2.692233e-002
2.163740e+003, 2.617736e-002
2.165668e+003, 2.629317e-002
2.167596e+003, 2.682781e-002
2.169525e+003, 2.705957e-002
2.171453e+003, 2.627088e-002
2.173382e+003, 2.619895e-002
2.175310e+003, 2.700855e-002
2.177239e+003, 2.675527e-002
2.179167e+003, 2.597798e-002
2.181096e+003, 2.619856e-002
2.183024e+003, 2.753323e-002
2.184953e+003, 2.863159e-002
2.186881e+003, 2.877057e-002
2.188810e+003, 2.878281e-002
2.190738e+003, 2.826572e-002
2.192667e+003, 2.796215e-002
2.194595e+003, 2.846568e-002
2.196523e+003, 2.819784e-002
2.198452e+003, 2.784416e-002
2.200380e+003, 2.787143e-002
2.202309e+003, 2.825483e-002
2.204237e+003, 2.854023e-002
2.206166e+003, 2.782413e-002
2.208094e+003, 2.678606e-002
2.210023e+003, 2.701868e-002
2.211951e+003, 2.744149e-002
2.213880e+003, 2.713134e-002
2.215808e+003, 2.751914e-002
2.217737e+003, 2.836797e-002
2.219665e+003, 2.842334e-002
2.221594e+003, 2.829443e-002
2.223522e+003, 2.793597e-002
2.225450e+003, 2.822539e-002
2.227379e+003, 2.854558e-002
2.229307e+003, 2.763680e-002
2.231236e+003, 2.740569e-002
2.233164e+003, 2.777174e-002
2.235093e+003, 2.777672e-002
2.237021e+003, 2.795040e-002
2.238950e+003, 2.774167e-002
2.240878e+003, 2.768817e-002
2.242807e+003, 2.761140e-002
2.244735e+003, 2.757733e-002
2.246664e+003, 2.740373e-002
2.248592e+003, 2.743096e-002
2.250521e+003, 2.768316e-002
2.252449e+003, 2.784950e-002
2.254377e+003, 2.851534e-002
2.256306e+003, 2.847481e-002
2.258234e+003, 2.784069e-002
2.260163e+003, 2.819198e-002
2.262091e+003, 2.807878e-002
2.264020e+003, 2.781990e-002
2.265948e+003, 2.776885e-002
2.267877e+003, 2.757756e-002
2.269805e+003, 2.741914e-002
2.271734e+003, 2.799266e-002
2.273662e+003, 2.815762e-002
2.275591e+003, 2.821416e-002
2.277519e+003, 2.849360e-002
2.279448e+003, 2.871166e-002
2.281376e+003, 2.872637e-002
2.283304e+003, 2.884774e-002
2.285233e+003, 2.870404e-002
2.287161e+003, 2.845825e-002
2.289090e+003, 2.848641e-002
2.291018e+003, 2.846146e-002
2.292947e+003, 2.812231e-002
2.294875e+003, 2.779701e-002
2.296804e+003, 2.776202e-002
2.298732e+003, 2.760226e-002
2.300661e+003, 2.777312e-002
2.302589e+003, 2.795371e-002
2.304518e+003, 2.760817e-002
2.306446e+003, 2.709804e-002
2.308375e+003, 2.704163e-002
2.310303e+003, 2.757669e-002
2.312231e+003, 2.810150e-002
2.314160e+003, 2.788846e-002
2.316088e+003, 2.757354e-002
2.318017e+003, 2.767224e-002
2.319945e+003, 2.799016e-002
2.321874e+003, 2.831413e-002
2.323802e+003, 2.855535e-002
2.325731e+003, 2.790863e-002
2.327659e+003, 2.708791e-002
2.329588e+003, 2.696776e-002
2.331516e+003, 2.707567e-002
2.333445e+003, 2.684676e-002
2.335373e+003, 2.697064e-002
2.337302e+003, 2.721906e-002
2.339230e+003, 2.694747e-002
2.341158e+003, 2.676114e-002
2.343087e+003, 2.674076e-002
2.345015e+003, 2.660388e-002
2.346944e+003, 2.638173e-002
2.348872e+003, 2.637271e-002
2.350801e+003, 2.653865e-002
2.352729e+003, 2.663739e-002
2.354658e+003, 2.670253e-002
2.356586e+003, 2.671466e-002
2.358515e+003, 2.660156e-002
2.360443e+003, 2.660014e-002
2.362372e+003, 2.666171e-002
2.364300e+003, 2.654655e-002
2.366229e+003, 2.629979e-002
2.368157e+003, 2.606777e-002
2.370085e+003, 2.599260e-002
2.372014e+003, 2.606990e-002
2.373942e+003, 2.612855e-002
2.375871e+003, 2.623747e-002
2.377799e+003, 2.624104e-002
2.379728e+003, 2.616086e-002
2.381656e+003, 2.614543e-002
2.383585e+003, 2.594271e-002
2.385513e+003, 2.591988e-002
2.387442e+003, 2.601320e-002
2.389370e+003, 2.633633e-002
2.391299e+003, 2.654118e-002
2.393227e+003, 2.623168e-002
2.395156e+003, 2.600714e-002
2.397084e+003, 2.603711e-002
2.399012e+003, 2.640962e-002
2.400941e+003, 2.640372e-002
2.402869e+003, 2.633911e-002
2.404798e+003, 2.634356e-002
2.406726e+003, 2.644072e-002
2.408655e+003, 2.649596e-002
2.410583e+003, 2.639309e-002
2.412512e+003, 2.644557e-002
2.414440e+003, 2.651507e-002
2.416369e+003, 2.650488e-002
2.418297e+003, 2.640636e-002
2.420226e+003, 2.657582e-002
2.422154e+003, 2.671239e-002
2.424083e+003, 2.673615e-002
2.426011e+003, 2.676868e-002
2.427939e+003, 2.682847e-002
2.429868e+003, 2.697011e-002
2.431796e+003, 2.706686e-002
2.433725e+003, 2.684981e-002
2.435653e+003, 2.662613e-002
2.437582e+003, 2.655790e-002
2.439510e+003, 2.708672e-002
2.441439e+003, 2.756454e-002
2.443367e+003, 2.745591e-002
2.445296e+003, 2.732157e-002
2.447224e+003, 2.747461e-002
2.449153e+003, 2.771492e-002
2.451081e+003, 2.763026e-002
2.453010e+003, 2.731427e-002
2.454938e+003, 2.728988e-002
2.456866e+003, 2.712256e-002
2.458795e+003, 2.709792e-002
2.460723e+003, 2.739681e-002
2.462652e+003, 2.741951e-002
2.464580e+003, 2.723443e-002
2.466509e+003, 2.715419e-002
2.468437e+003, 2.741926e-002
2.470366e+003, 2.793048e-002
2.472294e+003, 2.788657e-002
2.474223e+003, 2.745817e-002
2.476151e+003, 2.730381e-002
2.478080e+003, 2.746728e-002
2.480008e+003, 2.767627e-002
2.481937e+003, 2.767108e-002
2.483865e+003, 2.780020e-002
2.485793e+003, 2.801757e-002
2.487722e+003, 2.818199e-002
2.489650e+003, 2.799147e-002
2.491579e+003, 2.777389e-002
2.493507e+003, 2.759396e-002
2.495436e+003, 2.791597e-002
2.497364e+003, 2.831268e-002
2.499293e+003, 2.829820e-002
2.501221e+003, 2.828146e-002
2.503150e+003, 2.841117e-002
2.505078e+003, 2.862856e-002
2.507007e+003, 2.870813e-002
2.508935e+003, 2.868501e-002
2.510864e+003, 2.875767e-002
2.512792e+003, 2.924244e-002
2.514720e+003, 2.921316e-002
2.516649e+003, 2.927551e-002
2.518577e+003, 2.942091e-002
2.520506e+003, 2.948235e-002
2.522434e+003, 2.920380e-002
2.524363e+003, 2.897168e-002
2.526291e+003, 2.904018e-002
2.528220e+003, 2.982957e-002
2.530148e+003, 3.028392e-002
2.532077e+003, 2.988749e-002
2.534005e+003, 2.995810e-002
2.535934e+003, 3.014586e-002
2.537862e+003, 3.018612e-002
2.539791e+003, 3.038737e-002
2.541719e+003, 3.042893e-002
2.543647e+003, 3.044392e-002
2.545576e+003, 3.055435e-002
2.547504e+003, 3.070876e-002
2.549433e+003, 3.126603e-002
2.551361e+003, 3.159351e-002
2.553290e+003, 3.129889e-002
2.555218e+003, 3.096863e-002
2.557147e+003, 3.103055e-002
2.559075e+003, 3.127872e-002
2.561004e+003, 3.149401e-002
2.562932e+003, 3.170508e-002
2.564861e+003, 3.197384e-002
2.566789e+003, 3.229537e-002
2.568718e+003, 3.259131e-002
2.570646e+003, 3.299062e-002
2.572574e+003, 3.321060e-002
2.574503e+003, 3.338880e-002
2.576431e+003, 3.337482e-002
2.578360e+003, 3.336138e-002
2.580288e+003, 3.366650e-002
2.582217e+003, 3.390166e-002
2.584145e+003, 3.416179e-002
2.586074e+003, 3.458852e-002
2.588002e+003, 3.457369e-002
2.589931e+003, 3.426673e-002
2.591859e+003, 3.447221e-002
2.593788e+003, 3.484434e-002
2.595716e+003, 3.509519e-002
2.597645e+003, 3.530956e-002
2.599573e+003, 3.522705e-002
2.601501e+003, 3.552520e-002
2.603430e+003, 3.593647e-002
2.605358e+003, 3.610653e-002
2.607287e+003, 3.670720e-002
2.609215e+003, 3.691543e-002
2.611144e+003, 3.694786e-002
2.613072e+003, 3.733760e-002
2.615001e+003, 3.764165e-002
2.616929e+003, 3.760744e-002
2.618858e+003, 3.763063e-002
2.620786e+003, 3.790488e-002
2.622715e+003, 3.843156e-002
2.624643e+003, 3.869708e-002
2.626572e+003, 3.871638e-002
2.628500e+003, 3.874324e-002
2.630428e+003, 3.876504e-002
2.632357e+003, 3.910574e-002
2.634285e+003, 3.937335e-002
2.636214e+003, 3.961136e-002
2.638142e+003, 4.007083e-002
2.640071e+003, 4.028598e-002
2.641999e+003, 4.063031e-002
2.643928e+003, 4.071565e-002
2.645856e+003, 4.088691e-002
2.647785e+003, 4.123981e-002
2.649713e+003, 4.159426e-002
2.651642e+003, 4.169710e-002
2.653570e+003, 4.193416e-002
2.655499e+003, 4.218706e-002
2.657427e+003, 4.255025e-002
2.659355e+003, 4.269802e-002
2.661284e+003, 4.274376e-002
2.663212e+003, 4.287809e-002
2.665141e+003, 4.309596e-002
2.667069e+003, 4.353360e-002
2.668998e+003, 4.364887e-002
2.670926e+003, 4.366649e-002
2.672855e+003, 4.403856e-002
2.674783e+003, 4.433809e-002
2.676712e+003, 4.462656e-002
2.678640e+003, 4.501785e-002
2.680569e+003, 4.548246e-002
2.682497e+003, 4.580158e-002
2.684426e+003, 4.603506e-002
2.686354e+003, 4.645148e-002
2.688282e+003, 4.676029e-002
2.690211e+003, 4.708869e-002
2.692139e+003, 4.744535e-002
2.694068e+003, 4.767936e-002
2.695996e+003, 4.800173e-002
2.697925e+003, 4.835878e-002
2.699853e+003, 4.839284e-002
2.701782e+003, 4.843259e-002
2.703710e+003, 4.897538e-002
2.705639e+003, 4.951789e-002
2.707567e+003, 4.998319e-002
2.709496e+003, 5.037541e-002
2.711424e+003, 5.066602e-002
2.713353e+003, 5.110905e-002
2.715281e+003, 5.182031e-002
2.717209e+003, 5.213002e-002
2.719138e+003, 5.221207e-002
2.721066e+003, 5.260815e-002
2.722995e+003, 5.289106e-002
2.724923e+003, 5.325926e-002
2.726852e+003, 5.386968e-002
2.728780e+003, 5.425590e-002
2.730709e+003, 5.460492e-002
2.732637e+003, 5.498545e-002
2.734566e+003, 5.533678e-002
2.736494e+003, 5.584217e-002
2.738423e+003, 5.642623e-002
2.740351e+003, 5.701342e-002
2.742280e+003, 5.749358e-002
2.744208e+003, 5.793577e-002
2.746136e+003, 5.844047e-002
2.748065e+003, 5.879948e-002
2.749993e+003, 5.911420e-002
2.751922e+003, 5.957915e-002
2.753850e+003, 6.002470e-002
2.755779e+003, 6.051485e-002
2.757707e+003, 6.115320e-002
2.759636e+003, 6.167917e-002
2.761564e+003, 6.205646e-002
2.763493e+003, 6.228317e-002
2.765421e+003, 6.281329e-002
2.767350e+003, 6.338111e-002
2.769278e+003, 6.381142e-002
2.771207e+003, 6.456080e-002
2.773135e+003, 6.538714e-002
2.775063e+003, 6.594855e-002
2.776992e+003, 6.626289e-002
2.778920e+003, 6.647746e-002
2.780849e+003, 6.721225e-002
2.782777e+003, 6.806954e-002
2.784706e+003, 6.859811e-002
2.786634e+003, 6.889888e-002
2.788563e+003, 6.934564e-002
2.790491e+003, 7.000407e-002
2.792420e+003, 7.066296e-002
2.794348e+003, 7.127999e-002
2.796277e+003, 7.195647e-002
2.798205e+003, 7.276091e-002
2.800134e+003, 7.342711e-002
2.802062e+003, 7.395920e-002
2.803990e+003, 7.465206e-002
2.805919e+003, 7.519463e-002
2.807847e+003, 7.565907e-002
2.809776e+003, 7.638744e-002
2.811704e+003, 7.742548e-002
2.813633e+003, 7.807555e-002
2.815561e+003, 7.859780e-002
2.817490e+003, 7.925493e-002
2.819418e+003, 8.014373e-002
2.821347e+003, 8.077572e-002
2.823275e+003, 8.125062e-002
2.825204e+003, 8.184953e-002
2.827132e+003, 8.280419e-002
2.829061e+003, 8.370294e-002
2.830989e+003, 8.442206e-002
2.832917e+003, 8.510361e-002
2.834846e+003, 8.598422e-002
2.836774e+003, 8.705505e-002
2.838703e+003, 8.779937e-002
2.840631e+003, 8.832246e-002
2.842560e+003, 8.913525e-002
2.844488e+003, 9.014010e-002
2.846417e+003, 9.098289e-002
2.848345e+003, 9.178820e-002
2.850274e+003, 9.262905e-002
2.852202e+003, 9.364891e-002
2.854131e+003, 9.471019e-002
2.856059e+003, 9.550440e-002
2.857988e+003, 9.630645e-002
2.859916e+003, 9.720740e-002
2.861844e+003, 9.766918e-002
2.863773e+003, 9.815825e-002
2.865701e+003, 9.888381e-002
2.867630e+003, 9.951223e-002
2.869558e+003, 1.005233e-001
2.871487e+003, 1.014196e-001
2.873415e+003, 1.018326e-001
2.875344e+003, 1.024745e-001
2.877272e+003, 1.034974e-001
2.879201e+003, 1.043879e-001
2.881129e+003, 1.052551e-001
2.883058e+003, 1.059919e-001
2.884986e+003, 1.069833e-001
2.886915e+003, 1.081939e-001
2.888843e+003, 1.094217e-001
2.890771e+003, 1.103266e-001
2.892700e+003, 1.111057e-001
2.894628e+003, 1.122251e-001
2.896557e+003, 1.134984e-001
2.898485e+003, 1.144728e-001
2.900414e+003, 1.156268e-001
2.902342e+003, 1.166749e-001
2.904271e+003, 1.174917e-001
2.906199e+003, 1.182938e-001
2.908128e+003, 1.193786e-001
2.910056e+003, 1.203712e-001
2.911985e+003, 1.215284e-001
2.913913e+003, 1.227591e-001
2.915842e+003, 1.238779e-001
2.917770e+003, 1.250539e-001
2.919698e+003, 1.261686e-001
2.921627e+003, 1.271093e-001
2.923555e+003, 1.280604e-001
2.925484e+003, 1.291622e-001
2.927412e+003, 1.303216e-001
2.929341e+003, 1.312559e-001
2.931269e+003, 1.316466e-001
2.933198e+003, 1.321687e-001
2.935126e+003, 1.331218e-001
2.937055e+003, 1.339654e-001
2.938983e+003, 1.345358e-001
2.940912e+003, 1.352039e-001
2.942840e+003, 1.364574e-001
2.944769e+003, 1.377918e-001
2.946697e+003, 1.392125e-001
2.948625e+003, 1.403821e-001
2.950554e+003, 1.415484e-001
2.952482e+003, 1.425683e-001
2.954411e+003, 1.435204e-001
2.956339e+003, 1.444120e-001
2.958268e+003, 1.449994e-001
2.960196e+003, 1.460271e-001
2.962125e+003, 1.472137e-001
2.964053e+003, 1.479926e-001
2.965982e+003, 1.487947e-001
2.967910e+003, 1.494678e-001
2.969839e+003, 1.505495e-001
2.971767e+003, 1.513252e-001
2.973696e+003, 1.521228e-001
2.975624e+003, 1.531820e-001
2.977552e+003, 1.541667e-001
2.979481e+003, 1.553751e-001
2.981409e+003, 1.564855e-001
2.983338e+003, 1.574201e-001
2.985266e+003, 1.585764e-001
2.987195e+003, 1.599202e-001
2.989123e+003, 1.612368e-001
2.991052e+003, 1.621559e-001
2.992980e+003, 1.634112e-001
2.994909e+003, 1.647878e-001
2.996837e+003, 1.661289e-001
2.998766e+003, 1.673828e-001
3.000694e+003, 1.687525e-001
3.002623e+003, 1.700709e-001
3.004551e+003, 1.715929e-001
3.006479e+003, 1.725415e-001
3.008408e+003, 1.736087e-001
3.010336e+003, 1.748293e-001
3.012265e+003, 1.759264e-001
3.014193e+003, 1.772784e-001
3.016122e+003, 1.788037e-001
3.018050e+003, 1.798169e-001
3.019979e+003, 1.811578e-001
3.021907e+003, 1.828105e-001
3.023836e+003, 1.843916e-001
3.025764e+003, 1.860965e-001
3.027693e+003, 1.872774e-001
3.029621e+003, 1.883984e-001
3.031550e+003, 1.898772e-001
3.033478e+003, 1.913928e-001
3.035406e+003, 1.923335e-001
3.037335e+003, 1.935688e-001
3.039263e+003, 1.952227e-001
3.041192e+003, 1.967090e-001
3.043120e+003, 1.984995e-001
3.045049e+003, 1.999452e-001
3.046977e+003, 2.011591e-001
3.048906e+003, 2.024653e-001
3.050834e+003, 2.042400e-001
3.052763e+003, 2.059865e-001
3.054691e+003, 2.073980e-001
3.056620e+003, 2.081844e-001
3.058548e+003, 2.095893e-001
3.060477e+003, 2.112749e-001
3.062405e+003, 2.124093e-001
3.064333e+003, 2.136000e-001
3.066262e+003, 2.148110e-001
3.068190e+003, 2.158431e-001
3.070119e+003, 2.171260e-001
3.072047e+003, 2.185463e-001
3.073976e+003, 2.198068e-001
3.075904e+003, 2.210880e-001
3.077833e+003, 2.221147e-001
3.079761e+003, 2.233088e-001
3.081690e+003, 2.246961e-001
3.083618e+003, 2.258017e-001
3.085547e+003, 2.265326e-001
3.087475e+003, 2.275561e-001
3.089404e+003, 2.281587e-001
3.091332e+003, 2.279541e-001
3.093260e+003, 2.288544e-001
3.095189e+003, 2.302763e-001
3.097117e+003, 2.313543e-001
3.099046e+003, 2.321978e-001
3.100974e+003, 2.328734e-001
3.102903e+003, 2.332594e-001
3.104831e+003, 2.332236e-001
3.106760e+003, 2.332582e-001
3.108688e+003, 2.339093e-001
3.110617e+003, 2.348263e-001
3.112545e+003, 2.350327e-001
3.114474e+003, 2.344792e-001
3.116402e+003, 2.340171e-001
3.118331e+003, 2.341966e-001
3.120259e+003, 2.341845e-001
3.122188e+003, 2.343156e-001
3.124116e+003, 2.345132e-001
3.126044e+003, 2.337190e-001
3.127973e+003, 2.333495e-001
3.129901e+003, 2.332023e-001
3.131830e+003, 2.328186e-001
3.133758e+003, 2.323422e-001
3.135687e+003, 2.319253e-001
3.137615e+003, 2.313120e-001
3.139544e+003, 2.307181e-001
3.141472e+003, 2.296609e-001
3.143401e+003, 2.287609e-001
3.145329e+003, 2.278614e-001
3.147258e+003, 2.272609e-001
3.149186e+003, 2.268902e-001
3.151115e+003, 2.261453e-001
3.153043e+003, 2.253985e-001
3.154971e+003, 2.248473e-001
3.156900e+003, 2.244918e-001
3.158828e+003, 2.240373e-001
3.160757e+003, 2.226666e-001
3.162685e+003, 2.216441e-001
3.164614e+003, 2.211808e-001
3.166542e+003, 2.205380e-001
3.168471e+003, 2.200165e-001
3.170399e+003, 2.192022e-001
3.172328e+003, 2.182220e-001
3.174256e+003, 2.175916e-001
3.176185e+003, 2.168316e-001
3.178113e+003, 2.160317e-001
3.180042e+003, 2.156149e-001
3.181970e+003, 2.153456e-001
3.183898e+003, 2.147644e-001
3.185827e+003, 2.135276e-001
3.187755e+003, 2.123609e-001
3.189684e+003, 2.119335e-001
3.191612e+003, 2.114374e-001
3.193541e+003, 2.107420e-001
3.195469e+003, 2.099699e-001
3.197398e+003, 2.093811e-001
3.199326e+003, 2.086356e-001
3.201255e+003, 2.079447e-001
3.203183e+003, 2.079033e-001
3.205112e+003, 2.077630e-001
3.207040e+003, 2.076251e-001
3.208969e+003, 2.068575e-001
3.210897e+003, 2.051866e-001
3.212825e+003, 2.043027e-001
3.214754e+003, 2.041062e-001
3.216682e+003, 2.037222e-001
3.218611e+003, 2.031305e-001
3.220539e+003, 2.021781e-001
3.222468e+003, 2.013402e-001
3.224396e+003, 2.010307e-001
3.226325e+003, 2.005649e-001
3.228253e+003, 2.000656e-001
3.230182e+003, 1.995716e-001
3.232110e+003, 1.985617e-001
3.234039e+003, 1.976468e-001
3.235967e+003, 1.972671e-001
3.237896e+003, 1.964055e-001
3.239824e+003, 1.953718e-001
3.241752e+003, 1.948736e-001
3.243681e+003, 1.943482e-001
3.245609e+003, 1.938577e-001
3.247538e+003, 1.933217e-001
3.249466e+003, 1.924831e-001
3.251395e+003, 1.921121e-001
3.253323e+003, 1.914453e-001
3.255252e+003, 1.902222e-001
3.257180e+003, 1.896711e-001
3.259109e+003, 1.892779e-001
3.261037e+003, 1.886136e-001
3.262966e+003, 1.878277e-001
3.264894e+003, 1.872756e-001
3.266823e+003, 1.867706e-001
3.268751e+003, 1.857805e-001
3.270679e+003, 1.848077e-001
3.272608e+003, 1.839690e-001
3.274536e+003, 1.831210e-001
3.276465e+003, 1.823763e-001
3.278393e+003, 1.816666e-001
3.280322e+003, 1.807411e-001
3.282250e+003, 1.799446e-001
3.284179e+003, 1.790751e-001
3.286107e+003, 1.781475e-001
3.288036e+003, 1.775944e-001
3.289964e+003, 1.769716e-001
3.291893e+003, 1.760448e-001
3.293821e+003, 1.751509e-001
3.295750e+003, 1.744244e-001
3.297678e+003, 1.737512e-001
3.299606e+003, 1.728576e-001
3.301535e+003, 1.717910e-001
3.303463e+003, 1.710197e-001
3.305392e+003, 1.701898e-001
3.307320e+003, 1.691433e-001
3.309249e+003, 1.682050e-001
3.311177e+003, 1.672051e-001
3.313106e+003, 1.663915e-001
3.315034e+003, 1.659143e-001
3.316963e+003, 1.650163e-001
3.318891e+003, 1.638598e-001
3.320820e+003, 1.629747e-001
3.322748e+003, 1.621981e-001
3.324677e+003, 1.611554e-001
3.326605e+003, 1.602442e-001
3.328533e+003, 1.591713e-001
3.330462e+003, 1.584728e-001
3.332390e+003, 1.574828e-001
3.334319e+003, 1.564288e-001
3.336247e+003, 1.554560e-001
3.338176e+003, 1.540381e-001
3.340104e+003, 1.525593e-001
3.342033e+003, 1.518690e-001
3.343961e+003, 1.511436e-001
3.345890e+003, 1.501194e-001
3.347818e+003, 1.492809e-001
3.349747e+003, 1.480342e-001
3.351675e+003, 1.470378e-001
3.353604e+003, 1.467980e-001
3.355532e+003, 1.464686e-001
3.357460e+003, 1.454348e-001
3.359389e+003, 1.442580e-001
3.361317e+003, 1.431452e-001
3.363246e+003, 1.424972e-001
3.365174e+003, 1.420766e-001
3.367103e+003, 1.410123e-001
3.369031e+003, 1.396783e-001
3.370960e+003, 1.390639e-001
3.372888e+003, 1.392164e-001
3.374817e+003, 1.389271e-001
3.376745e+003, 1.378974e-001
3.378674e+003, 1.367457e-001
3.380602e+003, 1.364180e-001
3.382531e+003, 1.364583e-001
3.384459e+003, 1.362385e-001
3.386387e+003, 1.358742e-001
3.388316e+003, 1.355432e-001
3.390244e+003, 1.353976e-001
3.392173e+003, 1.352566e-001
3.394101e+003, 1.348811e-001
3.396030e+003, 1.343876e-001
3.397958e+003, 1.338028e-001
3.399887e+003, 1.332947e-001
3.401815e+003, 1.333508e-001
3.403744e+003, 1.338608e-001
3.405672e+003, 1.342236e-001
3.407601e+003, 1.344666e-001
3.409529e+003, 1.343001e-001
3.411458e+003, 1.346550e-001
3.413386e+003, 1.350483e-001
3.415314e+003, 1.349476e-001
3.417243e+003, 1.350476e-001
3.419171e+003, 1.355490e-001
3.421100e+003, 1.365902e-001
3.423028e+003, 1.375725e-001
3.424957e+003, 1.388060e-001
3.426885e+003, 1.395696e-001
3.428814e+003, 1.402128e-001
3.430742e+003, 1.410650e-001
3.432671e+003, 1.416564e-001
3.434599e+003, 1.427836e-001
3.436528e+003, 1.439503e-001
3.438456e+003, 1.450248e-001
3.440385e+003, 1.461507e-001
3.442313e+003, 1.472362e-001
3.444241e+003, 1.486276e-001
3.446170e+003, 1.494555e-001
3.448098e+003, 1.504862e-001
3.450027e+003, 1.523856e-001
3.451955e+003, 1.539886e-001
3.453884e+003, 1.548328e-001
3.455812e+003, 1.559703e-001
3.457741e+003, 1.569442e-001
3.459669e+003, 1.579164e-001
3.461598e+003, 1.591011e-001
3.463526e+003, 1.599173e-001
3.465455e+003, 1.595995e-001
3.467383e+003, 1.591521e-001
3.469312e+003, 1.585704e-001
3.471240e+003, 1.579799e-001
3.473168e+003, 1.568688e-001
3.475097e+003, 1.560180e-001
3.477025e+003, 1.546478e-001
3.478954e+003, 1.522398e-001
3.480882e+003, 1.497933e-001
3.482811e+003, 1.470934e-001
3.484739e+003, 1.438388e-001
3.486668e+003, 1.408045e-001
3.488596e+003, 1.377969e-001
3.490525e+003, 1.345137e-001
3.492453e+003, 1.310471e-001
3.494382e+003, 1.273056e-001
3.496310e+003, 1.231687e-001
3.498239e+003, 1.194667e-001
3.500167e+003, 1.156005e-001
3.502095e+003, 1.112760e-001
3.504024e+003, 1.081171e-001
3.505952e+003, 1.047029e-001
3.507881e+003, 1.005028e-001
3.509809e+003, 9.630076e-002
3.511738e+003, 9.206153e-002
3.513666e+003, 8.904850e-002
3.515595e+003, 8.615718e-002
3.517523e+003, 8.251365e-002
3.519452e+003, 7.917263e-002
3.521380e+003, 7.665133e-002
3.523309e+003, 7.450221e-002
3.525237e+003, 7.183826e-002
3.527166e+003, 6.883602e-002
3.529094e+003, 6.635007e-002
3.531022e+003, 6.426858e-002
3.532951e+003, 6.200437e-002
3.534879e+003, 6.026661e-002
3.536808e+003, 5.876954e-002
3.538736e+003, 5.711145e-002
3.540665e+003, 5.534501e-002
3.542593e+003, 5.330806e-002
3.544522e+003, 5.162574e-002
3.546450e+003, 5.030521e-002
3.548379e+003, 4.923178e-002
3.550307e+003, 4.806351e-002
3.552236e+003, 4.613188e-002
3.554164e+003, 4.462990e-002
3.556093e+003, 4.397213e-002
3.558021e+003, 4.267950e-002
3.559949e+003, 4.120447e-002
3.561878e+003, 3.906439e-002
3.563806e+003, 3.753292e-002
3.565735e+003, 3.680059e-002
3.567663e+003, 3.561985e-002
3.569592e+003, 3.448518e-002
3.571520e+003, 3.299542e-002
3.573449e+003, 3.097973e-002
3.575377e+003, 3.063559e-002
3.577306e+003, 3.052358e-002
3.579234e+003, 2.918129e-002
3.581163e+003, 2.753494e-002
3.583091e+003, 2.665021e-002
3.585020e+003, 2.631378e-002
3.586948e+003, 2.503025e-002
3.588876e+003, 2.355482e-002
3.590805e+003, 2.303449e-002
3.592733e+003, 2.249954e-002
3.594662e+003, 2.170389e-002
3.596590e+003, 2.065420e-002
3.598519e+003, 1.938860e-002
3.600447e+003, 1.856576e-002
3.602376e+003, 1.814852e-002
3.604304e+003, 1.687843e-002
3.606233e+003, 1.599015e-002
3.608161e+003, 1.609095e-002
3.610090e+003, 1.555120e-002
3.612018e+003, 1.473740e-002
3.613947e+003, 1.405544e-002
3.615875e+003, 1.297787e-002
3.617803e+003, 1.257713e-002
3.619732e+003, 1.227047e-002
3.621660e+003, 1.179740e-002
3.623589e+003, 1.079126e-002
3.625517e+003, 9.873166e-003
3.627446e+003, 1.004639e-002
3.629374e+003, 1.041312e-002
3.631303e+003, 9.931204e-003
3.633231e+003, 9.054054e-003
3.635160e+003, 7.884577e-003
3.637088e+003, 7.223720e-003
3.639017e+003, 7.120209e-003
3.640945e+003, 6.558612e-003
3.642874e+003, 6.359421e-003
3.644802e+003, 6.372091e-003
3.646730e+003, 7.427846e-003
3.648659e+003, 7.500739e-003
3.650587e+003, 6.799589e-003
3.652516e+003, 5.613348e-003
3.654444e+003, 5.148031e-003
3.656373e+003, 5.219759e-003
3.658301e+003, 4.592411e-003
3.660230e+003, 4.088915e-003
3.662158e+003, 4.147971e-003
3.664087e+003, 3.760546e-003
3.666015e+003, 3.870136e-003
3.667944e+003, 4.329180e-003
3.669872e+003, 4.604327e-003
3.671801e+003, 4.219616e-003
3.673729e+003, 4.049737e-003
3.675657e+003, 4.104210e-003
3.677586e+003, 3.895006e-003
3.679514e+003, 3.393461e-003
3.681443e+003, 2.647157e-003
3.683371e+003, 2.444136e-003
3.685300e+003, 2.426793e-003
3.687228e+003, 2.940672e-003
3.689157e+003, 3.360676e-003
3.691085e+003, 3.065605e-003
3.693014e+003, 2.546595e-003
3.694942e+003, 1.857804e-003
3.696871e+003, 1.837042e-003
3.698799e+003, 2.120075e-003
3.700728e+003, 2.045770e-003
3.702656e+003, 1.826445e-003
3.704584e+003, 1.538000e-003
3.706513e+003, 1.255936e-003
3.708441e+003, 1.361338e-003
3.710370e+003, 2.146850e-003
3.712298e+003, 2.361024e-003
3.714227e+003, 1.578570e-003
3.716155e+003, 1.568510e-003
3.718084e+003, 1.942242e-003
3.720012e+003, 1.938904e-003
3.721941e+003, 2.110767e-003
3.723869e+003, 2.228599e-003
3.725798e+003, 1.957533e-003
3.727726e+003, 1.124136e-003
3.729655e+003, 1.236480e-003
3.731583e+003, 2.070914e-003
3.733511e+003, 2.236945e-003
3.735440e+003, 2.280463e-003
3.737368e+003, 1.659716e-003
3.739297e+003, 1.402344e-003
3.741225e+003, 1.706664e-003
3.743154e+003, 2.998738e-003
3.745082e+003, 2.676445e-003
3.747011e+003, 1.903855e-003
3.748939e+003, 2.622287e-003
3.750868e+003, 2.705523e-003
3.752796e+003, 1.912576e-003
3.754725e+003, 8.753355e-004
3.756653e+003, 9.381500e-004
3.758582e+003, 1.426022e-003
3.760510e+003, 1.723059e-003
3.762438e+003, 1.359060e-003
3.764367e+003, 1.630267e-003
3.766295e+003, 2.421233e-003
3.768224e+003, 2.377439e-003
3.770152e+003, 1.911942e-003
3.772081e+003, 1.751116e-003
3.774009e+003, 1.478987e-003
3.775938e+003, 1.260471e-003
3.777866e+003, 1.628431e-003
3.779795e+003, 1.889134e-003
3.781723e+003, 1.463113e-003
3.783652e+003, 1.458437e-003
3.785580e+003, 1.774687e-003
3.787509e+003, 1.889767e-003
3.789437e+003, 1.315848e-003
3.791365e+003, 1.019066e-003
3.793294e+003, 1.314754e-003
3.795222e+003, 1.859674e-003
3.797151e+003, 1.872938e-003
3.799079e+003, 1.681450e-003
3.801008e+003, 1.981598e-003
3.802936e+003, 1.787055e-003
3.804865e+003, 2.109298e-003
3.806793e+003, 2.250285e-003
3.808722e+003, 1.799322e-003
3.810650e+003, 1.481715e-003
3.812579e+003, 1.840943e-003
3.814507e+003, 2.703619e-003
3.816436e+003, 2.870145e-003
3.818364e+003, 1.830396e-003
3.820292e+003, 1.753874e-003
3.822221e+003, 2.044588e-003
3.824149e+003, 1.531748e-003
3.826078e+003, 1.480610e-003
3.828006e+003, 1.598642e-003
3.829935e+003, 1.843464e-003
3.831863e+003, 1.879589e-003
3.833792e+003, 2.402003e-003
3.835720e+003, 2.564594e-003
3.837649e+003, 1.598013e-003
3.839577e+003, 1.453769e-003
3.841506e+003, 2.770101e-003
3.843434e+003, 3.087732e-003
3.845363e+003, 2.913757e-003
3.847291e+003, 2.427599e-003
3.849219e+003, 2.315390e-003
3.851148e+003, 3.324651e-003
3.853076e+003, 4.423084e-003
3.855005e+003, 3.377103e-003
3.856933e+003, 1.726043e-003
3.858862e+003, 1.589689e-003
3.860790e+003, 2.077372e-003
3.862719e+003, 1.956924e-003
3.864647e+003, 2.739580e-003
3.866576e+003, 2.859002e-003
3.868504e+003, 1.901815e-003
3.870433e+003, 1.632905e-003
3.872361e+003, 1.922187e-003
3.874290e+003, 2.730038e-003
3.876218e+003, 2.549756e-003
3.878146e+003, 2.223904e-003
3.880075e+003, 2.336362e-003
3.882003e+003, 2.552500e-003
3.883932e+003, 2.958641e-003
3.885860e+003, 2.981775e-003
3.887789e+003, 2.728791e-003
3.889717e+003, 2.388472e-003
3.891646e+003, 1.732378e-003
3.893574e+003, 1.606807e-003
3.895503e+003, 2.359296e-003
3.897431e+003, 3.366338e-003
3.899360e+003, 3.428452e-003
3.901288e+003, 2.799981e-003
3.903217e+003, 1.827993e-003
3.905145e+003, 1.577611e-003
3.907073e+003, 1.778857e-003
3.909002e+003, 1.704267e-003
3.910930e+003, 1.756085e-003
3.912859e+003, 2.159189e-003
3.914787e+003, 2.330791e-003
3.916716e+003, 2.338046e-003
3.918644e+003, 2.434765e-003
3.920573e+003, 2.562676e-003
3.922501e+003, 2.958374e-003
3.924430e+003, 3.055702e-003
3.926358e+003, 2.265495e-003
3.928287e+003, 2.189844e-003
3.930215e+003, 2.751176e-003
3.932144e+003, 3.079580e-003
3.934072e+003, 2.743818e-003
3.936000e+003, 2.161099e-003
3.937929e+003, 2.440326e-003
3.939857e+003, 2.194584e-003
3.941786e+003, 1.743891e-003
3.943714e+003, 2.228795e-003
3.945643e+003, 2.794179e-003
3.947571e+003, 2.623143e-003
3.949500e+003, 2.368865e-003
3.951428e+003, 2.598834e-003
3.953357e+003, 3.018383e-003
3.955285e+003, 3.709251e-003
3.957214e+003, 2.902857e-003
3.959142e+003, 2.187087e-003
3.961071e+003, 2.645671e-003
3.962999e+003, 3.167434e-003
3.964927e+003, 3.043818e-003
3.966856e+003, 3.348036e-003
3.968784e+003, 2.920849e-003
3.970713e+003, 2.657259e-003
3.972641e+003, 3.269978e-003
3.974570e+003, 2.908895e-003
3.976498e+003, 2.702713e-003
3.978427e+003, 2.443955e-003
3.980355e+003, 1.884184e-003
3.982284e+003, 2.113511e-003
3.984212e+003, 3.134843e-003
3.986141e+003, 3.808277e-003
3.988069e+003, 3.700213e-003
3.989998e+003, 3.347898e-003
3.991926e+003, 2.962196e-003
3.993854e+003, 2.567850e-003
3.995783e+003, 2.588194e-003
3.997711e+003, 3.090174e-003
3.999640e+003, 4.068412e-003
##END=



