##NAMES=Volborthite
##RRUFFID=R050249
##IDEAL CHEMISTRY=Cu^2+^_3_V^5+^_2_O_7_(OH)_2_&#183;2H_2_O
##LOCALITY=Carlin Gold mine, Elko, Lynn District, Eureka County, Nevada, USA
##OWNER=RRUFF
##SOURCE=Marcus Origlieri
##DESCRIPTION=Green lamellar
##STATUS=The identification of this mineral has been confirmed by X-ray diffraction.
##URL=rruff.info/R050249
3.991926e+002, 2.427580e-001
4.011211e+002, 2.363396e-001
4.030495e+002, 2.326507e-001
4.049780e+002, 2.438793e-001
4.069065e+002, 2.520322e-001
4.088349e+002, 2.571392e-001
4.107634e+002, 2.619382e-001
4.126919e+002, 2.739432e-001
4.146203e+002, 2.813272e-001
4.165488e+002, 2.810699e-001
4.184773e+002, 2.764769e-001
4.204057e+002, 2.798679e-001
4.223342e+002, 2.807821e-001
4.242627e+002, 2.784143e-001
4.261911e+002, 2.751021e-001
4.281196e+002, 2.734514e-001
4.300481e+002, 2.713912e-001
4.319765e+002, 2.676639e-001
4.339050e+002, 2.662157e-001
4.358335e+002, 2.677720e-001
4.377619e+002, 2.703557e-001
4.396904e+002, 2.748539e-001
4.416189e+002, 2.766831e-001
4.435473e+002, 2.757660e-001
4.454758e+002, 2.756338e-001
4.474043e+002, 2.807386e-001
4.493327e+002, 2.870071e-001
4.512612e+002, 2.886062e-001
4.531897e+002, 2.899764e-001
4.551181e+002, 2.938524e-001
4.570466e+002, 2.941030e-001
4.589751e+002, 2.938932e-001
4.609035e+002, 2.921158e-001
4.628320e+002, 2.910495e-001
4.647605e+002, 2.876480e-001
4.666889e+002, 2.835785e-001
4.686174e+002, 2.813366e-001
4.705459e+002, 2.797631e-001
4.724743e+002, 2.772451e-001
4.744028e+002, 2.746103e-001
4.763313e+002, 2.711724e-001
4.782597e+002, 2.679512e-001
4.801882e+002, 2.660211e-001
4.821167e+002, 2.648292e-001
4.840451e+002, 2.650145e-001
4.859736e+002, 2.662097e-001
4.879021e+002, 2.675647e-001
4.898305e+002, 2.705545e-001
4.917590e+002, 2.741046e-001
4.936875e+002, 2.789230e-001
4.956159e+002, 2.846703e-001
4.975444e+002, 2.913618e-001
4.994729e+002, 2.968214e-001
5.014013e+002, 3.025270e-001
5.033298e+002, 3.073081e-001
5.052583e+002, 3.091693e-001
5.071867e+002, 3.073523e-001
5.091152e+002, 3.031949e-001
5.110437e+002, 2.967035e-001
5.129721e+002, 2.886227e-001
5.149006e+002, 2.812920e-001
5.168290e+002, 2.761610e-001
5.187575e+002, 2.723399e-001
5.206860e+002, 2.704390e-001
5.226144e+002, 2.703201e-001
5.245429e+002, 2.718933e-001
5.264714e+002, 2.742082e-001
5.283998e+002, 2.760119e-001
5.303283e+002, 2.747290e-001
5.322568e+002, 2.707219e-001
5.341852e+002, 2.638533e-001
5.361137e+002, 2.550329e-001
5.380422e+002, 2.453433e-001
5.399706e+002, 2.361541e-001
5.418991e+002, 2.293084e-001
5.438276e+002, 2.254904e-001
5.457560e+002, 2.242508e-001
5.476845e+002, 2.249883e-001
5.496130e+002, 2.275483e-001
5.515414e+002, 2.314377e-001
5.534699e+002, 2.363807e-001
5.553984e+002, 2.424704e-001
5.573268e+002, 2.482133e-001
5.592553e+002, 2.527642e-001
5.611838e+002, 2.555757e-001
5.631122e+002, 2.555667e-001
5.650407e+002, 2.512171e-001
5.669692e+002, 2.437694e-001
5.688976e+002, 2.350068e-001
5.708261e+002, 2.262982e-001
5.727546e+002, 2.199000e-001
5.746830e+002, 2.165478e-001
5.766115e+002, 2.156039e-001
5.785400e+002, 2.170692e-001
5.804684e+002, 2.199065e-001
5.823969e+002, 2.228276e-001
5.843254e+002, 2.264166e-001
5.862538e+002, 2.302715e-001
5.881823e+002, 2.333821e-001
5.901108e+002, 2.360361e-001
5.920392e+002, 2.374584e-001
5.939677e+002, 2.373958e-001
5.958962e+002, 2.367526e-001
5.978246e+002, 2.359758e-001
5.997531e+002, 2.351563e-001
6.016816e+002, 2.345234e-001
6.036100e+002, 2.338518e-001
6.055385e+002, 2.333626e-001
6.074670e+002, 2.338936e-001
6.093954e+002, 2.357580e-001
6.113239e+002, 2.382792e-001
6.132524e+002, 2.407276e-001
6.151808e+002, 2.431750e-001
6.171093e+002, 2.458916e-001
6.190378e+002, 2.485313e-001
6.209662e+002, 2.501838e-001
6.228947e+002, 2.510436e-001
6.248232e+002, 2.516282e-001
6.267516e+002, 2.517115e-001
6.286801e+002, 2.513269e-001
6.306086e+002, 2.501468e-001
6.325370e+002, 2.487563e-001
6.344655e+002, 2.477989e-001
6.363940e+002, 2.466785e-001
6.383224e+002, 2.451350e-001
6.402509e+002, 2.439551e-001
6.421794e+002, 2.436689e-001
6.441078e+002, 2.446655e-001
6.460363e+002, 2.465531e-001
6.479648e+002, 2.496651e-001
6.498932e+002, 2.544225e-001
6.518217e+002, 2.609285e-001
6.537502e+002, 2.689967e-001
6.556786e+002, 2.781475e-001
6.576071e+002, 2.879355e-001
6.595356e+002, 2.975486e-001
6.614641e+002, 3.066327e-001
6.633925e+002, 3.144253e-001
6.653210e+002, 3.207655e-001
6.672495e+002, 3.261871e-001
6.691779e+002, 3.307413e-001
6.711064e+002, 3.336809e-001
6.730349e+002, 3.363593e-001
6.749633e+002, 3.388450e-001
6.768918e+002, 3.403948e-001
6.788203e+002, 3.418050e-001
6.807487e+002, 3.432667e-001
6.826772e+002, 3.446206e-001
6.846057e+002, 3.460485e-001
6.865341e+002, 3.477919e-001
6.884626e+002, 3.503532e-001
6.903911e+002, 3.529655e-001
6.923195e+002, 3.551708e-001
6.942480e+002, 3.566309e-001
6.961765e+002, 3.566812e-001
6.981049e+002, 3.568135e-001
7.000334e+002, 3.595048e-001
7.019619e+002, 3.643324e-001
7.038903e+002, 3.701984e-001
7.058188e+002, 3.763708e-001
7.077473e+002, 3.825400e-001
7.096757e+002, 3.892744e-001
7.116042e+002, 3.962200e-001
7.135327e+002, 4.020768e-001
7.154611e+002, 4.075096e-001
7.173896e+002, 4.125345e-001
7.193181e+002, 4.169819e-001
7.212465e+002, 4.201225e-001
7.231750e+002, 4.226281e-001
7.251035e+002, 4.247524e-001
7.270319e+002, 4.261140e-001
7.289604e+002, 4.264744e-001
7.308889e+002, 4.266704e-001
7.328173e+002, 4.260279e-001
7.347458e+002, 4.244095e-001
7.366743e+002, 4.221340e-001
7.386027e+002, 4.188674e-001
7.405312e+002, 4.149404e-001
7.424597e+002, 4.101213e-001
7.443881e+002, 4.040869e-001
7.463166e+002, 3.972905e-001
7.482451e+002, 3.897290e-001
7.501735e+002, 3.823518e-001
7.521020e+002, 3.754621e-001
7.540305e+002, 3.688172e-001
7.559589e+002, 3.630570e-001
7.578874e+002, 3.584701e-001
7.598159e+002, 3.543581e-001
7.617443e+002, 3.509670e-001
7.636728e+002, 3.479891e-001
7.656013e+002, 3.453376e-001
7.675297e+002, 3.434125e-001
7.694582e+002, 3.416519e-001
7.713867e+002, 3.397582e-001
7.733151e+002, 3.378796e-001
7.752436e+002, 3.354020e-001
7.771721e+002, 3.321463e-001
7.791005e+002, 3.280822e-001
7.810290e+002, 3.241016e-001
7.829575e+002, 3.202544e-001
7.848859e+002, 3.165864e-001
7.868144e+002, 3.135349e-001
7.887429e+002, 3.111103e-001
7.906713e+002, 3.086070e-001
7.925998e+002, 3.052550e-001
7.945283e+002, 3.008358e-001
7.964567e+002, 2.953579e-001
7.983852e+002, 2.885935e-001
8.003137e+002, 2.805298e-001
8.022421e+002, 2.718060e-001
8.041706e+002, 2.631673e-001
8.060991e+002, 2.548453e-001
8.080275e+002, 2.472482e-001
8.099560e+002, 2.401325e-001
8.118845e+002, 2.336374e-001
8.138129e+002, 2.275489e-001
8.157414e+002, 2.219211e-001
8.176699e+002, 2.173804e-001
8.195983e+002, 2.144538e-001
8.215268e+002, 2.136743e-001
8.234553e+002, 2.157777e-001
8.253837e+002, 2.212052e-001
8.273122e+002, 2.298011e-001
8.292407e+002, 2.411652e-001
8.311691e+002, 2.548386e-001
8.330976e+002, 2.693230e-001
8.350261e+002, 2.830720e-001
8.369545e+002, 2.945392e-001
8.388830e+002, 3.028704e-001
8.408115e+002, 3.075030e-001
8.427399e+002, 3.086928e-001
8.446684e+002, 3.063675e-001
8.465969e+002, 3.010514e-001
8.485253e+002, 2.931649e-001
8.504538e+002, 2.835425e-001
8.523823e+002, 2.727675e-001
8.543107e+002, 2.613339e-001
8.562392e+002, 2.500060e-001
8.581677e+002, 2.392137e-001
8.600961e+002, 2.289837e-001
8.620246e+002, 2.196991e-001
8.639531e+002, 2.114489e-001
8.658815e+002, 2.039809e-001
8.678100e+002, 1.976303e-001
8.697385e+002, 1.926765e-001
8.716669e+002, 1.887924e-001
8.735954e+002, 1.859976e-001
8.755239e+002, 1.845857e-001
8.774523e+002, 1.846468e-001
8.793808e+002, 1.862804e-001
8.813093e+002, 1.901732e-001
8.832377e+002, 1.971087e-001
8.851662e+002, 2.080924e-001
8.870947e+002, 2.238950e-001
8.890231e+002, 2.430420e-001
8.909516e+002, 2.611176e-001
8.928801e+002, 2.720343e-001
8.948085e+002, 2.714902e-001
8.967370e+002, 2.604461e-001
8.986655e+002, 2.437427e-001
9.005939e+002, 2.254804e-001
9.025224e+002, 2.077595e-001
9.044509e+002, 1.912792e-001
9.063793e+002, 1.763399e-001
9.083078e+002, 1.625564e-001
9.102363e+002, 1.495949e-001
9.121647e+002, 1.376249e-001
9.140932e+002, 1.264852e-001
9.160217e+002, 1.163893e-001
9.179501e+002, 1.074403e-001
9.198786e+002, 9.959633e-002
9.218071e+002, 9.275897e-002
9.237355e+002, 8.684399e-002
9.256640e+002, 8.171991e-002
9.275925e+002, 7.739616e-002
9.295209e+002, 7.387472e-002
9.314494e+002, 7.087836e-002
9.333779e+002, 6.841899e-002
9.353063e+002, 6.641582e-002
9.372348e+002, 6.496623e-002
9.391633e+002, 6.399423e-002
9.410917e+002, 6.313711e-002
9.430202e+002, 6.242769e-002
9.449487e+002, 6.200637e-002
9.468771e+002, 6.180090e-002
9.488056e+002, 6.157303e-002
9.507341e+002, 6.148915e-002
9.526625e+002, 6.165179e-002
9.545910e+002, 6.196346e-002
9.565195e+002, 6.250516e-002
9.584479e+002, 6.328658e-002
9.603764e+002, 6.417473e-002
9.623049e+002, 6.529947e-002
9.642333e+002, 6.669901e-002
9.661618e+002, 6.816729e-002
9.680903e+002, 6.963607e-002
9.700187e+002, 7.113922e-002
9.719472e+002, 7.271157e-002
9.738757e+002, 7.452102e-002
9.758041e+002, 7.666741e-002
9.777326e+002, 7.901079e-002
9.796611e+002, 8.150642e-002
9.815895e+002, 8.426234e-002
9.835180e+002, 8.731388e-002
9.854465e+002, 9.054288e-002
9.873749e+002, 9.418195e-002
9.893034e+002, 9.824968e-002
9.912319e+002, 1.025594e-001
9.931603e+002, 1.071370e-001
9.950888e+002, 1.122072e-001
9.970173e+002, 1.179927e-001
9.989457e+002, 1.242371e-001
1.000874e+003, 1.310120e-001
1.002803e+003, 1.384083e-001
1.004731e+003, 1.460996e-001
1.006660e+003, 1.538433e-001
1.008588e+003, 1.611757e-001
1.010517e+003, 1.675118e-001
1.012445e+003, 1.725423e-001
1.014373e+003, 1.767280e-001
1.016302e+003, 1.807683e-001
1.018230e+003, 1.849816e-001
1.020159e+003, 1.898995e-001
1.022087e+003, 1.948184e-001
1.024016e+003, 1.982154e-001
1.025944e+003, 1.981272e-001
1.027873e+003, 1.947056e-001
1.029801e+003, 1.912275e-001
1.031730e+003, 1.898128e-001
1.033658e+003, 1.896439e-001
1.035587e+003, 1.900277e-001
1.037515e+003, 1.903431e-001
1.039443e+003, 1.903899e-001
1.041372e+003, 1.901519e-001
1.043300e+003, 1.899585e-001
1.045229e+003, 1.900333e-001
1.047157e+003, 1.901291e-001
1.049086e+003, 1.903044e-001
1.051014e+003, 1.905814e-001
1.052943e+003, 1.911749e-001
1.054871e+003, 1.923190e-001
1.056800e+003, 1.940883e-001
1.058728e+003, 1.962765e-001
1.060657e+003, 1.987774e-001
1.062585e+003, 2.016234e-001
1.064514e+003, 2.044774e-001
1.066442e+003, 2.076225e-001
1.068370e+003, 2.112779e-001
1.070299e+003, 2.151355e-001
1.072227e+003, 2.189364e-001
1.074156e+003, 2.223885e-001
1.076084e+003, 2.250498e-001
1.078013e+003, 2.266817e-001
1.079941e+003, 2.271533e-001
1.081870e+003, 2.267035e-001
1.083798e+003, 2.252021e-001
1.085727e+003, 2.228381e-001
1.087655e+003, 2.197189e-001
1.089584e+003, 2.157775e-001
1.091512e+003, 2.111161e-001
1.093441e+003, 2.063038e-001
1.095369e+003, 2.010273e-001
1.097297e+003, 1.956199e-001
1.099226e+003, 1.901724e-001
1.101154e+003, 1.844615e-001
1.103083e+003, 1.786060e-001
1.105011e+003, 1.729047e-001
1.106940e+003, 1.671146e-001
1.108868e+003, 1.612431e-001
1.110797e+003, 1.556533e-001
1.112725e+003, 1.501944e-001
1.114654e+003, 1.446486e-001
1.116582e+003, 1.389292e-001
1.118511e+003, 1.332292e-001
1.120439e+003, 1.278441e-001
1.122368e+003, 1.226807e-001
1.124296e+003, 1.177931e-001
1.126224e+003, 1.131987e-001
1.128153e+003, 1.090086e-001
1.130081e+003, 1.051254e-001
1.132010e+003, 1.013771e-001
1.133938e+003, 9.801940e-002
1.135867e+003, 9.498821e-002
1.137795e+003, 9.213658e-002
1.139724e+003, 8.962434e-002
1.141652e+003, 8.721896e-002
1.143581e+003, 8.497507e-002
1.145509e+003, 8.282689e-002
1.147438e+003, 8.084762e-002
1.149366e+003, 7.899626e-002
1.151295e+003, 7.725231e-002
1.153223e+003, 7.561876e-002
1.155151e+003, 7.403124e-002
1.157080e+003, 7.279895e-002
1.159008e+003, 7.219451e-002
1.160937e+003, 7.175721e-002
1.162865e+003, 7.104868e-002
1.164794e+003, 6.970421e-002
1.166722e+003, 6.797252e-002
1.168651e+003, 6.632721e-002
1.170579e+003, 6.498449e-002
1.172508e+003, 6.383076e-002
1.174436e+003, 6.295156e-002
1.176365e+003, 6.231542e-002
1.178293e+003, 6.174086e-002
1.180222e+003, 6.119864e-002
1.182150e+003, 6.076071e-002
1.184078e+003, 6.020506e-002
1.186007e+003, 5.959881e-002
1.187935e+003, 5.902699e-002
1.189864e+003, 5.844937e-002
1.191792e+003, 5.778553e-002
1.193721e+003, 5.708982e-002
1.195649e+003, 5.638372e-002
1.197578e+003, 5.581019e-002
1.199506e+003, 5.526349e-002
1.201435e+003, 5.479915e-002
1.203363e+003, 5.435137e-002
1.205292e+003, 5.399882e-002
1.207220e+003, 5.381339e-002
1.209149e+003, 5.364379e-002
1.211077e+003, 5.350100e-002
1.213005e+003, 5.342403e-002
1.214934e+003, 5.354862e-002
1.216862e+003, 5.384586e-002
1.218791e+003, 5.425771e-002
1.220719e+003, 5.473946e-002
1.222648e+003, 5.514913e-002
1.224576e+003, 5.557992e-002
1.226505e+003, 5.611369e-002
1.228433e+003, 5.653524e-002
1.230362e+003, 5.683543e-002
1.232290e+003, 5.718052e-002
1.234219e+003, 5.740631e-002
1.236147e+003, 5.738753e-002
1.238076e+003, 5.720190e-002
1.240004e+003, 5.691316e-002
1.241932e+003, 5.656126e-002
1.243861e+003, 5.603607e-002
1.245789e+003, 5.524226e-002
1.247718e+003, 5.419616e-002
1.249646e+003, 5.302450e-002
1.251575e+003, 5.185022e-002
1.253503e+003, 5.056303e-002
1.255432e+003, 4.899802e-002
1.257360e+003, 4.712758e-002
1.259289e+003, 4.530137e-002
1.261217e+003, 4.340609e-002
1.263146e+003, 4.148781e-002
1.265074e+003, 3.952554e-002
1.267003e+003, 3.751839e-002
1.268931e+003, 3.542329e-002
1.270859e+003, 3.351037e-002
1.272788e+003, 3.169712e-002
1.274716e+003, 2.992516e-002
1.276645e+003, 2.821063e-002
1.278573e+003, 2.649440e-002
1.280502e+003, 2.505953e-002
1.282430e+003, 2.395890e-002
1.284359e+003, 2.287029e-002
1.286287e+003, 2.181456e-002
1.288216e+003, 2.113124e-002
1.290144e+003, 2.068035e-002
1.292073e+003, 2.016826e-002
1.294001e+003, 1.977527e-002
1.295930e+003, 1.950336e-002
1.297858e+003, 1.923658e-002
1.299786e+003, 1.898988e-002
1.301715e+003, 1.879221e-002
1.303643e+003, 1.860213e-002
1.305572e+003, 1.850038e-002
1.307500e+003, 1.843649e-002
1.309429e+003, 1.839884e-002
1.311357e+003, 1.832394e-002
1.313286e+003, 1.832913e-002
1.315214e+003, 1.827762e-002
1.317143e+003, 1.822007e-002
1.319071e+003, 1.813946e-002
1.321000e+003, 1.801230e-002
1.322928e+003, 1.805922e-002
1.324857e+003, 1.820515e-002
1.326785e+003, 1.817829e-002
1.328714e+003, 1.811430e-002
1.330642e+003, 1.809196e-002
1.332570e+003, 1.806688e-002
1.334499e+003, 1.813605e-002
1.336427e+003, 1.820091e-002
1.338356e+003, 1.822837e-002
1.340284e+003, 1.818705e-002
1.342213e+003, 1.821808e-002
1.344141e+003, 1.831286e-002
1.346070e+003, 1.830154e-002
1.347998e+003, 1.829541e-002
1.349927e+003, 1.839446e-002
1.351855e+003, 1.846187e-002
1.353784e+003, 1.855621e-002
1.355712e+003, 1.852789e-002
1.357641e+003, 1.855694e-002
1.359569e+003, 1.871264e-002
1.361497e+003, 1.878389e-002
1.363426e+003, 1.872185e-002
1.365354e+003, 1.873797e-002
1.367283e+003, 1.889551e-002
1.369211e+003, 1.899054e-002
1.371140e+003, 1.910290e-002
1.373068e+003, 1.926691e-002
1.374997e+003, 1.932061e-002
1.376925e+003, 1.932937e-002
1.378854e+003, 1.948863e-002
1.380782e+003, 1.956188e-002
1.382711e+003, 1.962125e-002
1.384639e+003, 1.966080e-002
1.386568e+003, 1.983265e-002
1.388496e+003, 1.998496e-002
1.390424e+003, 2.022067e-002
1.392353e+003, 2.043108e-002
1.394281e+003, 2.059720e-002
1.396210e+003, 2.080185e-002
1.398138e+003, 2.112047e-002
1.400067e+003, 2.141100e-002
1.401995e+003, 2.151864e-002
1.403924e+003, 2.163957e-002
1.405852e+003, 2.181719e-002
1.407781e+003, 2.208428e-002
1.409709e+003, 2.242484e-002
1.411638e+003, 2.267787e-002
1.413566e+003, 2.293494e-002
1.415495e+003, 2.310899e-002
1.417423e+003, 2.330951e-002
1.419351e+003, 2.358530e-002
1.421280e+003, 2.374893e-002
1.423208e+003, 2.396815e-002
1.425137e+003, 2.413243e-002
1.427065e+003, 2.422749e-002
1.428994e+003, 2.442849e-002
1.430922e+003, 2.439823e-002
1.432851e+003, 2.427964e-002
1.434779e+003, 2.425360e-002
1.436708e+003, 2.413393e-002
1.438636e+003, 2.376655e-002
1.440565e+003, 2.355392e-002
1.442493e+003, 2.350803e-002
1.444422e+003, 2.349821e-002
1.446350e+003, 2.345039e-002
1.448278e+003, 2.351887e-002
1.450207e+003, 2.362925e-002
1.452135e+003, 2.377093e-002
1.454064e+003, 2.401161e-002
1.455992e+003, 2.436004e-002
1.457921e+003, 2.435832e-002
1.459849e+003, 2.420272e-002
1.461778e+003, 2.415248e-002
1.463706e+003, 2.411054e-002
1.465635e+003, 2.394602e-002
1.467563e+003, 2.375036e-002
1.469492e+003, 2.358425e-002
1.471420e+003, 2.350088e-002
1.473349e+003, 2.343602e-002
1.475277e+003, 2.324580e-002
1.477205e+003, 2.306950e-002
1.479134e+003, 2.300752e-002
1.481062e+003, 2.300084e-002
1.482991e+003, 2.299178e-002
1.484919e+003, 2.292899e-002
1.486848e+003, 2.289266e-002
1.488776e+003, 2.294801e-002
1.490705e+003, 2.293275e-002
1.492633e+003, 2.286907e-002
1.494562e+003, 2.295843e-002
1.496490e+003, 2.310355e-002
1.498419e+003, 2.318631e-002
1.500347e+003, 2.314434e-002
1.502276e+003, 2.319024e-002
1.504204e+003, 2.351501e-002
1.506132e+003, 2.392701e-002
1.508061e+003, 2.381093e-002
1.509989e+003, 2.359103e-002
1.511918e+003, 2.357235e-002
1.513846e+003, 2.369565e-002
1.515775e+003, 2.396715e-002
1.517703e+003, 2.419893e-002
1.519632e+003, 2.443693e-002
1.521560e+003, 2.468106e-002
1.523489e+003, 2.469295e-002
1.525417e+003, 2.478649e-002
1.527346e+003, 2.497771e-002
1.529274e+003, 2.518980e-002
1.531203e+003, 2.539854e-002
1.533131e+003, 2.565677e-002
1.535059e+003, 2.580804e-002
1.536988e+003, 2.609456e-002
1.538916e+003, 2.663572e-002
1.540845e+003, 2.682176e-002
1.542773e+003, 2.687693e-002
1.544702e+003, 2.701815e-002
1.546630e+003, 2.713096e-002
1.548559e+003, 2.749765e-002
1.550487e+003, 2.786106e-002
1.552416e+003, 2.813185e-002
1.554344e+003, 2.841911e-002
1.556273e+003, 2.879560e-002
1.558201e+003, 2.953140e-002
1.560130e+003, 2.987738e-002
1.562058e+003, 2.985248e-002
1.563986e+003, 3.019261e-002
1.565915e+003, 3.054241e-002
1.567843e+003, 3.101005e-002
1.569772e+003, 3.162939e-002
1.571700e+003, 3.204387e-002
1.573629e+003, 3.247742e-002
1.575557e+003, 3.326375e-002
1.577486e+003, 3.378120e-002
1.579414e+003, 3.415012e-002
1.581343e+003, 3.478492e-002
1.583271e+003, 3.567635e-002
1.585200e+003, 3.658191e-002
1.587128e+003, 3.750887e-002
1.589057e+003, 3.853580e-002
1.590985e+003, 3.990003e-002
1.592913e+003, 4.159477e-002
1.594842e+003, 4.335086e-002
1.596770e+003, 4.540282e-002
1.598699e+003, 4.808776e-002
1.600627e+003, 5.143210e-002
1.602556e+003, 5.548378e-002
1.604484e+003, 6.046352e-002
1.606413e+003, 6.667417e-002
1.608341e+003, 7.396384e-002
1.610270e+003, 8.128056e-002
1.612198e+003, 8.665243e-002
1.614127e+003, 8.762484e-002
1.616055e+003, 8.337772e-002
1.617984e+003, 7.554490e-002
1.619912e+003, 6.658508e-002
1.621840e+003, 5.869725e-002
1.623769e+003, 5.258430e-002
1.625697e+003, 4.787782e-002
1.627626e+003, 4.434184e-002
1.629554e+003, 4.175417e-002
1.631483e+003, 3.947694e-002
1.633411e+003, 3.768029e-002
1.635340e+003, 3.649342e-002
1.637268e+003, 3.523611e-002
1.639197e+003, 3.411195e-002
1.641125e+003, 3.318820e-002
1.643054e+003, 3.241296e-002
1.644982e+003, 3.198111e-002
1.646911e+003, 3.167600e-002
1.648839e+003, 3.094827e-002
1.650767e+003, 3.060477e-002
1.652696e+003, 3.075208e-002
1.654624e+003, 3.008257e-002
1.656553e+003, 2.939077e-002
1.658481e+003, 2.914254e-002
1.660410e+003, 2.905000e-002
1.662338e+003, 2.889017e-002
1.664267e+003, 2.852422e-002
1.666195e+003, 2.819687e-002
1.668124e+003, 2.812291e-002
1.670052e+003, 2.796262e-002
1.671981e+003, 2.771042e-002
1.673909e+003, 2.768505e-002
1.675838e+003, 2.762028e-002
1.677766e+003, 2.741518e-002
1.679694e+003, 2.737134e-002
1.681623e+003, 2.728089e-002
1.683551e+003, 2.730737e-002
1.685480e+003, 2.705227e-002
1.687408e+003, 2.668656e-002
1.689337e+003, 2.652546e-002
1.691265e+003, 2.637681e-002
1.693194e+003, 2.622180e-002
1.695122e+003, 2.637624e-002
1.697051e+003, 2.637763e-002
1.698979e+003, 2.649437e-002
1.700908e+003, 2.661698e-002
1.702836e+003, 2.620433e-002
1.704765e+003, 2.592396e-002
1.706693e+003, 2.578932e-002
1.708621e+003, 2.576073e-002
1.710550e+003, 2.556638e-002
1.712478e+003, 2.531982e-002
1.714407e+003, 2.524367e-002
1.716335e+003, 2.542528e-002
1.718264e+003, 2.534734e-002
1.720192e+003, 2.501388e-002
1.722121e+003, 2.483161e-002
1.724049e+003, 2.456828e-002
1.725978e+003, 2.434359e-002
1.727906e+003, 2.434932e-002
1.729835e+003, 2.421357e-002
1.731763e+003, 2.412952e-002
1.733692e+003, 2.416125e-002
1.735620e+003, 2.374769e-002
1.737548e+003, 2.344167e-002
1.739477e+003, 2.345241e-002
1.741405e+003, 2.328101e-002
1.743334e+003, 2.304253e-002
1.745262e+003, 2.304441e-002
1.747191e+003, 2.321771e-002
1.749119e+003, 2.343924e-002
1.751048e+003, 2.359632e-002
1.752976e+003, 2.362446e-002
1.754905e+003, 2.381890e-002
1.756833e+003, 2.418274e-002
1.758762e+003, 2.430006e-002
1.760690e+003, 2.458149e-002
1.762619e+003, 2.487136e-002
1.764547e+003, 2.501357e-002
1.766475e+003, 2.508947e-002
1.768404e+003, 2.514362e-002
1.770332e+003, 2.536981e-002
1.772261e+003, 2.550463e-002
1.774189e+003, 2.541335e-002
1.776118e+003, 2.538630e-002
1.778046e+003, 2.548419e-002
1.779975e+003, 2.576447e-002
1.781903e+003, 2.598311e-002
1.783832e+003, 2.609014e-002
1.785760e+003, 2.615201e-002
1.787689e+003, 2.622914e-002
1.789617e+003, 2.627271e-002
1.791546e+003, 2.636420e-002
1.793474e+003, 2.649396e-002
1.795402e+003, 2.664007e-002
1.797331e+003, 2.666536e-002
1.799259e+003, 2.658313e-002
1.801188e+003, 2.663848e-002
1.803116e+003, 2.677023e-002
1.805045e+003, 2.675270e-002
1.806973e+003, 2.656795e-002
1.808902e+003, 2.647169e-002
1.810830e+003, 2.651928e-002
1.812759e+003, 2.649745e-002
1.814687e+003, 2.648814e-002
1.816616e+003, 2.648162e-002
1.818544e+003, 2.670772e-002
1.820473e+003, 2.706087e-002
1.822401e+003, 2.713765e-002
1.824329e+003, 2.712252e-002
1.826258e+003, 2.711212e-002
1.828186e+003, 2.714745e-002
1.830115e+003, 2.713725e-002
1.832043e+003, 2.708614e-002
1.833972e+003, 2.723664e-002
1.835900e+003, 2.737160e-002
1.837829e+003, 2.758648e-002
1.839757e+003, 2.774366e-002
1.841686e+003, 2.790201e-002
1.843614e+003, 2.811190e-002
1.845543e+003, 2.830118e-002
1.847471e+003, 2.837604e-002
1.849400e+003, 2.860832e-002
1.851328e+003, 2.909208e-002
1.853256e+003, 2.924814e-002
1.855185e+003, 2.921292e-002
1.857113e+003, 2.938463e-002
1.859042e+003, 2.992790e-002
1.860970e+003, 3.032851e-002
1.862899e+003, 3.055562e-002
1.864827e+003, 3.048003e-002
1.866756e+003, 3.061303e-002
1.868684e+003, 3.105455e-002
1.870613e+003, 3.154312e-002
1.872541e+003, 3.187162e-002
1.874470e+003, 3.181183e-002
1.876398e+003, 3.184384e-002
1.878327e+003, 3.193773e-002
1.880255e+003, 3.199048e-002
1.882183e+003, 3.226569e-002
1.884112e+003, 3.241208e-002
1.886040e+003, 3.260755e-002
1.887969e+003, 3.255432e-002
1.889897e+003, 3.261494e-002
1.891826e+003, 3.310590e-002
1.893754e+003, 3.370198e-002
1.895683e+003, 3.411711e-002
1.897611e+003, 3.405195e-002
1.899540e+003, 3.414244e-002
1.901468e+003, 3.463387e-002
1.903397e+003, 3.490487e-002
1.905325e+003, 3.456575e-002
1.907254e+003, 3.437226e-002
1.909182e+003, 3.470333e-002
1.911110e+003, 3.536359e-002
1.913039e+003, 3.570360e-002
1.914967e+003, 3.609370e-002
1.916896e+003, 3.640895e-002
1.918824e+003, 3.680912e-002
1.920753e+003, 3.641799e-002
1.922681e+003, 3.631894e-002
1.924610e+003, 3.665641e-002
1.926538e+003, 3.698165e-002
1.928467e+003, 3.726501e-002
1.930395e+003, 3.785394e-002
1.932324e+003, 3.813916e-002
1.934252e+003, 3.772268e-002
1.936181e+003, 3.779411e-002
1.938109e+003, 3.860961e-002
1.940037e+003, 3.924631e-002
1.941966e+003, 3.958888e-002
1.943894e+003, 4.025027e-002
1.945823e+003, 4.098273e-002
1.947751e+003, 4.145072e-002
1.949680e+003, 4.194983e-002
1.951608e+003, 4.180789e-002
1.953537e+003, 4.169077e-002
1.955465e+003, 4.202040e-002
1.957394e+003, 4.203492e-002
1.959322e+003, 4.285737e-002
1.961251e+003, 4.393582e-002
1.963179e+003, 4.428503e-002
1.965108e+003, 4.489823e-002
1.967036e+003, 4.563682e-002
1.968964e+003, 4.586478e-002
1.970893e+003, 4.610362e-002
1.972821e+003, 4.651891e-002
1.974750e+003, 4.687883e-002
1.976678e+003, 4.802880e-002
1.978607e+003, 4.947313e-002
1.980535e+003, 4.955090e-002
1.982464e+003, 4.974535e-002
1.984392e+003, 5.025747e-002
1.986321e+003, 5.017188e-002
1.988249e+003, 4.962869e-002
1.990178e+003, 4.889654e-002
1.992106e+003, 4.891961e-002
1.994035e+003, 4.941705e-002
1.995963e+003, 4.870610e-002
1.997891e+003, 4.791454e-002
1.999820e+003, 4.759485e-002
2.001748e+003, 4.666392e-002
2.003677e+003, 4.574699e-002
2.005605e+003, 4.500432e-002
2.007534e+003, 4.484659e-002
2.009462e+003, 4.452174e-002
2.011391e+003, 4.315010e-002
2.013319e+003, 4.269540e-002
2.015248e+003, 4.314607e-002
2.017176e+003, 4.344368e-002
2.019105e+003, 4.315675e-002
2.021033e+003, 4.335028e-002
2.022962e+003, 4.264689e-002
2.024890e+003, 4.162322e-002
2.026818e+003, 4.111164e-002
2.028747e+003, 4.139971e-002
2.030675e+003, 4.095718e-002
2.032604e+003, 4.111968e-002
2.034532e+003, 4.166078e-002
2.036461e+003, 4.097675e-002
2.038389e+003, 4.075837e-002
2.040318e+003, 4.035085e-002
2.042246e+003, 3.992644e-002
2.044175e+003, 4.012846e-002
2.046103e+003, 3.970759e-002
2.048031e+003, 3.950584e-002
2.049960e+003, 4.037266e-002
2.051888e+003, 4.043383e-002
2.053817e+003, 3.991614e-002
2.055745e+003, 3.962522e-002
2.057674e+003, 3.941440e-002
2.059602e+003, 3.954963e-002
2.061531e+003, 3.976016e-002
2.063459e+003, 3.995647e-002
2.065388e+003, 4.012356e-002
2.067316e+003, 4.007062e-002
2.069245e+003, 3.999488e-002
2.071173e+003, 4.049857e-002
2.073102e+003, 4.098397e-002
2.075030e+003, 4.042700e-002
2.076958e+003, 3.981688e-002
2.078887e+003, 3.978431e-002
2.080815e+003, 3.989270e-002
2.082744e+003, 4.049754e-002
2.084672e+003, 4.059926e-002
2.086601e+003, 4.007652e-002
2.088529e+003, 4.035785e-002
2.090458e+003, 4.034899e-002
2.092386e+003, 3.979439e-002
2.094315e+003, 3.996759e-002
2.096243e+003, 4.026825e-002
2.098172e+003, 4.102926e-002
2.100100e+003, 4.130341e-002
2.102029e+003, 4.126017e-002
2.103957e+003, 4.150532e-002
2.105885e+003, 4.128572e-002
2.107814e+003, 4.130248e-002
2.109742e+003, 4.190823e-002
2.111671e+003, 4.178103e-002
2.113599e+003, 4.149930e-002
2.115528e+003, 4.166530e-002
2.117456e+003, 4.197752e-002
2.119385e+003, 4.146442e-002
2.121313e+003, 4.074955e-002
2.123242e+003, 4.069711e-002
2.125170e+003, 4.062920e-002
2.127099e+003, 4.026491e-002
2.129027e+003, 3.998322e-002
2.130956e+003, 3.987546e-002
2.132884e+003, 3.965459e-002
2.134813e+003, 3.988420e-002
2.136741e+003, 4.008351e-002
2.138669e+003, 3.978664e-002
2.140598e+003, 3.978254e-002
2.142526e+003, 3.928046e-002
2.144455e+003, 3.765801e-002
2.146383e+003, 3.741289e-002
2.148312e+003, 3.897222e-002
2.150240e+003, 3.930625e-002
2.152169e+003, 3.734480e-002
2.154097e+003, 3.569614e-002
2.156026e+003, 3.456533e-002
2.157954e+003, 3.518045e-002
2.159883e+003, 3.746174e-002
2.161811e+003, 3.859878e-002
2.163740e+003, 4.001375e-002
2.165668e+003, 4.152771e-002
2.167596e+003, 4.095695e-002
2.169525e+003, 3.961971e-002
2.171453e+003, 3.914541e-002
2.173382e+003, 3.958515e-002
2.175310e+003, 3.911674e-002
2.177239e+003, 3.866010e-002
2.179167e+003, 3.850873e-002
2.181096e+003, 3.903422e-002
2.183024e+003, 3.887285e-002
2.184953e+003, 3.944158e-002
2.186881e+003, 4.089208e-002
2.188810e+003, 4.126930e-002
2.190738e+003, 4.117816e-002
2.192667e+003, 4.115455e-002
2.194595e+003, 4.047798e-002
2.196523e+003, 4.086011e-002
2.198452e+003, 4.089849e-002
2.200380e+003, 4.112593e-002
2.202309e+003, 4.142636e-002
2.204237e+003, 4.108023e-002
2.206166e+003, 4.094083e-002
2.208094e+003, 4.113935e-002
2.210023e+003, 4.122695e-002
2.211951e+003, 4.076018e-002
2.213880e+003, 3.999465e-002
2.215808e+003, 4.047344e-002
2.217737e+003, 4.129484e-002
2.219665e+003, 4.124085e-002
2.221594e+003, 4.102227e-002
2.223522e+003, 4.104027e-002
2.225450e+003, 4.118128e-002
2.227379e+003, 4.134974e-002
2.229307e+003, 4.171872e-002
2.231236e+003, 4.210328e-002
2.233164e+003, 4.181986e-002
2.235093e+003, 4.186913e-002
2.237021e+003, 4.169965e-002
2.238950e+003, 4.165204e-002
2.240878e+003, 4.200626e-002
2.242807e+003, 4.258896e-002
2.244735e+003, 4.271797e-002
2.246664e+003, 4.236354e-002
2.248592e+003, 4.166215e-002
2.250521e+003, 4.129664e-002
2.252449e+003, 4.157995e-002
2.254377e+003, 4.184370e-002
2.256306e+003, 4.210135e-002
2.258234e+003, 4.228294e-002
2.260163e+003, 4.263646e-002
2.262091e+003, 4.282902e-002
2.264020e+003, 4.283724e-002
2.265948e+003, 4.276285e-002
2.267877e+003, 4.272838e-002
2.269805e+003, 4.278883e-002
2.271734e+003, 4.279711e-002
2.273662e+003, 4.314119e-002
2.275591e+003, 4.356406e-002
2.277519e+003, 4.406962e-002
2.279448e+003, 4.416655e-002
2.281376e+003, 4.368081e-002
2.283304e+003, 4.388402e-002
2.285233e+003, 4.461299e-002
2.287161e+003, 4.453570e-002
2.289090e+003, 4.418955e-002
2.291018e+003, 4.380593e-002
2.292947e+003, 4.381867e-002
2.294875e+003, 4.381421e-002
2.296804e+003, 4.369064e-002
2.298732e+003, 4.363288e-002
2.300661e+003, 4.334597e-002
2.302589e+003, 4.352948e-002
2.304518e+003, 4.393519e-002
2.306446e+003, 4.404790e-002
2.308375e+003, 4.377898e-002
2.310303e+003, 4.382779e-002
2.312231e+003, 4.416223e-002
2.314160e+003, 4.434153e-002
2.316088e+003, 4.443222e-002
2.318017e+003, 4.438430e-002
2.319945e+003, 4.477354e-002
2.321874e+003, 4.539509e-002
2.323802e+003, 4.582027e-002
2.325731e+003, 4.547751e-002
2.327659e+003, 4.498797e-002
2.329588e+003, 4.466482e-002
2.331516e+003, 4.450553e-002
2.333445e+003, 4.479614e-002
2.335373e+003, 4.503610e-002
2.337302e+003, 4.511086e-002
2.339230e+003, 4.517928e-002
2.341158e+003, 4.527102e-002
2.343087e+003, 4.507083e-002
2.345015e+003, 4.497815e-002
2.346944e+003, 4.488689e-002
2.348872e+003, 4.472852e-002
2.350801e+003, 4.491662e-002
2.352729e+003, 4.534831e-002
2.354658e+003, 4.538116e-002
2.356586e+003, 4.529271e-002
2.358515e+003, 4.576688e-002
2.360443e+003, 4.606465e-002
2.362372e+003, 4.603000e-002
2.364300e+003, 4.595663e-002
2.366229e+003, 4.583220e-002
2.368157e+003, 4.598902e-002
2.370085e+003, 4.595502e-002
2.372014e+003, 4.571936e-002
2.373942e+003, 4.544633e-002
2.375871e+003, 4.514181e-002
2.377799e+003, 4.526578e-002
2.379728e+003, 4.531106e-002
2.381656e+003, 4.526739e-002
2.383585e+003, 4.518449e-002
2.385513e+003, 4.510092e-002
2.387442e+003, 4.544851e-002
2.389370e+003, 4.574019e-002
2.391299e+003, 4.583995e-002
2.393227e+003, 4.592408e-002
2.395156e+003, 4.582930e-002
2.397084e+003, 4.587209e-002
2.399012e+003, 4.615084e-002
2.400941e+003, 4.635875e-002
2.402869e+003, 4.615488e-002
2.404798e+003, 4.597632e-002
2.406726e+003, 4.639226e-002
2.408655e+003, 4.660223e-002
2.410583e+003, 4.688551e-002
2.412512e+003, 4.679621e-002
2.414440e+003, 4.667452e-002
2.416369e+003, 4.690100e-002
2.418297e+003, 4.709613e-002
2.420226e+003, 4.720406e-002
2.422154e+003, 4.745029e-002
2.424083e+003, 4.758050e-002
2.426011e+003, 4.733901e-002
2.427939e+003, 4.727289e-002
2.429868e+003, 4.741511e-002
2.431796e+003, 4.769667e-002
2.433725e+003, 4.759547e-002
2.435653e+003, 4.757587e-002
2.437582e+003, 4.794307e-002
2.439510e+003, 4.846599e-002
2.441439e+003, 4.867037e-002
2.443367e+003, 4.843829e-002
2.445296e+003, 4.852597e-002
2.447224e+003, 4.883299e-002
2.449153e+003, 4.912394e-002
2.451081e+003, 4.917852e-002
2.453010e+003, 4.918240e-002
2.454938e+003, 4.943294e-002
2.456866e+003, 4.981188e-002
2.458795e+003, 4.995538e-002
2.460723e+003, 4.966704e-002
2.462652e+003, 4.969093e-002
2.464580e+003, 4.960640e-002
2.466509e+003, 4.922020e-002
2.468437e+003, 4.932556e-002
2.470366e+003, 4.953759e-002
2.472294e+003, 4.973549e-002
2.474223e+003, 4.987012e-002
2.476151e+003, 4.992584e-002
2.478080e+003, 4.983614e-002
2.480008e+003, 5.013488e-002
2.481937e+003, 5.068489e-002
2.483865e+003, 5.093114e-002
2.485793e+003, 5.070063e-002
2.487722e+003, 5.030161e-002
2.489650e+003, 5.040828e-002
2.491579e+003, 5.093683e-002
2.493507e+003, 5.157727e-002
2.495436e+003, 5.196963e-002
2.497364e+003, 5.221330e-002
2.499293e+003, 5.217985e-002
2.501221e+003, 5.219794e-002
2.503150e+003, 5.242495e-002
2.505078e+003, 5.276458e-002
2.507007e+003, 5.328645e-002
2.508935e+003, 5.323691e-002
2.510864e+003, 5.301500e-002
2.512792e+003, 5.344475e-002
2.514720e+003, 5.395856e-002
2.516649e+003, 5.409282e-002
2.518577e+003, 5.410489e-002
2.520506e+003, 5.410456e-002
2.522434e+003, 5.434153e-002
2.524363e+003, 5.442104e-002
2.526291e+003, 5.458464e-002
2.528220e+003, 5.505146e-002
2.530148e+003, 5.529585e-002
2.532077e+003, 5.556264e-002
2.534005e+003, 5.589493e-002
2.535934e+003, 5.627461e-002
2.537862e+003, 5.655973e-002
2.539791e+003, 5.651635e-002
2.541719e+003, 5.671369e-002
2.543647e+003, 5.713857e-002
2.545576e+003, 5.740299e-002
2.547504e+003, 5.774142e-002
2.549433e+003, 5.820680e-002
2.551361e+003, 5.860613e-002
2.553290e+003, 5.877317e-002
2.555218e+003, 5.864019e-002
2.557147e+003, 5.905128e-002
2.559075e+003, 5.969717e-002
2.561004e+003, 5.979247e-002
2.562932e+003, 6.011353e-002
2.564861e+003, 6.064325e-002
2.566789e+003, 6.059240e-002
2.568718e+003, 6.103224e-002
2.570646e+003, 6.138686e-002
2.572574e+003, 6.146903e-002
2.574503e+003, 6.137739e-002
2.576431e+003, 6.143844e-002
2.578360e+003, 6.157946e-002
2.580288e+003, 6.224101e-002
2.582217e+003, 6.284146e-002
2.584145e+003, 6.307351e-002
2.586074e+003, 6.322128e-002
2.588002e+003, 6.341822e-002
2.589931e+003, 6.385206e-002
2.591859e+003, 6.409322e-002
2.593788e+003, 6.423499e-002
2.595716e+003, 6.466424e-002
2.597645e+003, 6.489496e-002
2.599573e+003, 6.525986e-002
2.601501e+003, 6.555789e-002
2.603430e+003, 6.562477e-002
2.605358e+003, 6.608642e-002
2.607287e+003, 6.669269e-002
2.609215e+003, 6.692634e-002
2.611144e+003, 6.703326e-002
2.613072e+003, 6.727394e-002
2.615001e+003, 6.751980e-002
2.616929e+003, 6.784154e-002
2.618858e+003, 6.820770e-002
2.620786e+003, 6.849308e-002
2.622715e+003, 6.846586e-002
2.624643e+003, 6.869113e-002
2.626572e+003, 6.912906e-002
2.628500e+003, 6.940229e-002
2.630428e+003, 6.959521e-002
2.632357e+003, 7.006773e-002
2.634285e+003, 7.045356e-002
2.636214e+003, 7.080440e-002
2.638142e+003, 7.114653e-002
2.640071e+003, 7.110380e-002
2.641999e+003, 7.085772e-002
2.643928e+003, 7.115259e-002
2.645856e+003, 7.146642e-002
2.647785e+003, 7.180638e-002
2.649713e+003, 7.228976e-002
2.651642e+003, 7.253970e-002
2.653570e+003, 7.266194e-002
2.655499e+003, 7.269816e-002
2.657427e+003, 7.284409e-002
2.659355e+003, 7.310974e-002
2.661284e+003, 7.327154e-002
2.663212e+003, 7.365911e-002
2.665141e+003, 7.420938e-002
2.667069e+003, 7.445624e-002
2.668998e+003, 7.459214e-002
2.670926e+003, 7.471087e-002
2.672855e+003, 7.489754e-002
2.674783e+003, 7.533903e-002
2.676712e+003, 7.595211e-002
2.678640e+003, 7.634720e-002
2.680569e+003, 7.667212e-002
2.682497e+003, 7.695381e-002
2.684426e+003, 7.749156e-002
2.686354e+003, 7.819379e-002
2.688282e+003, 7.843672e-002
2.690211e+003, 7.875223e-002
2.692139e+003, 7.912295e-002
2.694068e+003, 7.955735e-002
2.695996e+003, 8.022151e-002
2.697925e+003, 8.085056e-002
2.699853e+003, 8.138280e-002
2.701782e+003, 8.168468e-002
2.703710e+003, 8.192962e-002
2.705639e+003, 8.256851e-002
2.707567e+003, 8.308317e-002
2.709496e+003, 8.347451e-002
2.711424e+003, 8.392844e-002
2.713353e+003, 8.423735e-002
2.715281e+003, 8.480785e-002
2.717209e+003, 8.555867e-002
2.719138e+003, 8.617304e-002
2.721066e+003, 8.671860e-002
2.722995e+003, 8.727747e-002
2.724923e+003, 8.781489e-002
2.726852e+003, 8.840976e-002
2.728780e+003, 8.893727e-002
2.730709e+003, 8.947841e-002
2.732637e+003, 8.994716e-002
2.734566e+003, 9.050092e-002
2.736494e+003, 9.107631e-002
2.738423e+003, 9.159563e-002
2.740351e+003, 9.215764e-002
2.742280e+003, 9.303667e-002
2.744208e+003, 9.383407e-002
2.746136e+003, 9.442513e-002
2.748065e+003, 9.519564e-002
2.749993e+003, 9.597921e-002
2.751922e+003, 9.655135e-002
2.753850e+003, 9.735384e-002
2.755779e+003, 9.801441e-002
2.757707e+003, 9.868027e-002
2.759636e+003, 9.954019e-002
2.761564e+003, 1.000507e-001
2.763493e+003, 1.005208e-001
2.765421e+003, 1.013241e-001
2.767350e+003, 1.021995e-001
2.769278e+003, 1.029807e-001
2.771207e+003, 1.039567e-001
2.773135e+003, 1.049604e-001
2.775063e+003, 1.056291e-001
2.776992e+003, 1.062792e-001
2.778920e+003, 1.070287e-001
2.780849e+003, 1.077269e-001
2.782777e+003, 1.084349e-001
2.784706e+003, 1.091926e-001
2.786634e+003, 1.100992e-001
2.788563e+003, 1.108536e-001
2.790491e+003, 1.118975e-001
2.792420e+003, 1.128356e-001
2.794348e+003, 1.133443e-001
2.796277e+003, 1.135296e-001
2.798205e+003, 1.143447e-001
2.800134e+003, 1.155915e-001
2.802062e+003, 1.165378e-001
2.803990e+003, 1.176102e-001
2.805919e+003, 1.186607e-001
2.807847e+003, 1.190849e-001
2.809776e+003, 1.195031e-001
2.811704e+003, 1.203148e-001
2.813633e+003, 1.212562e-001
2.815561e+003, 1.219647e-001
2.817490e+003, 1.226466e-001
2.819418e+003, 1.232459e-001
2.821347e+003, 1.238707e-001
2.823275e+003, 1.246115e-001
2.825204e+003, 1.255496e-001
2.827132e+003, 1.263719e-001
2.829061e+003, 1.272867e-001
2.830989e+003, 1.278782e-001
2.832917e+003, 1.281577e-001
2.834846e+003, 1.288749e-001
2.836774e+003, 1.295404e-001
2.838703e+003, 1.300493e-001
2.840631e+003, 1.307692e-001
2.842560e+003, 1.314820e-001
2.844488e+003, 1.316289e-001
2.846417e+003, 1.314888e-001
2.848345e+003, 1.318002e-001
2.850274e+003, 1.324023e-001
2.852202e+003, 1.331500e-001
2.854131e+003, 1.336063e-001
2.856059e+003, 1.340419e-001
2.857988e+003, 1.345748e-001
2.859916e+003, 1.346678e-001
2.861844e+003, 1.346986e-001
2.863773e+003, 1.349428e-001
2.865701e+003, 1.354342e-001
2.867630e+003, 1.356677e-001
2.869558e+003, 1.359001e-001
2.871487e+003, 1.361687e-001
2.873415e+003, 1.361734e-001
2.875344e+003, 1.365588e-001
2.877272e+003, 1.365913e-001
2.879201e+003, 1.365232e-001
2.881129e+003, 1.362310e-001
2.883058e+003, 1.359769e-001
2.884986e+003, 1.360635e-001
2.886915e+003, 1.359593e-001
2.888843e+003, 1.357442e-001
2.890771e+003, 1.355626e-001
2.892700e+003, 1.359017e-001
2.894628e+003, 1.361742e-001
2.896557e+003, 1.360636e-001
2.898485e+003, 1.357224e-001
2.900414e+003, 1.356010e-001
2.902342e+003, 1.357028e-001
2.904271e+003, 1.356155e-001
2.906199e+003, 1.352154e-001
2.908128e+003, 1.350913e-001
2.910056e+003, 1.349164e-001
2.911985e+003, 1.341999e-001
2.913913e+003, 1.334568e-001
2.915842e+003, 1.333580e-001
2.917770e+003, 1.331484e-001
2.919698e+003, 1.326094e-001
2.921627e+003, 1.324384e-001
2.923555e+003, 1.325443e-001
2.925484e+003, 1.324313e-001
2.927412e+003, 1.317166e-001
2.929341e+003, 1.311507e-001
2.931269e+003, 1.308554e-001
2.933198e+003, 1.302894e-001
2.935126e+003, 1.298205e-001
2.937055e+003, 1.291734e-001
2.938983e+003, 1.285439e-001
2.940912e+003, 1.281597e-001
2.942840e+003, 1.281200e-001
2.944769e+003, 1.276313e-001
2.946697e+003, 1.270844e-001
2.948625e+003, 1.266469e-001
2.950554e+003, 1.265194e-001
2.952482e+003, 1.265798e-001
2.954411e+003, 1.264510e-001
2.956339e+003, 1.262761e-001
2.958268e+003, 1.260666e-001
2.960196e+003, 1.256700e-001
2.962125e+003, 1.249389e-001
2.964053e+003, 1.241610e-001
2.965982e+003, 1.238489e-001
2.967910e+003, 1.231711e-001
2.969839e+003, 1.225441e-001
2.971767e+003, 1.219769e-001
2.973696e+003, 1.210412e-001
2.975624e+003, 1.207337e-001
2.977552e+003, 1.206223e-001
2.979481e+003, 1.204592e-001
2.981409e+003, 1.200621e-001
2.983338e+003, 1.192898e-001
2.985266e+003, 1.187781e-001
2.987195e+003, 1.183025e-001
2.989123e+003, 1.181225e-001
2.991052e+003, 1.180103e-001
2.992980e+003, 1.174026e-001
2.994909e+003, 1.170520e-001
2.996837e+003, 1.171087e-001
2.998766e+003, 1.173515e-001
3.000694e+003, 1.169394e-001
3.002623e+003, 1.163106e-001
3.004551e+003, 1.162691e-001
3.006479e+003, 1.160050e-001
3.008408e+003, 1.155989e-001
3.010336e+003, 1.152669e-001
3.012265e+003, 1.154008e-001
3.014193e+003, 1.150731e-001
3.016122e+003, 1.144863e-001
3.018050e+003, 1.141488e-001
3.019979e+003, 1.140166e-001
3.021907e+003, 1.139624e-001
3.023836e+003, 1.135930e-001
3.025764e+003, 1.128062e-001
3.027693e+003, 1.126149e-001
3.029621e+003, 1.129900e-001
3.031550e+003, 1.128069e-001
3.033478e+003, 1.122585e-001
3.035406e+003, 1.117797e-001
3.037335e+003, 1.116133e-001
3.039263e+003, 1.109845e-001
3.041192e+003, 1.105190e-001
3.043120e+003, 1.105649e-001
3.045049e+003, 1.101932e-001
3.046977e+003, 1.098829e-001
3.048906e+003, 1.095781e-001
3.050834e+003, 1.096249e-001
3.052763e+003, 1.094673e-001
3.054691e+003, 1.085112e-001
3.056620e+003, 1.084426e-001
3.058548e+003, 1.084679e-001
3.060477e+003, 1.081339e-001
3.062405e+003, 1.078067e-001
3.064333e+003, 1.077508e-001
3.066262e+003, 1.071778e-001
3.068190e+003, 1.063333e-001
3.070119e+003, 1.060037e-001
3.072047e+003, 1.059372e-001
3.073976e+003, 1.057258e-001
3.075904e+003, 1.054693e-001
3.077833e+003, 1.051446e-001
3.079761e+003, 1.049763e-001
3.081690e+003, 1.046373e-001
3.083618e+003, 1.042408e-001
3.085547e+003, 1.039699e-001
3.087475e+003, 1.036479e-001
3.089404e+003, 1.034701e-001
3.091332e+003, 1.028172e-001
3.093260e+003, 1.021403e-001
3.095189e+003, 1.016768e-001
3.097117e+003, 1.016103e-001
3.099046e+003, 1.014584e-001
3.100974e+003, 1.016009e-001
3.102903e+003, 1.013182e-001
3.104831e+003, 1.006067e-001
3.106760e+003, 1.003712e-001
3.108688e+003, 1.002821e-001
3.110617e+003, 9.993002e-002
3.112545e+003, 9.985096e-002
3.114474e+003, 9.954766e-002
3.116402e+003, 9.919424e-002
3.118331e+003, 9.902749e-002
3.120259e+003, 9.874764e-002
3.122188e+003, 9.835788e-002
3.124116e+003, 9.785344e-002
3.126044e+003, 9.748141e-002
3.127973e+003, 9.759111e-002
3.129901e+003, 9.753271e-002
3.131830e+003, 9.734600e-002
3.133758e+003, 9.692005e-002
3.135687e+003, 9.632094e-002
3.137615e+003, 9.611040e-002
3.139544e+003, 9.548269e-002
3.141472e+003, 9.543819e-002
3.143401e+003, 9.524246e-002
3.145329e+003, 9.468485e-002
3.147258e+003, 9.467293e-002
3.149186e+003, 9.469103e-002
3.151115e+003, 9.438439e-002
3.153043e+003, 9.408458e-002
3.154971e+003, 9.392682e-002
3.156900e+003, 9.398513e-002
3.158828e+003, 9.356579e-002
3.160757e+003, 9.294789e-002
3.162685e+003, 9.282542e-002
3.164614e+003, 9.297806e-002
3.166542e+003, 9.259594e-002
3.168471e+003, 9.207089e-002
3.170399e+003, 9.173622e-002
3.172328e+003, 9.201585e-002
3.174256e+003, 9.159692e-002
3.176185e+003, 9.132139e-002
3.178113e+003, 9.174874e-002
3.180042e+003, 9.174145e-002
3.181970e+003, 9.153887e-002
3.183898e+003, 9.137253e-002
3.185827e+003, 9.118409e-002
3.187755e+003, 9.125022e-002
3.189684e+003, 9.112854e-002
3.191612e+003, 9.038673e-002
3.193541e+003, 9.025341e-002
3.195469e+003, 9.038736e-002
3.197398e+003, 9.042177e-002
3.199326e+003, 9.048921e-002
3.201255e+003, 9.009891e-002
3.203183e+003, 8.959605e-002
3.205112e+003, 8.935985e-002
3.207040e+003, 8.939468e-002
3.208969e+003, 8.882559e-002
3.210897e+003, 8.798086e-002
3.212825e+003, 8.780150e-002
3.214754e+003, 8.803378e-002
3.216682e+003, 8.799283e-002
3.218611e+003, 8.753105e-002
3.220539e+003, 8.702070e-002
3.222468e+003, 8.671492e-002
3.224396e+003, 8.688344e-002
3.226325e+003, 8.683418e-002
3.228253e+003, 8.652173e-002
3.230182e+003, 8.671060e-002
3.232110e+003, 8.753452e-002
3.234039e+003, 8.768106e-002
3.235967e+003, 8.733510e-002
3.237896e+003, 8.751296e-002
3.239824e+003, 8.738996e-002
3.241752e+003, 8.698830e-002
3.243681e+003, 8.717519e-002
3.245609e+003, 8.776814e-002
3.247538e+003, 8.800617e-002
3.249466e+003, 8.793100e-002
3.251395e+003, 8.788194e-002
3.253323e+003, 8.838051e-002
3.255252e+003, 8.838272e-002
3.257180e+003, 8.875335e-002
3.259109e+003, 8.894929e-002
3.261037e+003, 8.847654e-002
3.262966e+003, 8.833472e-002
3.264894e+003, 8.859269e-002
3.266823e+003, 8.860827e-002
3.268751e+003, 8.912480e-002
3.270679e+003, 8.933813e-002
3.272608e+003, 8.955710e-002
3.274536e+003, 8.962466e-002
3.276465e+003, 8.949003e-002
3.278393e+003, 8.969506e-002
3.280322e+003, 8.959861e-002
3.282250e+003, 8.961805e-002
3.284179e+003, 9.031873e-002
3.286107e+003, 9.058012e-002
3.288036e+003, 9.041319e-002
3.289964e+003, 9.063382e-002
3.291893e+003, 9.121675e-002
3.293821e+003, 9.132835e-002
3.295750e+003, 9.127940e-002
3.297678e+003, 9.159964e-002
3.299606e+003, 9.187584e-002
3.301535e+003, 9.188720e-002
3.303463e+003, 9.228600e-002
3.305392e+003, 9.280971e-002
3.307320e+003, 9.290829e-002
3.309249e+003, 9.354559e-002
3.311177e+003, 9.428477e-002
3.313106e+003, 9.424147e-002
3.315034e+003, 9.394266e-002
3.316963e+003, 9.418596e-002
3.318891e+003, 9.482702e-002
3.320820e+003, 9.545511e-002
3.322748e+003, 9.589713e-002
3.324677e+003, 9.640529e-002
3.326605e+003, 9.698956e-002
3.328533e+003, 9.713671e-002
3.330462e+003, 9.736910e-002
3.332390e+003, 9.763584e-002
3.334319e+003, 9.788074e-002
3.336247e+003, 9.820398e-002
3.338176e+003, 9.826381e-002
3.340104e+003, 9.880339e-002
3.342033e+003, 9.960329e-002
3.343961e+003, 9.994251e-002
3.345890e+003, 1.001802e-001
3.347818e+003, 1.005823e-001
3.349747e+003, 1.017396e-001
3.351675e+003, 1.025045e-001
3.353604e+003, 1.028185e-001
3.355532e+003, 1.033054e-001
3.357460e+003, 1.037247e-001
3.359389e+003, 1.040668e-001
3.361317e+003, 1.046120e-001
3.363246e+003, 1.054829e-001
3.365174e+003, 1.063659e-001
3.367103e+003, 1.065512e-001
3.369031e+003, 1.070785e-001
3.370960e+003, 1.083148e-001
3.372888e+003, 1.094064e-001
3.374817e+003, 1.102407e-001
3.376745e+003, 1.107583e-001
3.378674e+003, 1.110593e-001
3.380602e+003, 1.116759e-001
3.382531e+003, 1.126982e-001
3.384459e+003, 1.135041e-001
3.386387e+003, 1.144607e-001
3.388316e+003, 1.156674e-001
3.390244e+003, 1.167679e-001
3.392173e+003, 1.177173e-001
3.394101e+003, 1.187219e-001
3.396030e+003, 1.194995e-001
3.397958e+003, 1.207931e-001
3.399887e+003, 1.220149e-001
3.401815e+003, 1.230651e-001
3.403744e+003, 1.239944e-001
3.405672e+003, 1.246130e-001
3.407601e+003, 1.260078e-001
3.409529e+003, 1.273366e-001
3.411458e+003, 1.284435e-001
3.413386e+003, 1.297802e-001
3.415314e+003, 1.308657e-001
3.417243e+003, 1.317173e-001
3.419171e+003, 1.326692e-001
3.421100e+003, 1.336929e-001
3.423028e+003, 1.344841e-001
3.424957e+003, 1.355635e-001
3.426885e+003, 1.364489e-001
3.428814e+003, 1.371723e-001
3.430742e+003, 1.382434e-001
3.432671e+003, 1.396129e-001
3.434599e+003, 1.412901e-001
3.436528e+003, 1.426579e-001
3.438456e+003, 1.436455e-001
3.440385e+003, 1.443058e-001
3.442313e+003, 1.447879e-001
3.444241e+003, 1.464238e-001
3.446170e+003, 1.483017e-001
3.448098e+003, 1.492420e-001
3.450027e+003, 1.502600e-001
3.451955e+003, 1.515677e-001
3.453884e+003, 1.531193e-001
3.455812e+003, 1.542658e-001
3.457741e+003, 1.555965e-001
3.459669e+003, 1.569425e-001
3.461598e+003, 1.589550e-001
3.463526e+003, 1.609776e-001
3.465455e+003, 1.616301e-001
3.467383e+003, 1.627330e-001
3.469312e+003, 1.643458e-001
3.471240e+003, 1.648645e-001
3.473168e+003, 1.657764e-001
3.475097e+003, 1.672442e-001
3.477025e+003, 1.683696e-001
3.478954e+003, 1.690810e-001
3.480882e+003, 1.700392e-001
3.482811e+003, 1.712320e-001
3.484739e+003, 1.719035e-001
3.486668e+003, 1.716243e-001
3.488596e+003, 1.711511e-001
3.490525e+003, 1.699521e-001
3.492453e+003, 1.687738e-001
3.494382e+003, 1.678474e-001
3.496310e+003, 1.669626e-001
3.498239e+003, 1.659712e-001
3.500167e+003, 1.647094e-001
3.502095e+003, 1.636616e-001
3.504024e+003, 1.637634e-001
3.505952e+003, 1.632092e-001
3.507881e+003, 1.620511e-001
3.509809e+003, 1.613442e-001
3.511738e+003, 1.611385e-001
3.513666e+003, 1.613753e-001
3.515595e+003, 1.607422e-001
3.517523e+003, 1.595424e-001
3.519452e+003, 1.585321e-001
3.521380e+003, 1.573674e-001
3.523309e+003, 1.558567e-001
3.525237e+003, 1.541320e-001
3.527166e+003, 1.522156e-001
3.529094e+003, 1.504860e-001
3.531022e+003, 1.494075e-001
3.532951e+003, 1.476458e-001
3.534879e+003, 1.456538e-001
3.536808e+003, 1.436773e-001
3.538736e+003, 1.412825e-001
3.540665e+003, 1.391785e-001
3.542593e+003, 1.371359e-001
3.544522e+003, 1.341185e-001
3.546450e+003, 1.313192e-001
3.548379e+003, 1.289542e-001
3.550307e+003, 1.266825e-001
3.552236e+003, 1.238499e-001
3.554164e+003, 1.207251e-001
3.556093e+003, 1.170672e-001
3.558021e+003, 1.140133e-001
3.559949e+003, 1.113120e-001
3.561878e+003, 1.086899e-001
3.563806e+003, 1.063030e-001
3.565735e+003, 1.040417e-001
3.567663e+003, 1.009563e-001
3.569592e+003, 9.749872e-002
3.571520e+003, 9.447048e-002
3.573449e+003, 9.199344e-002
3.575377e+003, 8.951290e-002
3.577306e+003, 8.762029e-002
3.579234e+003, 8.586498e-002
3.581163e+003, 8.318499e-002
3.583091e+003, 8.102504e-002
3.585020e+003, 7.971977e-002
3.586948e+003, 7.820152e-002
3.588876e+003, 7.640462e-002
3.590805e+003, 7.466170e-002
3.592733e+003, 7.320859e-002
3.594662e+003, 7.208280e-002
3.596590e+003, 7.120334e-002
3.598519e+003, 7.072195e-002
3.600447e+003, 7.008660e-002
3.602376e+003, 6.863945e-002
3.604304e+003, 6.778900e-002
3.606233e+003, 6.761342e-002
3.608161e+003, 6.738833e-002
3.610090e+003, 6.640559e-002
3.612018e+003, 6.557653e-002
3.613947e+003, 6.534874e-002
3.615875e+003, 6.545968e-002
3.617803e+003, 6.638404e-002
3.619732e+003, 6.638302e-002
3.621660e+003, 6.539728e-002
3.623589e+003, 6.484482e-002
3.625517e+003, 6.379326e-002
3.627446e+003, 6.256407e-002
3.629374e+003, 6.199283e-002
3.631303e+003, 6.193592e-002
3.633231e+003, 6.180517e-002
3.635160e+003, 6.099220e-002
3.637088e+003, 6.038450e-002
3.639017e+003, 6.041702e-002
3.640945e+003, 6.038336e-002
3.642874e+003, 6.032167e-002
3.644802e+003, 6.002305e-002
3.646730e+003, 5.961311e-002
3.648659e+003, 6.008317e-002
3.650587e+003, 5.964023e-002
3.652516e+003, 5.890840e-002
3.654444e+003, 5.881484e-002
3.656373e+003, 5.911105e-002
3.658301e+003, 5.898586e-002
3.660230e+003, 5.857057e-002
3.662158e+003, 5.809793e-002
3.664087e+003, 5.789155e-002
3.666015e+003, 5.792101e-002
3.667944e+003, 5.874962e-002
3.669872e+003, 5.918479e-002
3.671801e+003, 5.819348e-002
3.673729e+003, 5.776759e-002
3.675657e+003, 5.835591e-002
3.677586e+003, 5.784378e-002
3.679514e+003, 5.781609e-002
3.681443e+003, 5.818272e-002
3.683371e+003, 5.826155e-002
3.685300e+003, 5.879640e-002
3.687228e+003, 6.054535e-002
3.689157e+003, 6.111499e-002
3.691085e+003, 6.126154e-002
3.693014e+003, 6.238317e-002
3.694942e+003, 6.378681e-002
3.696871e+003, 6.337228e-002
3.698799e+003, 6.220838e-002
3.700728e+003, 6.133164e-002
3.702656e+003, 6.002573e-002
3.704584e+003, 5.908116e-002
3.706513e+003, 5.843910e-002
3.708441e+003, 5.752230e-002
3.710370e+003, 5.709997e-002
3.712298e+003, 5.724078e-002
3.714227e+003, 5.696795e-002
3.716155e+003, 5.669563e-002
3.718084e+003, 5.655293e-002
3.720012e+003, 5.636679e-002
3.721941e+003, 5.559884e-002
3.723869e+003, 5.546369e-002
3.725798e+003, 5.618782e-002
3.727726e+003, 5.611754e-002
3.729655e+003, 5.601851e-002
3.731583e+003, 5.572279e-002
3.733511e+003, 5.614713e-002
3.735440e+003, 5.728549e-002
3.737368e+003, 5.735830e-002
3.739297e+003, 5.710888e-002
3.741225e+003, 5.761103e-002
3.743154e+003, 5.791189e-002
3.745082e+003, 5.764703e-002
3.747011e+003, 5.745059e-002
3.748939e+003, 5.752108e-002
3.750868e+003, 5.694939e-002
3.752796e+003, 5.697583e-002
3.754725e+003, 5.726345e-002
3.756653e+003, 5.759121e-002
3.758582e+003, 5.738380e-002
3.760510e+003, 5.715347e-002
3.762438e+003, 5.759376e-002
3.764367e+003, 5.788960e-002
3.766295e+003, 5.764117e-002
3.768224e+003, 5.760486e-002
3.770152e+003, 5.823096e-002
3.772081e+003, 5.890686e-002
3.774009e+003, 5.903550e-002
3.775938e+003, 5.869956e-002
3.777866e+003, 5.837942e-002
3.779795e+003, 5.817317e-002
3.781723e+003, 5.740450e-002
3.783652e+003, 5.757425e-002
3.785580e+003, 5.742927e-002
3.787509e+003, 5.697295e-002
3.789437e+003, 5.741263e-002
3.791365e+003, 5.835711e-002
3.793294e+003, 5.804525e-002
3.795222e+003, 5.755732e-002
3.797151e+003, 5.785550e-002
3.799079e+003, 5.854979e-002
3.801008e+003, 5.856516e-002
3.802936e+003, 5.798854e-002
3.804865e+003, 5.899599e-002
3.806793e+003, 5.987774e-002
3.808722e+003, 5.893718e-002
3.810650e+003, 5.827880e-002
3.812579e+003, 5.837804e-002
3.814507e+003, 5.955422e-002
3.816436e+003, 5.992950e-002
3.818364e+003, 5.943805e-002
3.820292e+003, 5.948316e-002
3.822221e+003, 5.956753e-002
3.824149e+003, 5.932377e-002
3.826078e+003, 5.902959e-002
3.828006e+003, 5.896328e-002
3.829935e+003, 5.945981e-002
3.831863e+003, 6.015531e-002
3.833792e+003, 6.040963e-002
3.835720e+003, 6.000820e-002
3.837649e+003, 6.012155e-002
3.839577e+003, 5.994365e-002
3.841506e+003, 5.924862e-002
3.843434e+003, 5.924392e-002
3.845363e+003, 5.945980e-002
3.847291e+003, 5.948777e-002
3.849219e+003, 6.037872e-002
3.851148e+003, 6.145299e-002
3.853076e+003, 6.229439e-002
3.855005e+003, 6.130359e-002
3.856933e+003, 6.019037e-002
3.858862e+003, 6.036003e-002
3.860790e+003, 6.002104e-002
3.862719e+003, 5.994358e-002
3.864647e+003, 6.031062e-002
3.866576e+003, 6.119618e-002
3.868504e+003, 6.151427e-002
3.870433e+003, 6.079577e-002
3.872361e+003, 6.017566e-002
3.874290e+003, 6.016811e-002
3.876218e+003, 6.014068e-002
3.878146e+003, 6.018486e-002
3.880075e+003, 6.032471e-002
3.882003e+003, 6.050441e-002
3.883932e+003, 6.089226e-002
3.885860e+003, 6.170652e-002
3.887789e+003, 6.213229e-002
3.889717e+003, 6.176629e-002
3.891646e+003, 6.105104e-002
3.893574e+003, 6.097670e-002
3.895503e+003, 6.087082e-002
3.897431e+003, 6.054664e-002
3.899360e+003, 6.126890e-002
3.901288e+003, 6.169611e-002
3.903217e+003, 6.124945e-002
3.905145e+003, 6.186983e-002
3.907073e+003, 6.202055e-002
3.909002e+003, 6.184173e-002
3.910930e+003, 6.166166e-002
3.912859e+003, 6.129390e-002
3.914787e+003, 6.143116e-002
3.916716e+003, 6.181600e-002
3.918644e+003, 6.168298e-002
3.920573e+003, 6.144100e-002
3.922501e+003, 6.136679e-002
3.924430e+003, 6.181908e-002
3.926358e+003, 6.179348e-002
3.928287e+003, 6.155581e-002
3.930215e+003, 6.237993e-002
3.932144e+003, 6.272341e-002
3.934072e+003, 6.259799e-002
3.936000e+003, 6.276112e-002
3.937929e+003, 6.234876e-002
3.939857e+003, 6.216878e-002
3.941786e+003, 6.289307e-002
3.943714e+003, 6.309330e-002
3.945643e+003, 6.288625e-002
3.947571e+003, 6.299053e-002
3.949500e+003, 6.341655e-002
3.951428e+003, 6.390379e-002
3.953357e+003, 6.306601e-002
3.955285e+003, 6.204355e-002
3.957214e+003, 6.239166e-002
3.959142e+003, 6.336299e-002
3.961071e+003, 6.360602e-002
3.962999e+003, 6.321765e-002
3.964927e+003, 6.293947e-002
3.966856e+003, 6.263950e-002
3.968784e+003, 6.278247e-002
3.970713e+003, 6.289266e-002
3.972641e+003, 6.308076e-002
3.974570e+003, 6.331424e-002
3.976498e+003, 6.306519e-002
3.978427e+003, 6.286952e-002
3.980355e+003, 6.320762e-002
3.982284e+003, 6.361590e-002
3.984212e+003, 6.363423e-002
3.986141e+003, 6.361598e-002
3.988069e+003, 6.337055e-002
3.989998e+003, 6.300685e-002
3.991926e+003, 6.315225e-002
3.993854e+003, 6.353811e-002
3.995783e+003, 6.394500e-002
3.997711e+003, 6.438243e-002
3.999640e+003, 6.418053e-002
4.001568e+003, 0.000000e+000
##END=



