##NAMES=Witherite
##RRUFFID=R040040
##IDEAL CHEMISTRY=BaCO_3_
##LOCALITY=Cave-in-Rock, Hardin County, Illinois, USA
##OWNER=RRUFF
##SOURCE=University of Arizona Mineral Museum
##DESCRIPTION=Tan colored prismatic group of columnar crystals
##STATUS=The identification of this mineral has been confirmed by X-ray diffraction and chemical analysis
##URL=rruff.info/R040040
##MEASURED CHEMISTRY=(Ba_0.98_Sr_0.02_)_Î£=1_CO_3_; CO_2_ estimated by difference
3.991926e+002, 0.000000e+000
4.011211e+002, 1.023032e-002
4.030496e+002, 1.031620e-002
4.049780e+002, 8.996789e-003
4.069065e+002, 9.666884e-003
4.088350e+002, 1.159933e-002
4.107634e+002, 9.474841e-003
4.126919e+002, 8.040279e-003
4.146204e+002, 7.010332e-003
4.165488e+002, 8.492121e-003
4.184773e+002, 7.892151e-003
4.204058e+002, 6.477789e-003
4.223342e+002, 6.673567e-003
4.242627e+002, 7.423830e-003
4.261912e+002, 7.721560e-003
4.281196e+002, 8.496438e-003
4.300481e+002, 1.003237e-002
4.319766e+002, 9.648321e-003
4.339050e+002, 8.884552e-003
4.358335e+002, 8.576508e-003
4.377620e+002, 7.894542e-003
4.396904e+002, 7.192540e-003
4.416189e+002, 6.621294e-003
4.435474e+002, 7.012506e-003
4.454758e+002, 6.699128e-003
4.474043e+002, 6.330862e-003
4.493328e+002, 6.188122e-003
4.512612e+002, 6.532566e-003
4.531897e+002, 6.031324e-003
4.551182e+002, 6.205763e-003
4.570466e+002, 7.553016e-003
4.589751e+002, 7.554428e-003
4.609036e+002, 6.789656e-003
4.628320e+002, 6.755993e-003
4.647605e+002, 6.899641e-003
4.666890e+002, 6.995968e-003
4.686174e+002, 6.978662e-003
4.705459e+002, 7.416655e-003
4.724744e+002, 8.192670e-003
4.744028e+002, 7.558366e-003
4.763313e+002, 7.087733e-003
4.782598e+002, 7.453757e-003
4.801882e+002, 7.201245e-003
4.821167e+002, 6.598633e-003
4.840452e+002, 6.843771e-003
4.859736e+002, 7.158217e-003
4.879021e+002, 7.182781e-003
4.898306e+002, 6.502834e-003
4.917590e+002, 6.564609e-003
4.936875e+002, 6.583245e-003
4.956160e+002, 6.324721e-003
4.975444e+002, 6.172220e-003
4.994729e+002, 6.517816e-003
5.014014e+002, 7.415499e-003
5.033298e+002, 7.152976e-003
5.052583e+002, 7.209897e-003
5.071868e+002, 7.732810e-003
5.091152e+002, 7.677077e-003
5.110437e+002, 7.669293e-003
5.129722e+002, 7.545337e-003
5.149006e+002, 7.053891e-003
5.168291e+002, 6.639777e-003
5.187576e+002, 6.672723e-003
5.206860e+002, 6.850568e-003
5.226145e+002, 7.152738e-003
5.245430e+002, 7.451796e-003
5.264714e+002, 7.695641e-003
5.283999e+002, 7.925605e-003
5.303284e+002, 7.594501e-003
5.322568e+002, 7.494004e-003
5.341853e+002, 7.769087e-003
5.361138e+002, 7.736489e-003
5.380422e+002, 7.326435e-003
5.399707e+002, 7.465710e-003
5.418992e+002, 7.770305e-003
5.438276e+002, 7.136862e-003
5.457561e+002, 6.597974e-003
5.476846e+002, 6.915140e-003
5.496130e+002, 7.201584e-003
5.515415e+002, 7.294713e-003
5.534700e+002, 6.896134e-003
5.553984e+002, 6.738552e-003
5.573269e+002, 6.793964e-003
5.592554e+002, 6.684642e-003
5.611838e+002, 6.508784e-003
5.631123e+002, 6.268275e-003
5.650408e+002, 6.214938e-003
5.669692e+002, 6.236523e-003
5.688977e+002, 6.446748e-003
5.708262e+002, 6.984409e-003
5.727546e+002, 6.850511e-003
5.746831e+002, 6.723896e-003
5.766116e+002, 6.695868e-003
5.785400e+002, 6.311743e-003
5.804685e+002, 6.290297e-003
5.823970e+002, 6.852450e-003
5.843254e+002, 6.794129e-003
5.862539e+002, 6.798152e-003
5.881824e+002, 6.752616e-003
5.901108e+002, 6.442179e-003
5.920393e+002, 6.581126e-003
5.939678e+002, 7.087556e-003
5.958962e+002, 7.046116e-003
5.978247e+002, 6.864819e-003
5.997532e+002, 6.759489e-003
6.016816e+002, 6.869778e-003
6.036101e+002, 7.153969e-003
6.055386e+002, 7.499771e-003
6.074670e+002, 7.543131e-003
6.093955e+002, 7.758189e-003
6.113240e+002, 7.867051e-003
6.132524e+002, 7.599406e-003
6.151809e+002, 7.622560e-003
6.171094e+002, 7.831833e-003
6.190378e+002, 8.008966e-003
6.209663e+002, 7.967472e-003
6.228948e+002, 7.924615e-003
6.248232e+002, 8.063717e-003
6.267517e+002, 8.091077e-003
6.286802e+002, 8.431518e-003
6.306086e+002, 8.284247e-003
6.325371e+002, 8.139917e-003
6.344656e+002, 8.246461e-003
6.363940e+002, 8.096578e-003
6.383225e+002, 8.145960e-003
6.402510e+002, 8.252560e-003
6.421794e+002, 8.224119e-003
6.441079e+002, 8.115577e-003
6.460364e+002, 8.071557e-003
6.479648e+002, 8.232290e-003
6.498933e+002, 8.403655e-003
6.518218e+002, 8.784811e-003
6.537502e+002, 9.013736e-003
6.556787e+002, 8.849694e-003
6.576072e+002, 8.869276e-003
6.595356e+002, 9.091531e-003
6.614641e+002, 9.227454e-003
6.633926e+002, 9.632454e-003
6.653210e+002, 9.971046e-003
6.672495e+002, 1.037855e-002
6.691780e+002, 1.048329e-002
6.711064e+002, 1.075083e-002
6.730349e+002, 1.106785e-002
6.749634e+002, 1.171242e-002
6.768918e+002, 1.304451e-002
6.788203e+002, 1.459759e-002
6.807488e+002, 1.577406e-002
6.826772e+002, 1.809443e-002
6.846057e+002, 2.280877e-002
6.865342e+002, 3.267182e-002
6.884626e+002, 5.841002e-002
6.903911e+002, 1.131518e-001
6.923196e+002, 1.642349e-001
6.942480e+002, 1.274404e-001
6.961765e+002, 5.751336e-002
6.981050e+002, 2.216448e-002
7.000334e+002, 1.195055e-002
7.019619e+002, 8.905438e-003
7.038904e+002, 7.948918e-003
7.058188e+002, 7.150256e-003
7.077473e+002, 7.057891e-003
7.096758e+002, 7.838314e-003
7.116042e+002, 8.848706e-003
7.135327e+002, 9.180224e-003
7.154612e+002, 8.510255e-003
7.173896e+002, 7.664715e-003
7.193181e+002, 7.112333e-003
7.212466e+002, 7.039508e-003
7.231750e+002, 6.986832e-003
7.251035e+002, 7.017088e-003
7.270320e+002, 7.086946e-003
7.289604e+002, 7.298536e-003
7.308889e+002, 7.575724e-003
7.328174e+002, 7.703105e-003
7.347458e+002, 7.564711e-003
7.366743e+002, 7.615322e-003
7.386028e+002, 7.732053e-003
7.405313e+002, 7.724435e-003
7.424597e+002, 7.817476e-003
7.443882e+002, 7.810059e-003
7.463167e+002, 7.951524e-003
7.482451e+002, 8.290132e-003
7.501736e+002, 8.308603e-003
7.521021e+002, 8.407764e-003
7.540305e+002, 8.555254e-003
7.559590e+002, 8.744892e-003
7.578875e+002, 9.079812e-003
7.598159e+002, 9.300141e-003
7.617444e+002, 9.568116e-003
7.636729e+002, 9.619380e-003
7.656013e+002, 9.705847e-003
7.675298e+002, 1.019910e-002
7.694583e+002, 1.031948e-002
7.713867e+002, 1.016107e-002
7.733152e+002, 1.014922e-002
7.752437e+002, 1.011928e-002
7.771721e+002, 1.031143e-002
7.791006e+002, 1.028140e-002
7.810291e+002, 1.027030e-002
7.829575e+002, 1.044984e-002
7.848860e+002, 1.047755e-002
7.868145e+002, 1.045013e-002
7.887429e+002, 1.055722e-002
7.906714e+002, 1.063087e-002
7.925999e+002, 1.059624e-002
7.945283e+002, 1.073552e-002
7.964568e+002, 1.095115e-002
7.983853e+002, 1.132545e-002
8.003137e+002, 1.157283e-002
8.022422e+002, 1.155827e-002
8.041707e+002, 1.163563e-002
8.060991e+002, 1.177302e-002
8.080276e+002, 1.201974e-002
8.099561e+002, 1.203180e-002
8.118845e+002, 1.221621e-002
8.138130e+002, 1.256084e-002
8.157415e+002, 1.289111e-002
8.176699e+002, 1.331510e-002
8.195984e+002, 1.360017e-002
8.215269e+002, 1.386861e-002
8.234553e+002, 1.447447e-002
8.253838e+002, 1.528523e-002
8.273123e+002, 1.650603e-002
8.292407e+002, 1.792350e-002
8.311692e+002, 1.985570e-002
8.330977e+002, 2.240816e-002
8.350261e+002, 2.687038e-002
8.369546e+002, 3.510762e-002
8.388831e+002, 4.632293e-002
8.408115e+002, 4.971750e-002
8.427400e+002, 4.828809e-002
8.446685e+002, 5.614146e-002
8.465969e+002, 7.325666e-002
8.485254e+002, 9.748586e-002
8.504539e+002, 1.307763e-001
8.523823e+002, 1.760533e-001
8.543108e+002, 2.252901e-001
8.562393e+002, 2.523158e-001
8.581677e+002, 2.333662e-001
8.600962e+002, 1.770175e-001
8.620247e+002, 1.119456e-001
8.639531e+002, 6.254433e-002
8.658816e+002, 3.690407e-002
8.678101e+002, 2.741253e-002
8.697385e+002, 2.458089e-002
8.716670e+002, 2.437042e-002
8.735955e+002, 2.506182e-002
8.755239e+002, 2.567586e-002
8.774524e+002, 2.544180e-002
8.793809e+002, 2.418570e-002
8.813093e+002, 2.251278e-002
8.832378e+002, 2.128491e-002
8.851663e+002, 1.998667e-002
8.870947e+002, 1.812799e-002
8.890232e+002, 1.687024e-002
8.909517e+002, 1.659965e-002
8.928801e+002, 1.654023e-002
8.948085e+002, 1.628681e-002
8.967370e+002, 1.626403e-002
8.986655e+002, 1.631268e-002
9.005939e+002, 1.619654e-002
9.025224e+002, 1.606518e-002
9.044509e+002, 1.589737e-002
9.063793e+002, 1.562603e-002
9.083078e+002, 1.540032e-002
9.102363e+002, 1.533817e-002
9.121647e+002, 1.528129e-002
9.140932e+002, 1.516188e-002
9.160217e+002, 1.526271e-002
9.179501e+002, 1.549415e-002
9.198786e+002, 1.550038e-002
9.218071e+002, 1.563535e-002
9.237355e+002, 1.596873e-002
9.256640e+002, 1.603369e-002
9.275925e+002, 1.598238e-002
9.295209e+002, 1.591323e-002
9.314494e+002, 1.579447e-002
9.333779e+002, 1.555931e-002
9.353063e+002, 1.561379e-002
9.372348e+002, 1.556160e-002
9.391633e+002, 1.553791e-002
9.410917e+002, 1.558487e-002
9.430202e+002, 1.559852e-002
9.449487e+002, 1.553986e-002
9.468771e+002, 1.561842e-002
9.488056e+002, 1.547905e-002
9.507341e+002, 1.542488e-002
9.526625e+002, 1.542302e-002
9.545910e+002, 1.554179e-002
9.565195e+002, 1.584095e-002
9.584479e+002, 1.601622e-002
9.603764e+002, 1.590782e-002
9.623049e+002, 1.604135e-002
9.642333e+002, 1.628765e-002
9.661618e+002, 1.644073e-002
9.680903e+002, 1.654784e-002
9.700187e+002, 1.669362e-002
9.719472e+002, 1.687758e-002
9.738757e+002, 1.709879e-002
9.758041e+002, 1.745141e-002
9.777326e+002, 1.798477e-002
9.796611e+002, 1.831708e-002
9.815895e+002, 1.856830e-002
9.835180e+002, 1.873525e-002
9.854465e+002, 1.901186e-002
9.873749e+002, 1.940628e-002
9.893034e+002, 1.974986e-002
9.912319e+002, 1.988092e-002
9.931603e+002, 2.002528e-002
9.950888e+002, 2.031531e-002
9.970173e+002, 2.071668e-002
9.989457e+002, 2.097391e-002
1.000874e+003, 2.126254e-002
1.002803e+003, 2.165696e-002
1.004731e+003, 2.206679e-002
1.006660e+003, 2.209787e-002
1.008588e+003, 2.218574e-002
1.010517e+003, 2.230517e-002
1.012445e+003, 2.266514e-002
1.014373e+003, 2.277498e-002
1.016302e+003, 2.292956e-002
1.018230e+003, 2.316948e-002
1.020159e+003, 2.329867e-002
1.022087e+003, 2.336712e-002
1.024016e+003, 2.338486e-002
1.025944e+003, 2.319466e-002
1.027873e+003, 2.322446e-002
1.029801e+003, 2.321243e-002
1.031730e+003, 2.340583e-002
1.033658e+003, 2.365400e-002
1.035587e+003, 2.383758e-002
1.037515e+003, 2.383335e-002
1.039444e+003, 2.395790e-002
1.041372e+003, 2.386487e-002
1.043301e+003, 2.393411e-002
1.045229e+003, 2.401498e-002
1.047157e+003, 2.455783e-002
1.049086e+003, 2.460545e-002
1.051014e+003, 2.470704e-002
1.052943e+003, 2.504485e-002
1.054871e+003, 2.706439e-002
1.056800e+003, 3.590437e-002
1.058728e+003, 5.474858e-002
1.060657e+003, 5.186652e-002
1.062585e+003, 3.238964e-002
1.064514e+003, 2.567366e-002
1.066442e+003, 2.449184e-002
1.068371e+003, 2.458231e-002
1.070299e+003, 2.454384e-002
1.072228e+003, 2.464007e-002
1.074156e+003, 2.459039e-002
1.076084e+003, 2.504251e-002
1.078013e+003, 2.512041e-002
1.079941e+003, 2.529164e-002
1.081870e+003, 2.556301e-002
1.083798e+003, 2.603284e-002
1.085727e+003, 2.606778e-002
1.087655e+003, 2.622595e-002
1.089584e+003, 2.638475e-002
1.091512e+003, 2.676314e-002
1.093441e+003, 2.712791e-002
1.095369e+003, 2.746468e-002
1.097298e+003, 2.741393e-002
1.099226e+003, 2.752630e-002
1.101155e+003, 2.751447e-002
1.103083e+003, 2.781710e-002
1.105011e+003, 2.792175e-002
1.106940e+003, 2.813230e-002
1.108868e+003, 2.847143e-002
1.110797e+003, 2.877006e-002
1.112725e+003, 2.886627e-002
1.114654e+003, 2.906043e-002
1.116582e+003, 2.919125e-002
1.118511e+003, 2.941182e-002
1.120439e+003, 2.931872e-002
1.122368e+003, 2.935190e-002
1.124296e+003, 2.967613e-002
1.126225e+003, 3.004040e-002
1.128153e+003, 2.998760e-002
1.130082e+003, 2.992537e-002
1.132010e+003, 3.006967e-002
1.133938e+003, 3.037610e-002
1.135867e+003, 3.068614e-002
1.137795e+003, 3.115439e-002
1.139724e+003, 3.131846e-002
1.141652e+003, 3.152894e-002
1.143581e+003, 3.195368e-002
1.145509e+003, 3.232219e-002
1.147438e+003, 3.258393e-002
1.149366e+003, 3.318021e-002
1.151295e+003, 3.348751e-002
1.153223e+003, 3.374973e-002
1.155152e+003, 3.408400e-002
1.157080e+003, 3.442333e-002
1.159009e+003, 3.478247e-002
1.160937e+003, 3.492441e-002
1.162865e+003, 3.513841e-002
1.164794e+003, 3.556447e-002
1.166722e+003, 3.587573e-002
1.168651e+003, 3.621166e-002
1.170579e+003, 3.657253e-002
1.172508e+003, 3.719604e-002
1.174436e+003, 3.766876e-002
1.176365e+003, 3.808899e-002
1.178293e+003, 3.843835e-002
1.180222e+003, 3.884663e-002
1.182150e+003, 3.924367e-002
1.184079e+003, 3.947423e-002
1.186007e+003, 3.993327e-002
1.187936e+003, 4.077939e-002
1.189864e+003, 4.133133e-002
1.191792e+003, 4.164131e-002
1.193721e+003, 4.193985e-002
1.195649e+003, 4.255624e-002
1.197578e+003, 4.321476e-002
1.199506e+003, 4.372275e-002
1.201435e+003, 4.431153e-002
1.203363e+003, 4.504839e-002
1.205292e+003, 4.578852e-002
1.207220e+003, 4.660177e-002
1.209149e+003, 4.738308e-002
1.211077e+003, 4.820650e-002
1.213006e+003, 4.892799e-002
1.214934e+003, 4.966099e-002
1.216863e+003, 5.025813e-002
1.218791e+003, 5.073308e-002
1.220719e+003, 5.131087e-002
1.222648e+003, 5.210779e-002
1.224576e+003, 5.298757e-002
1.226505e+003, 5.378309e-002
1.228433e+003, 5.442104e-002
1.230362e+003, 5.526629e-002
1.232290e+003, 5.611478e-002
1.234219e+003, 5.712531e-002
1.236147e+003, 5.830974e-002
1.238076e+003, 5.953671e-002
1.240004e+003, 6.061447e-002
1.241933e+003, 6.182132e-002
1.243861e+003, 6.300007e-002
1.245790e+003, 6.415378e-002
1.247718e+003, 6.529718e-002
1.249646e+003, 6.660933e-002
1.251575e+003, 6.788114e-002
1.253503e+003, 6.888673e-002
1.255432e+003, 6.995083e-002
1.257360e+003, 7.142799e-002
1.259289e+003, 7.287829e-002
1.261217e+003, 7.432977e-002
1.263146e+003, 7.576180e-002
1.265074e+003, 7.728173e-002
1.267003e+003, 7.872237e-002
1.268931e+003, 8.041918e-002
1.270860e+003, 8.221988e-002
1.272788e+003, 8.419850e-002
1.274717e+003, 8.629008e-002
1.276645e+003, 8.834840e-002
1.278573e+003, 9.072796e-002
1.280502e+003, 9.338167e-002
1.282430e+003, 9.567355e-002
1.284359e+003, 9.795815e-002
1.286287e+003, 1.003643e-001
1.288216e+003, 1.027634e-001
1.290144e+003, 1.051548e-001
1.292073e+003, 1.077247e-001
1.294001e+003, 1.099729e-001
1.295930e+003, 1.123800e-001
1.297858e+003, 1.149756e-001
1.299787e+003, 1.176185e-001
1.301715e+003, 1.203900e-001
1.303644e+003, 1.231506e-001
1.305572e+003, 1.259664e-001
1.307500e+003, 1.289030e-001
1.309429e+003, 1.318488e-001
1.311357e+003, 1.350698e-001
1.313286e+003, 1.381942e-001
1.315214e+003, 1.412771e-001
1.317143e+003, 1.445199e-001
1.319071e+003, 1.477960e-001
1.321000e+003, 1.512778e-001
1.322928e+003, 1.552785e-001
1.324857e+003, 1.591606e-001
1.326785e+003, 1.632653e-001
1.328714e+003, 1.677634e-001
1.330642e+003, 1.724292e-001
1.332571e+003, 1.773870e-001
1.334499e+003, 1.825659e-001
1.336427e+003, 1.877537e-001
1.338356e+003, 1.935241e-001
1.340284e+003, 1.994472e-001
1.342213e+003, 2.054892e-001
1.344141e+003, 2.119104e-001
1.346070e+003, 2.186832e-001
1.347998e+003, 2.254082e-001
1.349927e+003, 2.325984e-001
1.351855e+003, 2.402660e-001
1.353784e+003, 2.483544e-001
1.355712e+003, 2.567493e-001
1.357641e+003, 2.656732e-001
1.359569e+003, 2.753817e-001
1.361498e+003, 2.857305e-001
1.363426e+003, 2.968071e-001
1.365354e+003, 3.086022e-001
1.367283e+003, 3.198572e-001
1.369211e+003, 3.293118e-001
1.371140e+003, 3.376596e-001
1.373068e+003, 3.477422e-001
1.374997e+003, 3.574415e-001
1.376925e+003, 3.651645e-001
1.378854e+003, 3.751785e-001
1.380782e+003, 3.888847e-001
1.382711e+003, 4.039616e-001
1.384639e+003, 4.197274e-001
1.386568e+003, 4.360532e-001
1.388496e+003, 4.528754e-001
1.390424e+003, 4.707036e-001
1.392353e+003, 4.884795e-001
1.394281e+003, 5.058972e-001
1.396210e+003, 5.238842e-001
1.398138e+003, 5.429813e-001
1.400067e+003, 5.621934e-001
1.401995e+003, 5.812762e-001
1.403924e+003, 6.008143e-001
1.405852e+003, 6.198961e-001
1.407781e+003, 6.382920e-001
1.409709e+003, 6.550313e-001
1.411638e+003, 6.684695e-001
1.413566e+003, 6.756169e-001
1.415495e+003, 6.757023e-001
1.417423e+003, 6.715930e-001
1.419351e+003, 6.635745e-001
1.421280e+003, 6.518843e-001
1.423208e+003, 6.371962e-001
1.425137e+003, 6.202261e-001
1.427065e+003, 6.008065e-001
1.428994e+003, 5.798420e-001
1.430922e+003, 5.585706e-001
1.432851e+003, 5.370095e-001
1.434779e+003, 5.150992e-001
1.436708e+003, 4.932216e-001
1.438636e+003, 4.718015e-001
1.440565e+003, 4.512452e-001
1.442493e+003, 4.314580e-001
1.444422e+003, 4.125313e-001
1.446350e+003, 3.946293e-001
1.448278e+003, 3.778582e-001
1.450207e+003, 3.615469e-001
1.452135e+003, 3.457567e-001
1.454064e+003, 3.307758e-001
1.455992e+003, 3.165822e-001
1.457921e+003, 3.027962e-001
1.459849e+003, 2.899818e-001
1.461778e+003, 2.775560e-001
1.463706e+003, 2.656325e-001
1.465635e+003, 2.539708e-001
1.467563e+003, 2.429192e-001
1.469492e+003, 2.324784e-001
1.471420e+003, 2.226776e-001
1.473349e+003, 2.130109e-001
1.475277e+003, 2.040711e-001
1.477205e+003, 1.952618e-001
1.479134e+003, 1.869012e-001
1.481062e+003, 1.787237e-001
1.482991e+003, 1.709980e-001
1.484919e+003, 1.634777e-001
1.486848e+003, 1.561105e-001
1.488776e+003, 1.489491e-001
1.490705e+003, 1.419122e-001
1.492633e+003, 1.352888e-001
1.494562e+003, 1.286620e-001
1.496490e+003, 1.213324e-001
1.498419e+003, 1.137715e-001
1.500347e+003, 1.059545e-001
1.502276e+003, 9.783743e-002
1.504204e+003, 8.959900e-002
1.506132e+003, 8.119620e-002
1.508061e+003, 7.301129e-002
1.509989e+003, 6.543379e-002
1.511918e+003, 5.780167e-002
1.513846e+003, 5.029119e-002
1.515775e+003, 4.299270e-002
1.517703e+003, 3.644786e-002
1.519632e+003, 3.188647e-002
1.521560e+003, 2.793497e-002
1.523489e+003, 2.516491e-002
1.525417e+003, 2.320117e-002
1.527346e+003, 2.152711e-002
1.529274e+003, 2.027684e-002
1.531203e+003, 1.932273e-002
1.533131e+003, 1.849571e-002
1.535059e+003, 1.802823e-002
1.536988e+003, 1.819688e-002
1.538916e+003, 1.803524e-002
1.540845e+003, 1.766290e-002
1.542773e+003, 1.768002e-002
1.544702e+003, 1.784107e-002
1.546630e+003, 1.778124e-002
1.548559e+003, 1.784250e-002
1.550487e+003, 1.781257e-002
1.552416e+003, 1.803101e-002
1.554344e+003, 1.812478e-002
1.556273e+003, 1.834035e-002
1.558201e+003, 1.823345e-002
1.560130e+003, 1.795479e-002
1.562058e+003, 1.798606e-002
1.563986e+003, 1.799843e-002
1.565915e+003, 1.773637e-002
1.567843e+003, 1.767919e-002
1.569772e+003, 1.716819e-002
1.571700e+003, 1.674964e-002
1.573629e+003, 1.664460e-002
1.575557e+003, 1.652813e-002
1.577486e+003, 1.594296e-002
1.579414e+003, 1.564532e-002
1.581343e+003, 1.521144e-002
1.583271e+003, 1.479221e-002
1.585200e+003, 1.449660e-002
1.587128e+003, 1.426623e-002
1.589057e+003, 1.402178e-002
1.590985e+003, 1.358367e-002
1.592913e+003, 1.308621e-002
1.594842e+003, 1.278390e-002
1.596770e+003, 1.239856e-002
1.598699e+003, 1.215199e-002
1.600627e+003, 1.199994e-002
1.602556e+003, 1.172872e-002
1.604484e+003, 1.155515e-002
1.606413e+003, 1.140348e-002
1.608341e+003, 1.102575e-002
1.610270e+003, 1.044471e-002
1.612198e+003, 1.017800e-002
1.614127e+003, 9.940345e-003
1.616055e+003, 9.599026e-003
1.617984e+003, 8.933006e-003
1.619912e+003, 8.818431e-003
1.621840e+003, 8.612750e-003
1.623769e+003, 8.479866e-003
1.625697e+003, 8.546802e-003
1.627626e+003, 8.371797e-003
1.629554e+003, 8.124693e-003
1.631483e+003, 8.311974e-003
1.633411e+003, 8.359248e-003
1.635340e+003, 7.858023e-003
1.637268e+003, 7.648770e-003
1.639197e+003, 7.810375e-003
1.641125e+003, 7.787686e-003
1.643054e+003, 7.686577e-003
1.644982e+003, 7.450165e-003
1.646911e+003, 6.816733e-003
1.648839e+003, 6.670082e-003
1.650767e+003, 6.545296e-003
1.652696e+003, 6.122100e-003
1.654624e+003, 5.835540e-003
1.656553e+003, 6.012355e-003
1.658481e+003, 5.899834e-003
1.660410e+003, 5.736564e-003
1.662338e+003, 5.576351e-003
1.664267e+003, 5.423617e-003
1.666195e+003, 5.195247e-003
1.668124e+003, 5.018574e-003
1.670052e+003, 4.919319e-003
1.671981e+003, 4.812271e-003
1.673909e+003, 4.395658e-003
1.675838e+003, 4.034482e-003
1.677766e+003, 4.411155e-003
1.679694e+003, 4.339616e-003
1.681623e+003, 4.039469e-003
1.683551e+003, 4.008987e-003
1.685480e+003, 3.561286e-003
1.687408e+003, 3.811910e-003
1.689337e+003, 3.747472e-003
1.691265e+003, 3.542437e-003
1.693194e+003, 3.515800e-003
1.695122e+003, 3.505397e-003
1.697051e+003, 3.183987e-003
1.698979e+003, 3.506442e-003
1.700908e+003, 2.665761e-003
1.702836e+003, 2.925752e-003
1.704765e+003, 3.055896e-003
1.706693e+003, 2.899386e-003
1.708621e+003, 2.660808e-003
1.710550e+003, 2.706527e-003
1.712478e+003, 2.819865e-003
1.714407e+003, 2.852037e-003
1.716335e+003, 2.878926e-003
1.718264e+003, 2.930624e-003
1.720192e+003, 3.282739e-003
1.722121e+003, 3.294199e-003
1.724049e+003, 3.319894e-003
1.725978e+003, 3.638719e-003
1.727906e+003, 3.726154e-003
1.729835e+003, 3.635256e-003
1.731763e+003, 3.656247e-003
1.733692e+003, 3.713181e-003
1.735620e+003, 3.989071e-003
1.737548e+003, 4.404543e-003
1.739477e+003, 4.696442e-003
1.741405e+003, 5.588062e-003
1.743334e+003, 8.218421e-003
1.745262e+003, 1.362974e-002
1.747191e+003, 2.317793e-002
1.749119e+003, 3.149585e-002
1.751048e+003, 3.212295e-002
1.752976e+003, 2.810395e-002
1.754905e+003, 2.490754e-002
1.756833e+003, 2.082686e-002
1.758762e+003, 1.470604e-002
1.760690e+003, 9.475423e-003
1.762619e+003, 5.700421e-003
1.764547e+003, 3.907307e-003
1.766475e+003, 3.273605e-003
1.768404e+003, 3.212000e-003
1.770332e+003, 3.276913e-003
1.772261e+003, 2.638738e-003
1.774189e+003, 2.512045e-003
1.776118e+003, 2.887203e-003
1.778046e+003, 3.335979e-003
1.779975e+003, 3.280818e-003
1.781903e+003, 3.221995e-003
1.783832e+003, 3.324281e-003
1.785760e+003, 3.162220e-003
1.787689e+003, 3.283997e-003
1.789617e+003, 3.579166e-003
1.791546e+003, 3.763123e-003
1.793474e+003, 3.551956e-003
1.795402e+003, 3.503872e-003
1.797331e+003, 3.577030e-003
1.799259e+003, 3.694026e-003
1.801188e+003, 3.549672e-003
1.803116e+003, 3.259261e-003
1.805045e+003, 3.126981e-003
1.806973e+003, 3.309577e-003
1.808902e+003, 3.268918e-003
1.810830e+003, 3.003453e-003
1.812759e+003, 2.876982e-003
1.814687e+003, 2.944280e-003
1.816616e+003, 3.270045e-003
1.818544e+003, 3.391376e-003
1.820473e+003, 3.570562e-003
1.822401e+003, 4.060972e-003
1.824329e+003, 3.979326e-003
1.826258e+003, 3.332986e-003
1.828186e+003, 3.306270e-003
1.830115e+003, 3.788612e-003
1.832043e+003, 4.138278e-003
1.833972e+003, 3.640661e-003
1.835900e+003, 3.333090e-003
1.837829e+003, 3.525947e-003
1.839757e+003, 3.618243e-003
1.841686e+003, 3.748848e-003
1.843614e+003, 3.904514e-003
1.845543e+003, 3.417264e-003
1.847471e+003, 3.915216e-003
1.849400e+003, 4.017331e-003
1.851328e+003, 3.740955e-003
1.853256e+003, 3.703980e-003
1.855185e+003, 4.070788e-003
1.857113e+003, 4.196640e-003
1.859042e+003, 3.696953e-003
1.860970e+003, 3.645295e-003
1.862899e+003, 3.818386e-003
1.864827e+003, 3.613189e-003
1.866756e+003, 3.800690e-003
1.868684e+003, 3.944966e-003
1.870613e+003, 3.947132e-003
1.872541e+003, 4.028603e-003
1.874470e+003, 4.033603e-003
1.876398e+003, 3.880099e-003
1.878327e+003, 3.780606e-003
1.880255e+003, 3.772930e-003
1.882183e+003, 3.964414e-003
1.884112e+003, 4.200219e-003
1.886040e+003, 4.116703e-003
1.887969e+003, 3.828388e-003
1.889897e+003, 3.394977e-003
1.891826e+003, 3.483443e-003
1.893754e+003, 4.510271e-003
1.895683e+003, 4.585790e-003
1.897611e+003, 4.158124e-003
1.899540e+003, 3.711241e-003
1.901468e+003, 3.266881e-003
1.903397e+003, 3.317746e-003
1.905325e+003, 3.871347e-003
1.907254e+003, 4.695976e-003
1.909182e+003, 4.919658e-003
1.911110e+003, 4.307203e-003
1.913039e+003, 4.342028e-003
1.914967e+003, 4.304647e-003
1.916896e+003, 4.376968e-003
1.918824e+003, 4.099946e-003
1.920753e+003, 4.270635e-003
1.922681e+003, 3.856951e-003
1.924610e+003, 3.026755e-003
1.926538e+003, 3.719190e-003
1.928467e+003, 4.354288e-003
1.930395e+003, 4.491687e-003
1.932324e+003, 3.538484e-003
1.934252e+003, 3.118419e-003
1.936181e+003, 3.714756e-003
1.938109e+003, 4.314029e-003
1.940037e+003, 4.419564e-003
1.941966e+003, 4.486472e-003
1.943894e+003, 3.785566e-003
1.945823e+003, 2.909000e-003
1.947751e+003, 3.046325e-003
1.949680e+003, 2.483023e-003
1.951608e+003, 2.535081e-003
1.953537e+003, 3.777610e-003
1.955465e+003, 3.582674e-003
1.957394e+003, 2.776277e-003
1.959322e+003, 3.436394e-003
1.961251e+003, 4.830139e-003
1.963179e+003, 4.538536e-003
1.965108e+003, 3.063570e-003
1.967036e+003, 2.789977e-003
1.968964e+003, 3.655739e-003
1.970893e+003, 4.989107e-003
1.972821e+003, 4.417704e-003
1.974750e+003, 2.544300e-003
1.976678e+003, 1.534153e-003
1.978607e+003, 5.154052e-003
1.980535e+003, 7.067144e-003
1.982464e+003, 6.200925e-003
1.984392e+003, 4.429605e-003
1.986321e+003, 2.819558e-003
1.988249e+003, 3.403647e-003
1.990178e+003, 4.861533e-003
1.992106e+003, 4.698625e-003
1.994035e+003, 4.778164e-003
1.995963e+003, 4.810451e-003
1.997891e+003, 4.772424e-003
1.999820e+003, 3.728075e-003
2.001748e+003, 4.473500e-003
2.003677e+003, 5.296236e-003
2.005605e+003, 4.613024e-003
2.007534e+003, 3.757030e-003
2.009462e+003, 3.081130e-003
2.011391e+003, 4.641369e-003
2.013319e+003, 5.550505e-003
2.015248e+003, 5.916460e-003
2.017176e+003, 5.917482e-003
2.019105e+003, 6.290922e-003
2.021033e+003, 5.333665e-003
2.022962e+003, 4.919714e-003
2.024890e+003, 5.195890e-003
2.026818e+003, 4.690983e-003
2.028747e+003, 4.882829e-003
2.030675e+003, 4.603785e-003
2.032604e+003, 4.061657e-003
2.034532e+003, 5.016348e-003
2.036461e+003, 6.537146e-003
2.038389e+003, 7.267384e-003
2.040318e+003, 5.914116e-003
2.042246e+003, 4.803603e-003
2.044175e+003, 4.266896e-003
2.046103e+003, 5.532788e-003
2.048032e+003, 7.286702e-003
2.049960e+003, 7.683657e-003
2.051889e+003, 6.458394e-003
2.053817e+003, 6.002943e-003
2.055746e+003, 5.931099e-003
2.057674e+003, 5.062922e-003
2.059603e+003, 4.919109e-003
2.061531e+003, 6.186456e-003
2.063459e+003, 5.878971e-003
2.065388e+003, 5.807596e-003
2.067316e+003, 7.513825e-003
2.069245e+003, 7.491206e-003
2.071173e+003, 7.126727e-003
2.073102e+003, 7.205484e-003
2.075030e+003, 6.788474e-003
2.076959e+003, 6.483128e-003
2.078887e+003, 7.212858e-003
2.080816e+003, 7.094424e-003
2.082744e+003, 6.508135e-003
2.084673e+003, 6.403964e-003
2.086601e+003, 7.323844e-003
2.088530e+003, 8.327703e-003
2.090458e+003, 7.830180e-003
2.092386e+003, 6.432946e-003
2.094315e+003, 6.851139e-003
2.096243e+003, 7.280697e-003
2.098172e+003, 7.473121e-003
2.100100e+003, 8.572699e-003
2.102029e+003, 8.733350e-003
2.103957e+003, 6.863189e-003
2.105886e+003, 5.449694e-003
2.107814e+003, 6.215352e-003
2.109743e+003, 7.705271e-003
2.111671e+003, 7.599281e-003
2.113600e+003, 6.664025e-003
2.115528e+003, 5.840003e-003
2.117457e+003, 4.768485e-003
2.119385e+003, 4.497523e-003
2.121313e+003, 5.607892e-003
2.123242e+003, 5.984457e-003
2.125170e+003, 6.402066e-003
2.127099e+003, 6.357500e-003
2.129027e+003, 5.924667e-003
2.130956e+003, 4.892970e-003
2.132884e+003, 4.042313e-003
2.134813e+003, 5.021153e-003
2.136741e+003, 5.712996e-003
2.138670e+003, 5.142546e-003
2.140598e+003, 5.408672e-003
2.142527e+003, 5.804607e-003
2.144455e+003, 6.453376e-003
2.146384e+003, 5.429247e-003
2.148312e+003, 3.090864e-003
2.150240e+003, 4.985546e-003
2.152169e+003, 5.093119e-003
2.154097e+003, 2.406841e-003
2.156026e+003, 2.615005e-003
2.157954e+003, 5.711242e-003
2.159883e+003, 9.151668e-003
2.161811e+003, 9.658650e-003
2.163740e+003, 7.909565e-003
2.165668e+003, 7.120159e-003
2.167597e+003, 6.369106e-003
2.169525e+003, 5.931064e-003
2.171454e+003, 7.558725e-003
2.173382e+003, 9.262530e-003
2.175311e+003, 8.426503e-003
2.177239e+003, 7.013258e-003
2.179167e+003, 6.532614e-003
2.181096e+003, 6.427114e-003
2.183024e+003, 7.615199e-003
2.184953e+003, 7.885356e-003
2.186881e+003, 8.123336e-003
2.188810e+003, 7.015518e-003
2.190738e+003, 8.288086e-003
2.192667e+003, 9.744110e-003
2.194595e+003, 7.074277e-003
2.196524e+003, 5.833744e-003
2.198452e+003, 8.225440e-003
2.200381e+003, 9.489497e-003
2.202309e+003, 7.336466e-003
2.204238e+003, 6.252016e-003
2.206166e+003, 6.654057e-003
2.208094e+003, 7.018312e-003
2.210023e+003, 7.569014e-003
2.211951e+003, 7.250230e-003
2.213880e+003, 6.846436e-003
2.215808e+003, 7.398138e-003
2.217737e+003, 7.978854e-003
2.219665e+003, 8.108095e-003
2.221594e+003, 7.897965e-003
2.223522e+003, 7.907534e-003
2.225451e+003, 8.637241e-003
2.227379e+003, 9.487976e-003
2.229308e+003, 8.658905e-003
2.231236e+003, 8.847008e-003
2.233165e+003, 1.036570e-002
2.235093e+003, 9.543551e-003
2.237021e+003, 8.548287e-003
2.238950e+003, 8.493227e-003
2.240878e+003, 8.114794e-003
2.242807e+003, 9.005281e-003
2.244735e+003, 9.850112e-003
2.246664e+003, 9.195242e-003
2.248592e+003, 8.138711e-003
2.250521e+003, 7.712608e-003
2.252449e+003, 8.106119e-003
2.254378e+003, 8.444563e-003
2.256306e+003, 1.007351e-002
2.258235e+003, 1.040091e-002
2.260163e+003, 9.475091e-003
2.262092e+003, 8.608094e-003
2.264020e+003, 8.355212e-003
2.265948e+003, 8.484347e-003
2.267877e+003, 8.865819e-003
2.269805e+003, 1.007579e-002
2.271734e+003, 1.014937e-002
2.273662e+003, 9.934586e-003
2.275591e+003, 9.700636e-003
2.277519e+003, 9.123288e-003
2.279448e+003, 9.359514e-003
2.281376e+003, 9.640551e-003
2.283305e+003, 1.020660e-002
2.285233e+003, 1.031630e-002
2.287162e+003, 1.027337e-002
2.289090e+003, 1.086468e-002
2.291019e+003, 1.103363e-002
2.292947e+003, 9.919228e-003
2.294875e+003, 9.105309e-003
2.296804e+003, 9.291160e-003
2.298732e+003, 9.394240e-003
2.300661e+003, 9.729370e-003
2.302589e+003, 9.777168e-003
2.304518e+003, 9.313191e-003
2.306446e+003, 9.471491e-003
2.308375e+003, 9.812382e-003
2.310303e+003, 1.023451e-002
2.312232e+003, 1.031377e-002
2.314160e+003, 1.053830e-002
2.316089e+003, 1.047705e-002
2.318017e+003, 1.016394e-002
2.319946e+003, 1.088384e-002
2.321874e+003, 1.196111e-002
2.323802e+003, 1.197298e-002
2.325731e+003, 1.045587e-002
2.327659e+003, 9.645111e-003
2.329588e+003, 9.948171e-003
2.331516e+003, 9.957487e-003
2.333445e+003, 9.615069e-003
2.335373e+003, 9.798217e-003
2.337302e+003, 1.046321e-002
2.339230e+003, 1.066427e-002
2.341159e+003, 1.057879e-002
2.343087e+003, 1.017241e-002
2.345016e+003, 9.905350e-003
2.346944e+003, 9.754607e-003
2.348873e+003, 9.982768e-003
2.350801e+003, 1.005732e-002
2.352729e+003, 1.003066e-002
2.354658e+003, 1.063080e-002
2.356586e+003, 1.093130e-002
2.358515e+003, 1.098736e-002
2.360443e+003, 1.068150e-002
2.362372e+003, 1.013913e-002
2.364300e+003, 1.012236e-002
2.366229e+003, 1.046104e-002
2.368157e+003, 9.916371e-003
2.370086e+003, 9.042695e-003
2.372014e+003, 9.132512e-003
2.373942e+003, 9.523434e-003
2.375871e+003, 9.585953e-003
2.377799e+003, 9.248635e-003
2.379728e+003, 9.131473e-003
2.381656e+003, 9.728473e-003
2.383585e+003, 1.004849e-002
2.385513e+003, 9.501319e-003
2.387442e+003, 9.095584e-003
2.389370e+003, 8.778747e-003
2.391299e+003, 8.985365e-003
2.393227e+003, 8.934815e-003
2.395156e+003, 8.875806e-003
2.397084e+003, 9.389536e-003
2.399012e+003, 9.915318e-003
2.400941e+003, 1.025191e-002
2.402869e+003, 1.038564e-002
2.404798e+003, 1.017670e-002
2.406726e+003, 1.043992e-002
2.408655e+003, 1.057591e-002
2.410583e+003, 1.013354e-002
2.412512e+003, 1.072058e-002
2.414440e+003, 1.158330e-002
2.416369e+003, 1.107062e-002
2.418297e+003, 1.047911e-002
2.420226e+003, 1.095750e-002
2.422154e+003, 1.140716e-002
2.424083e+003, 1.113820e-002
2.426011e+003, 1.116126e-002
2.427939e+003, 1.134558e-002
2.429868e+003, 1.200630e-002
2.431796e+003, 1.250323e-002
2.433725e+003, 1.299009e-002
2.435653e+003, 1.416693e-002
2.437582e+003, 1.600312e-002
2.439510e+003, 1.674419e-002
2.441439e+003, 1.762984e-002
2.443367e+003, 1.938885e-002
2.445296e+003, 2.198397e-002
2.447224e+003, 2.472968e-002
2.449153e+003, 2.742887e-002
2.451081e+003, 2.884163e-002
2.453010e+003, 2.769906e-002
2.454938e+003, 2.557099e-002
2.456866e+003, 2.419575e-002
2.458795e+003, 2.205842e-002
2.460723e+003, 2.076987e-002
2.462652e+003, 1.996508e-002
2.464580e+003, 1.918635e-002
2.466509e+003, 1.852022e-002
2.468437e+003, 1.770287e-002
2.470366e+003, 1.722520e-002
2.472294e+003, 1.712733e-002
2.474223e+003, 1.730782e-002
2.476151e+003, 1.648566e-002
2.478080e+003, 1.514448e-002
2.480008e+003, 1.466142e-002
2.481937e+003, 1.394625e-002
2.483865e+003, 1.354722e-002
2.485793e+003, 1.318190e-002
2.487722e+003, 1.264282e-002
2.489650e+003, 1.163780e-002
2.491579e+003, 1.177040e-002
2.493507e+003, 1.242793e-002
2.495436e+003, 1.238543e-002
2.497364e+003, 1.164123e-002
2.499293e+003, 1.133370e-002
2.501221e+003, 1.113365e-002
2.503150e+003, 1.095610e-002
2.505078e+003, 1.099181e-002
2.507007e+003, 1.176519e-002
2.508935e+003, 1.217213e-002
2.510864e+003, 1.133386e-002
2.512792e+003, 1.054983e-002
2.514720e+003, 1.090213e-002
2.516649e+003, 1.095952e-002
2.518577e+003, 1.100898e-002
2.520506e+003, 1.113000e-002
2.522434e+003, 1.119068e-002
2.524363e+003, 1.164855e-002
2.526291e+003, 1.184351e-002
2.528220e+003, 1.093362e-002
2.530148e+003, 1.009231e-002
2.532077e+003, 1.054361e-002
2.534005e+003, 1.166302e-002
2.535934e+003, 1.165998e-002
2.537862e+003, 1.197951e-002
2.539791e+003, 1.226070e-002
2.541719e+003, 1.195288e-002
2.543647e+003, 1.145652e-002
2.545576e+003, 1.117671e-002
2.547504e+003, 1.156628e-002
2.549433e+003, 1.189834e-002
2.551361e+003, 1.190314e-002
2.553290e+003, 1.166596e-002
2.555218e+003, 1.088224e-002
2.557147e+003, 1.007201e-002
2.559075e+003, 1.023296e-002
2.561004e+003, 1.013914e-002
2.562932e+003, 9.827822e-003
2.564861e+003, 9.973573e-003
2.566789e+003, 1.043962e-002
2.568718e+003, 1.093325e-002
2.570646e+003, 1.072736e-002
2.572574e+003, 1.014676e-002
2.574503e+003, 9.614581e-003
2.576431e+003, 9.662841e-003
2.578360e+003, 9.183980e-003
2.580288e+003, 9.326554e-003
2.582217e+003, 9.275999e-003
2.584145e+003, 8.566268e-003
2.586074e+003, 9.347246e-003
2.588002e+003, 9.709429e-003
2.589931e+003, 9.228136e-003
2.591859e+003, 9.359750e-003
2.593788e+003, 9.520745e-003
2.595716e+003, 9.685271e-003
2.597645e+003, 9.403556e-003
2.599573e+003, 8.950632e-003
2.601501e+003, 9.095097e-003
2.603430e+003, 9.336220e-003
2.605358e+003, 8.979373e-003
2.607287e+003, 9.242712e-003
2.609215e+003, 9.786493e-003
2.611144e+003, 9.809190e-003
2.613072e+003, 1.003287e-002
2.615001e+003, 1.031845e-002
2.616929e+003, 9.473139e-003
2.618858e+003, 8.799572e-003
2.620786e+003, 9.395996e-003
2.622715e+003, 9.196488e-003
2.624643e+003, 9.111799e-003
2.626572e+003, 9.392114e-003
2.628500e+003, 9.398001e-003
2.630428e+003, 9.502168e-003
2.632357e+003, 9.385393e-003
2.634285e+003, 9.425556e-003
2.636214e+003, 9.444357e-003
2.638142e+003, 9.993866e-003
2.640071e+003, 1.051168e-002
2.641999e+003, 9.960914e-003
2.643928e+003, 9.413297e-003
2.645856e+003, 9.439000e-003
2.647785e+003, 9.571201e-003
2.649713e+003, 9.341847e-003
2.651642e+003, 9.702051e-003
2.653570e+003, 1.035284e-002
2.655499e+003, 9.622719e-003
2.657427e+003, 8.967455e-003
2.659355e+003, 8.944943e-003
2.661284e+003, 9.186210e-003
2.663212e+003, 9.229646e-003
2.665141e+003, 9.208746e-003
2.667069e+003, 9.228445e-003
2.668998e+003, 8.789719e-003
2.670926e+003, 8.409431e-003
2.672855e+003, 8.522071e-003
2.674783e+003, 8.547765e-003
2.676712e+003, 8.227807e-003
2.678640e+003, 8.187203e-003
2.680569e+003, 7.676892e-003
2.682497e+003, 7.127767e-003
2.684426e+003, 7.677923e-003
2.686354e+003, 8.058256e-003
2.688282e+003, 8.027844e-003
2.690211e+003, 8.374442e-003
2.692139e+003, 8.537525e-003
2.694068e+003, 8.455793e-003
2.695996e+003, 8.595078e-003
2.697925e+003, 8.805902e-003
2.699853e+003, 8.593215e-003
2.701782e+003, 8.401620e-003
2.703710e+003, 8.326721e-003
2.705639e+003, 8.395687e-003
2.707567e+003, 8.434133e-003
2.709496e+003, 8.014883e-003
2.711424e+003, 7.971074e-003
2.713353e+003, 7.942310e-003
2.715281e+003, 8.203100e-003
2.717209e+003, 8.485884e-003
2.719138e+003, 8.252708e-003
2.721066e+003, 8.411336e-003
2.722995e+003, 8.553029e-003
2.724923e+003, 8.910965e-003
2.726852e+003, 9.072240e-003
2.728780e+003, 8.255541e-003
2.730709e+003, 7.988324e-003
2.732637e+003, 7.818098e-003
2.734566e+003, 7.762621e-003
2.736494e+003, 7.471784e-003
2.738423e+003, 7.516377e-003
2.740351e+003, 7.220744e-003
2.742280e+003, 7.085284e-003
2.744208e+003, 7.694909e-003
2.746136e+003, 8.067671e-003
2.748065e+003, 7.625866e-003
2.749993e+003, 7.878489e-003
2.751922e+003, 8.602541e-003
2.753850e+003, 8.530447e-003
2.755779e+003, 8.149931e-003
2.757707e+003, 7.770875e-003
2.759636e+003, 7.837997e-003
2.761564e+003, 8.222496e-003
2.763493e+003, 8.352119e-003
2.765421e+003, 7.641001e-003
2.767350e+003, 7.307549e-003
2.769278e+003, 7.510416e-003
2.771207e+003, 7.349370e-003
2.773135e+003, 7.127224e-003
2.775063e+003, 7.530225e-003
2.776992e+003, 7.726853e-003
2.778920e+003, 7.633298e-003
2.780849e+003, 7.965743e-003
2.782777e+003, 7.746824e-003
2.784706e+003, 7.493576e-003
2.786634e+003, 7.366566e-003
2.788563e+003, 7.847473e-003
2.790491e+003, 7.951971e-003
2.792420e+003, 7.768909e-003
2.794348e+003, 7.716520e-003
2.796277e+003, 7.771942e-003
2.798205e+003, 8.129473e-003
2.800134e+003, 8.719459e-003
2.802062e+003, 9.251838e-003
2.803990e+003, 9.388675e-003
2.805919e+003, 9.049087e-003
2.807847e+003, 8.829881e-003
2.809776e+003, 9.326732e-003
2.811704e+003, 1.052281e-002
2.813633e+003, 1.100938e-002
2.815561e+003, 1.124616e-002
2.817490e+003, 1.165067e-002
2.819418e+003, 1.204775e-002
2.821347e+003, 1.147556e-002
2.823275e+003, 1.129914e-002
2.825204e+003, 1.168197e-002
2.827132e+003, 1.174898e-002
2.829061e+003, 1.105169e-002
2.830989e+003, 1.085454e-002
2.832917e+003, 1.100268e-002
2.834846e+003, 1.056298e-002
2.836774e+003, 1.054981e-002
2.838703e+003, 1.065449e-002
2.840631e+003, 9.890821e-003
2.842560e+003, 9.633006e-003
2.844488e+003, 9.222818e-003
2.846417e+003, 9.087607e-003
2.848345e+003, 9.721704e-003
2.850274e+003, 9.835137e-003
2.852202e+003, 9.702604e-003
2.854131e+003, 9.641994e-003
2.856059e+003, 9.233501e-003
2.857988e+003, 8.666768e-003
2.859916e+003, 8.217507e-003
2.861844e+003, 8.634513e-003
2.863773e+003, 9.123414e-003
2.865701e+003, 9.228671e-003
2.867630e+003, 9.411152e-003
2.869558e+003, 9.166876e-003
2.871487e+003, 9.620927e-003
2.873415e+003, 1.055271e-002
2.875344e+003, 1.049689e-002
2.877272e+003, 1.040066e-002
2.879201e+003, 1.032779e-002
2.881129e+003, 9.982150e-003
2.883058e+003, 1.013739e-002
2.884986e+003, 1.029645e-002
2.886915e+003, 1.007385e-002
2.888843e+003, 1.058370e-002
2.890771e+003, 1.085692e-002
2.892700e+003, 1.066115e-002
2.894628e+003, 9.984994e-003
2.896557e+003, 1.037726e-002
2.898485e+003, 1.058614e-002
2.900414e+003, 1.031858e-002
2.902342e+003, 1.043024e-002
2.904271e+003, 1.052873e-002
2.906199e+003, 1.017666e-002
2.908128e+003, 1.007652e-002
2.910056e+003, 1.020964e-002
2.911985e+003, 1.026471e-002
2.913913e+003, 1.064360e-002
2.915842e+003, 1.141675e-002
2.917770e+003, 1.162385e-002
2.919698e+003, 1.081277e-002
2.921627e+003, 1.002795e-002
2.923555e+003, 1.010261e-002
2.925484e+003, 1.003957e-002
2.927412e+003, 1.014256e-002
2.929341e+003, 1.057846e-002
2.931269e+003, 1.147914e-002
2.933198e+003, 1.125085e-002
2.935126e+003, 1.028098e-002
2.937055e+003, 1.033643e-002
2.938983e+003, 1.023284e-002
2.940912e+003, 1.020693e-002
2.942840e+003, 1.068882e-002
2.944769e+003, 1.094284e-002
2.946697e+003, 1.113532e-002
2.948625e+003, 1.121078e-002
2.950554e+003, 1.085939e-002
2.952482e+003, 1.017056e-002
2.954411e+003, 1.072275e-002
2.956339e+003, 1.085923e-002
2.958268e+003, 1.077461e-002
2.960196e+003, 1.018848e-002
2.962125e+003, 1.033293e-002
2.964053e+003, 1.112347e-002
2.965982e+003, 1.137133e-002
2.967910e+003, 1.070608e-002
2.969839e+003, 1.050779e-002
2.971767e+003, 1.027436e-002
2.973696e+003, 1.005235e-002
2.975624e+003, 9.259940e-003
2.977552e+003, 9.603516e-003
2.979481e+003, 1.037650e-002
2.981409e+003, 1.079866e-002
2.983338e+003, 1.031672e-002
2.985266e+003, 9.871945e-003
2.987195e+003, 1.040177e-002
2.989123e+003, 1.216402e-002
2.991052e+003, 1.181300e-002
2.992980e+003, 1.087731e-002
2.994909e+003, 1.042173e-002
2.996837e+003, 1.081817e-002
2.998766e+003, 1.076052e-002
3.000694e+003, 1.096340e-002
3.002623e+003, 1.206333e-002
3.004551e+003, 1.315583e-002
3.006479e+003, 1.303869e-002
3.008408e+003, 1.251268e-002
3.010336e+003, 1.186356e-002
3.012265e+003, 1.157420e-002
3.014193e+003, 1.255894e-002
3.016122e+003, 1.294998e-002
3.018050e+003, 1.242920e-002
3.019979e+003, 1.365040e-002
3.021907e+003, 1.331717e-002
3.023836e+003, 1.361499e-002
3.025764e+003, 1.410581e-002
3.027693e+003, 1.308542e-002
3.029621e+003, 1.268390e-002
3.031550e+003, 1.341958e-002
3.033478e+003, 1.358934e-002
3.035406e+003, 1.358663e-002
3.037335e+003, 1.391703e-002
3.039263e+003, 1.369047e-002
3.041192e+003, 1.450116e-002
3.043120e+003, 1.443883e-002
3.045049e+003, 1.372464e-002
3.046977e+003, 1.430107e-002
3.048906e+003, 1.412653e-002
3.050834e+003, 1.370096e-002
3.052763e+003, 1.373650e-002
3.054691e+003, 1.418742e-002
3.056620e+003, 1.479290e-002
3.058548e+003, 1.532164e-002
3.060477e+003, 1.524748e-002
3.062405e+003, 1.478539e-002
3.064333e+003, 1.492056e-002
3.066262e+003, 1.546110e-002
3.068190e+003, 1.621472e-002
3.070119e+003, 1.668209e-002
3.072047e+003, 1.661076e-002
3.073976e+003, 1.688128e-002
3.075904e+003, 1.594868e-002
3.077833e+003, 1.500301e-002
3.079761e+003, 1.497176e-002
3.081690e+003, 1.484702e-002
3.083618e+003, 1.477898e-002
3.085547e+003, 1.493530e-002
3.087475e+003, 1.463643e-002
3.089404e+003, 1.513037e-002
3.091332e+003, 1.514835e-002
3.093260e+003, 1.441400e-002
3.095189e+003, 1.504122e-002
3.097117e+003, 1.495453e-002
3.099046e+003, 1.395317e-002
3.100974e+003, 1.476047e-002
3.102903e+003, 1.504353e-002
3.104831e+003, 1.533511e-002
3.106760e+003, 1.558615e-002
3.108688e+003, 1.587524e-002
3.110617e+003, 1.636863e-002
3.112545e+003, 1.562840e-002
3.114474e+003, 1.524488e-002
3.116402e+003, 1.533888e-002
3.118331e+003, 1.553681e-002
3.120259e+003, 1.649458e-002
3.122188e+003, 1.647960e-002
3.124116e+003, 1.571632e-002
3.126044e+003, 1.581066e-002
3.127973e+003, 1.567362e-002
3.129901e+003, 1.545525e-002
3.131830e+003, 1.620315e-002
3.133758e+003, 1.728865e-002
3.135687e+003, 1.742008e-002
3.137615e+003, 1.654788e-002
3.139544e+003, 1.586370e-002
3.141472e+003, 1.622741e-002
3.143401e+003, 1.797803e-002
3.145329e+003, 1.772749e-002
3.147258e+003, 1.704798e-002
3.149186e+003, 1.749859e-002
3.151115e+003, 1.825929e-002
3.153043e+003, 1.756328e-002
3.154971e+003, 1.693336e-002
3.156900e+003, 1.703465e-002
3.158828e+003, 1.669557e-002
3.160757e+003, 1.566581e-002
3.162685e+003, 1.542679e-002
3.164614e+003, 1.543010e-002
3.166542e+003, 1.613133e-002
3.168471e+003, 1.602291e-002
3.170399e+003, 1.664374e-002
3.172328e+003, 1.740967e-002
3.174256e+003, 1.737972e-002
3.176185e+003, 1.694222e-002
3.178113e+003, 1.670227e-002
3.180042e+003, 1.661853e-002
3.181970e+003, 1.753888e-002
3.183898e+003, 1.702151e-002
3.185827e+003, 1.583324e-002
3.187755e+003, 1.633149e-002
3.189684e+003, 1.661438e-002
3.191612e+003, 1.681598e-002
3.193541e+003, 1.701234e-002
3.195469e+003, 1.724580e-002
3.197398e+003, 1.808277e-002
3.199326e+003, 1.738344e-002
3.201255e+003, 1.681738e-002
3.203183e+003, 1.626864e-002
3.205112e+003, 1.638589e-002
3.207040e+003, 1.625447e-002
3.208969e+003, 1.693143e-002
3.210897e+003, 1.700981e-002
3.212825e+003, 1.680525e-002
3.214754e+003, 1.731697e-002
3.216682e+003, 1.672712e-002
3.218611e+003, 1.655986e-002
3.220539e+003, 1.632870e-002
3.222468e+003, 1.628741e-002
3.224396e+003, 1.587517e-002
3.226325e+003, 1.650300e-002
3.228253e+003, 1.745430e-002
3.230182e+003, 1.734995e-002
3.232110e+003, 1.757599e-002
3.234039e+003, 1.803592e-002
3.235967e+003, 1.795155e-002
3.237896e+003, 1.775981e-002
3.239824e+003, 1.718269e-002
3.241752e+003, 1.657776e-002
3.243681e+003, 1.692759e-002
3.245609e+003, 1.791202e-002
3.247538e+003, 1.838735e-002
3.249466e+003, 1.805853e-002
3.251395e+003, 1.828449e-002
3.253323e+003, 1.797991e-002
3.255252e+003, 1.782091e-002
3.257180e+003, 1.829204e-002
3.259109e+003, 1.832646e-002
3.261037e+003, 1.782010e-002
3.262966e+003, 1.764253e-002
3.264894e+003, 1.836231e-002
3.266823e+003, 1.906814e-002
3.268751e+003, 1.780058e-002
3.270679e+003, 1.717832e-002
3.272608e+003, 1.763468e-002
3.274536e+003, 1.895676e-002
3.276465e+003, 1.790206e-002
3.278393e+003, 1.814659e-002
3.280322e+003, 1.883634e-002
3.282250e+003, 1.738118e-002
3.284179e+003, 1.689429e-002
3.286107e+003, 1.807164e-002
3.288036e+003, 1.833970e-002
3.289964e+003, 1.875418e-002
3.291893e+003, 1.745174e-002
3.293821e+003, 1.646271e-002
3.295750e+003, 1.744097e-002
3.297678e+003, 1.787841e-002
3.299606e+003, 1.820672e-002
3.301535e+003, 1.828468e-002
3.303463e+003, 1.942069e-002
3.305392e+003, 2.021455e-002
3.307320e+003, 1.896117e-002
3.309249e+003, 1.741452e-002
3.311177e+003, 1.707581e-002
3.313106e+003, 1.797232e-002
3.315034e+003, 1.839787e-002
3.316963e+003, 1.843355e-002
3.318891e+003, 1.834738e-002
3.320820e+003, 1.862081e-002
3.322748e+003, 1.960222e-002
3.324677e+003, 1.913636e-002
3.326605e+003, 1.879541e-002
3.328533e+003, 1.918214e-002
3.330462e+003, 1.849908e-002
3.332390e+003, 1.744755e-002
3.334319e+003, 1.723618e-002
3.336247e+003, 1.779838e-002
3.338176e+003, 1.821963e-002
3.340104e+003, 1.900733e-002
3.342033e+003, 1.963375e-002
3.343961e+003, 1.926191e-002
3.345890e+003, 1.904686e-002
3.347818e+003, 1.953425e-002
3.349747e+003, 2.031630e-002
3.351675e+003, 2.037773e-002
3.353604e+003, 2.023599e-002
3.355532e+003, 1.924369e-002
3.357460e+003, 1.926607e-002
3.359389e+003, 2.028543e-002
3.361317e+003, 2.057094e-002
3.363246e+003, 1.973886e-002
3.365174e+003, 1.931930e-002
3.367103e+003, 1.814888e-002
3.369031e+003, 1.768214e-002
3.370960e+003, 1.797093e-002
3.372888e+003, 1.834215e-002
3.374817e+003, 1.871539e-002
3.376745e+003, 1.907732e-002
3.378674e+003, 1.885385e-002
3.380602e+003, 1.892142e-002
3.382531e+003, 1.759657e-002
3.384459e+003, 1.729643e-002
3.386387e+003, 1.727659e-002
3.388316e+003, 1.828995e-002
3.390244e+003, 1.989508e-002
3.392173e+003, 1.938077e-002
3.394101e+003, 1.878774e-002
3.396030e+003, 1.868638e-002
3.397958e+003, 1.874349e-002
3.399887e+003, 1.940969e-002
3.401815e+003, 2.034483e-002
3.403744e+003, 2.005090e-002
3.405672e+003, 1.991260e-002
3.407601e+003, 1.953888e-002
3.409529e+003, 1.953824e-002
3.411458e+003, 1.910371e-002
3.413386e+003, 1.843891e-002
3.415314e+003, 1.819989e-002
3.417243e+003, 1.875238e-002
3.419171e+003, 1.896749e-002
3.421100e+003, 1.825559e-002
3.423028e+003, 1.847318e-002
3.424957e+003, 1.969749e-002
3.426885e+003, 2.008485e-002
3.428814e+003, 1.886536e-002
3.430742e+003, 1.917786e-002
3.432671e+003, 2.135193e-002
3.434599e+003, 2.120259e-002
3.436528e+003, 2.049097e-002
3.438456e+003, 1.935411e-002
3.440385e+003, 1.859576e-002
3.442313e+003, 1.899722e-002
3.444241e+003, 1.839009e-002
3.446170e+003, 1.763392e-002
3.448098e+003, 1.751849e-002
3.450027e+003, 1.822866e-002
3.451955e+003, 1.861833e-002
3.453884e+003, 1.863410e-002
3.455812e+003, 1.977985e-002
3.457741e+003, 1.976032e-002
3.459669e+003, 1.999174e-002
3.461598e+003, 2.011058e-002
3.463526e+003, 2.101246e-002
3.465455e+003, 2.093307e-002
3.467383e+003, 1.990896e-002
3.469312e+003, 1.946231e-002
3.471240e+003, 1.851353e-002
3.473168e+003, 1.853488e-002
3.475097e+003, 2.006111e-002
3.477025e+003, 1.936173e-002
3.478954e+003, 1.895068e-002
3.480882e+003, 1.870788e-002
3.482811e+003, 1.865752e-002
3.484739e+003, 1.855375e-002
3.486668e+003, 1.810454e-002
3.488596e+003, 1.708855e-002
3.490525e+003, 1.870814e-002
3.492453e+003, 1.899183e-002
3.494382e+003, 1.867778e-002
3.496310e+003, 1.903442e-002
3.498239e+003, 2.022364e-002
3.500167e+003, 1.986928e-002
3.502095e+003, 1.787858e-002
3.504024e+003, 1.840755e-002
3.505952e+003, 1.961767e-002
3.507881e+003, 2.018465e-002
3.509809e+003, 2.128689e-002
3.511738e+003, 2.159797e-002
3.513666e+003, 2.005477e-002
3.515595e+003, 1.848129e-002
3.517523e+003, 1.858520e-002
3.519452e+003, 1.943900e-002
3.521380e+003, 1.919469e-002
3.523309e+003, 1.898704e-002
3.525237e+003, 1.923112e-002
3.527166e+003, 1.798305e-002
3.529094e+003, 1.763056e-002
3.531022e+003, 1.811561e-002
3.532951e+003, 1.827187e-002
3.534879e+003, 1.700464e-002
3.536808e+003, 1.701054e-002
3.538736e+003, 1.767770e-002
3.540665e+003, 1.858259e-002
3.542593e+003, 2.000424e-002
3.544522e+003, 2.018520e-002
3.546450e+003, 1.940118e-002
3.548379e+003, 1.943181e-002
3.550307e+003, 1.882193e-002
3.552236e+003, 1.853824e-002
3.554164e+003, 1.961235e-002
3.556093e+003, 1.897414e-002
3.558021e+003, 1.951582e-002
3.559949e+003, 2.073434e-002
3.561878e+003, 1.853696e-002
3.563806e+003, 1.883906e-002
3.565735e+003, 2.030806e-002
3.567663e+003, 2.071589e-002
3.569592e+003, 2.097592e-002
3.571520e+003, 2.036344e-002
3.573449e+003, 1.923313e-002
3.575377e+003, 1.979814e-002
3.577306e+003, 1.889315e-002
3.579234e+003, 1.874755e-002
3.581163e+003, 1.935889e-002
3.583091e+003, 1.985601e-002
3.585020e+003, 2.029918e-002
3.586948e+003, 2.082787e-002
3.588876e+003, 2.006837e-002
3.590805e+003, 2.010888e-002
3.592733e+003, 1.931595e-002
3.594662e+003, 1.727578e-002
3.596590e+003, 1.676055e-002
3.598519e+003, 1.820353e-002
3.600447e+003, 1.856395e-002
3.602376e+003, 1.850185e-002
3.604304e+003, 1.874845e-002
3.606233e+003, 1.923896e-002
3.608161e+003, 1.941840e-002
3.610090e+003, 1.991144e-002
3.612018e+003, 1.895317e-002
3.613947e+003, 1.860777e-002
3.615875e+003, 1.946296e-002
3.617803e+003, 1.995709e-002
3.619732e+003, 1.941823e-002
3.621660e+003, 1.902018e-002
3.623589e+003, 1.959937e-002
3.625517e+003, 1.957644e-002
3.627446e+003, 1.909423e-002
3.629374e+003, 2.015370e-002
3.631303e+003, 2.066094e-002
3.633231e+003, 1.940063e-002
3.635160e+003, 2.010763e-002
3.637088e+003, 1.976578e-002
3.639017e+003, 1.816273e-002
3.640945e+003, 1.788343e-002
3.642874e+003, 1.970522e-002
3.644802e+003, 2.141911e-002
3.646730e+003, 2.210952e-002
3.648659e+003, 2.170815e-002
3.650587e+003, 2.063312e-002
3.652516e+003, 2.050135e-002
3.654444e+003, 2.009769e-002
3.656373e+003, 1.998520e-002
3.658301e+003, 1.907153e-002
3.660230e+003, 1.853167e-002
3.662158e+003, 1.969299e-002
3.664087e+003, 1.969738e-002
3.666015e+003, 1.934715e-002
3.667944e+003, 1.991425e-002
3.669872e+003, 1.988923e-002
3.671801e+003, 1.907504e-002
3.673729e+003, 1.760647e-002
3.675657e+003, 1.772368e-002
3.677586e+003, 1.835838e-002
3.679514e+003, 1.853636e-002
3.681443e+003, 1.732821e-002
3.683371e+003, 1.812035e-002
3.685300e+003, 1.912683e-002
3.687228e+003, 1.929074e-002
3.689157e+003, 1.888034e-002
3.691085e+003, 2.012941e-002
3.693014e+003, 2.132708e-002
3.694942e+003, 2.279775e-002
3.696871e+003, 2.157262e-002
3.698799e+003, 2.043755e-002
3.700728e+003, 1.976106e-002
3.702656e+003, 1.870848e-002
3.704584e+003, 1.956543e-002
3.706513e+003, 1.821088e-002
3.708441e+003, 1.812913e-002
3.710370e+003, 1.996440e-002
3.712298e+003, 2.108960e-002
3.714227e+003, 2.199621e-002
3.716155e+003, 2.138015e-002
3.718084e+003, 2.083634e-002
3.720012e+003, 2.059189e-002
3.721941e+003, 2.090320e-002
3.723869e+003, 2.099749e-002
3.725798e+003, 2.069524e-002
3.727726e+003, 2.042878e-002
3.729655e+003, 2.188862e-002
3.731583e+003, 2.190178e-002
3.733511e+003, 2.141834e-002
3.735440e+003, 2.070838e-002
3.737368e+003, 2.132999e-002
3.739297e+003, 2.144404e-002
3.741225e+003, 1.962634e-002
3.743154e+003, 1.994732e-002
3.745082e+003, 1.968968e-002
3.747011e+003, 1.823617e-002
3.748939e+003, 1.961849e-002
3.750868e+003, 2.238898e-002
3.752796e+003, 2.305561e-002
3.754725e+003, 2.184320e-002
3.756653e+003, 2.063886e-002
3.758582e+003, 2.044195e-002
3.760510e+003, 1.943870e-002
3.762438e+003, 1.858146e-002
3.764367e+003, 2.024374e-002
3.766295e+003, 2.091863e-002
3.768224e+003, 1.962528e-002
3.770152e+003, 1.951973e-002
3.772081e+003, 1.990755e-002
3.774009e+003, 1.947184e-002
3.775938e+003, 1.942851e-002
3.777866e+003, 1.874311e-002
3.779795e+003, 1.894816e-002
3.781723e+003, 2.008179e-002
3.783652e+003, 2.002377e-002
3.785580e+003, 1.851298e-002
3.787509e+003, 1.872224e-002
3.789437e+003, 1.896411e-002
3.791365e+003, 2.058570e-002
3.793294e+003, 2.101120e-002
3.795222e+003, 2.117274e-002
3.797151e+003, 2.108460e-002
3.799079e+003, 2.165012e-002
3.801008e+003, 2.148422e-002
3.802936e+003, 2.137138e-002
3.804865e+003, 2.057729e-002
3.806793e+003, 2.039779e-002
3.808722e+003, 2.129839e-002
3.810650e+003, 2.188359e-002
3.812579e+003, 2.284728e-002
3.814507e+003, 2.195439e-002
3.816436e+003, 2.011689e-002
3.818364e+003, 2.137694e-002
3.820292e+003, 2.340051e-002
3.822221e+003, 2.315420e-002
3.824149e+003, 2.137105e-002
3.826078e+003, 2.145432e-002
3.828006e+003, 2.018607e-002
3.829935e+003, 2.001616e-002
3.831863e+003, 2.096521e-002
3.833792e+003, 2.197981e-002
3.835720e+003, 2.158332e-002
3.837649e+003, 2.171262e-002
3.839577e+003, 2.209475e-002
3.841506e+003, 2.194512e-002
3.843434e+003, 2.014886e-002
3.845363e+003, 2.062162e-002
3.847291e+003, 2.192186e-002
3.849219e+003, 2.245643e-002
3.851148e+003, 2.387204e-002
3.853076e+003, 2.429977e-002
3.855005e+003, 2.216045e-002
3.856933e+003, 2.114832e-002
3.858862e+003, 2.109359e-002
3.860790e+003, 2.105187e-002
3.862719e+003, 1.995427e-002
3.864647e+003, 2.063157e-002
3.866576e+003, 2.157680e-002
3.868504e+003, 2.127440e-002
3.870433e+003, 1.964039e-002
3.872361e+003, 2.161772e-002
3.874290e+003, 2.248116e-002
3.876218e+003, 2.190814e-002
3.878146e+003, 2.212817e-002
3.880075e+003, 2.302168e-002
3.882003e+003, 2.256543e-002
3.883932e+003, 2.143162e-002
3.885860e+003, 2.088970e-002
3.887789e+003, 2.056718e-002
3.889717e+003, 2.108883e-002
3.891646e+003, 2.127397e-002
3.893574e+003, 2.041891e-002
3.895503e+003, 2.157039e-002
3.897431e+003, 2.285548e-002
3.899360e+003, 2.341567e-002
3.901288e+003, 2.400576e-002
3.903217e+003, 2.373923e-002
3.905145e+003, 2.300173e-002
3.907073e+003, 2.125793e-002
3.909002e+003, 2.081080e-002
3.910930e+003, 2.085072e-002
3.912859e+003, 2.150574e-002
3.914787e+003, 2.236775e-002
3.916716e+003, 2.172704e-002
3.918644e+003, 2.104655e-002
3.920573e+003, 1.992645e-002
3.922501e+003, 2.116920e-002
3.924430e+003, 2.318353e-002
3.926358e+003, 2.091347e-002
3.928287e+003, 1.981862e-002
3.930215e+003, 2.107657e-002
3.932144e+003, 2.135204e-002
3.934072e+003, 2.147254e-002
3.936000e+003, 2.058993e-002
3.937929e+003, 2.137057e-002
3.939857e+003, 2.195387e-002
3.941786e+003, 2.240824e-002
3.943714e+003, 2.196415e-002
3.945643e+003, 2.247397e-002
3.947571e+003, 2.359668e-002
3.949500e+003, 2.480227e-002
3.951428e+003, 2.346030e-002
3.953357e+003, 2.238066e-002
3.955285e+003, 2.153271e-002
3.957214e+003, 2.258265e-002
3.959142e+003, 2.342832e-002
3.961071e+003, 2.119043e-002
3.962999e+003, 1.898435e-002
3.964927e+003, 1.987919e-002
3.966856e+003, 2.162133e-002
3.968784e+003, 2.297058e-002
3.970713e+003, 2.436080e-002
3.972641e+003, 2.410917e-002
3.974570e+003, 2.177601e-002
3.976498e+003, 2.237147e-002
3.978427e+003, 2.308569e-002
3.980355e+003, 2.272381e-002
3.982284e+003, 2.039962e-002
3.984212e+003, 2.077712e-002
3.986141e+003, 2.329633e-002
3.988069e+003, 2.474321e-002
3.989998e+003, 2.437447e-002
3.991926e+003, 2.342801e-002
3.993854e+003, 2.269289e-002
3.995783e+003, 2.348044e-002
3.997711e+003, 2.550741e-002
3.999640e+003, 2.552028e-002
##END=



