##NAMES=Wittichenite
##RRUFFID=R050327
##IDEAL CHEMISTRY=Cu_3_BiS_3_
##LOCALITY=Grube Daniel, Wittichen, Schwarzwald, Germany
##OWNER=RRUFF
##SOURCE=Marcus Origlieri
##DESCRIPTION=Tin-white metallic blebs
##STATUS=The identification of this mineral has been confirmed by X-ray diffraction and chemical analysis
##URL=rruff.info/R050327
##MEASURED CHEMISTRY=Cu_3.00_Bi_1.00_S_3.00_
3.991926e+002, 1.943972e-001
4.011211e+002, 1.988289e-001
4.030495e+002, 1.955899e-001
4.049780e+002, 1.937679e-001
4.069065e+002, 1.924412e-001
4.088349e+002, 1.926953e-001
4.107634e+002, 1.930697e-001
4.126919e+002, 1.969367e-001
4.146203e+002, 1.983254e-001
4.165488e+002, 1.957572e-001
4.184773e+002, 1.968111e-001
4.204057e+002, 1.987589e-001
4.223342e+002, 1.976943e-001
4.242627e+002, 1.968526e-001
4.261911e+002, 1.965778e-001
4.281196e+002, 1.966554e-001
4.300481e+002, 1.972723e-001
4.319765e+002, 1.985650e-001
4.339050e+002, 1.985641e-001
4.358335e+002, 1.979447e-001
4.377619e+002, 1.975026e-001
4.396904e+002, 2.002480e-001
4.416189e+002, 2.010420e-001
4.435473e+002, 2.002550e-001
4.454758e+002, 1.992857e-001
4.474043e+002, 2.001815e-001
4.493327e+002, 2.002329e-001
4.512612e+002, 1.994229e-001
4.531897e+002, 1.995225e-001
4.551181e+002, 2.012546e-001
4.570466e+002, 2.019186e-001
4.589751e+002, 2.026335e-001
4.609035e+002, 2.024609e-001
4.628320e+002, 2.029978e-001
4.647605e+002, 2.029171e-001
4.666889e+002, 2.029590e-001
4.686174e+002, 2.034051e-001
4.705459e+002, 2.036231e-001
4.724743e+002, 2.039648e-001
4.744028e+002, 2.041049e-001
4.763313e+002, 2.042397e-001
4.782597e+002, 2.047961e-001
4.801882e+002, 2.050674e-001
4.821167e+002, 2.044167e-001
4.840451e+002, 2.050514e-001
4.859736e+002, 2.062036e-001
4.879021e+002, 2.062181e-001
4.898305e+002, 2.065501e-001
4.917590e+002, 2.069379e-001
4.936875e+002, 2.073283e-001
4.956159e+002, 2.071167e-001
4.975444e+002, 2.081330e-001
4.994729e+002, 2.084861e-001
5.014013e+002, 2.082243e-001
5.033298e+002, 2.080177e-001
5.052583e+002, 2.086366e-001
5.071867e+002, 2.097857e-001
5.091152e+002, 2.094209e-001
5.110437e+002, 2.093397e-001
5.129721e+002, 2.097282e-001
5.149006e+002, 2.093158e-001
5.168290e+002, 2.095678e-001
5.187575e+002, 2.097216e-001
5.206860e+002, 2.100294e-001
5.226144e+002, 2.098463e-001
5.245429e+002, 2.098792e-001
5.264714e+002, 2.096834e-001
5.283998e+002, 2.089474e-001
5.303283e+002, 2.089444e-001
5.322568e+002, 2.090055e-001
5.341852e+002, 2.097379e-001
5.361137e+002, 2.103406e-001
5.380422e+002, 2.099633e-001
5.399706e+002, 2.095496e-001
5.418991e+002, 2.104775e-001
5.438276e+002, 2.107815e-001
5.457560e+002, 2.098734e-001
5.476845e+002, 2.095990e-001
5.496130e+002, 2.094001e-001
5.515414e+002, 2.095920e-001
5.534699e+002, 2.099269e-001
5.553984e+002, 2.100551e-001
5.573268e+002, 2.104315e-001
5.592553e+002, 2.106757e-001
5.611838e+002, 2.106298e-001
5.631122e+002, 2.108049e-001
5.650407e+002, 2.118271e-001
5.669692e+002, 2.126052e-001
5.688976e+002, 2.122285e-001
5.708261e+002, 2.124893e-001
5.727546e+002, 2.131597e-001
5.746830e+002, 2.141956e-001
5.766115e+002, 2.147270e-001
5.785400e+002, 2.148207e-001
5.804684e+002, 2.153463e-001
5.823969e+002, 2.162032e-001
5.843254e+002, 2.170060e-001
5.862538e+002, 2.180818e-001
5.881823e+002, 2.188934e-001
5.901108e+002, 2.194592e-001
5.920392e+002, 2.201335e-001
5.939677e+002, 2.206549e-001
5.958962e+002, 2.211148e-001
5.978246e+002, 2.214583e-001
5.997531e+002, 2.219268e-001
6.016816e+002, 2.226875e-001
6.036100e+002, 2.232043e-001
6.055385e+002, 2.230418e-001
6.074670e+002, 2.227916e-001
6.093954e+002, 2.217789e-001
6.113239e+002, 2.204186e-001
6.132524e+002, 2.187238e-001
6.151808e+002, 2.171678e-001
6.171093e+002, 2.159441e-001
6.190378e+002, 2.155620e-001
6.209662e+002, 2.153583e-001
6.228947e+002, 2.153236e-001
6.248232e+002, 2.155828e-001
6.267516e+002, 2.159480e-001
6.286801e+002, 2.164880e-001
6.306086e+002, 2.169688e-001
6.325370e+002, 2.168026e-001
6.344655e+002, 2.161948e-001
6.363940e+002, 2.156285e-001
6.383224e+002, 2.151195e-001
6.402509e+002, 2.144525e-001
6.421794e+002, 2.137436e-001
6.441078e+002, 2.135638e-001
6.460363e+002, 2.135375e-001
6.479648e+002, 2.136473e-001
6.498932e+002, 2.138396e-001
6.518217e+002, 2.141815e-001
6.537502e+002, 2.145890e-001
6.556786e+002, 2.151196e-001
6.576071e+002, 2.159054e-001
6.595356e+002, 2.167179e-001
6.614641e+002, 2.174325e-001
6.633925e+002, 2.182284e-001
6.653210e+002, 2.192150e-001
6.672495e+002, 2.201512e-001
6.691779e+002, 2.204768e-001
6.711064e+002, 2.205391e-001
6.730349e+002, 2.209727e-001
6.749633e+002, 2.216289e-001
6.768918e+002, 2.223298e-001
6.788203e+002, 2.227986e-001
6.807487e+002, 2.234418e-001
6.826772e+002, 2.239160e-001
6.846057e+002, 2.243942e-001
6.865341e+002, 2.249295e-001
6.884626e+002, 2.255119e-001
6.903911e+002, 2.261277e-001
6.923195e+002, 2.266634e-001
6.942480e+002, 2.269125e-001
6.961765e+002, 2.274599e-001
6.981049e+002, 2.279083e-001
7.000334e+002, 2.284801e-001
7.019619e+002, 2.284291e-001
7.038903e+002, 2.290620e-001
7.058188e+002, 2.296193e-001
7.077473e+002, 2.298850e-001
7.096757e+002, 2.303583e-001
7.116042e+002, 2.309193e-001
7.135327e+002, 2.312795e-001
7.154611e+002, 2.316767e-001
7.173896e+002, 2.321355e-001
7.193181e+002, 2.326014e-001
7.212465e+002, 2.326643e-001
7.231750e+002, 2.331213e-001
7.251035e+002, 2.339111e-001
7.270319e+002, 2.342147e-001
7.289604e+002, 2.344550e-001
7.308889e+002, 2.346820e-001
7.328173e+002, 2.349535e-001
7.347458e+002, 2.353949e-001
7.366743e+002, 2.360018e-001
7.386027e+002, 2.366284e-001
7.405312e+002, 2.371259e-001
7.424597e+002, 2.373292e-001
7.443881e+002, 2.375666e-001
7.463166e+002, 2.379720e-001
7.482451e+002, 2.381741e-001
7.501735e+002, 2.385759e-001
7.521020e+002, 2.392304e-001
7.540305e+002, 2.396029e-001
7.559589e+002, 2.398587e-001
7.578874e+002, 2.401622e-001
7.598159e+002, 2.407718e-001
7.617443e+002, 2.414486e-001
7.636728e+002, 2.416985e-001
7.656013e+002, 2.417895e-001
7.675297e+002, 2.422638e-001
7.694582e+002, 2.425581e-001
7.713867e+002, 2.427350e-001
7.733151e+002, 2.429139e-001
7.752436e+002, 2.434242e-001
7.771721e+002, 2.440281e-001
7.791005e+002, 2.441359e-001
7.810290e+002, 2.443398e-001
7.829575e+002, 2.447976e-001
7.848859e+002, 2.448359e-001
7.868144e+002, 2.448419e-001
7.887429e+002, 2.450866e-001
7.906713e+002, 2.456764e-001
7.925998e+002, 2.460609e-001
7.945283e+002, 2.460437e-001
7.964567e+002, 2.465176e-001
7.983852e+002, 2.466735e-001
8.003137e+002, 2.465103e-001
8.022421e+002, 2.464546e-001
8.041706e+002, 2.467850e-001
8.060991e+002, 2.471296e-001
8.080275e+002, 2.474085e-001
8.099560e+002, 2.478033e-001
8.118845e+002, 2.479173e-001
8.138129e+002, 2.478339e-001
8.157414e+002, 2.479672e-001
8.176699e+002, 2.483134e-001
8.195983e+002, 2.484488e-001
8.215268e+002, 2.487045e-001
8.234553e+002, 2.491690e-001
8.253837e+002, 2.495037e-001
8.273122e+002, 2.498360e-001
8.292407e+002, 2.500097e-001
8.311691e+002, 2.503129e-001
8.330976e+002, 2.505709e-001
8.350261e+002, 2.510329e-001
8.369545e+002, 2.513874e-001
8.388830e+002, 2.518721e-001
8.408115e+002, 2.524790e-001
8.427399e+002, 2.533846e-001
8.446684e+002, 2.539275e-001
8.465969e+002, 2.532276e-001
8.485253e+002, 2.518572e-001
8.504538e+002, 2.511738e-001
8.523823e+002, 2.512318e-001
8.543107e+002, 2.516956e-001
8.562392e+002, 2.521383e-001
8.581677e+002, 2.530254e-001
8.600961e+002, 2.535795e-001
8.620246e+002, 2.538588e-001
8.639531e+002, 2.540809e-001
8.658815e+002, 2.543756e-001
8.678100e+002, 2.548052e-001
8.697385e+002, 2.552123e-001
8.716669e+002, 2.556833e-001
8.735954e+002, 2.560912e-001
8.755239e+002, 2.563681e-001
8.774523e+002, 2.566862e-001
8.793808e+002, 2.568703e-001
8.813093e+002, 2.572483e-001
8.832377e+002, 2.577584e-001
8.851662e+002, 2.582766e-001
8.870947e+002, 2.587658e-001
8.890231e+002, 2.591750e-001
8.909516e+002, 2.593606e-001
8.928801e+002, 2.596071e-001
8.948085e+002, 2.600574e-001
8.967370e+002, 2.603370e-001
8.986655e+002, 2.607802e-001
9.005939e+002, 2.611159e-001
9.025224e+002, 2.615289e-001
9.044509e+002, 2.621036e-001
9.063793e+002, 2.624148e-001
9.083078e+002, 2.627362e-001
9.102363e+002, 2.632013e-001
9.121647e+002, 2.634715e-001
9.140932e+002, 2.636220e-001
9.160217e+002, 2.641586e-001
9.179501e+002, 2.647073e-001
9.198786e+002, 2.652168e-001
9.218071e+002, 2.656627e-001
9.237355e+002, 2.660491e-001
9.256640e+002, 2.662854e-001
9.275925e+002, 2.668334e-001
9.295209e+002, 2.672907e-001
9.314494e+002, 2.675751e-001
9.333779e+002, 2.679490e-001
9.353063e+002, 2.683388e-001
9.372348e+002, 2.687649e-001
9.391633e+002, 2.690934e-001
9.410917e+002, 2.692579e-001
9.430202e+002, 2.696445e-001
9.449487e+002, 2.701158e-001
9.468771e+002, 2.705451e-001
9.488056e+002, 2.708426e-001
9.507341e+002, 2.711281e-001
9.526625e+002, 2.715248e-001
9.545910e+002, 2.718603e-001
9.565195e+002, 2.720327e-001
9.584479e+002, 2.723968e-001
9.603764e+002, 2.726580e-001
9.623049e+002, 2.729511e-001
9.642333e+002, 2.732042e-001
9.661618e+002, 2.736123e-001
9.680903e+002, 2.738617e-001
9.700187e+002, 2.742766e-001
9.719472e+002, 2.744722e-001
9.738757e+002, 2.749237e-001
9.758041e+002, 2.755585e-001
9.777326e+002, 2.758932e-001
9.796611e+002, 2.762443e-001
9.815895e+002, 2.767209e-001
9.835180e+002, 2.766970e-001
9.854465e+002, 2.763342e-001
9.873749e+002, 2.762929e-001
9.893034e+002, 2.767089e-001
9.912319e+002, 2.771084e-001
9.931603e+002, 2.775123e-001
9.950888e+002, 2.777638e-001
9.970173e+002, 2.779690e-001
9.989457e+002, 2.782744e-001
1.000874e+003, 2.786928e-001
1.002803e+003, 2.791453e-001
1.004731e+003, 2.795089e-001
1.006660e+003, 2.797596e-001
1.008588e+003, 2.803197e-001
1.010517e+003, 2.808246e-001
1.012445e+003, 2.812453e-001
1.014373e+003, 2.815535e-001
1.016302e+003, 2.820154e-001
1.018230e+003, 2.825055e-001
1.020159e+003, 2.828839e-001
1.022087e+003, 2.831183e-001
1.024016e+003, 2.834418e-001
1.025944e+003, 2.837369e-001
1.027873e+003, 2.840238e-001
1.029801e+003, 2.842323e-001
1.031730e+003, 2.844530e-001
1.033658e+003, 2.847613e-001
1.035587e+003, 2.851098e-001
1.037515e+003, 2.852612e-001
1.039443e+003, 2.852985e-001
1.041372e+003, 2.855568e-001
1.043300e+003, 2.861090e-001
1.045229e+003, 2.864097e-001
1.047157e+003, 2.864583e-001
1.049086e+003, 2.865778e-001
1.051014e+003, 2.868839e-001
1.052943e+003, 2.871460e-001
1.054871e+003, 2.875748e-001
1.056800e+003, 2.878386e-001
1.058728e+003, 2.881939e-001
1.060657e+003, 2.884977e-001
1.062585e+003, 2.886489e-001
1.064514e+003, 2.889934e-001
1.066442e+003, 2.891724e-001
1.068370e+003, 2.890704e-001
1.070299e+003, 2.890033e-001
1.072227e+003, 2.889098e-001
1.074156e+003, 2.887505e-001
1.076084e+003, 2.885247e-001
1.078013e+003, 2.884725e-001
1.079941e+003, 2.881857e-001
1.081870e+003, 2.879378e-001
1.083798e+003, 2.876989e-001
1.085727e+003, 2.874359e-001
1.087655e+003, 2.871658e-001
1.089584e+003, 2.868356e-001
1.091512e+003, 2.861826e-001
1.093441e+003, 2.856026e-001
1.095369e+003, 2.848686e-001
1.097297e+003, 2.841754e-001
1.099226e+003, 2.835059e-001
1.101154e+003, 2.828767e-001
1.103083e+003, 2.822884e-001
1.105011e+003, 2.818471e-001
1.106940e+003, 2.814161e-001
1.108868e+003, 2.808083e-001
1.110797e+003, 2.801327e-001
1.112725e+003, 2.796074e-001
1.114654e+003, 2.791402e-001
1.116582e+003, 2.786092e-001
1.118511e+003, 2.779696e-001
1.120439e+003, 2.775770e-001
1.122368e+003, 2.770572e-001
1.124296e+003, 2.763761e-001
1.126224e+003, 2.757601e-001
1.128153e+003, 2.752815e-001
1.130081e+003, 2.746470e-001
1.132010e+003, 2.741483e-001
1.133938e+003, 2.735113e-001
1.135867e+003, 2.730492e-001
1.137795e+003, 2.726440e-001
1.139724e+003, 2.723619e-001
1.141652e+003, 2.720293e-001
1.143581e+003, 2.717444e-001
1.145509e+003, 2.715467e-001
1.147438e+003, 2.713727e-001
1.149366e+003, 2.712475e-001
1.151295e+003, 2.710131e-001
1.153223e+003, 2.708646e-001
1.155151e+003, 2.707658e-001
1.157080e+003, 2.705359e-001
1.159008e+003, 2.704916e-001
1.160937e+003, 2.703868e-001
1.162865e+003, 2.703137e-001
1.164794e+003, 2.702019e-001
1.166722e+003, 2.700573e-001
1.168651e+003, 2.700154e-001
1.170579e+003, 2.698565e-001
1.172508e+003, 2.695991e-001
1.174436e+003, 2.695369e-001
1.176365e+003, 2.692350e-001
1.178293e+003, 2.690324e-001
1.180222e+003, 2.688925e-001
1.182150e+003, 2.685958e-001
1.184078e+003, 2.682382e-001
1.186007e+003, 2.679037e-001
1.187935e+003, 2.675702e-001
1.189864e+003, 2.671157e-001
1.191792e+003, 2.665635e-001
1.193721e+003, 2.661443e-001
1.195649e+003, 2.656924e-001
1.197578e+003, 2.653375e-001
1.199506e+003, 2.650052e-001
1.201435e+003, 2.646618e-001
1.203363e+003, 2.643313e-001
1.205292e+003, 2.644463e-001
1.207220e+003, 2.646323e-001
1.209149e+003, 2.646406e-001
1.211077e+003, 2.646559e-001
1.213005e+003, 2.648055e-001
1.214934e+003, 2.650673e-001
1.216862e+003, 2.653655e-001
1.218791e+003, 2.659069e-001
1.220719e+003, 2.663574e-001
1.222648e+003, 2.666166e-001
1.224576e+003, 2.669854e-001
1.226505e+003, 2.672702e-001
1.228433e+003, 2.675626e-001
1.230362e+003, 2.680326e-001
1.232290e+003, 2.685179e-001
1.234219e+003, 2.689171e-001
1.236147e+003, 2.694757e-001
1.238076e+003, 2.699488e-001
1.240004e+003, 2.704180e-001
1.241932e+003, 2.708789e-001
1.243861e+003, 2.714021e-001
1.245789e+003, 2.718012e-001
1.247718e+003, 2.720574e-001
1.249646e+003, 2.724896e-001
1.251575e+003, 2.731355e-001
1.253503e+003, 2.737020e-001
1.255432e+003, 2.741807e-001
1.257360e+003, 2.745831e-001
1.259289e+003, 2.750874e-001
1.261217e+003, 2.753930e-001
1.263146e+003, 2.757486e-001
1.265074e+003, 2.761776e-001
1.267003e+003, 2.766283e-001
1.268931e+003, 2.770810e-001
1.270859e+003, 2.776388e-001
1.272788e+003, 2.781067e-001
1.274716e+003, 2.785541e-001
1.276645e+003, 2.790560e-001
1.278573e+003, 2.794601e-001
1.280502e+003, 2.797504e-001
1.282430e+003, 2.802334e-001
1.284359e+003, 2.805222e-001
1.286287e+003, 2.807636e-001
1.288216e+003, 2.813020e-001
1.290144e+003, 2.818632e-001
1.292073e+003, 2.822070e-001
1.294001e+003, 2.825893e-001
1.295930e+003, 2.830152e-001
1.297858e+003, 2.834901e-001
1.299786e+003, 2.837228e-001
1.301715e+003, 2.840787e-001
1.303643e+003, 2.845582e-001
1.305572e+003, 2.849808e-001
1.307500e+003, 2.852952e-001
1.309429e+003, 2.857115e-001
1.311357e+003, 2.861286e-001
1.313286e+003, 2.865454e-001
1.315214e+003, 2.866347e-001
1.317143e+003, 2.869048e-001
1.319071e+003, 2.872318e-001
1.321000e+003, 2.874950e-001
1.322928e+003, 2.880135e-001
1.324857e+003, 2.886946e-001
1.326785e+003, 2.889630e-001
1.328714e+003, 2.893029e-001
1.330642e+003, 2.896894e-001
1.332570e+003, 2.899598e-001
1.334499e+003, 2.901715e-001
1.336427e+003, 2.904651e-001
1.338356e+003, 2.906706e-001
1.340284e+003, 2.909741e-001
1.342213e+003, 2.912832e-001
1.344141e+003, 2.915544e-001
1.346070e+003, 2.918408e-001
1.347998e+003, 2.921329e-001
1.349927e+003, 2.923594e-001
1.351855e+003, 2.925861e-001
1.353784e+003, 2.927579e-001
1.355712e+003, 2.929730e-001
1.357641e+003, 2.932803e-001
1.359569e+003, 2.936941e-001
1.361497e+003, 2.941073e-001
1.363426e+003, 2.942968e-001
1.365354e+003, 2.944012e-001
1.367283e+003, 2.946531e-001
1.369211e+003, 2.950863e-001
1.371140e+003, 2.955267e-001
1.373068e+003, 2.958373e-001
1.374997e+003, 2.961065e-001
1.376925e+003, 2.963641e-001
1.378854e+003, 2.965085e-001
1.380782e+003, 2.966143e-001
1.382711e+003, 2.969277e-001
1.384639e+003, 2.970540e-001
1.386568e+003, 2.972279e-001
1.388496e+003, 2.971314e-001
1.390424e+003, 2.970661e-001
1.392353e+003, 2.972020e-001
1.394281e+003, 2.971665e-001
1.396210e+003, 2.969226e-001
1.398138e+003, 2.968482e-001
1.400067e+003, 2.966334e-001
1.401995e+003, 2.962821e-001
1.403924e+003, 2.960494e-001
1.405852e+003, 2.959330e-001
1.407781e+003, 2.957177e-001
1.409709e+003, 2.956776e-001
1.411638e+003, 2.956822e-001
1.413566e+003, 2.956065e-001
1.415495e+003, 2.955817e-001
1.417423e+003, 2.955133e-001
1.419351e+003, 2.955135e-001
1.421280e+003, 2.953525e-001
1.423208e+003, 2.951852e-001
1.425137e+003, 2.951605e-001
1.427065e+003, 2.949947e-001
1.428994e+003, 2.950943e-001
1.430922e+003, 2.949854e-001
1.432851e+003, 2.948269e-001
1.434779e+003, 2.948911e-001
1.436708e+003, 2.948659e-001
1.438636e+003, 2.946749e-001
1.440565e+003, 2.945071e-001
1.442493e+003, 2.943026e-001
1.444422e+003, 2.941774e-001
1.446350e+003, 2.940149e-001
1.448278e+003, 2.936421e-001
1.450207e+003, 2.933828e-001
1.452135e+003, 2.933654e-001
1.454064e+003, 2.932592e-001
1.455992e+003, 2.934631e-001
1.457921e+003, 2.932709e-001
1.459849e+003, 2.927255e-001
1.461778e+003, 2.923487e-001
1.463706e+003, 2.921155e-001
1.465635e+003, 2.918179e-001
1.467563e+003, 2.916019e-001
1.469492e+003, 2.916645e-001
1.471420e+003, 2.919783e-001
1.473349e+003, 2.922339e-001
1.475277e+003, 2.922038e-001
1.477205e+003, 2.922337e-001
1.479134e+003, 2.923611e-001
1.481062e+003, 2.926097e-001
1.482991e+003, 2.927411e-001
1.484919e+003, 2.928843e-001
1.486848e+003, 2.930913e-001
1.488776e+003, 2.932572e-001
1.490705e+003, 2.934911e-001
1.492633e+003, 2.936252e-001
1.494562e+003, 2.939886e-001
1.496490e+003, 2.944817e-001
1.498419e+003, 2.945943e-001
1.500347e+003, 2.945574e-001
1.502276e+003, 2.948215e-001
1.504204e+003, 2.955323e-001
1.506132e+003, 2.962953e-001
1.508061e+003, 2.963342e-001
1.509989e+003, 2.961703e-001
1.511918e+003, 2.962785e-001
1.513846e+003, 2.964730e-001
1.515775e+003, 2.968750e-001
1.517703e+003, 2.972842e-001
1.519632e+003, 2.977221e-001
1.521560e+003, 2.980240e-001
1.523489e+003, 2.979684e-001
1.525417e+003, 2.982004e-001
1.527346e+003, 2.983620e-001
1.529274e+003, 2.986004e-001
1.531203e+003, 2.988878e-001
1.533131e+003, 2.993117e-001
1.535059e+003, 2.992505e-001
1.536988e+003, 2.995276e-001
1.538916e+003, 3.003628e-001
1.540845e+003, 3.004352e-001
1.542773e+003, 3.002725e-001
1.544702e+003, 3.002687e-001
1.546630e+003, 3.001345e-001
1.548559e+003, 3.003353e-001
1.550487e+003, 3.004951e-001
1.552416e+003, 3.005002e-001
1.554344e+003, 3.007227e-001
1.556273e+003, 3.010742e-001
1.558201e+003, 3.017676e-001
1.560130e+003, 3.019355e-001
1.562058e+003, 3.014237e-001
1.563986e+003, 3.012363e-001
1.565915e+003, 3.013356e-001
1.567843e+003, 3.016585e-001
1.569772e+003, 3.018702e-001
1.571700e+003, 3.018441e-001
1.573629e+003, 3.020178e-001
1.575557e+003, 3.024952e-001
1.577486e+003, 3.024268e-001
1.579414e+003, 3.022090e-001
1.581343e+003, 3.021332e-001
1.583271e+003, 3.020610e-001
1.585200e+003, 3.022757e-001
1.587128e+003, 3.027168e-001
1.589057e+003, 3.029661e-001
1.590985e+003, 3.030813e-001
1.592913e+003, 3.032789e-001
1.594842e+003, 3.033466e-001
1.596770e+003, 3.034342e-001
1.598699e+003, 3.035830e-001
1.600627e+003, 3.037291e-001
1.602556e+003, 3.038839e-001
1.604484e+003, 3.039460e-001
1.606413e+003, 3.038820e-001
1.608341e+003, 3.039928e-001
1.610270e+003, 3.042260e-001
1.612198e+003, 3.043823e-001
1.614127e+003, 3.046184e-001
1.616055e+003, 3.052073e-001
1.617984e+003, 3.053679e-001
1.619912e+003, 3.051767e-001
1.621840e+003, 3.053127e-001
1.623769e+003, 3.055066e-001
1.625697e+003, 3.056275e-001
1.627626e+003, 3.056311e-001
1.629554e+003, 3.057145e-001
1.631483e+003, 3.057472e-001
1.633411e+003, 3.060449e-001
1.635340e+003, 3.064494e-001
1.637268e+003, 3.062685e-001
1.639197e+003, 3.060798e-001
1.641125e+003, 3.061997e-001
1.643054e+003, 3.063428e-001
1.644982e+003, 3.068273e-001
1.646911e+003, 3.072778e-001
1.648839e+003, 3.071055e-001
1.650767e+003, 3.073476e-001
1.652696e+003, 3.081645e-001
1.654624e+003, 3.075432e-001
1.656553e+003, 3.068613e-001
1.658481e+003, 3.069782e-001
1.660410e+003, 3.072073e-001
1.662338e+003, 3.073041e-001
1.664267e+003, 3.073491e-001
1.666195e+003, 3.073943e-001
1.668124e+003, 3.077584e-001
1.670052e+003, 3.078638e-001
1.671981e+003, 3.078119e-001
1.673909e+003, 3.079756e-001
1.675838e+003, 3.081967e-001
1.677766e+003, 3.081654e-001
1.679694e+003, 3.082986e-001
1.681623e+003, 3.086520e-001
1.683551e+003, 3.093222e-001
1.685480e+003, 3.094257e-001
1.687408e+003, 3.089247e-001
1.689337e+003, 3.089069e-001
1.691265e+003, 3.091135e-001
1.693194e+003, 3.090797e-001
1.695122e+003, 3.095509e-001
1.697051e+003, 3.098901e-001
1.698979e+003, 3.101168e-001
1.700908e+003, 3.101426e-001
1.702836e+003, 3.097294e-001
1.704765e+003, 3.098141e-001
1.706693e+003, 3.099056e-001
1.708621e+003, 3.098957e-001
1.710550e+003, 3.097137e-001
1.712478e+003, 3.096384e-001
1.714407e+003, 3.099439e-001
1.716335e+003, 3.105557e-001
1.718264e+003, 3.106704e-001
1.720192e+003, 3.101908e-001
1.722121e+003, 3.101217e-001
1.724049e+003, 3.101627e-001
1.725978e+003, 3.099804e-001
1.727906e+003, 3.098933e-001
1.729835e+003, 3.097787e-001
1.731763e+003, 3.099960e-001
1.733692e+003, 3.104282e-001
1.735620e+003, 3.097604e-001
1.737548e+003, 3.093935e-001
1.739477e+003, 3.095632e-001
1.741405e+003, 3.095776e-001
1.743334e+003, 3.095163e-001
1.745262e+003, 3.096139e-001
1.747191e+003, 3.100103e-001
1.749119e+003, 3.104047e-001
1.751048e+003, 3.107903e-001
1.752976e+003, 3.111196e-001
1.754905e+003, 3.114932e-001
1.756833e+003, 3.118242e-001
1.758762e+003, 3.120247e-001
1.760690e+003, 3.125584e-001
1.762619e+003, 3.128447e-001
1.764547e+003, 3.130224e-001
1.766475e+003, 3.131238e-001
1.768404e+003, 3.132029e-001
1.770332e+003, 3.135985e-001
1.772261e+003, 3.139765e-001
1.774189e+003, 3.138734e-001
1.776118e+003, 3.137234e-001
1.778046e+003, 3.138006e-001
1.779975e+003, 3.141738e-001
1.781903e+003, 3.142504e-001
1.783832e+003, 3.143579e-001
1.785760e+003, 3.145466e-001
1.787689e+003, 3.145276e-001
1.789617e+003, 3.145386e-001
1.791546e+003, 3.147390e-001
1.793474e+003, 3.149780e-001
1.795402e+003, 3.151465e-001
1.797331e+003, 3.152606e-001
1.799259e+003, 3.152865e-001
1.801188e+003, 3.152927e-001
1.803116e+003, 3.152221e-001
1.805045e+003, 3.152167e-001
1.806973e+003, 3.154112e-001
1.808902e+003, 3.154364e-001
1.810830e+003, 3.155741e-001
1.812759e+003, 3.156494e-001
1.814687e+003, 3.156659e-001
1.816616e+003, 3.157421e-001
1.818544e+003, 3.157013e-001
1.820473e+003, 3.157345e-001
1.822401e+003, 3.158505e-001
1.824329e+003, 3.161086e-001
1.826258e+003, 3.163917e-001
1.828186e+003, 3.163702e-001
1.830115e+003, 3.165061e-001
1.832043e+003, 3.165745e-001
1.833972e+003, 3.164261e-001
1.835900e+003, 3.161987e-001
1.837829e+003, 3.164011e-001
1.839757e+003, 3.165716e-001
1.841686e+003, 3.165788e-001
1.843614e+003, 3.167147e-001
1.845543e+003, 3.167225e-001
1.847471e+003, 3.165110e-001
1.849400e+003, 3.164979e-001
1.851328e+003, 3.168076e-001
1.853256e+003, 3.171287e-001
1.855185e+003, 3.170582e-001
1.857113e+003, 3.168671e-001
1.859042e+003, 3.169100e-001
1.860970e+003, 3.173973e-001
1.862899e+003, 3.176377e-001
1.864827e+003, 3.175400e-001
1.866756e+003, 3.173654e-001
1.868684e+003, 3.178330e-001
1.870613e+003, 3.179390e-001
1.872541e+003, 3.176978e-001
1.874470e+003, 3.178081e-001
1.876398e+003, 3.177865e-001
1.878327e+003, 3.175137e-001
1.880255e+003, 3.173423e-001
1.882183e+003, 3.173550e-001
1.884112e+003, 3.174599e-001
1.886040e+003, 3.178856e-001
1.887969e+003, 3.178326e-001
1.889897e+003, 3.179274e-001
1.891826e+003, 3.185915e-001
1.893754e+003, 3.189978e-001
1.895683e+003, 3.191231e-001
1.897611e+003, 3.191529e-001
1.899540e+003, 3.193843e-001
1.901468e+003, 3.192057e-001
1.903397e+003, 3.192558e-001
1.905325e+003, 3.195601e-001
1.907254e+003, 3.200020e-001
1.909182e+003, 3.194995e-001
1.911110e+003, 3.192413e-001
1.913039e+003, 3.199264e-001
1.914967e+003, 3.202687e-001
1.916896e+003, 3.204018e-001
1.918824e+003, 3.204216e-001
1.920753e+003, 3.201554e-001
1.922681e+003, 3.209791e-001
1.924610e+003, 3.210844e-001
1.926538e+003, 3.205627e-001
1.928467e+003, 3.206278e-001
1.930395e+003, 3.206255e-001
1.932324e+003, 3.205817e-001
1.934252e+003, 3.208115e-001
1.936181e+003, 3.205778e-001
1.938109e+003, 3.202412e-001
1.940037e+003, 3.206072e-001
1.941966e+003, 3.213049e-001
1.943894e+003, 3.216789e-001
1.945823e+003, 3.211791e-001
1.947751e+003, 3.211727e-001
1.949680e+003, 3.218130e-001
1.951608e+003, 3.219505e-001
1.953537e+003, 3.219661e-001
1.955465e+003, 3.211160e-001
1.957394e+003, 3.212249e-001
1.959322e+003, 3.223645e-001
1.961251e+003, 3.227530e-001
1.963179e+003, 3.230316e-001
1.965108e+003, 3.234058e-001
1.967036e+003, 3.224764e-001
1.968964e+003, 3.222136e-001
1.970893e+003, 3.229557e-001
1.972821e+003, 3.230138e-001
1.974750e+003, 3.222380e-001
1.976678e+003, 3.226452e-001
1.978607e+003, 3.234974e-001
1.980535e+003, 3.230286e-001
1.982464e+003, 3.237512e-001
1.984392e+003, 3.240555e-001
1.986321e+003, 3.230077e-001
1.988249e+003, 3.221948e-001
1.990178e+003, 3.230322e-001
1.992106e+003, 3.247788e-001
1.994035e+003, 3.250344e-001
1.995963e+003, 3.245356e-001
1.997891e+003, 3.247624e-001
1.999820e+003, 3.252389e-001
2.001748e+003, 3.250645e-001
2.003677e+003, 3.241895e-001
2.005605e+003, 3.242210e-001
2.007534e+003, 3.254624e-001
2.009462e+003, 3.255096e-001
2.011391e+003, 3.253505e-001
2.013319e+003, 3.251102e-001
2.015248e+003, 3.248238e-001
2.017176e+003, 3.255040e-001
2.019105e+003, 3.262511e-001
2.021033e+003, 3.261661e-001
2.022962e+003, 3.249006e-001
2.024890e+003, 3.250636e-001
2.026818e+003, 3.264763e-001
2.028747e+003, 3.285705e-001
2.030675e+003, 3.284672e-001
2.032604e+003, 3.280540e-001
2.034532e+003, 3.269355e-001
2.036461e+003, 3.248731e-001
2.038389e+003, 3.255995e-001
2.040318e+003, 3.270849e-001
2.042246e+003, 3.277771e-001
2.044175e+003, 3.277698e-001
2.046103e+003, 3.269242e-001
2.048031e+003, 3.262486e-001
2.049960e+003, 3.269399e-001
2.051888e+003, 3.276757e-001
2.053817e+003, 3.283365e-001
2.055745e+003, 3.283603e-001
2.057674e+003, 3.290846e-001
2.059602e+003, 3.282763e-001
2.061531e+003, 3.273929e-001
2.063459e+003, 3.276818e-001
2.065388e+003, 3.284975e-001
2.067316e+003, 3.284477e-001
2.069245e+003, 3.280667e-001
2.071173e+003, 3.287429e-001
2.073102e+003, 3.291499e-001
2.075030e+003, 3.290439e-001
2.076958e+003, 3.283059e-001
2.078887e+003, 3.283083e-001
2.080815e+003, 3.291790e-001
2.082744e+003, 3.291968e-001
2.084672e+003, 3.293747e-001
2.086601e+003, 3.291589e-001
2.088529e+003, 3.296270e-001
2.090458e+003, 3.295178e-001
2.092386e+003, 3.295307e-001
2.094315e+003, 3.297606e-001
2.096243e+003, 3.301260e-001
2.098172e+003, 3.307154e-001
2.100100e+003, 3.309469e-001
2.102029e+003, 3.309431e-001
2.103957e+003, 3.310500e-001
2.105885e+003, 3.308873e-001
2.107814e+003, 3.310653e-001
2.109742e+003, 3.310727e-001
2.111671e+003, 3.304645e-001
2.113599e+003, 3.302585e-001
2.115528e+003, 3.310296e-001
2.117456e+003, 3.312079e-001
2.119385e+003, 3.310810e-001
2.121313e+003, 3.306286e-001
2.123242e+003, 3.314165e-001
2.125170e+003, 3.318092e-001
2.127099e+003, 3.316103e-001
2.129027e+003, 3.318352e-001
2.130956e+003, 3.328323e-001
2.132884e+003, 3.330833e-001
2.134813e+003, 3.327244e-001
2.136741e+003, 3.327139e-001
2.138669e+003, 3.323367e-001
2.140598e+003, 3.321500e-001
2.142526e+003, 3.315712e-001
2.144455e+003, 3.311331e-001
2.146383e+003, 3.315054e-001
2.148312e+003, 3.326221e-001
2.150240e+003, 3.331027e-001
2.152169e+003, 3.322076e-001
2.154097e+003, 3.327050e-001
2.156026e+003, 3.330384e-001
2.157954e+003, 3.329759e-001
2.159883e+003, 3.317016e-001
2.161811e+003, 3.315877e-001
2.163740e+003, 3.327970e-001
2.165668e+003, 3.344447e-001
2.167596e+003, 3.342159e-001
2.169525e+003, 3.337684e-001
2.171453e+003, 3.325560e-001
2.173382e+003, 3.336228e-001
2.175310e+003, 3.331746e-001
2.177239e+003, 3.332637e-001
2.179167e+003, 3.343944e-001
2.181096e+003, 3.340702e-001
2.183024e+003, 3.334793e-001
2.184953e+003, 3.344409e-001
2.186881e+003, 3.347308e-001
2.188810e+003, 3.350973e-001
2.190738e+003, 3.340582e-001
2.192667e+003, 3.333650e-001
2.194595e+003, 3.342022e-001
2.196523e+003, 3.350377e-001
2.198452e+003, 3.354558e-001
2.200380e+003, 3.369588e-001
2.202309e+003, 3.367040e-001
2.204237e+003, 3.360665e-001
2.206166e+003, 3.359736e-001
2.208094e+003, 3.353747e-001
2.210023e+003, 3.356967e-001
2.211951e+003, 3.360276e-001
2.213880e+003, 3.352834e-001
2.215808e+003, 3.353642e-001
2.217737e+003, 3.359719e-001
2.219665e+003, 3.362845e-001
2.221594e+003, 3.360866e-001
2.223522e+003, 3.357065e-001
2.225450e+003, 3.354464e-001
2.227379e+003, 3.355823e-001
2.229307e+003, 3.364201e-001
2.231236e+003, 3.368472e-001
2.233164e+003, 3.366985e-001
2.235093e+003, 3.374953e-001
2.237021e+003, 3.378807e-001
2.238950e+003, 3.379408e-001
2.240878e+003, 3.378908e-001
2.242807e+003, 3.376228e-001
2.244735e+003, 3.375494e-001
2.246664e+003, 3.380535e-001
2.248592e+003, 3.382823e-001
2.250521e+003, 3.383248e-001
2.252449e+003, 3.377774e-001
2.254377e+003, 3.369819e-001
2.256306e+003, 3.371344e-001
2.258234e+003, 3.368485e-001
2.260163e+003, 3.372501e-001
2.262091e+003, 3.383198e-001
2.264020e+003, 3.389322e-001
2.265948e+003, 3.383787e-001
2.267877e+003, 3.378225e-001
2.269805e+003, 3.388395e-001
2.271734e+003, 3.395362e-001
2.273662e+003, 3.397576e-001
2.275591e+003, 3.398609e-001
2.277519e+003, 3.393484e-001
2.279448e+003, 3.388814e-001
2.281376e+003, 3.389422e-001
2.283304e+003, 3.394704e-001
2.285233e+003, 3.402422e-001
2.287161e+003, 3.401460e-001
2.289090e+003, 3.397548e-001
2.291018e+003, 3.396408e-001
2.292947e+003, 3.399040e-001
2.294875e+003, 3.398024e-001
2.296804e+003, 3.396995e-001
2.298732e+003, 3.397035e-001
2.300661e+003, 3.399960e-001
2.302589e+003, 3.402851e-001
2.304518e+003, 3.405152e-001
2.306446e+003, 3.403561e-001
2.308375e+003, 3.398706e-001
2.310303e+003, 3.398332e-001
2.312231e+003, 3.403287e-001
2.314160e+003, 3.403328e-001
2.316088e+003, 3.405316e-001
2.318017e+003, 3.408999e-001
2.319945e+003, 3.416336e-001
2.321874e+003, 3.416982e-001
2.323802e+003, 3.417754e-001
2.325731e+003, 3.422981e-001
2.327659e+003, 3.425750e-001
2.329588e+003, 3.425869e-001
2.331516e+003, 3.423817e-001
2.333445e+003, 3.424037e-001
2.335373e+003, 3.429263e-001
2.337302e+003, 3.430578e-001
2.339230e+003, 3.426558e-001
2.341158e+003, 3.426408e-001
2.343087e+003, 3.430067e-001
2.345015e+003, 3.430235e-001
2.346944e+003, 3.429758e-001
2.348872e+003, 3.426668e-001
2.350801e+003, 3.430496e-001
2.352729e+003, 3.431187e-001
2.354658e+003, 3.428076e-001
2.356586e+003, 3.429923e-001
2.358515e+003, 3.435964e-001
2.360443e+003, 3.441123e-001
2.362372e+003, 3.440304e-001
2.364300e+003, 3.438863e-001
2.366229e+003, 3.438008e-001
2.368157e+003, 3.437777e-001
2.370085e+003, 3.440192e-001
2.372014e+003, 3.438885e-001
2.373942e+003, 3.433566e-001
2.375871e+003, 3.429777e-001
2.377799e+003, 3.428118e-001
2.379728e+003, 3.428651e-001
2.381656e+003, 3.429278e-001
2.383585e+003, 3.426895e-001
2.385513e+003, 3.428889e-001
2.387442e+003, 3.430786e-001
2.389370e+003, 3.432180e-001
2.391299e+003, 3.432951e-001
2.393227e+003, 3.432745e-001
2.395156e+003, 3.434104e-001
2.397084e+003, 3.431926e-001
2.399012e+003, 3.428469e-001
2.400941e+003, 3.433391e-001
2.402869e+003, 3.430774e-001
2.404798e+003, 3.425681e-001
2.406726e+003, 3.427935e-001
2.408655e+003, 3.431076e-001
2.410583e+003, 3.433094e-001
2.412512e+003, 3.434564e-001
2.414440e+003, 3.436302e-001
2.416369e+003, 3.439824e-001
2.418297e+003, 3.438628e-001
2.420226e+003, 3.433959e-001
2.422154e+003, 3.431620e-001
2.424083e+003, 3.435045e-001
2.426011e+003, 3.435711e-001
2.427939e+003, 3.437703e-001
2.429868e+003, 3.438531e-001
2.431796e+003, 3.437058e-001
2.433725e+003, 3.429191e-001
2.435653e+003, 3.430443e-001
2.437582e+003, 3.433785e-001
2.439510e+003, 3.435077e-001
2.441439e+003, 3.434029e-001
2.443367e+003, 3.433971e-001
2.445296e+003, 3.440708e-001
2.447224e+003, 3.445684e-001
2.449153e+003, 3.445333e-001
2.451081e+003, 3.446064e-001
2.453010e+003, 3.446950e-001
2.454938e+003, 3.449557e-001
2.456866e+003, 3.448031e-001
2.458795e+003, 3.448199e-001
2.460723e+003, 3.445923e-001
2.462652e+003, 3.448403e-001
2.464580e+003, 3.448165e-001
2.466509e+003, 3.442855e-001
2.468437e+003, 3.445012e-001
2.470366e+003, 3.448497e-001
2.472294e+003, 3.448467e-001
2.474223e+003, 3.448984e-001
2.476151e+003, 3.450332e-001
2.478080e+003, 3.451439e-001
2.480008e+003, 3.451647e-001
2.481937e+003, 3.451654e-001
2.483865e+003, 3.452162e-001
2.485793e+003, 3.453092e-001
2.487722e+003, 3.453757e-001
2.489650e+003, 3.453977e-001
2.491579e+003, 3.453766e-001
2.493507e+003, 3.453898e-001
2.495436e+003, 3.455869e-001
2.497364e+003, 3.458350e-001
2.499293e+003, 3.457215e-001
2.501221e+003, 3.458347e-001
2.503150e+003, 3.460882e-001
2.505078e+003, 3.465046e-001
2.507007e+003, 3.467946e-001
2.508935e+003, 3.464229e-001
2.510864e+003, 3.463689e-001
2.512792e+003, 3.466040e-001
2.514720e+003, 3.465707e-001
2.516649e+003, 3.463972e-001
2.518577e+003, 3.463725e-001
2.520506e+003, 3.464197e-001
2.522434e+003, 3.464415e-001
2.524363e+003, 3.461943e-001
2.526291e+003, 3.465444e-001
2.528220e+003, 3.471856e-001
2.530148e+003, 3.469201e-001
2.532077e+003, 3.467737e-001
2.534005e+003, 3.469458e-001
2.535934e+003, 3.472986e-001
2.537862e+003, 3.471955e-001
2.539791e+003, 3.472122e-001
2.541719e+003, 3.473543e-001
2.543647e+003, 3.469948e-001
2.545576e+003, 3.468315e-001
2.547504e+003, 3.471137e-001
2.549433e+003, 3.475421e-001
2.551361e+003, 3.477691e-001
2.553290e+003, 3.476487e-001
2.555218e+003, 3.475383e-001
2.557147e+003, 3.477201e-001
2.559075e+003, 3.481200e-001
2.561004e+003, 3.482404e-001
2.562932e+003, 3.486207e-001
2.564861e+003, 3.488567e-001
2.566789e+003, 3.485117e-001
2.568718e+003, 3.483942e-001
2.570646e+003, 3.486165e-001
2.572574e+003, 3.485979e-001
2.574503e+003, 3.487602e-001
2.576431e+003, 3.491072e-001
2.578360e+003, 3.492425e-001
2.580288e+003, 3.492533e-001
2.582217e+003, 3.495246e-001
2.584145e+003, 3.496038e-001
2.586074e+003, 3.496649e-001
2.588002e+003, 3.499947e-001
2.589931e+003, 3.500142e-001
2.591859e+003, 3.498631e-001
2.593788e+003, 3.499146e-001
2.595716e+003, 3.501163e-001
2.597645e+003, 3.503664e-001
2.599573e+003, 3.504904e-001
2.601501e+003, 3.504322e-001
2.603430e+003, 3.501855e-001
2.605358e+003, 3.502971e-001
2.607287e+003, 3.504622e-001
2.609215e+003, 3.506835e-001
2.611144e+003, 3.508345e-001
2.613072e+003, 3.514606e-001
2.615001e+003, 3.518462e-001
2.616929e+003, 3.516674e-001
2.618858e+003, 3.518016e-001
2.620786e+003, 3.521246e-001
2.622715e+003, 3.521674e-001
2.624643e+003, 3.523724e-001
2.626572e+003, 3.527570e-001
2.628500e+003, 3.527023e-001
2.630428e+003, 3.526132e-001
2.632357e+003, 3.528136e-001
2.634285e+003, 3.528590e-001
2.636214e+003, 3.529400e-001
2.638142e+003, 3.533563e-001
2.640071e+003, 3.536805e-001
2.641999e+003, 3.535077e-001
2.643928e+003, 3.537562e-001
2.645856e+003, 3.539776e-001
2.647785e+003, 3.542848e-001
2.649713e+003, 3.547402e-001
2.651642e+003, 3.546605e-001
2.653570e+003, 3.545664e-001
2.655499e+003, 3.544080e-001
2.657427e+003, 3.546386e-001
2.659355e+003, 3.549589e-001
2.661284e+003, 3.549918e-001
2.663212e+003, 3.554982e-001
2.665141e+003, 3.558997e-001
2.667069e+003, 3.559773e-001
2.668998e+003, 3.558469e-001
2.670926e+003, 3.555647e-001
2.672855e+003, 3.554790e-001
2.674783e+003, 3.555825e-001
2.676712e+003, 3.556735e-001
2.678640e+003, 3.554573e-001
2.680569e+003, 3.552835e-001
2.682497e+003, 3.555344e-001
2.684426e+003, 3.557537e-001
2.686354e+003, 3.559861e-001
2.688282e+003, 3.560166e-001
2.690211e+003, 3.560208e-001
2.692139e+003, 3.559843e-001
2.694068e+003, 3.560554e-001
2.695996e+003, 3.564318e-001
2.697925e+003, 3.566068e-001
2.699853e+003, 3.565798e-001
2.701782e+003, 3.564771e-001
2.703710e+003, 3.564397e-001
2.705639e+003, 3.565550e-001
2.707567e+003, 3.566232e-001
2.709496e+003, 3.568383e-001
2.711424e+003, 3.571243e-001
2.713353e+003, 3.568794e-001
2.715281e+003, 3.567232e-001
2.717209e+003, 3.569023e-001
2.719138e+003, 3.567073e-001
2.721066e+003, 3.566778e-001
2.722995e+003, 3.568673e-001
2.724923e+003, 3.570397e-001
2.726852e+003, 3.572859e-001
2.728780e+003, 3.575720e-001
2.730709e+003, 3.577834e-001
2.732637e+003, 3.576692e-001
2.734566e+003, 3.575073e-001
2.736494e+003, 3.575847e-001
2.738423e+003, 3.573678e-001
2.740351e+003, 3.573729e-001
2.742280e+003, 3.577289e-001
2.744208e+003, 3.579879e-001
2.746136e+003, 3.579630e-001
2.748065e+003, 3.579791e-001
2.749993e+003, 3.581498e-001
2.751922e+003, 3.582320e-001
2.753850e+003, 3.583031e-001
2.755779e+003, 3.583385e-001
2.757707e+003, 3.582812e-001
2.759636e+003, 3.582954e-001
2.761564e+003, 3.582790e-001
2.763493e+003, 3.581890e-001
2.765421e+003, 3.583915e-001
2.767350e+003, 3.588778e-001
2.769278e+003, 3.590204e-001
2.771207e+003, 3.589676e-001
2.773135e+003, 3.588678e-001
2.775063e+003, 3.588745e-001
2.776992e+003, 3.588365e-001
2.778920e+003, 3.590221e-001
2.780849e+003, 3.592839e-001
2.782777e+003, 3.592388e-001
2.784706e+003, 3.593020e-001
2.786634e+003, 3.594618e-001
2.788563e+003, 3.593090e-001
2.790491e+003, 3.593810e-001
2.792420e+003, 3.595169e-001
2.794348e+003, 3.594234e-001
2.796277e+003, 3.591969e-001
2.798205e+003, 3.591239e-001
2.800134e+003, 3.593553e-001
2.802062e+003, 3.596310e-001
2.803990e+003, 3.597799e-001
2.805919e+003, 3.599928e-001
2.807847e+003, 3.601067e-001
2.809776e+003, 3.602079e-001
2.811704e+003, 3.602816e-001
2.813633e+003, 3.604172e-001
2.815561e+003, 3.604194e-001
2.817490e+003, 3.601957e-001
2.819418e+003, 3.601720e-001
2.821347e+003, 3.604996e-001
2.823275e+003, 3.606790e-001
2.825204e+003, 3.607197e-001
2.827132e+003, 3.607509e-001
2.829061e+003, 3.608370e-001
2.830989e+003, 3.605352e-001
2.832917e+003, 3.605652e-001
2.834846e+003, 3.607367e-001
2.836774e+003, 3.607108e-001
2.838703e+003, 3.606505e-001
2.840631e+003, 3.603373e-001
2.842560e+003, 3.599626e-001
2.844488e+003, 3.593911e-001
2.846417e+003, 3.585292e-001
2.848345e+003, 3.575949e-001
2.850274e+003, 3.567955e-001
2.852202e+003, 3.569606e-001
2.854131e+003, 3.572129e-001
2.856059e+003, 3.573886e-001
2.857988e+003, 3.575427e-001
2.859916e+003, 3.577695e-001
2.861844e+003, 3.581923e-001
2.863773e+003, 3.588277e-001
2.865701e+003, 3.591164e-001
2.867630e+003, 3.593428e-001
2.869558e+003, 3.598128e-001
2.871487e+003, 3.599961e-001
2.873415e+003, 3.598415e-001
2.875344e+003, 3.601033e-001
2.877272e+003, 3.601972e-001
2.879201e+003, 3.600612e-001
2.881129e+003, 3.601195e-001
2.883058e+003, 3.604049e-001
2.884986e+003, 3.604921e-001
2.886915e+003, 3.600189e-001
2.888843e+003, 3.596485e-001
2.890771e+003, 3.595251e-001
2.892700e+003, 3.596696e-001
2.894628e+003, 3.599104e-001
2.896557e+003, 3.601416e-001
2.898485e+003, 3.601319e-001
2.900414e+003, 3.598553e-001
2.902342e+003, 3.598847e-001
2.904271e+003, 3.596139e-001
2.906199e+003, 3.590356e-001
2.908128e+003, 3.590117e-001
2.910056e+003, 3.582729e-001
2.911985e+003, 3.572629e-001
2.913913e+003, 3.564279e-001
2.915842e+003, 3.559452e-001
2.917770e+003, 3.555267e-001
2.919698e+003, 3.549753e-001
2.921627e+003, 3.548339e-001
2.923555e+003, 3.547693e-001
2.925484e+003, 3.544563e-001
2.927412e+003, 3.545269e-001
2.929341e+003, 3.550540e-001
2.931269e+003, 3.558040e-001
2.933198e+003, 3.561725e-001
2.935126e+003, 3.563963e-001
2.937055e+003, 3.568704e-001
2.938983e+003, 3.570722e-001
2.940912e+003, 3.574665e-001
2.942840e+003, 3.579023e-001
2.944769e+003, 3.580127e-001
2.946697e+003, 3.581476e-001
2.948625e+003, 3.582846e-001
2.950554e+003, 3.585763e-001
2.952482e+003, 3.586985e-001
2.954411e+003, 3.588898e-001
2.956339e+003, 3.593993e-001
2.958268e+003, 3.597226e-001
2.960196e+003, 3.593971e-001
2.962125e+003, 3.591816e-001
2.964053e+003, 3.593606e-001
2.965982e+003, 3.596165e-001
2.967910e+003, 3.596369e-001
2.969839e+003, 3.596132e-001
2.971767e+003, 3.600347e-001
2.973696e+003, 3.601733e-001
2.975624e+003, 3.601532e-001
2.977552e+003, 3.606701e-001
2.979481e+003, 3.612108e-001
2.981409e+003, 3.615214e-001
2.983338e+003, 3.614933e-001
2.985266e+003, 3.610458e-001
2.987195e+003, 3.609073e-001
2.989123e+003, 3.611865e-001
2.991052e+003, 3.612866e-001
2.992980e+003, 3.613139e-001
2.994909e+003, 3.614532e-001
2.996837e+003, 3.618333e-001
2.998766e+003, 3.618960e-001
3.000694e+003, 3.615656e-001
3.002623e+003, 3.615367e-001
3.004551e+003, 3.620884e-001
3.006479e+003, 3.620825e-001
3.008408e+003, 3.621388e-001
3.010336e+003, 3.625576e-001
3.012265e+003, 3.634277e-001
3.014193e+003, 3.638054e-001
3.016122e+003, 3.640158e-001
3.018050e+003, 3.637058e-001
3.019979e+003, 3.628331e-001
3.021907e+003, 3.628709e-001
3.023836e+003, 3.631065e-001
3.025764e+003, 3.628775e-001
3.027693e+003, 3.628227e-001
3.029621e+003, 3.635107e-001
3.031550e+003, 3.635548e-001
3.033478e+003, 3.631847e-001
3.035406e+003, 3.629304e-001
3.037335e+003, 3.630418e-001
3.039263e+003, 3.630165e-001
3.041192e+003, 3.632478e-001
3.043120e+003, 3.637280e-001
3.045049e+003, 3.639658e-001
3.046977e+003, 3.636588e-001
3.048906e+003, 3.636537e-001
3.050834e+003, 3.638690e-001
3.052763e+003, 3.639239e-001
3.054691e+003, 3.635830e-001
3.056620e+003, 3.639641e-001
3.058548e+003, 3.640724e-001
3.060477e+003, 3.639733e-001
3.062405e+003, 3.642162e-001
3.064333e+003, 3.646789e-001
3.066262e+003, 3.646004e-001
3.068190e+003, 3.642144e-001
3.070119e+003, 3.637939e-001
3.072047e+003, 3.639184e-001
3.073976e+003, 3.644733e-001
3.075904e+003, 3.646482e-001
3.077833e+003, 3.646279e-001
3.079761e+003, 3.649883e-001
3.081690e+003, 3.648944e-001
3.083618e+003, 3.647085e-001
3.085547e+003, 3.650650e-001
3.087475e+003, 3.648676e-001
3.089404e+003, 3.647566e-001
3.091332e+003, 3.646520e-001
3.093260e+003, 3.648469e-001
3.095189e+003, 3.652578e-001
3.097117e+003, 3.653301e-001
3.099046e+003, 3.654125e-001
3.100974e+003, 3.654975e-001
3.102903e+003, 3.655898e-001
3.104831e+003, 3.654347e-001
3.106760e+003, 3.654505e-001
3.108688e+003, 3.652436e-001
3.110617e+003, 3.653108e-001
3.112545e+003, 3.661992e-001
3.114474e+003, 3.663194e-001
3.116402e+003, 3.660354e-001
3.118331e+003, 3.661028e-001
3.120259e+003, 3.661943e-001
3.122188e+003, 3.661565e-001
3.124116e+003, 3.655795e-001
3.126044e+003, 3.651937e-001
3.127973e+003, 3.657482e-001
3.129901e+003, 3.660358e-001
3.131830e+003, 3.664009e-001
3.133758e+003, 3.664200e-001
3.135687e+003, 3.659127e-001
3.137615e+003, 3.663513e-001
3.139544e+003, 3.660636e-001
3.141472e+003, 3.659481e-001
3.143401e+003, 3.663698e-001
3.145329e+003, 3.662477e-001
3.147258e+003, 3.666163e-001
3.149186e+003, 3.671032e-001
3.151115e+003, 3.668483e-001
3.153043e+003, 3.660459e-001
3.154971e+003, 3.665313e-001
3.156900e+003, 3.673937e-001
3.158828e+003, 3.674190e-001
3.160757e+003, 3.666109e-001
3.162685e+003, 3.663031e-001
3.164614e+003, 3.667660e-001
3.166542e+003, 3.673896e-001
3.168471e+003, 3.674801e-001
3.170399e+003, 3.671200e-001
3.172328e+003, 3.671661e-001
3.174256e+003, 3.670085e-001
3.176185e+003, 3.668529e-001
3.178113e+003, 3.673115e-001
3.180042e+003, 3.673497e-001
3.181970e+003, 3.670054e-001
3.183898e+003, 3.670314e-001
3.185827e+003, 3.672447e-001
3.187755e+003, 3.675796e-001
3.189684e+003, 3.677490e-001
3.191612e+003, 3.673322e-001
3.193541e+003, 3.674721e-001
3.195469e+003, 3.678574e-001
3.197398e+003, 3.677807e-001
3.199326e+003, 3.674776e-001
3.201255e+003, 3.673183e-001
3.203183e+003, 3.674678e-001
3.205112e+003, 3.674812e-001
3.207040e+003, 3.675523e-001
3.208969e+003, 3.674778e-001
3.210897e+003, 3.671980e-001
3.212825e+003, 3.669946e-001
3.214754e+003, 3.673481e-001
3.216682e+003, 3.676126e-001
3.218611e+003, 3.673504e-001
3.220539e+003, 3.670034e-001
3.222468e+003, 3.668290e-001
3.224396e+003, 3.667594e-001
3.226325e+003, 3.669599e-001
3.228253e+003, 3.671830e-001
3.230182e+003, 3.670571e-001
3.232110e+003, 3.674769e-001
3.234039e+003, 3.676036e-001
3.235967e+003, 3.676393e-001
3.237896e+003, 3.683988e-001
3.239824e+003, 3.681070e-001
3.241752e+003, 3.671373e-001
3.243681e+003, 3.670067e-001
3.245609e+003, 3.678246e-001
3.247538e+003, 3.679830e-001
3.249466e+003, 3.675321e-001
3.251395e+003, 3.677647e-001
3.253323e+003, 3.681395e-001
3.255252e+003, 3.678319e-001
3.257180e+003, 3.677808e-001
3.259109e+003, 3.678779e-001
3.261037e+003, 3.674132e-001
3.262966e+003, 3.672905e-001
3.264894e+003, 3.671215e-001
3.266823e+003, 3.672510e-001
3.268751e+003, 3.678918e-001
3.270679e+003, 3.679087e-001
3.272608e+003, 3.681841e-001
3.274536e+003, 3.679467e-001
3.276465e+003, 3.679502e-001
3.278393e+003, 3.680686e-001
3.280322e+003, 3.677754e-001
3.282250e+003, 3.679566e-001
3.284179e+003, 3.685477e-001
3.286107e+003, 3.679951e-001
3.288036e+003, 3.670729e-001
3.289964e+003, 3.670768e-001
3.291893e+003, 3.670863e-001
3.293821e+003, 3.668326e-001
3.295750e+003, 3.669268e-001
3.297678e+003, 3.675241e-001
3.299606e+003, 3.675750e-001
3.301535e+003, 3.672135e-001
3.303463e+003, 3.673761e-001
3.305392e+003, 3.675615e-001
3.307320e+003, 3.676457e-001
3.309249e+003, 3.675054e-001
3.311177e+003, 3.671491e-001
3.313106e+003, 3.670991e-001
3.315034e+003, 3.672602e-001
3.316963e+003, 3.672062e-001
3.318891e+003, 3.671488e-001
3.320820e+003, 3.673185e-001
3.322748e+003, 3.675649e-001
3.324677e+003, 3.679021e-001
3.326605e+003, 3.678973e-001
3.328533e+003, 3.676803e-001
3.330462e+003, 3.676156e-001
3.332390e+003, 3.674254e-001
3.334319e+003, 3.674316e-001
3.336247e+003, 3.676336e-001
3.338176e+003, 3.676466e-001
3.340104e+003, 3.681090e-001
3.342033e+003, 3.682915e-001
3.343961e+003, 3.679379e-001
3.345890e+003, 3.677452e-001
3.347818e+003, 3.675277e-001
3.349747e+003, 3.680097e-001
3.351675e+003, 3.684318e-001
3.353604e+003, 3.680727e-001
3.355532e+003, 3.680195e-001
3.357460e+003, 3.681560e-001
3.359389e+003, 3.680043e-001
3.361317e+003, 3.679552e-001
3.363246e+003, 3.675731e-001
3.365174e+003, 3.675138e-001
3.367103e+003, 3.674873e-001
3.369031e+003, 3.675350e-001
3.370960e+003, 3.678458e-001
3.372888e+003, 3.677509e-001
3.374817e+003, 3.674067e-001
3.376745e+003, 3.672898e-001
3.378674e+003, 3.669626e-001
3.380602e+003, 3.673202e-001
3.382531e+003, 3.680218e-001
3.384459e+003, 3.677260e-001
3.386387e+003, 3.670445e-001
3.388316e+003, 3.668974e-001
3.390244e+003, 3.671714e-001
3.392173e+003, 3.672341e-001
3.394101e+003, 3.673318e-001
3.396030e+003, 3.671406e-001
3.397958e+003, 3.674547e-001
3.399887e+003, 3.679126e-001
3.401815e+003, 3.680676e-001
3.403744e+003, 3.679322e-001
3.405672e+003, 3.673417e-001
3.407601e+003, 3.676725e-001
3.409529e+003, 3.680630e-001
3.411458e+003, 3.678853e-001
3.413386e+003, 3.682277e-001
3.415314e+003, 3.684925e-001
3.417243e+003, 3.681085e-001
3.419171e+003, 3.678229e-001
3.421100e+003, 3.681380e-001
3.423028e+003, 3.680074e-001
3.424957e+003, 3.675593e-001
3.426885e+003, 3.671905e-001
3.428814e+003, 3.674258e-001
3.430742e+003, 3.675262e-001
3.432671e+003, 3.673616e-001
3.434599e+003, 3.678059e-001
3.436528e+003, 3.677395e-001
3.438456e+003, 3.673159e-001
3.440385e+003, 3.664853e-001
3.442313e+003, 3.660303e-001
3.444241e+003, 3.669634e-001
3.446170e+003, 3.680474e-001
3.448098e+003, 3.686183e-001
3.450027e+003, 3.689483e-001
3.451955e+003, 3.683943e-001
3.453884e+003, 3.679354e-001
3.455812e+003, 3.679023e-001
3.457741e+003, 3.684403e-001
3.459669e+003, 3.681876e-001
3.461598e+003, 3.688186e-001
3.463526e+003, 3.694452e-001
3.465455e+003, 3.689230e-001
3.467383e+003, 3.690000e-001
3.469312e+003, 3.689914e-001
3.471240e+003, 3.684508e-001
3.473168e+003, 3.682581e-001
3.475097e+003, 3.678619e-001
3.477025e+003, 3.673939e-001
3.478954e+003, 3.675218e-001
3.480882e+003, 3.678085e-001
3.482811e+003, 3.674710e-001
3.484739e+003, 3.680109e-001
3.486668e+003, 3.686137e-001
3.488596e+003, 3.679654e-001
3.490525e+003, 3.669048e-001
3.492453e+003, 3.667431e-001
3.494382e+003, 3.677536e-001
3.496310e+003, 3.677740e-001
3.498239e+003, 3.673483e-001
3.500167e+003, 3.676135e-001
3.502095e+003, 3.677017e-001
3.504024e+003, 3.676440e-001
3.505952e+003, 3.670823e-001
3.507881e+003, 3.668250e-001
3.509809e+003, 3.673037e-001
3.511738e+003, 3.674491e-001
3.513666e+003, 3.677825e-001
3.515595e+003, 3.678545e-001
3.517523e+003, 3.670470e-001
3.519452e+003, 3.671888e-001
3.521380e+003, 3.673710e-001
3.523309e+003, 3.677523e-001
3.525237e+003, 3.681310e-001
3.527166e+003, 3.679454e-001
3.529094e+003, 3.674649e-001
3.531022e+003, 3.678197e-001
3.532951e+003, 3.678275e-001
3.534879e+003, 3.676598e-001
3.536808e+003, 3.681958e-001
3.538736e+003, 3.683790e-001
3.540665e+003, 3.680705e-001
3.542593e+003, 3.681036e-001
3.544522e+003, 3.674827e-001
3.546450e+003, 3.670461e-001
3.548379e+003, 3.671153e-001
3.550307e+003, 3.675905e-001
3.552236e+003, 3.680635e-001
3.554164e+003, 3.675570e-001
3.556093e+003, 3.667473e-001
3.558021e+003, 3.673208e-001
3.559949e+003, 3.681051e-001
3.561878e+003, 3.689245e-001
3.563806e+003, 3.691606e-001
3.565735e+003, 3.693627e-001
3.567663e+003, 3.690102e-001
3.569592e+003, 3.687217e-001
3.571520e+003, 3.688502e-001
3.573449e+003, 3.689024e-001
3.575377e+003, 3.685037e-001
3.577306e+003, 3.689034e-001
3.579234e+003, 3.698166e-001
3.581163e+003, 3.693679e-001
3.583091e+003, 3.686298e-001
3.585020e+003, 3.689347e-001
3.586948e+003, 3.694347e-001
3.588876e+003, 3.696729e-001
3.590805e+003, 3.690434e-001
3.592733e+003, 3.692797e-001
3.594662e+003, 3.695980e-001
3.596590e+003, 3.694704e-001
3.598519e+003, 3.688540e-001
3.600447e+003, 3.690267e-001
3.602376e+003, 3.692506e-001
3.604304e+003, 3.693559e-001
3.606233e+003, 3.700238e-001
3.608161e+003, 3.709581e-001
3.610090e+003, 3.706656e-001
3.612018e+003, 3.703528e-001
3.613947e+003, 3.701286e-001
3.615875e+003, 3.700087e-001
3.617803e+003, 3.708397e-001
3.619732e+003, 3.704129e-001
3.621660e+003, 3.696824e-001
3.623589e+003, 3.699802e-001
3.625517e+003, 3.701994e-001
3.627446e+003, 3.707757e-001
3.629374e+003, 3.706071e-001
3.631303e+003, 3.697219e-001
3.633231e+003, 3.701155e-001
3.635160e+003, 3.706941e-001
3.637088e+003, 3.709129e-001
3.639017e+003, 3.707988e-001
3.640945e+003, 3.706990e-001
3.642874e+003, 3.712267e-001
3.644802e+003, 3.714775e-001
3.646730e+003, 3.716964e-001
3.648659e+003, 3.726725e-001
3.650587e+003, 3.725476e-001
3.652516e+003, 3.712864e-001
3.654444e+003, 3.715082e-001
3.656373e+003, 3.719465e-001
3.658301e+003, 3.719365e-001
3.660230e+003, 3.721125e-001
3.662158e+003, 3.718242e-001
3.664087e+003, 3.720834e-001
3.666015e+003, 3.721451e-001
3.667944e+003, 3.721926e-001
3.669872e+003, 3.728954e-001
3.671801e+003, 3.724717e-001
3.673729e+003, 3.729803e-001
3.675657e+003, 3.740335e-001
3.677586e+003, 3.732994e-001
3.679514e+003, 3.726478e-001
3.681443e+003, 3.725391e-001
3.683371e+003, 3.725847e-001
3.685300e+003, 3.723240e-001
3.687228e+003, 3.734585e-001
3.689157e+003, 3.735836e-001
3.691085e+003, 3.733449e-001
3.693014e+003, 3.736248e-001
3.694942e+003, 3.734165e-001
3.696871e+003, 3.726087e-001
3.698799e+003, 3.728657e-001
3.700728e+003, 3.731193e-001
3.702656e+003, 3.726990e-001
3.704584e+003, 3.725289e-001
3.706513e+003, 3.733756e-001
3.708441e+003, 3.741141e-001
3.710370e+003, 3.739314e-001
3.712298e+003, 3.736005e-001
3.714227e+003, 3.735793e-001
3.716155e+003, 3.741369e-001
3.718084e+003, 3.740649e-001
3.720012e+003, 3.738794e-001
3.721941e+003, 3.741902e-001
3.723869e+003, 3.743201e-001
3.725798e+003, 3.742465e-001
3.727726e+003, 3.745265e-001
3.729655e+003, 3.744331e-001
3.731583e+003, 3.740377e-001
3.733511e+003, 3.742521e-001
3.735440e+003, 3.749755e-001
3.737368e+003, 3.749361e-001
3.739297e+003, 3.752869e-001
3.741225e+003, 3.759825e-001
3.743154e+003, 3.763766e-001
3.745082e+003, 3.755634e-001
3.747011e+003, 3.745635e-001
3.748939e+003, 3.752735e-001
3.750868e+003, 3.755141e-001
3.752796e+003, 3.748455e-001
3.754725e+003, 3.750041e-001
3.756653e+003, 3.757395e-001
3.758582e+003, 3.754331e-001
3.760510e+003, 3.751402e-001
3.762438e+003, 3.754233e-001
3.764367e+003, 3.755586e-001
3.766295e+003, 3.753158e-001
3.768224e+003, 3.753942e-001
3.770152e+003, 3.754864e-001
3.772081e+003, 3.753779e-001
3.774009e+003, 3.753734e-001
3.775938e+003, 3.753576e-001
3.777866e+003, 3.756015e-001
3.779795e+003, 3.754996e-001
3.781723e+003, 3.754458e-001
3.783652e+003, 3.754612e-001
3.785580e+003, 3.749251e-001
3.787509e+003, 3.743497e-001
3.789437e+003, 3.741251e-001
3.791365e+003, 3.747399e-001
3.793294e+003, 3.750626e-001
3.795222e+003, 3.752924e-001
3.797151e+003, 3.756297e-001
3.799079e+003, 3.759252e-001
3.801008e+003, 3.763293e-001
3.802936e+003, 3.764341e-001
3.804865e+003, 3.771435e-001
3.806793e+003, 3.773669e-001
3.808722e+003, 3.761107e-001
3.810650e+003, 3.756239e-001
3.812579e+003, 3.753194e-001
3.814507e+003, 3.760583e-001
3.816436e+003, 3.771986e-001
3.818364e+003, 3.769347e-001
3.820292e+003, 3.773244e-001
3.822221e+003, 3.778946e-001
3.824149e+003, 3.771312e-001
3.826078e+003, 3.762863e-001
3.828006e+003, 3.762794e-001
3.829935e+003, 3.768727e-001
3.831863e+003, 3.772993e-001
3.833792e+003, 3.774439e-001
3.835720e+003, 3.774002e-001
3.837649e+003, 3.780781e-001
3.839577e+003, 3.775420e-001
3.841506e+003, 3.768495e-001
3.843434e+003, 3.774650e-001
3.845363e+003, 3.776011e-001
3.847291e+003, 3.771965e-001
3.849219e+003, 3.776605e-001
3.851148e+003, 3.792409e-001
3.853076e+003, 3.803599e-001
3.855005e+003, 3.794637e-001
3.856933e+003, 3.782358e-001
3.858862e+003, 3.778118e-001
3.860790e+003, 3.773937e-001
3.862719e+003, 3.776971e-001
3.864647e+003, 3.785988e-001
3.866576e+003, 3.785581e-001
3.868504e+003, 3.783250e-001
3.870433e+003, 3.775840e-001
3.872361e+003, 3.768627e-001
3.874290e+003, 3.769701e-001
3.876218e+003, 3.772319e-001
3.878146e+003, 3.779638e-001
3.880075e+003, 3.776531e-001
3.882003e+003, 3.768765e-001
3.883932e+003, 3.769806e-001
3.885860e+003, 3.777247e-001
3.887789e+003, 3.781365e-001
3.889717e+003, 3.780631e-001
3.891646e+003, 3.778544e-001
3.893574e+003, 3.775496e-001
3.895503e+003, 3.774414e-001
3.897431e+003, 3.775473e-001
3.899360e+003, 3.778271e-001
3.901288e+003, 3.786353e-001
3.903217e+003, 3.791238e-001
3.905145e+003, 3.785119e-001
3.907073e+003, 3.771103e-001
3.909002e+003, 3.766626e-001
3.910930e+003, 3.765408e-001
3.912859e+003, 3.769706e-001
3.914787e+003, 3.782935e-001
3.916716e+003, 3.789087e-001
3.918644e+003, 3.784972e-001
3.920573e+003, 3.781741e-001
3.922501e+003, 3.777488e-001
3.924430e+003, 3.777513e-001
3.926358e+003, 3.779974e-001
3.928287e+003, 3.776430e-001
3.930215e+003, 3.773179e-001
3.932144e+003, 3.772761e-001
3.934072e+003, 3.779058e-001
3.936000e+003, 3.786331e-001
3.937929e+003, 3.784244e-001
3.939857e+003, 3.781908e-001
3.941786e+003, 3.782330e-001
3.943714e+003, 3.781455e-001
3.945643e+003, 3.787541e-001
3.947571e+003, 3.795324e-001
3.949500e+003, 3.797924e-001
3.951428e+003, 3.794925e-001
3.953357e+003, 3.786875e-001
3.955285e+003, 3.787124e-001
3.957214e+003, 3.784899e-001
3.959142e+003, 3.786404e-001
3.961071e+003, 3.784485e-001
3.962999e+003, 3.771593e-001
3.964927e+003, 3.774438e-001
3.966856e+003, 3.788985e-001
3.968784e+003, 3.791312e-001
3.970713e+003, 3.782092e-001
3.972641e+003, 3.778895e-001
3.974570e+003, 3.781605e-001
3.976498e+003, 3.782883e-001
3.978427e+003, 3.787567e-001
3.980355e+003, 3.788291e-001
3.982284e+003, 3.783487e-001
3.984212e+003, 3.780116e-001
3.986141e+003, 3.778587e-001
3.988069e+003, 3.779016e-001
3.989998e+003, 3.784117e-001
3.991926e+003, 3.783559e-001
3.993854e+003, 3.784213e-001
3.995783e+003, 3.785103e-001
3.997711e+003, 3.786072e-001
3.999640e+003, 3.787421e-001
4.001568e+003, 0.000000e+000
##END=



