##NAMES=Wohlerite
##RRUFFID=R050275
##IDEAL CHEMISTRY=NaCa_2_(Zr^4+^,Nb^5+^)(Si_2_O_7_)(O,F)_2_
##LOCALITY= Langesundsfjord, Norway
##OWNER=RRUFF
##SOURCE=Marcus Origlieri
##DESCRIPTION=Yellowish brown granular
##STATUS=The identification of this mineral has been confirmed by X-ray diffraction.
##URL=rruff.info/R050275
399.1926, 0.1427563
401.1211, 0.1393122
403.0496, 0.1399820
404.9780, 0.1423392
406.9065, 0.1399121
408.8350, 0.1404621
410.7634, 0.1444756
412.6919, 0.1489216
414.6204, 0.1546318
416.5488, 0.1569884
418.4773, 0.1562519
420.4058, 0.1538547
422.3342, 0.1497220
424.2627, 0.1439169
426.1912, 0.1398875
428.1196, 0.1400306
430.0481, 0.1390964
431.9766, 0.1381897
433.9050, 0.1377069
435.8335, 0.1393434
437.7620, 0.1434935
439.6904, 0.1442979
441.6189, 0.1477797
443.5474, 0.1502624
445.4758, 0.1497114
447.4043, 0.1465709
449.3328, 0.1424069
451.2612, 0.1374515
453.1897, 0.1363275
455.1182, 0.1376680
457.0466, 0.1418263
458.9751, 0.1498077
460.9036, 0.1575203
462.8320, 0.1619867
464.7605, 0.1644526
466.6890, 0.1661927
468.6174, 0.1668098
470.5459, 0.1644923
472.4744, 0.1603356
474.4028, 0.1538272
476.3313, 0.1466317
478.2598, 0.1400158
480.1882, 0.1336995
482.1167, 0.1280582
484.0452, 0.1225714
485.9736, 0.1185514
487.9021, 0.1151427
489.8306, 0.1119497
491.7590, 0.1089598
493.6875, 0.1050877
495.6160, 0.1011064
497.5444, 9.7018503E-02
499.4729, 9.3836963E-02
501.4014, 9.0577222E-02
503.3298, 8.7548546E-02
505.2583, 8.3262824E-02
507.1868, 7.8191020E-02
509.1152, 7.4234247E-02
511.0437, 7.2668083E-02
512.9722, 7.2286777E-02
514.9006, 7.3538117E-02
516.8291, 7.6245487E-02
518.7576, 8.0768637E-02
520.6860, 8.6195521E-02
522.6145, 8.9723267E-02
524.5430, 9.3379512E-02
526.4714, 9.8815382E-02
528.3999, 0.1052564
530.3284, 0.1114083
532.2568, 0.1134409
534.1853, 0.1116396
536.1138, 0.1091938
538.0422, 0.1080298
539.9707, 0.1088668
541.8992, 0.1130795
543.8276, 0.1200572
545.7561, 0.1280903
547.6846, 0.1346846
549.6130, 0.1391035
551.5415, 0.1397231
553.4700, 0.1357217
555.3984, 0.1263401
557.3269, 0.1145251
559.2554, 0.1014804
561.1838, 8.9293182E-02
563.1123, 7.8621887E-02
565.0408, 6.9453090E-02
566.9692, 6.2741093E-02
568.8977, 5.7277650E-02
570.8262, 5.3543720E-02
572.7546, 5.1234230E-02
574.6831, 4.9942799E-02
576.6116, 5.0070569E-02
578.5400, 5.1469151E-02
580.4685, 5.2982248E-02
582.3970, 5.3864852E-02
584.3254, 5.3672161E-02
586.2539, 5.2021939E-02
588.1824, 4.9718861E-02
590.1108, 4.7855750E-02
592.0393, 4.7993690E-02
593.9678, 4.9399469E-02
595.8962, 5.1916599E-02
597.8247, 5.5795759E-02
599.7532, 6.0444999E-02
601.6816, 6.5810047E-02
603.6101, 7.2087757E-02
605.5386, 7.9613447E-02
607.4670, 8.8132352E-02
609.3955, 9.5921591E-02
611.3240, 0.1028977
613.2524, 0.1087133
615.1809, 0.1123025
617.1094, 0.1140100
619.0378, 0.1134591
620.9663, 0.1112698
622.8948, 0.1083137
624.8232, 0.1039293
626.7517, 9.8212473E-02
628.6802, 9.2502490E-02
630.6086, 8.6760953E-02
632.5371, 8.1062026E-02
634.4656, 7.5671896E-02
636.3940, 7.0417449E-02
638.3225, 6.6069290E-02
640.2510, 6.2897503E-02
642.1794, 6.0255520E-02
644.1079, 5.7960320E-02
646.0364, 5.6537211E-02
647.9648, 5.5914469E-02
649.8933, 5.5722021E-02
651.8218, 5.5774111E-02
653.7502, 5.6625929E-02
655.6787, 5.7122242E-02
657.6072, 5.7223700E-02
659.5356, 5.7616659E-02
661.4641, 5.7762749E-02
663.3926, 5.7786971E-02
665.3210, 5.8011800E-02
667.2495, 5.7401180E-02
669.1780, 5.6236681E-02
671.1064, 5.4999780E-02
673.0349, 5.3406719E-02
674.9634, 5.1524598E-02
676.8918, 4.9319550E-02
678.8203, 4.6297539E-02
680.7488, 4.3468371E-02
682.6772, 4.1643780E-02
684.6057, 4.0716700E-02
686.5342, 4.0310539E-02
688.4626, 4.0398769E-02
690.3911, 4.0857870E-02
692.3196, 4.1284520E-02
694.2480, 4.1739199E-02
696.1765, 4.3065429E-02
698.1050, 4.4804681E-02
700.0334, 4.6439759E-02
701.9619, 4.8252750E-02
703.8904, 5.0498731E-02
705.8188, 5.2977309E-02
707.7473, 5.5385150E-02
709.6758, 5.8718961E-02
711.6042, 6.2329412E-02
713.5327, 6.5559633E-02
715.4612, 6.8316437E-02
717.3896, 7.0777498E-02
719.3181, 7.3265627E-02
721.2466, 7.6144911E-02
723.1750, 7.8361653E-02
725.1035, 8.0405429E-02
727.0320, 8.2755990E-02
728.9604, 8.5199296E-02
730.8889, 8.7923102E-02
732.8174, 9.1774210E-02
734.7458, 9.7295158E-02
736.6743, 0.1039337
738.6028, 0.1117962
740.5313, 0.1214251
742.4597, 0.1319016
744.3882, 0.1427313
746.3167, 0.1525428
748.2451, 0.1598538
750.1736, 0.1651133
752.1021, 0.1673490
754.0305, 0.1659199
755.9590, 0.1613692
757.8875, 0.1535202
759.8159, 0.1425090
761.7444, 0.1295174
763.6729, 0.1159180
765.6013, 0.1027849
767.5298, 9.1801412E-02
769.4583, 8.4006280E-02
771.3867, 7.8819022E-02
773.3152, 7.5261727E-02
775.2437, 7.2953857E-02
777.1721, 7.2124302E-02
779.1006, 7.2474577E-02
781.0291, 7.3235989E-02
782.9575, 7.4692197E-02
784.8860, 7.6897219E-02
786.8145, 7.9658501E-02
788.7429, 8.2811460E-02
790.6714, 8.6634576E-02
792.5999, 9.1622032E-02
794.5283, 9.7729929E-02
796.4568, 0.1046007
798.3853, 0.1122304
800.3137, 0.1202003
802.2422, 0.1280583
804.1707, 0.1355343
806.0991, 0.1427683
808.0276, 0.1489305
809.9561, 0.1539084
811.8845, 0.1563919
813.8130, 0.1553254
815.7415, 0.1516570
817.6699, 0.1457685
819.5984, 0.1392354
821.5269, 0.1353092
823.4553, 0.1352111
825.3838, 0.1391667
827.3123, 0.1464205
829.2407, 0.1563239
831.1692, 0.1673492
833.0977, 0.1790106
835.0261, 0.1904094
836.9546, 0.2015716
838.8831, 0.2127163
840.8115, 0.2228409
842.7400, 0.2326557
844.6685, 0.2423177
846.5969, 0.2500476
848.5254, 0.2554511
850.4539, 0.2590572
852.3823, 0.2612559
854.3108, 0.2622987
856.2393, 0.2636280
858.1677, 0.2657805
860.0962, 0.2671330
862.0247, 0.2670130
863.9531, 0.2670481
865.8816, 0.2662741
867.8101, 0.2640698
869.7385, 0.2611463
871.6670, 0.2573256
873.5955, 0.2532040
875.5239, 0.2490722
877.4524, 0.2445682
879.3809, 0.2402260
881.3093, 0.2365149
883.2378, 0.2338214
885.1663, 0.2324407
887.0947, 0.2317158
889.0232, 0.2307479
890.9517, 0.2295516
892.8801, 0.2281824
894.8085, 0.2259746
896.7370, 0.2230324
898.6655, 0.2192762
900.5939, 0.2147608
902.5224, 0.2101116
904.4509, 0.2056032
906.3793, 0.2010690
908.3078, 0.1976679
910.2363, 0.1949704
912.1647, 0.1918583
914.0932, 0.1882165
916.0217, 0.1842903
917.9501, 0.1807032
919.8786, 0.1773635
921.8071, 0.1743258
923.7355, 0.1719549
925.6640, 0.1695614
927.5925, 0.1671357
929.5209, 0.1640556
931.4494, 0.1599634
933.3779, 0.1557613
935.3063, 0.1525835
937.2348, 0.1506691
939.1633, 0.1505909
941.0917, 0.1519842
943.0202, 0.1536973
944.9487, 0.1547165
946.8771, 0.1543797
948.8056, 0.1529270
950.7341, 0.1506493
952.6625, 0.1480824
954.5910, 0.1453414
956.5195, 0.1423668
958.4479, 0.1389751
960.3764, 0.1356719
962.3049, 0.1335928
964.2333, 0.1330796
966.1618, 0.1339540
968.0903, 0.1353550
970.0187, 0.1366834
971.9472, 0.1382115
973.8757, 0.1405479
975.8041, 0.1436710
977.7326, 0.1479752
979.6611, 0.1540107
981.5895, 0.1610111
983.5180, 0.1681773
985.4465, 0.1743009
987.3749, 0.1780566
989.3034, 0.1794795
991.2319, 0.1787823
993.1603, 0.1768351
995.0888, 0.1741231
997.0173, 0.1712622
998.9457, 0.1685787
1000.874, 0.1664155
1002.803, 0.1644968
1004.731, 0.1625089
1006.660, 0.1608354
1008.588, 0.1598874
1010.517, 0.1594525
1012.445, 0.1589831
1014.373, 0.1580939
1016.302, 0.1556464
1018.230, 0.1514874
1020.159, 0.1461277
1022.087, 0.1405730
1024.016, 0.1351558
1025.944, 0.1301841
1027.873, 0.1259654
1029.801, 0.1223850
1031.730, 0.1196636
1033.658, 0.1177548
1035.587, 0.1169991
1037.515, 0.1175235
1039.444, 0.1186979
1041.372, 0.1204997
1043.301, 0.1221832
1045.229, 0.1228113
1047.157, 0.1222742
1049.086, 0.1204419
1051.014, 0.1183546
1052.943, 0.1165814
1054.871, 0.1145700
1056.800, 0.1130201
1058.728, 0.1113005
1060.657, 0.1083427
1062.585, 0.1043188
1064.514, 9.9237137E-02
1066.442, 9.3258932E-02
1068.371, 8.6761117E-02
1070.299, 8.0323741E-02
1072.228, 7.4009180E-02
1074.156, 6.7697331E-02
1076.084, 6.1958000E-02
1078.013, 5.6437761E-02
1079.941, 5.1440869E-02
1081.870, 4.6894930E-02
1083.798, 4.2645309E-02
1085.727, 3.8758900E-02
1087.655, 3.5444658E-02
1089.584, 3.2330040E-02
1091.512, 2.9724380E-02
1093.441, 2.7785650E-02
1095.369, 2.6140280E-02
1097.298, 2.4526890E-02
1099.226, 2.3172211E-02
1101.155, 2.1890420E-02
1103.083, 2.0726399E-02
1105.011, 1.9733610E-02
1106.940, 1.8680129E-02
1108.868, 1.7836090E-02
1110.797, 1.7091520E-02
1112.725, 1.6336460E-02
1114.654, 1.5754789E-02
1116.582, 1.5082510E-02
1118.511, 1.4369410E-02
1120.439, 1.3781630E-02
1122.368, 1.3338350E-02
1124.296, 1.2897000E-02
1126.225, 1.2446160E-02
1128.153, 1.2197220E-02
1130.082, 1.2060710E-02
1132.010, 1.1647360E-02
1133.938, 1.1195060E-02
1135.867, 1.1127060E-02
1137.795, 1.1160220E-02
1139.724, 1.0984570E-02
1141.652, 1.0462100E-02
1143.581, 1.0163430E-02
1145.509, 9.9878740E-03
1147.438, 9.6183708E-03
1149.366, 9.3521224E-03
1151.295, 9.4556641E-03
1153.223, 9.4406232E-03
1155.152, 9.1508767E-03
1157.080, 8.9763934E-03
1159.009, 8.7218285E-03
1160.937, 8.5752308E-03
1162.865, 8.3058486E-03
1164.794, 7.9658553E-03
1166.722, 7.8454968E-03
1168.651, 7.6788142E-03
1170.579, 7.1949828E-03
1172.508, 6.9554239E-03
1174.436, 6.6722250E-03
1176.365, 6.4279768E-03
1178.293, 6.2749009E-03
1180.222, 5.8735809E-03
1182.150, 5.5376431E-03
1184.079, 5.4058279E-03
1186.007, 5.3333072E-03
1187.936, 5.0182678E-03
1189.864, 4.6946220E-03
1191.792, 4.6453290E-03
1193.721, 4.4591608E-03
1195.649, 4.3198168E-03
1197.578, 4.0935660E-03
1199.506, 3.8504531E-03
1201.435, 3.7371879E-03
1203.363, 3.5638269E-03
1205.292, 3.6761051E-03
1207.220, 3.7570780E-03
1209.149, 3.4949270E-03
1211.077, 3.3340559E-03
1213.006, 3.3710359E-03
1214.934, 3.0278061E-03
1216.863, 2.8067480E-03
1218.791, 3.0763710E-03
1220.719, 3.0426721E-03
1222.648, 2.8852180E-03
1224.576, 2.9140839E-03
1226.505, 2.8369550E-03
1228.433, 2.7503350E-03
1230.362, 2.7958360E-03
1232.290, 2.6357770E-03
1234.219, 2.3861900E-03
1236.147, 2.5158669E-03
1238.076, 2.6674040E-03
1240.004, 2.6627630E-03
1241.933, 2.7396099E-03
1243.861, 2.6569639E-03
1245.790, 2.5266169E-03
1247.718, 2.5510469E-03
1249.646, 2.5651820E-03
1251.575, 2.5324749E-03
1253.503, 2.5700531E-03
1255.432, 2.5333001E-03
1257.360, 2.4653310E-03
1259.289, 2.6470250E-03
1261.217, 2.8222220E-03
1263.146, 2.7278101E-03
1265.074, 2.6387989E-03
1267.003, 2.6145601E-03
1268.931, 2.7574589E-03
1270.860, 2.6091069E-03
1272.788, 2.6198879E-03
1274.717, 2.5964440E-03
1276.645, 2.4612050E-03
1278.573, 2.5141160E-03
1280.502, 2.9244020E-03
1282.430, 3.1154649E-03
1284.359, 3.0054720E-03
1286.287, 3.0773920E-03
1288.216, 3.1042809E-03
1290.144, 2.9377860E-03
1292.073, 2.9303001E-03
1294.001, 2.9281650E-03
1295.930, 3.0779659E-03
1297.858, 3.2233940E-03
1299.787, 3.2044910E-03
1301.715, 3.1535530E-03
1303.644, 3.2013590E-03
1305.572, 3.3387970E-03
1307.500, 3.5561719E-03
1309.429, 3.6354240E-03
1311.357, 3.4529050E-03
1313.286, 3.1416779E-03
1315.214, 3.1368700E-03
1317.143, 3.0757820E-03
1319.071, 3.1016420E-03
1321.000, 3.3994741E-03
1322.928, 3.8460360E-03
1324.857, 3.9258460E-03
1326.785, 3.7227231E-03
1328.714, 3.6545829E-03
1330.642, 3.6747509E-03
1332.571, 3.7764199E-03
1334.499, 3.9280639E-03
1336.427, 4.1144160E-03
1338.356, 4.2670821E-03
1340.284, 4.3537612E-03
1342.213, 4.2786170E-03
1344.141, 4.2608972E-03
1346.070, 4.3620840E-03
1347.998, 4.7112382E-03
1349.927, 5.1085870E-03
1351.855, 5.1894952E-03
1353.784, 5.1772580E-03
1355.712, 5.0790971E-03
1357.641, 5.3200899E-03
1359.569, 5.5944002E-03
1361.498, 5.8914111E-03
1363.426, 6.1423192E-03
1365.354, 6.4570769E-03
1367.283, 6.6059032E-03
1369.211, 6.5374691E-03
1371.140, 6.7837862E-03
1373.068, 7.1571991E-03
1374.997, 7.5006220E-03
1376.925, 7.8356443E-03
1378.854, 7.6608430E-03
1380.782, 7.6423171E-03
1382.711, 8.0448473E-03
1384.639, 8.4879510E-03
1386.568, 9.2492644E-03
1388.496, 9.6887266E-03
1390.424, 9.8056085E-03
1392.353, 1.0055300E-02
1394.281, 1.0544070E-02
1396.210, 1.1124330E-02
1398.138, 1.1620600E-02
1400.067, 1.2011250E-02
1401.995, 1.2325550E-02
1403.924, 1.2533790E-02
1405.852, 1.3202780E-02
1407.781, 1.3828010E-02
1409.709, 1.4389620E-02
1411.638, 1.4890500E-02
1413.566, 1.5109650E-02
1415.495, 1.5521870E-02
1417.423, 1.5999069E-02
1419.351, 1.6530801E-02
1421.280, 1.6875509E-02
1423.208, 1.6917549E-02
1425.137, 1.7053749E-02
1427.065, 1.7402619E-02
1428.994, 1.7413471E-02
1430.922, 1.7168850E-02
1432.851, 1.7450999E-02
1434.779, 1.7849650E-02
1436.708, 1.7849941E-02
1438.636, 1.7624371E-02
1440.565, 1.7428130E-02
1442.493, 1.7717000E-02
1444.422, 1.7855410E-02
1446.350, 1.7719559E-02
1448.278, 1.7760660E-02
1450.207, 1.7937111E-02
1452.135, 1.7796921E-02
1454.064, 1.7479399E-02
1455.992, 1.7509520E-02
1457.921, 1.7498400E-02
1459.849, 1.7183350E-02
1461.778, 1.7000951E-02
1463.706, 1.6948899E-02
1465.635, 1.6907001E-02
1467.563, 1.6750850E-02
1469.492, 1.6645610E-02
1471.420, 1.6588140E-02
1473.349, 1.6513299E-02
1475.277, 1.6222389E-02
1477.205, 1.6127490E-02
1479.134, 1.6028799E-02
1481.062, 1.5844449E-02
1482.991, 1.5826549E-02
1484.919, 1.5723251E-02
1486.848, 1.5562870E-02
1488.776, 1.5223620E-02
1490.705, 1.5161270E-02
1492.633, 1.5068540E-02
1494.562, 1.4913120E-02
1496.490, 1.4337080E-02
1498.419, 1.3943300E-02
1500.347, 1.3705570E-02
1502.276, 1.3281280E-02
1504.204, 1.3165320E-02
1506.132, 1.3265980E-02
1508.061, 1.2897270E-02
1509.989, 1.2337710E-02
1511.918, 1.2093030E-02
1513.846, 1.1992740E-02
1515.775, 1.1816700E-02
1517.703, 1.1472470E-02
1519.632, 1.1170740E-02
1521.560, 1.0955800E-02
1523.489, 1.0736210E-02
1525.417, 1.0385020E-02
1527.346, 1.0154940E-02
1529.274, 1.0376900E-02
1531.203, 9.8379748E-03
1533.131, 9.2780823E-03
1535.059, 9.3157981E-03
1536.988, 9.5996149E-03
1538.916, 1.0007820E-02
1540.845, 9.6786600E-03
1542.773, 9.2828907E-03
1544.702, 8.9957928E-03
1546.630, 8.5685011E-03
1548.559, 8.5534612E-03
1550.487, 8.9974133E-03
1552.416, 8.9812363E-03
1554.344, 8.8965753E-03
1556.273, 8.8479472E-03
1558.201, 8.9489426E-03
1560.130, 9.0130819E-03
1562.058, 8.5349847E-03
1563.986, 8.0802599E-03
1565.915, 8.3967187E-03
1567.843, 8.5683847E-03
1569.772, 8.4040770E-03
1571.700, 8.0637792E-03
1573.629, 7.9366686E-03
1575.557, 8.3502801E-03
1577.486, 8.3255284E-03
1579.414, 7.6641878E-03
1581.343, 7.5305020E-03
1583.271, 7.8858491E-03
1585.200, 7.9943351E-03
1587.128, 7.7718738E-03
1589.057, 7.5539812E-03
1590.985, 7.4969060E-03
1592.913, 7.4752588E-03
1594.842, 7.5373021E-03
1596.770, 7.4298270E-03
1598.699, 7.2416328E-03
1600.627, 7.0848442E-03
1602.556, 7.2414498E-03
1604.484, 7.3584160E-03
1606.413, 7.5515769E-03
1608.341, 7.7899010E-03
1610.270, 7.6459758E-03
1612.198, 7.3074759E-03
1614.127, 7.2098132E-03
1616.055, 7.4585630E-03
1617.984, 7.2426950E-03
1619.912, 7.0325420E-03
1621.840, 7.2941119E-03
1623.769, 7.5616511E-03
1625.697, 7.4399710E-03
1627.626, 7.5906781E-03
1629.554, 7.7812709E-03
1631.483, 7.7997171E-03
1633.411, 7.8133130E-03
1635.340, 8.0993688E-03
1637.268, 7.9861283E-03
1639.197, 7.9486286E-03
1641.125, 7.9505024E-03
1643.054, 7.9280259E-03
1644.982, 7.6728328E-03
1646.911, 7.2012320E-03
1648.839, 7.1959230E-03
1650.767, 7.5998660E-03
1652.696, 7.9084942E-03
1654.624, 7.6459921E-03
1656.553, 7.4405228E-03
1658.481, 7.3195500E-03
1660.410, 7.0460010E-03
1662.338, 7.1370089E-03
1664.267, 6.8812468E-03
1666.195, 6.5860809E-03
1668.124, 6.5383189E-03
1670.052, 6.6002100E-03
1671.981, 7.0345192E-03
1673.909, 7.2151418E-03
1675.838, 6.8704542E-03
1677.766, 6.7536761E-03
1679.694, 7.0484281E-03
1681.623, 6.9467090E-03
1683.551, 6.7158779E-03
1685.480, 6.6665919E-03
1687.408, 6.7406869E-03
1689.337, 6.8608192E-03
1691.265, 6.7740241E-03
1693.194, 6.5860879E-03
1695.122, 6.8022260E-03
1697.051, 6.8910681E-03
1698.979, 6.7696390E-03
1700.908, 6.6578900E-03
1702.836, 6.7472551E-03
1704.765, 6.8523781E-03
1706.693, 6.1921920E-03
1708.621, 6.1564879E-03
1710.550, 6.2825461E-03
1712.478, 5.9901830E-03
1714.407, 5.5711730E-03
1716.335, 5.7942229E-03
1718.264, 6.1970870E-03
1720.192, 5.8824960E-03
1722.121, 5.7609081E-03
1724.049, 6.0495450E-03
1725.978, 5.7456288E-03
1727.906, 5.7287412E-03
1729.835, 5.8138599E-03
1731.763, 5.5906922E-03
1733.692, 5.6950180E-03
1735.620, 5.2077100E-03
1737.548, 4.8687621E-03
1739.477, 4.6058060E-03
1741.405, 3.8829341E-03
1743.334, 3.7721079E-03
1745.262, 3.9749490E-03
1747.191, 3.9553642E-03
1749.119, 4.0324400E-03
1751.048, 4.6399459E-03
1752.976, 5.0811921E-03
1754.905, 5.5080680E-03
1756.833, 5.7611819E-03
1758.762, 5.8942270E-03
1760.690, 6.2695150E-03
1762.619, 6.7605572E-03
1764.547, 6.4777420E-03
1766.475, 5.9739919E-03
1768.404, 6.0677389E-03
1770.332, 6.4699361E-03
1772.261, 6.7616990E-03
1774.189, 6.6658142E-03
1776.118, 6.5561859E-03
1778.046, 6.2015420E-03
1779.975, 6.0620261E-03
1781.903, 6.5572960E-03
1783.832, 6.6509489E-03
1785.760, 6.1236541E-03
1787.689, 6.0211378E-03
1789.617, 6.3874060E-03
1791.546, 6.9008530E-03
1793.474, 7.1224682E-03
1795.402, 6.5738559E-03
1797.331, 6.3400660E-03
1799.259, 6.5917661E-03
1801.188, 6.7623141E-03
1803.116, 6.9608530E-03
1805.045, 6.6338298E-03
1806.973, 6.1822762E-03
1808.902, 6.2305578E-03
1810.830, 6.3487301E-03
1812.759, 6.3961819E-03
1814.687, 6.5872269E-03
1816.616, 6.3679819E-03
1818.544, 6.1915591E-03
1820.473, 6.3473280E-03
1822.401, 6.3268440E-03
1824.329, 6.3749128E-03
1826.258, 6.5793782E-03
1828.186, 6.3201240E-03
1830.115, 5.9345341E-03
1832.043, 6.7113228E-03
1833.972, 7.1428749E-03
1835.900, 7.0946561E-03
1837.829, 6.8356311E-03
1839.757, 6.2205931E-03
1841.686, 5.9287739E-03
1843.614, 6.2517342E-03
1845.543, 6.1716270E-03
1847.471, 5.9624449E-03
1849.400, 6.6233291E-03
1851.328, 7.0831049E-03
1853.256, 7.0745619E-03
1855.185, 7.2301468E-03
1857.113, 7.4071819E-03
1859.042, 6.5480620E-03
1860.970, 6.0770828E-03
1862.899, 6.7933570E-03
1864.827, 6.6046328E-03
1866.756, 5.6807189E-03
1868.684, 6.3205231E-03
1870.613, 6.9525051E-03
1872.541, 6.9370191E-03
1874.470, 6.7358459E-03
1876.398, 6.3971812E-03
1878.327, 7.1014529E-03
1880.255, 7.2818380E-03
1882.183, 6.9129248E-03
1884.112, 6.5430999E-03
1886.040, 5.7118400E-03
1887.969, 5.6408951E-03
1889.897, 6.2228409E-03
1891.826, 6.9982191E-03
1893.754, 6.8677841E-03
1895.683, 5.9589078E-03
1897.611, 5.8724470E-03
1899.540, 5.8974950E-03
1901.468, 6.0693719E-03
1903.397, 5.9123291E-03
1905.325, 5.5255252E-03
1907.254, 5.0351061E-03
1909.182, 5.7735802E-03
1911.110, 6.8031568E-03
1913.039, 6.4559169E-03
1914.967, 6.0038050E-03
1916.896, 5.6417580E-03
1918.824, 6.1635212E-03
1920.753, 6.1611892E-03
1922.681, 5.5166022E-03
1924.610, 6.0059680E-03
1926.538, 6.3322322E-03
1928.467, 5.8506872E-03
1930.395, 5.5294619E-03
1932.324, 5.4629990E-03
1934.252, 3.9801490E-03
1936.181, 4.1863471E-03
1938.109, 4.2281430E-03
1940.037, 3.7697761E-03
1941.966, 4.3261941E-03
1943.894, 3.7280370E-03
1945.823, 2.7875041E-03
1947.751, 3.2537449E-03
1949.680, 3.7384180E-03
1951.608, 4.3845931E-03
1953.537, 4.5158109E-03
1955.465, 2.2871410E-03
1957.394, 1.6338740E-03
1959.322, 3.6827039E-03
1961.251, 5.1096641E-03
1963.179, 6.0354611E-03
1965.108, 3.6181160E-03
1967.036, 8.0210448E-04
1968.964, 9.1927737E-05
1970.893, 9.1362832E-04
1972.821, 2.8593009E-03
1974.750, 1.6326280E-03
1976.678, -7.0705841E-04
1978.607, 3.8098199E-03
1980.535, 4.9989028E-03
1982.464, 2.9757009E-03
1984.392, 2.2089700E-03
1986.321, 3.3252451E-03
1988.249, 5.4371231E-03
1990.178, 5.6846412E-03
1992.106, 5.2717319E-03
1994.035, 5.8208322E-03
1995.963, 6.4614709E-03
1997.891, 5.4554972E-03
1999.820, 2.5326491E-03
2001.748, 2.7582730E-04
2003.677, 2.3956780E-04
2005.605, -7.6086289E-05
2007.534, -8.8264533E-05
2009.462, 1.4804320E-03
2011.391, 4.9331592E-04
2013.319, 9.6194481E-04
2015.248, 2.2850251E-03
2017.176, 3.3460360E-03
2019.105, 2.7379829E-03
2021.033, 1.8672950E-03
2022.962, 8.5845607E-04
2024.890, 1.5260740E-03
2026.818, 3.0132339E-03
2028.747, 4.1444022E-03
2030.675, 2.5073511E-03
2032.604, 1.8872319E-03
2034.532, 1.9126680E-03
2036.461, 3.6158040E-03
2038.389, 4.4654431E-03
2040.318, 3.8029631E-03
2042.246, 4.0418622E-03
2044.175, 4.1191671E-03
2046.103, 3.9442792E-03
2048.032, 5.7020201E-03
2049.960, 7.8344299E-03
2051.889, 8.6697703E-03
2053.817, 7.8622811E-03
2055.746, 7.1930471E-03
2057.674, 6.5666670E-03
2059.603, 7.2483709E-03
2061.531, 7.5219711E-03
2063.459, 5.5070571E-03
2065.388, 5.6692110E-03
2067.316, 5.6481729E-03
2069.245, 6.5115979E-03
2071.173, 6.7257578E-03
2073.102, 6.8680202E-03
2075.030, 6.9348239E-03
2076.959, 6.0921349E-03
2078.887, 6.3021160E-03
2080.816, 6.1691161E-03
2082.744, 5.2498002E-03
2084.673, 5.6617409E-03
2086.601, 7.4512181E-03
2088.530, 6.7478870E-03
2090.458, 5.9975018E-03
2092.386, 6.0213190E-03
2094.315, 7.4795350E-03
2096.243, 8.2226703E-03
2098.172, 6.6919150E-03
2100.100, 6.9632852E-03
2102.029, 9.8416368E-03
2103.957, 9.6405530E-03
2105.886, 7.5375312E-03
2107.814, 7.0291171E-03
2109.743, 8.5295970E-03
2111.671, 9.2970422E-03
2113.600, 7.9877786E-03
2115.528, 7.4309851E-03
2117.457, 7.7141412E-03
2119.385, 7.7009862E-03
2121.313, 7.0678298E-03
2123.242, 5.9415791E-03
2125.170, 4.4459510E-03
2127.099, 4.4439659E-03
2129.027, 5.8809500E-03
2130.956, 5.6750472E-03
2132.884, 4.3231281E-03
2134.813, 5.0727460E-03
2136.741, 7.4045812E-03
2138.670, 7.0840279E-03
2140.598, 3.6928160E-03
2142.527, 3.0603190E-03
2144.455, 3.0395491E-03
2146.384, 2.3633400E-03
2148.312, 2.6226200E-03
2150.240, 3.1085790E-03
2152.169, 3.0924790E-03
2154.097, 3.4745040E-03
2156.026, 1.6946089E-03
2157.954, 2.8227740E-03
2159.883, 7.4528190E-03
2161.811, 8.2025696E-03
2163.740, 6.9725402E-03
2165.668, 5.9243920E-03
2167.597, 6.6115400E-03
2169.525, 9.5328754E-03
2171.454, 9.2609152E-03
2173.382, 6.3203000E-03
2175.311, 6.6562640E-03
2177.239, 8.9573711E-03
2179.167, 9.0022627E-03
2181.096, 1.0536450E-02
2183.024, 1.0832890E-02
2184.953, 1.0010590E-02
2186.881, 1.0266240E-02
2188.810, 8.9174882E-03
2190.738, 8.6750798E-03
2192.667, 8.3458824E-03
2194.595, 8.9585278E-03
2196.524, 9.9679139E-03
2198.452, 1.0055430E-02
2200.381, 9.3524037E-03
2202.309, 8.6983657E-03
2204.238, 1.0747210E-02
2206.166, 1.1964860E-02
2208.094, 1.1543070E-02
2210.023, 1.0842070E-02
2211.951, 9.6770953E-03
2213.880, 8.4403893E-03
2215.808, 9.4075240E-03
2217.737, 1.0444740E-02
2219.665, 1.1002660E-02
2221.594, 1.2709510E-02
2223.522, 1.2087410E-02
2225.451, 1.0799930E-02
2227.379, 1.1152440E-02
2229.308, 1.1735460E-02
2231.236, 9.5275240E-03
2233.165, 8.7510915E-03
2235.093, 1.0371070E-02
2237.021, 1.2096550E-02
2238.950, 1.2993960E-02
2240.878, 1.2847220E-02
2242.807, 1.2992470E-02
2244.735, 1.4085890E-02
2246.664, 1.2497130E-02
2248.592, 1.1323990E-02
2250.521, 1.1078980E-02
2252.449, 1.0305420E-02
2254.378, 1.0862520E-02
2256.306, 1.2505030E-02
2258.235, 1.3582750E-02
2260.163, 1.2657780E-02
2262.092, 1.1048470E-02
2264.020, 1.2113420E-02
2265.948, 1.2617250E-02
2267.877, 1.1270230E-02
2269.805, 1.1647770E-02
2271.734, 1.2888440E-02
2273.662, 1.3619170E-02
2275.591, 1.4199420E-02
2277.519, 1.4344820E-02
2279.448, 1.4001390E-02
2281.376, 1.3899390E-02
2283.305, 1.4496790E-02
2285.233, 1.4564510E-02
2287.162, 1.4148390E-02
2289.090, 1.4066620E-02
2291.019, 1.3928580E-02
2292.947, 1.4030140E-02
2294.875, 1.4389880E-02
2296.804, 1.4189970E-02
2298.732, 1.3724090E-02
2300.661, 1.3660950E-02
2302.589, 1.4026390E-02
2304.518, 1.4324540E-02
2306.446, 1.4976300E-02
2308.375, 1.5636610E-02
2310.303, 1.5030790E-02
2312.232, 1.4310160E-02
2314.160, 1.4056130E-02
2316.089, 1.3679580E-02
2318.017, 1.3160050E-02
2319.946, 1.2898920E-02
2321.874, 1.4282360E-02
2323.802, 1.5812280E-02
2325.731, 1.5469700E-02
2327.659, 1.3946050E-02
2329.588, 1.2752790E-02
2331.516, 1.3376020E-02
2333.445, 1.4116970E-02
2335.373, 1.3873810E-02
2337.302, 1.4065700E-02
2339.230, 1.4034160E-02
2341.159, 1.3342910E-02
2343.087, 1.2409380E-02
2345.016, 1.3202180E-02
2346.944, 1.3909120E-02
2348.873, 1.3022550E-02
2350.801, 1.2477120E-02
2352.729, 1.2669660E-02
2354.658, 1.2648850E-02
2356.586, 1.2995410E-02
2358.515, 1.3792100E-02
2360.443, 1.3906750E-02
2362.372, 1.2943760E-02
2364.300, 1.1908770E-02
2366.229, 1.1991290E-02
2368.157, 1.3159030E-02
2370.086, 1.3761630E-02
2372.014, 1.3273450E-02
2373.942, 1.3031530E-02
2375.871, 1.2827760E-02
2377.799, 1.2480140E-02
2379.728, 1.2577890E-02
2381.656, 1.2795480E-02
2383.585, 1.3603030E-02
2385.513, 1.4150200E-02
2387.442, 1.3986510E-02
2389.370, 1.3655220E-02
2391.299, 1.3542860E-02
2393.227, 1.3097880E-02
2395.156, 1.3023730E-02
2397.084, 1.3159370E-02
2399.012, 1.2702750E-02
2400.941, 1.2286090E-02
2402.869, 1.2532030E-02
2404.798, 1.2579420E-02
2406.726, 1.2850320E-02
2408.655, 1.3526100E-02
2410.583, 1.3205970E-02
2412.512, 1.2022220E-02
2414.440, 1.1760370E-02
2416.369, 1.3095380E-02
2418.297, 1.3716540E-02
2420.226, 1.3608220E-02
2422.154, 1.3424440E-02
2424.083, 1.3064560E-02
2426.011, 1.3286260E-02
2427.939, 1.3955210E-02
2429.868, 1.4245180E-02
2431.796, 1.3764380E-02
2433.725, 1.3428790E-02
2435.653, 1.3102080E-02
2437.582, 1.3403770E-02
2439.510, 1.3676450E-02
2441.439, 1.3508300E-02
2443.367, 1.3764250E-02
2445.296, 1.4990930E-02
2447.224, 1.5111720E-02
2449.153, 1.4116200E-02
2451.081, 1.4791760E-02
2453.010, 1.4969550E-02
2454.938, 1.3761950E-02
2456.866, 1.3428370E-02
2458.795, 1.4247560E-02
2460.723, 1.4436650E-02
2462.652, 1.4608930E-02
2464.580, 1.5269590E-02
2466.509, 1.5105640E-02
2468.437, 1.4189720E-02
2470.366, 1.4622570E-02
2472.294, 1.4981820E-02
2474.223, 1.4015890E-02
2476.151, 1.4308720E-02
2478.080, 1.4140400E-02
2480.008, 1.3766070E-02
2481.937, 1.3568800E-02
2483.865, 1.3454760E-02
2485.793, 1.3455200E-02
2487.722, 1.3533820E-02
2489.650, 1.4152600E-02
2491.579, 1.3110750E-02
2493.507, 1.2762280E-02
2495.436, 1.3371350E-02
2497.364, 1.3796110E-02
2499.293, 1.4818730E-02
2501.221, 1.5553350E-02
2503.150, 1.6131889E-02
2505.078, 1.6265299E-02
2507.007, 1.5614360E-02
2508.935, 1.4166630E-02
2510.864, 1.4331600E-02
2512.792, 1.4130130E-02
2514.720, 1.4420740E-02
2516.649, 1.4429770E-02
2518.577, 1.4374700E-02
2520.506, 1.5560090E-02
2522.434, 1.4954840E-02
2524.363, 1.3933320E-02
2526.291, 1.3954730E-02
2528.220, 1.4025960E-02
2530.148, 1.3906750E-02
2532.077, 1.4282940E-02
2534.005, 1.3992910E-02
2535.934, 1.3459900E-02
2537.862, 1.4343260E-02
2539.791, 1.4536620E-02
2541.719, 1.3969580E-02
2543.647, 1.4360410E-02
2545.576, 1.5073140E-02
2547.504, 1.5407970E-02
2549.433, 1.5341430E-02
2551.361, 1.4340850E-02
2553.290, 1.4261790E-02
2555.218, 1.4841210E-02
2557.147, 1.4477060E-02
2559.075, 1.4946540E-02
2561.004, 1.4735160E-02
2562.932, 1.3959930E-02
2564.861, 1.4568170E-02
2566.789, 1.5386290E-02
2568.718, 1.4949900E-02
2570.646, 1.5727000E-02
2572.574, 1.5346990E-02
2574.503, 1.4638580E-02
2576.431, 1.4905250E-02
2578.360, 1.5091300E-02
2580.288, 1.4496430E-02
2582.217, 1.4930480E-02
2584.145, 1.5388240E-02
2586.074, 1.4767400E-02
2588.002, 1.4732450E-02
2589.931, 1.5974490E-02
2591.859, 1.6183879E-02
2593.788, 1.5437640E-02
2595.716, 1.4930440E-02
2597.645, 1.4672410E-02
2599.573, 1.5394360E-02
2601.501, 1.5694611E-02
2603.430, 1.5442740E-02
2605.358, 1.6404711E-02
2607.287, 1.5815631E-02
2609.215, 1.5428680E-02
2611.144, 1.5676551E-02
2613.072, 1.6795490E-02
2615.001, 1.7701060E-02
2616.929, 1.7602980E-02
2618.858, 1.6623890E-02
2620.786, 1.6421940E-02
2622.715, 1.6985711E-02
2624.643, 1.6920259E-02
2626.572, 1.6996110E-02
2628.500, 1.6696321E-02
2630.428, 1.5799930E-02
2632.357, 1.5897740E-02
2634.285, 1.6677180E-02
2636.214, 1.7028371E-02
2638.142, 1.7097250E-02
2640.071, 1.6929779E-02
2641.999, 1.7192271E-02
2643.928, 1.7103979E-02
2645.856, 1.6856831E-02
2647.785, 1.7142290E-02
2649.713, 1.6642300E-02
2651.642, 1.6215131E-02
2653.570, 1.6764650E-02
2655.499, 1.6510639E-02
2657.427, 1.6289441E-02
2659.355, 1.7164880E-02
2661.284, 1.6237071E-02
2663.212, 1.6053131E-02
2665.141, 1.7010070E-02
2667.069, 1.7041750E-02
2668.998, 1.6500469E-02
2670.926, 1.5105790E-02
2672.855, 1.4328470E-02
2674.783, 1.5285190E-02
2676.712, 1.6478630E-02
2678.640, 1.6828310E-02
2680.569, 1.6939821E-02
2682.497, 1.6601689E-02
2684.426, 1.6801851E-02
2686.354, 1.6712690E-02
2688.282, 1.6356081E-02
2690.211, 1.6334729E-02
2692.139, 1.6766060E-02
2694.068, 1.6931031E-02
2695.996, 1.6200289E-02
2697.925, 1.5342350E-02
2699.853, 1.6049970E-02
2701.782, 1.6731760E-02
2703.710, 1.6468270E-02
2705.639, 1.6344201E-02
2707.567, 1.5953209E-02
2709.496, 1.5740570E-02
2711.424, 1.6214900E-02
2713.353, 1.6619820E-02
2715.281, 1.6512729E-02
2717.209, 1.6101470E-02
2719.138, 1.5027540E-02
2721.066, 1.5360300E-02
2722.995, 1.6773650E-02
2724.923, 1.7623959E-02
2726.852, 1.7692169E-02
2728.780, 1.7692359E-02
2730.709, 1.7609879E-02
2732.637, 1.7273439E-02
2734.566, 1.7452810E-02
2736.494, 1.8197941E-02
2738.423, 1.8003929E-02
2740.351, 1.7645661E-02
2742.280, 1.6954320E-02
2744.208, 1.6196519E-02
2746.136, 1.6705319E-02
2748.065, 1.7930491E-02
2749.993, 1.8275941E-02
2751.922, 1.7903561E-02
2753.850, 1.7722880E-02
2755.779, 1.7759150E-02
2757.707, 1.7740261E-02
2759.636, 1.7723789E-02
2761.564, 1.7549779E-02
2763.493, 1.6895151E-02
2765.421, 1.6479440E-02
2767.350, 1.7054070E-02
2769.278, 1.7647980E-02
2771.207, 1.8599769E-02
2773.135, 1.8263159E-02
2775.063, 1.7645720E-02
2776.992, 1.7749369E-02
2778.920, 1.7688779E-02
2780.849, 1.7243670E-02
2782.777, 1.7487610E-02
2784.706, 1.7829871E-02
2786.634, 1.8039150E-02
2788.563, 1.9060221E-02
2790.491, 1.9262601E-02
2792.420, 1.8740879E-02
2794.348, 1.7914031E-02
2796.277, 1.7639801E-02
2798.205, 1.7644770E-02
2800.134, 1.8011760E-02
2802.062, 1.8767759E-02
2803.990, 1.8500229E-02
2805.919, 1.7393570E-02
2807.847, 1.7440161E-02
2809.776, 1.7711410E-02
2811.704, 1.8121380E-02
2813.633, 1.7764390E-02
2815.561, 1.7840501E-02
2817.490, 1.8516021E-02
2819.418, 1.8067541E-02
2821.347, 1.7401019E-02
2823.275, 1.7060069E-02
2825.204, 1.7614000E-02
2827.132, 1.8279240E-02
2829.061, 1.7809721E-02
2830.989, 1.7215541E-02
2832.917, 1.7820250E-02
2834.846, 1.8151950E-02
2836.774, 1.7568380E-02
2838.703, 1.8028559E-02
2840.631, 1.8119510E-02
2842.560, 1.9053809E-02
2844.488, 1.9294379E-02
2846.417, 1.7758740E-02
2848.345, 1.7250501E-02
2850.274, 1.7365700E-02
2852.202, 1.7447039E-02
2854.131, 1.7119050E-02
2856.059, 1.6787250E-02
2857.988, 1.7127579E-02
2859.916, 1.7083570E-02
2861.844, 1.7661370E-02
2863.773, 1.8633030E-02
2865.701, 1.8548610E-02
2867.630, 1.7914381E-02
2869.558, 1.7339939E-02
2871.487, 1.7375389E-02
2873.415, 1.8418660E-02
2875.344, 1.8026760E-02
2877.272, 1.6714809E-02
2879.201, 1.6084161E-02
2881.129, 1.6768331E-02
2883.058, 1.7489150E-02
2884.986, 1.7761370E-02
2886.915, 1.7655021E-02
2888.843, 1.8425280E-02
2890.771, 1.8515799E-02
2892.700, 1.6842600E-02
2894.628, 1.6573550E-02
2896.557, 1.7476730E-02
2898.485, 1.8741431E-02
2900.414, 1.7955421E-02
2902.342, 1.7258121E-02
2904.271, 1.7148310E-02
2906.199, 1.8035140E-02
2908.128, 1.8979670E-02
2910.056, 1.9194480E-02
2911.985, 1.8776260E-02
2913.913, 1.8617099E-02
2915.842, 1.8214891E-02
2917.770, 1.7653169E-02
2919.698, 1.8758129E-02
2921.627, 1.8731490E-02
2923.555, 1.7016189E-02
2925.484, 1.7452450E-02
2927.412, 1.9288640E-02
2929.341, 1.9640340E-02
2931.269, 1.8982731E-02
2933.198, 1.8724009E-02
2935.126, 1.7336410E-02
2937.055, 1.6800340E-02
2938.983, 1.8158911E-02
2940.912, 1.9532710E-02
2942.840, 1.9052081E-02
2944.769, 1.7879611E-02
2946.697, 1.8281240E-02
2948.625, 1.8320810E-02
2950.554, 1.7796431E-02
2952.482, 1.7787751E-02
2954.411, 1.7910279E-02
2956.339, 1.8711530E-02
2958.268, 1.9426661E-02
2960.196, 1.9446550E-02
2962.125, 2.0426000E-02
2964.053, 2.0335371E-02
2965.982, 2.0022180E-02
2967.910, 1.9094290E-02
2969.839, 1.9135980E-02
2971.767, 1.8722700E-02
2973.696, 1.8222529E-02
2975.624, 1.8915540E-02
2977.552, 1.9679280E-02
2979.481, 2.0166790E-02
2981.409, 1.9615769E-02
2983.338, 1.8900760E-02
2985.266, 1.8839549E-02
2987.195, 2.0304160E-02
2989.123, 2.0745950E-02
2991.052, 2.0908941E-02
2992.980, 1.9654641E-02
2994.909, 1.8188490E-02
2996.837, 1.8297190E-02
2998.766, 1.9849660E-02
3000.694, 2.1214571E-02
3002.623, 2.0298680E-02
3004.551, 1.9309601E-02
3006.479, 2.0608161E-02
3008.408, 2.0712789E-02
3010.336, 2.1345910E-02
3012.265, 2.1494620E-02
3014.193, 2.0776900E-02
3016.122, 2.0970911E-02
3018.050, 2.1243511E-02
3019.979, 2.1248531E-02
3021.907, 2.1526361E-02
3023.836, 2.1776101E-02
3025.764, 2.0831440E-02
3027.693, 1.9838421E-02
3029.621, 2.0577339E-02
3031.550, 2.0644750E-02
3033.478, 2.0180991E-02
3035.406, 1.9580180E-02
3037.335, 1.9717289E-02
3039.263, 2.1474769E-02
3041.192, 2.1541091E-02
3043.120, 2.0151740E-02
3045.049, 1.9610571E-02
3046.977, 1.9713551E-02
3048.906, 2.0039150E-02
3050.834, 2.0971101E-02
3052.763, 2.1681421E-02
3054.691, 2.1568460E-02
3056.620, 2.0857550E-02
3058.548, 2.1431150E-02
3060.477, 2.2024140E-02
3062.405, 2.1334089E-02
3064.333, 1.9242540E-02
3066.262, 1.9995291E-02
3068.190, 2.1804821E-02
3070.119, 2.1070929E-02
3072.047, 2.1065930E-02
3073.976, 2.1408660E-02
3075.904, 2.0582600E-02
3077.833, 2.0394750E-02
3079.761, 2.0834690E-02
3081.690, 2.0455590E-02
3083.618, 1.9790631E-02
3085.547, 2.1030150E-02
3087.475, 2.3081729E-02
3089.404, 2.3109140E-02
3091.332, 2.2301130E-02
3093.260, 2.2116920E-02
3095.189, 2.2545511E-02
3097.117, 2.2470050E-02
3099.046, 2.2665409E-02
3100.974, 2.2159001E-02
3102.903, 2.2128191E-02
3104.831, 2.2988930E-02
3106.760, 2.2643499E-02
3108.688, 2.0837460E-02
3110.617, 2.0551460E-02
3112.545, 2.1431340E-02
3114.474, 2.1385670E-02
3116.402, 2.1853959E-02
3118.331, 2.1809740E-02
3120.259, 2.2541100E-02
3122.188, 2.3178680E-02
3124.116, 2.2200949E-02
3126.044, 2.2770289E-02
3127.973, 2.3969810E-02
3129.901, 2.4937600E-02
3131.830, 2.5325021E-02
3133.758, 2.4072930E-02
3135.687, 2.3257259E-02
3137.615, 2.2910461E-02
3139.544, 2.3994470E-02
3141.472, 2.4125511E-02
3143.401, 2.3638910E-02
3145.329, 2.2958370E-02
3147.258, 2.1158900E-02
3149.186, 2.1052159E-02
3151.115, 2.3252159E-02
3153.043, 2.3436740E-02
3154.971, 2.3242339E-02
3156.900, 2.3044530E-02
3158.828, 2.3205711E-02
3160.757, 2.3944160E-02
3162.685, 2.3339029E-02
3164.614, 2.1562541E-02
3166.542, 2.1718509E-02
3168.471, 2.3087669E-02
3170.399, 2.3834320E-02
3172.328, 2.2836290E-02
3174.256, 2.3168551E-02
3176.185, 2.3796011E-02
3178.113, 2.3263309E-02
3180.042, 2.2369560E-02
3181.970, 2.2908811E-02
3183.898, 2.2791309E-02
3185.827, 2.1992020E-02
3187.755, 2.3494380E-02
3189.684, 2.4185130E-02
3191.612, 2.4107531E-02
3193.541, 2.5573939E-02
3195.469, 2.6068861E-02
3197.398, 2.6278701E-02
3199.326, 2.7157020E-02
3201.255, 2.5984090E-02
3203.183, 2.2987289E-02
3205.112, 2.1106509E-02
3207.040, 2.1067530E-02
3208.969, 2.2567751E-02
3210.897, 2.4774980E-02
3212.825, 2.5259901E-02
3214.754, 2.3350401E-02
3216.682, 2.2398431E-02
3218.611, 2.3714310E-02
3220.539, 2.3626059E-02
3222.468, 2.3104301E-02
3224.396, 2.3483559E-02
3226.325, 2.2845831E-02
3228.253, 2.2941140E-02
3230.182, 2.4705131E-02
3232.110, 2.4696890E-02
3234.039, 2.4377940E-02
3235.967, 2.4415171E-02
3237.896, 2.3823010E-02
3239.824, 2.4438160E-02
3241.752, 2.5128851E-02
3243.681, 2.5536310E-02
3245.609, 2.4863521E-02
3247.538, 2.3967819E-02
3249.466, 2.3866970E-02
3251.395, 2.2854950E-02
3253.323, 2.2590039E-02
3255.252, 2.4142699E-02
3257.180, 2.6794231E-02
3259.109, 2.6665280E-02
3261.037, 2.4295080E-02
3262.966, 2.5192250E-02
3264.894, 2.5935881E-02
3266.823, 2.5014021E-02
3268.751, 2.5156770E-02
3270.679, 2.4612680E-02
3272.608, 2.4625540E-02
3274.536, 2.4824750E-02
3276.465, 2.4659749E-02
3278.393, 2.3808450E-02
3280.322, 2.3318781E-02
3282.250, 2.3999810E-02
3284.179, 2.3965660E-02
3286.107, 2.4265099E-02
3288.036, 2.5004251E-02
3289.964, 2.4295470E-02
3291.893, 2.4016740E-02
3293.821, 2.2944881E-02
3295.750, 2.4724230E-02
3297.678, 2.8150311E-02
3299.606, 2.7580069E-02
3301.535, 2.4546720E-02
3303.463, 2.3054879E-02
3305.392, 2.2247991E-02
3307.320, 2.3351640E-02
3309.249, 2.5460860E-02
3311.177, 2.6327681E-02
3313.106, 2.7574740E-02
3315.034, 2.7328920E-02
3316.963, 2.6340660E-02
3318.891, 2.5029531E-02
3320.820, 2.5518630E-02
3322.748, 2.7021950E-02
3324.677, 2.6002791E-02
3326.605, 2.5779970E-02
3328.533, 2.4811629E-02
3330.462, 2.2894140E-02
3332.390, 2.2610940E-02
3334.319, 2.2244660E-02
3336.247, 2.3877591E-02
3338.176, 2.6335310E-02
3340.104, 2.7145730E-02
3342.033, 2.5522960E-02
3343.961, 2.5411170E-02
3345.890, 2.7056640E-02
3347.818, 2.7427020E-02
3349.747, 2.8136320E-02
3351.675, 2.7370131E-02
3353.604, 2.7585059E-02
3355.532, 2.7554691E-02
3357.460, 2.6380630E-02
3359.389, 2.6528619E-02
3361.317, 2.6365571E-02
3363.246, 2.6169211E-02
3365.174, 2.5669729E-02
3367.103, 2.5590770E-02
3369.031, 2.4551710E-02
3370.960, 2.4940180E-02
3372.888, 2.5556721E-02
3374.817, 2.6095660E-02
3376.745, 2.7405219E-02
3378.674, 2.6872341E-02
3380.602, 2.6848430E-02
3382.531, 2.5523150E-02
3384.459, 2.4959300E-02
3386.387, 2.4329189E-02
3388.316, 2.4815889E-02
3390.244, 2.4766160E-02
3392.173, 2.5296070E-02
3394.101, 2.4668530E-02
3396.030, 2.4308890E-02
3397.958, 2.5169250E-02
3399.887, 2.6432060E-02
3401.815, 2.6204141E-02
3403.744, 2.5096931E-02
3405.672, 2.5259100E-02
3407.601, 2.5958311E-02
3409.529, 2.6127299E-02
3411.458, 2.6561489E-02
3413.386, 2.6060170E-02
3415.314, 2.6456609E-02
3417.243, 2.7861601E-02
3419.171, 2.8392609E-02
3421.100, 2.5674850E-02
3423.028, 2.5227010E-02
3424.957, 2.9667409E-02
3426.885, 2.9053999E-02
3428.814, 2.7828369E-02
3430.742, 2.9253161E-02
3432.671, 2.9497789E-02
3434.599, 2.7279470E-02
3436.528, 2.4974460E-02
3438.456, 2.5226571E-02
3440.385, 2.6210841E-02
3442.313, 2.6949899E-02
3444.241, 2.6181690E-02
3446.170, 2.6846981E-02
3448.098, 2.8112940E-02
3450.027, 2.6107941E-02
3451.955, 2.4779560E-02
3453.884, 2.5842071E-02
3455.812, 2.4784660E-02
3457.741, 2.5318300E-02
3459.669, 2.6621550E-02
3461.598, 2.7412839E-02
3463.526, 2.9180700E-02
3465.455, 2.8939640E-02
3467.383, 2.7879110E-02
3469.312, 2.7355351E-02
3471.240, 2.8037369E-02
3473.168, 2.8752681E-02
3475.097, 2.6734170E-02
3477.025, 2.6083080E-02
3478.954, 2.9219950E-02
3480.882, 2.9258961E-02
3482.811, 2.6523961E-02
3484.739, 2.4726970E-02
3486.668, 2.5739729E-02
3488.596, 2.7852450E-02
3490.525, 2.7171800E-02
3492.453, 2.6587740E-02
3494.382, 2.6946049E-02
3496.310, 2.4993960E-02
3498.239, 2.4246020E-02
3500.167, 2.5239659E-02
3502.095, 2.4001829E-02
3504.024, 2.4371879E-02
3505.952, 2.4974789E-02
3507.881, 2.6066940E-02
3509.809, 2.6413020E-02
3511.738, 2.7428269E-02
3513.666, 2.5739990E-02
3515.595, 2.6120471E-02
3517.523, 2.7131390E-02
3519.452, 2.8991310E-02
3521.380, 2.8478010E-02
3523.309, 2.6348200E-02
3525.237, 2.6448419E-02
3527.166, 2.5408920E-02
3529.094, 2.6269419E-02
3531.022, 2.8276980E-02
3532.951, 2.8052051E-02
3534.879, 2.6716691E-02
3536.808, 2.8189261E-02
3538.736, 2.7771300E-02
3540.665, 2.7894430E-02
3542.593, 2.9596750E-02
3544.522, 2.7300900E-02
3546.450, 2.4653239E-02
3548.379, 2.5816729E-02
3550.307, 3.0468110E-02
3552.236, 2.7068730E-02
3554.164, 2.3286751E-02
3556.093, 2.5601011E-02
3558.021, 2.7719550E-02
3559.949, 2.7635740E-02
3561.878, 2.6469391E-02
3563.806, 2.6859021E-02
3565.735, 2.6753951E-02
3567.663, 2.6015099E-02
3569.592, 2.6864240E-02
3571.520, 2.5851890E-02
3573.449, 2.4683321E-02
3575.377, 2.7582809E-02
3577.306, 2.7164839E-02
3579.234, 2.5446910E-02
3581.163, 2.5569661E-02
3583.091, 2.5910901E-02
3585.020, 2.2363840E-02
3586.948, 2.4274791E-02
3588.876, 2.5200009E-02
3590.805, 2.3070561E-02
3592.733, 2.5146030E-02
3594.662, 2.8959990E-02
3596.590, 2.8922349E-02
3598.519, 2.6844541E-02
3600.447, 2.7071809E-02
3602.376, 2.7271651E-02
3604.304, 2.4511861E-02
3606.233, 2.2001799E-02
3608.161, 2.4178060E-02
3610.090, 2.5608281E-02
3612.018, 2.4729289E-02
3613.947, 2.5573811E-02
3615.875, 2.7445890E-02
3617.803, 2.7238410E-02
3619.732, 2.5839319E-02
3621.660, 2.6256310E-02
3623.589, 2.7137579E-02
3625.517, 2.3730600E-02
3627.446, 2.2736410E-02
3629.374, 2.5670150E-02
3631.303, 2.5216451E-02
3633.231, 2.4122830E-02
3635.160, 2.4637640E-02
3637.088, 2.6232639E-02
3639.017, 2.4199679E-02
3640.945, 2.4724890E-02
3642.874, 2.5719989E-02
3644.802, 2.4546970E-02
3646.730, 2.3312390E-02
3648.659, 2.5175320E-02
3650.587, 2.5430251E-02
3652.516, 2.7680051E-02
3654.444, 2.8964929E-02
3656.373, 2.4371320E-02
3658.301, 2.2549490E-02
3660.230, 2.1933891E-02
3662.158, 2.3254640E-02
3664.087, 2.7978390E-02
3666.015, 2.7337920E-02
3667.944, 2.7103679E-02
3669.872, 2.4816090E-02
3671.801, 2.2275370E-02
3673.729, 2.0563820E-02
3675.657, 2.2985220E-02
3677.586, 2.5548249E-02
3679.514, 2.5354519E-02
3681.443, 2.3806410E-02
3683.371, 2.3672590E-02
3685.300, 2.5502451E-02
3687.228, 2.5016969E-02
3689.157, 2.2097200E-02
3691.085, 2.3491571E-02
3693.014, 2.6313931E-02
3694.942, 2.1887841E-02
3696.871, 1.9082841E-02
3698.799, 2.3340439E-02
3700.728, 2.6432339E-02
3702.656, 2.8022200E-02
3704.584, 2.9828809E-02
3706.513, 2.8198740E-02
3708.441, 2.6185550E-02
3710.370, 2.5771249E-02
3712.298, 2.5421470E-02
3714.227, 2.6372129E-02
3716.155, 2.5621271E-02
3718.084, 2.2990830E-02
3720.012, 2.3649281E-02
3721.941, 2.7248690E-02
3723.869, 2.8763041E-02
3725.798, 2.6297931E-02
3727.726, 2.6411731E-02
3729.655, 2.5958810E-02
3731.583, 2.5711430E-02
3733.511, 2.4622710E-02
3735.440, 2.4167269E-02
3737.368, 2.6470480E-02
3739.297, 2.7706301E-02
3741.225, 2.7902300E-02
3743.154, 2.6368130E-02
3745.082, 2.4665890E-02
3747.011, 2.6917661E-02
3748.939, 2.7918760E-02
3750.868, 2.8480791E-02
3752.796, 2.6957070E-02
3754.725, 2.3406830E-02
3756.653, 2.4928510E-02
3758.582, 2.7797250E-02
3760.510, 2.7042501E-02
3762.438, 2.5554990E-02
3764.367, 2.5997389E-02
3766.295, 2.5100080E-02
3768.224, 2.3511119E-02
3770.152, 2.7993251E-02
3772.081, 2.8603701E-02
3774.009, 2.3781929E-02
3775.938, 2.3745971E-02
3777.866, 2.6607310E-02
3779.795, 2.9305920E-02
3781.723, 2.6435180E-02
3783.652, 2.3076870E-02
3785.580, 2.2379991E-02
3787.509, 2.0683769E-02
3789.437, 2.1347340E-02
3791.365, 2.5619909E-02
3793.294, 2.6434580E-02
3795.222, 2.4883769E-02
3797.151, 2.5549110E-02
3799.079, 2.6727419E-02
3801.008, 2.6984710E-02
3802.936, 2.6989309E-02
3804.865, 2.6445139E-02
3806.793, 2.6079969E-02
3808.722, 2.7872210E-02
3810.650, 2.6129100E-02
3812.579, 2.6457930E-02
3814.507, 3.0350070E-02
3816.436, 3.0287370E-02
3818.364, 2.5675530E-02
3820.292, 2.2007110E-02
3822.221, 2.1365890E-02
3824.149, 2.2299901E-02
3826.078, 2.3743620E-02
3828.006, 2.6513699E-02
3829.935, 2.5624450E-02
3831.863, 2.9124090E-02
3833.792, 3.1846602E-02
3835.720, 2.8862940E-02
3837.649, 2.5779501E-02
3839.577, 2.5572570E-02
3841.506, 2.5299011E-02
3843.434, 2.4852650E-02
3845.363, 2.7039429E-02
3847.291, 2.6578110E-02
3849.219, 2.4633380E-02
3851.148, 2.5439210E-02
3853.076, 2.8280551E-02
3855.005, 2.9435690E-02
3856.933, 2.8284160E-02
3858.862, 2.8013680E-02
3860.790, 2.7067959E-02
3862.719, 2.8011089E-02
3864.647, 2.8681191E-02
3866.576, 2.7381310E-02
3868.504, 2.7651660E-02
3870.433, 2.7351789E-02
3872.361, 2.4323059E-02
3874.290, 2.6168140E-02
3876.218, 2.7328851E-02
3878.146, 2.8763199E-02
3880.075, 2.8771620E-02
3882.003, 2.6720550E-02
3883.932, 2.7028680E-02
3885.860, 2.7121520E-02
3887.789, 2.3895441E-02
3889.717, 2.4064681E-02
3891.646, 2.6285371E-02
3893.574, 2.6398901E-02
3895.503, 2.6910121E-02
3897.431, 2.6117491E-02
3899.360, 2.6621209E-02
3901.288, 2.7204631E-02
3903.217, 2.7300481E-02
3905.145, 2.5090029E-02
3907.073, 2.1687180E-02
3909.002, 2.4623120E-02
3910.930, 2.8402479E-02
3912.859, 2.8755991E-02
3914.787, 2.7779030E-02
3916.716, 2.8551649E-02
3918.644, 2.9374501E-02
3920.573, 2.9163240E-02
3922.501, 2.7898241E-02
3924.430, 2.8685370E-02
3926.358, 2.8706880E-02
3928.287, 2.7570410E-02
3930.215, 2.8250700E-02
3932.144, 2.8921301E-02
3934.072, 2.7964890E-02
3936.000, 3.1255230E-02
3937.929, 3.2393821E-02
3939.857, 2.7571620E-02
3941.786, 2.3794729E-02
3943.714, 2.6580520E-02
3945.643, 2.8437231E-02
3947.571, 2.7493481E-02
3949.500, 2.5523361E-02
3951.428, 2.5836181E-02
3953.357, 2.8852589E-02
3955.285, 2.7936250E-02
3957.214, 2.7004190E-02
3959.142, 3.0951550E-02
3961.071, 3.3771679E-02
3962.999, 3.2765321E-02
3964.927, 2.7889119E-02
3966.856, 2.7201509E-02
3968.784, 3.0617150E-02
3970.713, 3.5339560E-02
3972.641, 3.2823980E-02
3974.570, 2.7190190E-02
3976.498, 2.4507221E-02
3978.427, 2.4102669E-02
3980.355, 2.4149120E-02
3982.284, 2.7663380E-02
3984.212, 2.6943849E-02
3986.141, 2.7981151E-02
3988.069, 3.0397270E-02
3989.998, 3.1835500E-02
3991.926, 3.4438659E-02
3993.854, 3.3338759E-02
3995.783, 3.0568169E-02
3997.711, 2.8419821E-02
3999.640, 2.8433541E-02
##END=



