##NAMES=Xenotime-(Y)
##RRUFFID=R050178
##IDEAL CHEMISTRY=Y^3+^PO_4_
##LOCALITY=Novo Horizonte, Bahia, Brazil
##OWNER=RRUFF
##SOURCE=Marcus Origlieri
##DESCRIPTION=Brown crystal fragments
##STATUS=The identification of this mineral has been confirmed by X-ray diffraction and chemical analysis
##URL=rruff.info/R050178
##MEASURED CHEMISTRY=(Y_0.74_Dy_0.09_Gd_0.06_Er_0.04_Yb_0.02_Ho_0.01_Tb_0.01_Sm_0.01_Eu_0.01_)_Σ=1.00_(P_0.97_As_0.02_Si_0.01_)_Σ=1.00_O_4_
3.741225e+002, 6.948992e-002
3.760510e+002, 6.880968e-002
3.779795e+002, 6.221800e-002
3.799079e+002, 5.488940e-002
3.818364e+002, 4.916485e-002
3.837649e+002, 4.560972e-002
3.856933e+002, 4.329221e-002
3.876218e+002, 3.922792e-002
3.895503e+002, 3.534660e-002
3.914787e+002, 3.321844e-002
3.934072e+002, 3.451799e-002
3.953357e+002, 3.242153e-002
3.972641e+002, 3.225413e-002
3.991926e+002, 3.226587e-002
4.011211e+002, 2.838075e-002
4.030495e+002, 2.335400e-002
4.049780e+002, 2.218855e-002
4.069065e+002, 2.315354e-002
4.088349e+002, 2.296629e-002
4.107634e+002, 2.544352e-002
4.126919e+002, 2.710718e-002
4.146203e+002, 2.609565e-002
4.165488e+002, 2.313571e-002
4.184773e+002, 1.954856e-002
4.204057e+002, 1.696774e-002
4.223342e+002, 1.512365e-002
4.242627e+002, 1.394234e-002
4.261911e+002, 1.299899e-002
4.281196e+002, 1.220584e-002
4.300481e+002, 1.215732e-002
4.319765e+002, 1.275149e-002
4.339050e+002, 1.341037e-002
4.358335e+002, 1.431836e-002
4.377619e+002, 1.488811e-002
4.396904e+002, 1.510720e-002
4.416189e+002, 1.561377e-002
4.435473e+002, 1.638806e-002
4.454758e+002, 1.605021e-002
4.474043e+002, 1.619745e-002
4.493327e+002, 1.745438e-002
4.512612e+002, 1.878580e-002
4.531897e+002, 1.943063e-002
4.551181e+002, 2.051938e-002
4.570466e+002, 2.124035e-002
4.589751e+002, 2.172721e-002
4.609035e+002, 2.238300e-002
4.628320e+002, 2.375271e-002
4.647605e+002, 2.514092e-002
4.666889e+002, 2.663590e-002
4.686174e+002, 2.779795e-002
4.705459e+002, 2.940880e-002
4.724743e+002, 3.230799e-002
4.744028e+002, 3.469945e-002
4.763313e+002, 3.671280e-002
4.782597e+002, 3.959291e-002
4.801882e+002, 4.247159e-002
4.821167e+002, 4.488481e-002
4.840451e+002, 4.700830e-002
4.859736e+002, 4.858018e-002
4.879021e+002, 5.001528e-002
4.898305e+002, 5.255331e-002
4.917590e+002, 5.616828e-002
4.936875e+002, 6.056922e-002
4.956159e+002, 6.496660e-002
4.975444e+002, 7.009053e-002
4.994729e+002, 7.559657e-002
5.014013e+002, 8.187282e-002
5.033298e+002, 8.950002e-002
5.052583e+002, 9.814738e-002
5.071867e+002, 1.085800e-001
5.091152e+002, 1.196746e-001
5.110437e+002, 1.322627e-001
5.129721e+002, 1.467107e-001
5.149006e+002, 1.619170e-001
5.168290e+002, 1.764524e-001
5.187575e+002, 1.867556e-001
5.206860e+002, 1.879269e-001
5.226144e+002, 1.779391e-001
5.245429e+002, 1.602987e-001
5.264714e+002, 1.397693e-001
5.283998e+002, 1.194538e-001
5.303283e+002, 1.003763e-001
5.322568e+002, 8.233885e-002
5.341852e+002, 6.685608e-002
5.361137e+002, 5.394133e-002
5.380422e+002, 4.296568e-002
5.399706e+002, 3.441892e-002
5.418991e+002, 2.956780e-002
5.438276e+002, 2.640810e-002
5.457560e+002, 2.370672e-002
5.476845e+002, 2.203506e-002
5.496130e+002, 2.116422e-002
5.515414e+002, 2.095098e-002
5.534699e+002, 2.177919e-002
5.553984e+002, 2.211869e-002
5.573268e+002, 2.194073e-002
5.592553e+002, 2.174256e-002
5.611838e+002, 2.158322e-002
5.631122e+002, 2.175339e-002
5.650407e+002, 2.193307e-002
5.669692e+002, 2.209842e-002
5.688976e+002, 2.221172e-002
5.708261e+002, 2.250353e-002
5.727546e+002, 2.295728e-002
5.746830e+002, 2.346322e-002
5.766115e+002, 2.382989e-002
5.785400e+002, 2.490100e-002
5.804684e+002, 2.633337e-002
5.823969e+002, 2.764475e-002
5.843254e+002, 2.883382e-002
5.862538e+002, 3.021998e-002
5.881823e+002, 3.115756e-002
5.901108e+002, 3.197606e-002
5.920392e+002, 3.311067e-002
5.939677e+002, 3.462834e-002
5.958962e+002, 3.666854e-002
5.978246e+002, 3.864083e-002
5.997531e+002, 4.052106e-002
6.016816e+002, 4.279121e-002
6.036100e+002, 4.528179e-002
6.055385e+002, 4.813891e-002
6.074670e+002, 5.103879e-002
6.093954e+002, 5.402492e-002
6.113239e+002, 5.758983e-002
6.132524e+002, 6.129714e-002
6.151808e+002, 6.549837e-002
6.171093e+002, 7.038444e-002
6.190378e+002, 7.580329e-002
6.209662e+002, 8.140950e-002
6.228947e+002, 8.725075e-002
6.248232e+002, 9.378451e-002
6.267516e+002, 1.013553e-001
6.286801e+002, 1.100975e-001
6.306086e+002, 1.200589e-001
6.325370e+002, 1.309884e-001
6.344655e+002, 1.425119e-001
6.363940e+002, 1.515935e-001
6.383224e+002, 1.540535e-001
6.402509e+002, 1.495736e-001
6.421794e+002, 1.408969e-001
6.441078e+002, 1.302734e-001
6.460363e+002, 1.184638e-001
6.479648e+002, 1.062867e-001
6.498932e+002, 9.406342e-002
6.518217e+002, 8.240829e-002
6.537502e+002, 7.165035e-002
6.556786e+002, 6.187043e-002
6.576071e+002, 5.304905e-002
6.595356e+002, 4.502759e-002
6.614641e+002, 3.817154e-002
6.633925e+002, 3.298045e-002
6.653210e+002, 2.955741e-002
6.672495e+002, 2.758349e-002
6.691779e+002, 2.653947e-002
6.711064e+002, 2.572913e-002
6.730349e+002, 2.527386e-002
6.749633e+002, 2.561680e-002
6.768918e+002, 2.645127e-002
6.788203e+002, 2.682977e-002
6.807487e+002, 2.614700e-002
6.826772e+002, 2.483505e-002
6.846057e+002, 2.415362e-002
6.865341e+002, 2.410400e-002
6.884626e+002, 2.416079e-002
6.903911e+002, 2.451645e-002
6.923195e+002, 2.495363e-002
6.942480e+002, 2.534426e-002
6.961765e+002, 2.584058e-002
6.981049e+002, 2.621940e-002
7.000334e+002, 2.679141e-002
7.019619e+002, 2.727581e-002
7.038903e+002, 2.799019e-002
7.058188e+002, 2.871159e-002
7.077473e+002, 2.937303e-002
7.096757e+002, 2.999408e-002
7.116042e+002, 3.072725e-002
7.135327e+002, 3.144243e-002
7.154611e+002, 3.215866e-002
7.173896e+002, 3.280730e-002
7.193181e+002, 3.318306e-002
7.212465e+002, 3.358035e-002
7.231750e+002, 3.405763e-002
7.251035e+002, 3.434957e-002
7.270319e+002, 3.440992e-002
7.289604e+002, 3.474166e-002
7.308889e+002, 3.520856e-002
7.328173e+002, 3.566520e-002
7.347458e+002, 3.602705e-002
7.366743e+002, 3.634612e-002
7.386027e+002, 3.653277e-002
7.405312e+002, 3.664720e-002
7.424597e+002, 3.670909e-002
7.443881e+002, 3.713243e-002
7.463166e+002, 3.769459e-002
7.482451e+002, 3.799368e-002
7.501735e+002, 3.858071e-002
7.521020e+002, 3.929368e-002
7.540305e+002, 3.995561e-002
7.559589e+002, 4.097425e-002
7.578874e+002, 4.181620e-002
7.598159e+002, 4.266888e-002
7.617443e+002, 4.355681e-002
7.636728e+002, 4.438769e-002
7.656013e+002, 4.532963e-002
7.675297e+002, 4.646033e-002
7.694582e+002, 4.733159e-002
7.713867e+002, 4.829447e-002
7.733151e+002, 4.934400e-002
7.752436e+002, 5.057149e-002
7.771721e+002, 5.176333e-002
7.791005e+002, 5.311629e-002
7.810290e+002, 5.430202e-002
7.829575e+002, 5.535618e-002
7.848859e+002, 5.634990e-002
7.868144e+002, 5.742574e-002
7.887429e+002, 5.867806e-002
7.906713e+002, 6.026727e-002
7.925998e+002, 6.178210e-002
7.945283e+002, 6.312846e-002
7.964567e+002, 6.449209e-002
7.983852e+002, 6.594292e-002
8.003137e+002, 6.743956e-002
8.022421e+002, 6.877930e-002
8.041706e+002, 7.003738e-002
8.060991e+002, 7.132199e-002
8.080275e+002, 7.272025e-002
8.099560e+002, 7.445349e-002
8.118845e+002, 7.604966e-002
8.138129e+002, 7.735561e-002
8.157414e+002, 7.875727e-002
8.176699e+002, 8.042547e-002
8.195983e+002, 8.205207e-002
8.215268e+002, 8.371887e-002
8.234553e+002, 8.552045e-002
8.253837e+002, 8.726237e-002
8.273122e+002, 8.905074e-002
8.292407e+002, 9.099348e-002
8.311691e+002, 9.294652e-002
8.330976e+002, 9.505169e-002
8.350261e+002, 9.782445e-002
8.369545e+002, 1.009381e-001
8.388830e+002, 1.038614e-001
8.408115e+002, 1.055747e-001
8.427399e+002, 1.061938e-001
8.446684e+002, 1.074704e-001
8.465969e+002, 1.097470e-001
8.485253e+002, 1.124893e-001
8.504538e+002, 1.156948e-001
8.523823e+002, 1.191469e-001
8.543107e+002, 1.227036e-001
8.562392e+002, 1.257218e-001
8.581677e+002, 1.282251e-001
8.600961e+002, 1.292709e-001
8.620246e+002, 1.284626e-001
8.639531e+002, 1.259390e-001
8.658815e+002, 1.226251e-001
8.678100e+002, 1.197906e-001
8.697385e+002, 1.181710e-001
8.716669e+002, 1.181215e-001
8.735954e+002, 1.193183e-001
8.755239e+002, 1.215342e-001
8.774523e+002, 1.243936e-001
8.793808e+002, 1.275797e-001
8.813093e+002, 1.311541e-001
8.832377e+002, 1.349381e-001
8.851662e+002, 1.385648e-001
8.870947e+002, 1.423216e-001
8.890231e+002, 1.461508e-001
8.909516e+002, 1.496451e-001
8.928801e+002, 1.527638e-001
8.948085e+002, 1.557290e-001
8.967370e+002, 1.582922e-001
8.986655e+002, 1.610148e-001
9.005939e+002, 1.638853e-001
9.025224e+002, 1.664696e-001
9.044509e+002, 1.682636e-001
9.063793e+002, 1.688515e-001
9.083078e+002, 1.691476e-001
9.102363e+002, 1.702665e-001
9.121647e+002, 1.722359e-001
9.140932e+002, 1.749554e-001
9.160217e+002, 1.782970e-001
9.179501e+002, 1.820575e-001
9.198786e+002, 1.860042e-001
9.218071e+002, 1.899883e-001
9.237355e+002, 1.939808e-001
9.256640e+002, 1.981583e-001
9.275925e+002, 2.024275e-001
9.295209e+002, 2.065572e-001
9.314494e+002, 2.106466e-001
9.333779e+002, 2.149135e-001
9.353063e+002, 2.193689e-001
9.372348e+002, 2.236205e-001
9.391633e+002, 2.275358e-001
9.410917e+002, 2.313858e-001
9.430202e+002, 2.350725e-001
9.449487e+002, 2.389494e-001
9.468771e+002, 2.429599e-001
9.488056e+002, 2.467044e-001
9.507341e+002, 2.503266e-001
9.526625e+002, 2.538341e-001
9.545910e+002, 2.571417e-001
9.565195e+002, 2.600989e-001
9.584479e+002, 2.629695e-001
9.603764e+002, 2.659641e-001
9.623049e+002, 2.691292e-001
9.642333e+002, 2.724269e-001
9.661618e+002, 2.757752e-001
9.680903e+002, 2.790176e-001
9.700187e+002, 2.823982e-001
9.719472e+002, 2.857549e-001
9.738757e+002, 2.886907e-001
9.758041e+002, 2.912596e-001
9.777326e+002, 2.935099e-001
9.796611e+002, 2.951558e-001
9.815895e+002, 2.964109e-001
9.835180e+002, 2.976926e-001
9.854465e+002, 2.990696e-001
9.873749e+002, 2.999839e-001
9.893034e+002, 3.005288e-001
9.912319e+002, 3.006143e-001
9.931603e+002, 2.999431e-001
9.950888e+002, 2.988398e-001
9.970173e+002, 2.976440e-001
9.989457e+002, 2.961811e-001
1.000874e+003, 2.943470e-001
1.002803e+003, 2.920753e-001
1.004731e+003, 2.896047e-001
1.006660e+003, 2.869630e-001
1.008588e+003, 2.838784e-001
1.010517e+003, 2.803127e-001
1.012445e+003, 2.767234e-001
1.014373e+003, 2.730018e-001
1.016302e+003, 2.691264e-001
1.018230e+003, 2.654296e-001
1.020159e+003, 2.624165e-001
1.022087e+003, 2.598221e-001
1.024016e+003, 2.573036e-001
1.025944e+003, 2.547776e-001
1.027873e+003, 2.518579e-001
1.029801e+003, 2.485576e-001
1.031730e+003, 2.451409e-001
1.033658e+003, 2.416495e-001
1.035587e+003, 2.381165e-001
1.037515e+003, 2.347581e-001
1.039443e+003, 2.314609e-001
1.041372e+003, 2.282197e-001
1.043300e+003, 2.253205e-001
1.045229e+003, 2.225581e-001
1.047157e+003, 2.199417e-001
1.049086e+003, 2.174467e-001
1.051014e+003, 2.151172e-001
1.052943e+003, 2.128988e-001
1.054871e+003, 2.111725e-001
1.056800e+003, 2.095353e-001
1.058728e+003, 2.074602e-001
1.060657e+003, 2.047502e-001
1.062585e+003, 2.012391e-001
1.064514e+003, 1.967982e-001
1.066442e+003, 1.919448e-001
1.068370e+003, 1.867224e-001
1.070299e+003, 1.813519e-001
1.072227e+003, 1.759199e-001
1.074156e+003, 1.701150e-001
1.076084e+003, 1.641586e-001
1.078013e+003, 1.586249e-001
1.079941e+003, 1.534200e-001
1.081870e+003, 1.480001e-001
1.083798e+003, 1.425622e-001
1.085727e+003, 1.373831e-001
1.087655e+003, 1.323528e-001
1.089584e+003, 1.273133e-001
1.091512e+003, 1.223027e-001
1.093441e+003, 1.172903e-001
1.095369e+003, 1.123553e-001
1.097297e+003, 1.074549e-001
1.099226e+003, 1.026297e-001
1.101154e+003, 9.806613e-002
1.103083e+003, 9.353548e-002
1.105011e+003, 8.905564e-002
1.106940e+003, 8.469119e-002
1.108868e+003, 8.063420e-002
1.110797e+003, 7.699436e-002
1.112725e+003, 7.369195e-002
1.114654e+003, 7.083876e-002
1.116582e+003, 6.850752e-002
1.118511e+003, 6.661851e-002
1.120439e+003, 6.507803e-002
1.122368e+003, 6.346942e-002
1.124296e+003, 6.184107e-002
1.126224e+003, 6.044319e-002
1.128153e+003, 5.882048e-002
1.130081e+003, 5.683111e-002
1.132010e+003, 5.482374e-002
1.133938e+003, 5.299926e-002
1.135867e+003, 5.114732e-002
1.137795e+003, 4.921612e-002
1.139724e+003, 4.736283e-002
1.141652e+003, 4.539410e-002
1.143581e+003, 4.328215e-002
1.145509e+003, 4.129906e-002
1.147438e+003, 3.938261e-002
1.149366e+003, 3.735826e-002
1.151295e+003, 3.530152e-002
1.153223e+003, 3.334745e-002
1.155151e+003, 3.141293e-002
1.157080e+003, 2.947361e-002
1.159008e+003, 2.769521e-002
1.160937e+003, 2.593151e-002
1.162865e+003, 2.414452e-002
1.164794e+003, 2.235743e-002
1.166722e+003, 2.055763e-002
1.168651e+003, 1.897950e-002
1.170579e+003, 1.759624e-002
1.172508e+003, 1.616758e-002
1.174436e+003, 1.479906e-002
1.176365e+003, 1.373493e-002
1.178293e+003, 1.294339e-002
1.180222e+003, 1.216141e-002
1.182150e+003, 1.140677e-002
1.184078e+003, 1.085931e-002
1.186007e+003, 1.013928e-002
1.187935e+003, 9.472599e-003
1.189864e+003, 8.976645e-003
1.191792e+003, 8.560356e-003
1.193721e+003, 8.045643e-003
1.195649e+003, 7.460363e-003
1.197578e+003, 6.969330e-003
1.199506e+003, 6.583209e-003
1.201435e+003, 6.245982e-003
1.203363e+003, 5.923389e-003
1.205292e+003, 5.602451e-003
1.207220e+003, 5.354684e-003
1.209149e+003, 5.073411e-003
1.211077e+003, 4.751823e-003
1.213005e+003, 4.393609e-003
1.214934e+003, 4.089651e-003
1.216862e+003, 3.815379e-003
1.218791e+003, 3.646238e-003
1.220719e+003, 3.370441e-003
1.222648e+003, 3.057595e-003
1.224576e+003, 2.791172e-003
1.226505e+003, 2.681898e-003
1.228433e+003, 2.532706e-003
1.230362e+003, 2.335698e-003
1.232290e+003, 2.123223e-003
1.234219e+003, 1.994900e-003
1.236147e+003, 1.943467e-003
1.238076e+003, 1.921029e-003
1.240004e+003, 1.828259e-003
1.241932e+003, 1.737265e-003
1.243861e+003, 1.616409e-003
1.245789e+003, 1.543079e-003
1.247718e+003, 1.566701e-003
1.249646e+003, 1.523908e-003
1.251575e+003, 1.509428e-003
1.253503e+003, 1.539292e-003
1.255432e+003, 1.492203e-003
1.257360e+003, 1.517816e-003
1.259289e+003, 1.475383e-003
1.261217e+003, 1.419084e-003
1.263146e+003, 1.402881e-003
1.265074e+003, 1.400246e-003
1.267003e+003, 1.326690e-003
1.268931e+003, 1.347310e-003
1.270859e+003, 1.507921e-003
1.272788e+003, 1.644537e-003
1.274716e+003, 1.662719e-003
1.276645e+003, 1.617654e-003
1.278573e+003, 1.648276e-003
1.280502e+003, 1.644773e-003
1.282430e+003, 1.550628e-003
1.284359e+003, 1.591727e-003
1.286287e+003, 1.554563e-003
1.288216e+003, 1.598809e-003
1.290144e+003, 1.710330e-003
1.292073e+003, 1.740726e-003
1.294001e+003, 1.735649e-003
1.295930e+003, 1.778737e-003
1.297858e+003, 1.907940e-003
1.299786e+003, 1.962265e-003
1.301715e+003, 1.895442e-003
1.303643e+003, 1.852602e-003
1.305572e+003, 1.945287e-003
1.307500e+003, 2.143654e-003
1.309429e+003, 2.229060e-003
1.311357e+003, 2.242316e-003
1.313286e+003, 2.271853e-003
1.315214e+003, 2.285938e-003
1.317143e+003, 2.267983e-003
1.319071e+003, 2.313932e-003
1.321000e+003, 2.319192e-003
1.322928e+003, 2.321246e-003
1.324857e+003, 2.267099e-003
1.326785e+003, 2.389505e-003
1.328714e+003, 2.549749e-003
1.330642e+003, 2.521558e-003
1.332570e+003, 2.570605e-003
1.334499e+003, 2.739541e-003
1.336427e+003, 2.638821e-003
1.338356e+003, 2.619006e-003
1.340284e+003, 2.692452e-003
1.342213e+003, 2.702976e-003
1.344141e+003, 2.796245e-003
1.346070e+003, 2.831620e-003
1.347998e+003, 2.947610e-003
1.349927e+003, 3.038989e-003
1.351855e+003, 3.076006e-003
1.353784e+003, 3.253196e-003
1.355712e+003, 3.391210e-003
1.357641e+003, 3.450686e-003
1.359569e+003, 3.568824e-003
1.361497e+003, 3.764295e-003
1.363426e+003, 3.915029e-003
1.365354e+003, 4.172840e-003
1.367283e+003, 4.377034e-003
1.369211e+003, 4.564391e-003
1.371140e+003, 4.711416e-003
1.373068e+003, 4.919467e-003
1.374997e+003, 5.275070e-003
1.376925e+003, 5.518119e-003
1.378854e+003, 5.799508e-003
1.380782e+003, 6.142794e-003
1.382711e+003, 6.528430e-003
1.384639e+003, 6.916879e-003
1.386568e+003, 7.388851e-003
1.388496e+003, 7.814368e-003
1.390424e+003, 8.153249e-003
1.392353e+003, 8.548807e-003
1.394281e+003, 8.987684e-003
1.396210e+003, 9.327131e-003
1.398138e+003, 9.510092e-003
1.400067e+003, 9.628354e-003
1.401995e+003, 9.768871e-003
1.403924e+003, 9.801693e-003
1.405852e+003, 9.794343e-003
1.407781e+003, 9.781392e-003
1.409709e+003, 9.785456e-003
1.411638e+003, 9.771523e-003
1.413566e+003, 9.619022e-003
1.415495e+003, 9.404870e-003
1.417423e+003, 9.279940e-003
1.419351e+003, 9.266374e-003
1.421280e+003, 9.299584e-003
1.423208e+003, 9.425442e-003
1.425137e+003, 9.498922e-003
1.427065e+003, 9.548757e-003
1.428994e+003, 9.762737e-003
1.430922e+003, 9.982376e-003
1.432851e+003, 1.017003e-002
1.434779e+003, 1.034631e-002
1.436708e+003, 1.047466e-002
1.438636e+003, 1.039306e-002
1.440565e+003, 1.019148e-002
1.442493e+003, 1.020203e-002
1.444422e+003, 1.025475e-002
1.446350e+003, 1.011607e-002
1.448278e+003, 9.931922e-003
1.450207e+003, 9.644449e-003
1.452135e+003, 9.446769e-003
1.454064e+003, 9.332350e-003
1.455992e+003, 9.143566e-003
1.457921e+003, 8.931915e-003
1.459849e+003, 8.763407e-003
1.461778e+003, 8.424246e-003
1.463706e+003, 8.076731e-003
1.465635e+003, 7.851917e-003
1.467563e+003, 7.612645e-003
1.469492e+003, 7.438080e-003
1.471420e+003, 7.265689e-003
1.473349e+003, 7.121502e-003
1.475277e+003, 6.950035e-003
1.477205e+003, 6.773970e-003
1.479134e+003, 6.663295e-003
1.481062e+003, 6.457505e-003
1.482991e+003, 6.110737e-003
1.484919e+003, 5.929798e-003
1.486848e+003, 6.041997e-003
1.488776e+003, 6.000376e-003
1.490705e+003, 5.660208e-003
1.492633e+003, 5.380119e-003
1.494562e+003, 5.306420e-003
1.496490e+003, 5.402639e-003
1.498419e+003, 5.347455e-003
1.500347e+003, 5.271429e-003
1.502276e+003, 5.249640e-003
1.504204e+003, 5.196882e-003
1.506132e+003, 5.266611e-003
1.508061e+003, 5.334880e-003
1.509989e+003, 5.203602e-003
1.511918e+003, 5.039340e-003
1.513846e+003, 5.115813e-003
1.515775e+003, 5.246080e-003
1.517703e+003, 5.248739e-003
1.519632e+003, 5.219872e-003
1.521560e+003, 5.269104e-003
1.523489e+003, 5.329810e-003
1.525417e+003, 5.334560e-003
1.527346e+003, 5.354252e-003
1.529274e+003, 5.379086e-003
1.531203e+003, 5.345048e-003
1.533131e+003, 5.291402e-003
1.535059e+003, 5.315005e-003
1.536988e+003, 5.357762e-003
1.538916e+003, 5.379486e-003
1.540845e+003, 5.374435e-003
1.542773e+003, 5.324926e-003
1.544702e+003, 5.313484e-003
1.546630e+003, 5.325779e-003
1.548559e+003, 5.368136e-003
1.550487e+003, 5.353067e-003
1.552416e+003, 5.371853e-003
1.554344e+003, 5.460703e-003
1.556273e+003, 5.471218e-003
1.558201e+003, 5.469147e-003
1.560130e+003, 5.497889e-003
1.562058e+003, 5.485899e-003
1.563986e+003, 5.461797e-003
1.565915e+003, 5.430874e-003
1.567843e+003, 5.380802e-003
1.569772e+003, 5.553255e-003
1.571700e+003, 5.536295e-003
1.573629e+003, 5.382827e-003
1.575557e+003, 5.318345e-003
1.577486e+003, 5.302100e-003
1.579414e+003, 5.338907e-003
1.581343e+003, 5.364859e-003
1.583271e+003, 5.295753e-003
1.585200e+003, 5.285427e-003
1.587128e+003, 5.280679e-003
1.589057e+003, 5.349796e-003
1.590985e+003, 5.341790e-003
1.592913e+003, 5.339600e-003
1.594842e+003, 5.450981e-003
1.596770e+003, 5.571378e-003
1.598699e+003, 5.501973e-003
1.600627e+003, 5.411708e-003
1.602556e+003, 5.462956e-003
1.604484e+003, 5.501471e-003
1.606413e+003, 5.380529e-003
1.608341e+003, 5.348923e-003
1.610270e+003, 5.452285e-003
1.612198e+003, 5.493870e-003
1.614127e+003, 5.403649e-003
1.616055e+003, 5.347346e-003
1.617984e+003, 5.527805e-003
1.619912e+003, 5.570865e-003
1.621840e+003, 5.464477e-003
1.623769e+003, 5.533447e-003
1.625697e+003, 5.540627e-003
1.627626e+003, 5.665096e-003
1.629554e+003, 5.876873e-003
1.631483e+003, 6.006327e-003
1.633411e+003, 6.061089e-003
1.635340e+003, 5.909740e-003
1.637268e+003, 5.847802e-003
1.639197e+003, 5.807392e-003
1.641125e+003, 5.897664e-003
1.643054e+003, 6.049137e-003
1.644982e+003, 6.137552e-003
1.646911e+003, 6.159348e-003
1.648839e+003, 6.155004e-003
1.650767e+003, 6.074839e-003
1.652696e+003, 6.009334e-003
1.654624e+003, 6.031993e-003
1.656553e+003, 6.074242e-003
1.658481e+003, 6.163906e-003
1.660410e+003, 6.184685e-003
1.662338e+003, 6.211996e-003
1.664267e+003, 6.282963e-003
1.666195e+003, 6.342053e-003
1.668124e+003, 6.369581e-003
1.670052e+003, 6.222128e-003
1.671981e+003, 6.176087e-003
1.673909e+003, 6.294662e-003
1.675838e+003, 6.301654e-003
1.677766e+003, 6.216524e-003
1.679694e+003, 6.166383e-003
1.681623e+003, 6.251521e-003
1.683551e+003, 6.174440e-003
1.685480e+003, 6.208624e-003
1.687408e+003, 6.466200e-003
1.689337e+003, 6.499420e-003
1.691265e+003, 6.358245e-003
1.693194e+003, 6.329586e-003
1.695122e+003, 6.413682e-003
1.697051e+003, 6.460595e-003
1.698979e+003, 6.251971e-003
1.700908e+003, 6.131052e-003
1.702836e+003, 6.319133e-003
1.704765e+003, 6.425277e-003
1.706693e+003, 6.518309e-003
1.708621e+003, 6.610559e-003
1.710550e+003, 6.592830e-003
1.712478e+003, 6.535949e-003
1.714407e+003, 6.434866e-003
1.716335e+003, 6.449589e-003
1.718264e+003, 6.378137e-003
1.720192e+003, 6.323530e-003
1.722121e+003, 6.273321e-003
1.724049e+003, 6.300249e-003
1.725978e+003, 6.513296e-003
1.727906e+003, 6.647261e-003
1.729835e+003, 6.438650e-003
1.731763e+003, 6.402397e-003
1.733692e+003, 6.543687e-003
1.735620e+003, 6.340323e-003
1.737548e+003, 6.073173e-003
1.739477e+003, 6.118583e-003
1.741405e+003, 6.080553e-003
1.743334e+003, 6.004057e-003
1.745262e+003, 5.979957e-003
1.747191e+003, 5.802705e-003
1.749119e+003, 5.775667e-003
1.751048e+003, 5.963787e-003
1.752976e+003, 6.115463e-003
1.754905e+003, 6.085885e-003
1.756833e+003, 6.103111e-003
1.758762e+003, 6.194557e-003
1.760690e+003, 6.205973e-003
1.762619e+003, 6.301583e-003
1.764547e+003, 6.504897e-003
1.766475e+003, 6.500297e-003
1.768404e+003, 6.402728e-003
1.770332e+003, 6.527284e-003
1.772261e+003, 6.532359e-003
1.774189e+003, 6.349281e-003
1.776118e+003, 6.353002e-003
1.778046e+003, 6.455519e-003
1.779975e+003, 6.563549e-003
1.781903e+003, 6.678900e-003
1.783832e+003, 6.708584e-003
1.785760e+003, 6.821285e-003
1.787689e+003, 6.642381e-003
1.789617e+003, 6.567898e-003
1.791546e+003, 6.581303e-003
1.793474e+003, 6.513522e-003
1.795402e+003, 6.629454e-003
1.797331e+003, 6.751400e-003
1.799259e+003, 6.522398e-003
1.801188e+003, 6.602057e-003
1.803116e+003, 6.780057e-003
1.805045e+003, 6.903612e-003
1.806973e+003, 6.920575e-003
1.808902e+003, 6.876127e-003
1.810830e+003, 6.784972e-003
1.812759e+003, 6.672841e-003
1.814687e+003, 6.767538e-003
1.816616e+003, 6.678253e-003
1.818544e+003, 6.799336e-003
1.820473e+003, 7.148528e-003
1.822401e+003, 7.144875e-003
1.824329e+003, 7.030747e-003
1.826258e+003, 6.913695e-003
1.828186e+003, 7.008230e-003
1.830115e+003, 7.179211e-003
1.832043e+003, 7.120430e-003
1.833972e+003, 6.945024e-003
1.835900e+003, 7.227329e-003
1.837829e+003, 7.122528e-003
1.839757e+003, 6.956875e-003
1.841686e+003, 6.949737e-003
1.843614e+003, 6.922066e-003
1.845543e+003, 6.777022e-003
1.847471e+003, 6.910532e-003
1.849400e+003, 7.173721e-003
1.851328e+003, 7.223588e-003
1.853256e+003, 6.879128e-003
1.855185e+003, 6.891903e-003
1.857113e+003, 7.142128e-003
1.859042e+003, 7.249781e-003
1.860970e+003, 7.054927e-003
1.862899e+003, 7.091620e-003
1.864827e+003, 7.254987e-003
1.866756e+003, 7.118018e-003
1.868684e+003, 6.846814e-003
1.870613e+003, 6.957014e-003
1.872541e+003, 7.093476e-003
1.874470e+003, 6.842876e-003
1.876398e+003, 6.782782e-003
1.878327e+003, 6.801225e-003
1.880255e+003, 6.869245e-003
1.882183e+003, 6.900640e-003
1.884112e+003, 6.693725e-003
1.886040e+003, 6.909115e-003
1.887969e+003, 7.190712e-003
1.889897e+003, 7.135121e-003
1.891826e+003, 7.096044e-003
1.893754e+003, 7.327020e-003
1.895683e+003, 7.071470e-003
1.897611e+003, 7.149410e-003
1.899540e+003, 7.591981e-003
1.901468e+003, 7.209077e-003
1.903397e+003, 6.851330e-003
1.905325e+003, 7.312513e-003
1.907254e+003, 7.483393e-003
1.909182e+003, 7.172443e-003
1.911110e+003, 7.234707e-003
1.913039e+003, 7.316214e-003
1.914967e+003, 7.366988e-003
1.916896e+003, 7.567515e-003
1.918824e+003, 7.877951e-003
1.920753e+003, 7.505633e-003
1.922681e+003, 7.308801e-003
1.924610e+003, 7.196766e-003
1.926538e+003, 7.160289e-003
1.928467e+003, 7.270957e-003
1.930395e+003, 7.406148e-003
1.932324e+003, 7.244661e-003
1.934252e+003, 7.102570e-003
1.936181e+003, 7.037406e-003
1.938109e+003, 6.950945e-003
1.940037e+003, 7.300798e-003
1.941966e+003, 7.541712e-003
1.943894e+003, 7.394930e-003
1.945823e+003, 7.304764e-003
1.947751e+003, 7.573369e-003
1.949680e+003, 8.187396e-003
1.951608e+003, 8.205215e-003
1.953537e+003, 7.812102e-003
1.955465e+003, 7.071672e-003
1.957394e+003, 6.785694e-003
1.959322e+003, 7.396287e-003
1.961251e+003, 8.482634e-003
1.963179e+003, 7.894896e-003
1.965108e+003, 7.434135e-003
1.967036e+003, 7.291090e-003
1.968964e+003, 7.350866e-003
1.970893e+003, 7.601790e-003
1.972821e+003, 7.589196e-003
1.974750e+003, 8.392764e-003
1.976678e+003, 9.292973e-003
1.978607e+003, 1.037298e-002
1.980535e+003, 1.020634e-002
1.982464e+003, 9.837512e-003
1.984392e+003, 9.414776e-003
1.986321e+003, 8.899711e-003
1.988249e+003, 9.481149e-003
1.990178e+003, 9.695972e-003
1.992106e+003, 9.508040e-003
1.994035e+003, 9.014510e-003
1.995963e+003, 8.982161e-003
1.997891e+003, 9.725094e-003
1.999820e+003, 9.984843e-003
2.001748e+003, 9.499036e-003
2.003677e+003, 8.945547e-003
2.005605e+003, 9.324728e-003
2.007534e+003, 1.060118e-002
2.009462e+003, 1.108406e-002
2.011391e+003, 1.103429e-002
2.013319e+003, 1.095066e-002
2.015248e+003, 1.064115e-002
2.017176e+003, 1.102294e-002
2.019105e+003, 1.092294e-002
2.021033e+003, 1.026449e-002
2.022962e+003, 9.899715e-003
2.024890e+003, 1.023802e-002
2.026818e+003, 1.084035e-002
2.028747e+003, 1.226753e-002
2.030675e+003, 1.190705e-002
2.032604e+003, 1.147787e-002
2.034532e+003, 1.082143e-002
2.036461e+003, 1.046163e-002
2.038389e+003, 1.073587e-002
2.040318e+003, 1.093115e-002
2.042246e+003, 1.146524e-002
2.044175e+003, 1.100242e-002
2.046103e+003, 9.638568e-003
2.048031e+003, 1.069432e-002
2.049960e+003, 1.170508e-002
2.051888e+003, 1.106667e-002
2.053817e+003, 1.138590e-002
2.055745e+003, 1.130055e-002
2.057674e+003, 1.076703e-002
2.059602e+003, 9.859525e-003
2.061531e+003, 9.894730e-003
2.063459e+003, 1.014597e-002
2.065388e+003, 9.772635e-003
2.067316e+003, 9.849522e-003
2.069245e+003, 1.027942e-002
2.071173e+003, 1.070517e-002
2.073102e+003, 1.079412e-002
2.075030e+003, 1.076988e-002
2.076958e+003, 1.024386e-002
2.078887e+003, 1.013805e-002
2.080815e+003, 1.061379e-002
2.082744e+003, 1.031078e-002
2.084672e+003, 9.997845e-003
2.086601e+003, 9.717487e-003
2.088529e+003, 9.607845e-003
2.090458e+003, 9.986376e-003
2.092386e+003, 9.953403e-003
2.094315e+003, 9.838425e-003
2.096243e+003, 1.065220e-002
2.098172e+003, 1.130286e-002
2.100100e+003, 1.123648e-002
2.102029e+003, 1.095764e-002
2.103957e+003, 1.147931e-002
2.105885e+003, 1.170500e-002
2.107814e+003, 1.135519e-002
2.109742e+003, 1.085661e-002
2.111671e+003, 1.056799e-002
2.113599e+003, 1.087190e-002
2.115528e+003, 1.118033e-002
2.117456e+003, 1.080999e-002
2.119385e+003, 1.080557e-002
2.121313e+003, 1.105015e-002
2.123242e+003, 1.099515e-002
2.125170e+003, 1.078942e-002
2.127099e+003, 1.090159e-002
2.129027e+003, 1.030017e-002
2.130956e+003, 9.882399e-003
2.132884e+003, 1.021334e-002
2.134813e+003, 9.779276e-003
2.136741e+003, 9.465924e-003
2.138669e+003, 9.996326e-003
2.140598e+003, 1.066639e-002
2.142526e+003, 1.085269e-002
2.144455e+003, 1.092827e-002
2.146383e+003, 1.166673e-002
2.148312e+003, 1.211424e-002
2.150240e+003, 1.190833e-002
2.152169e+003, 1.112743e-002
2.154097e+003, 1.050963e-002
2.156026e+003, 1.012188e-002
2.157954e+003, 1.154202e-002
2.159883e+003, 1.418795e-002
2.161811e+003, 1.519552e-002
2.163740e+003, 1.541049e-002
2.165668e+003, 1.547151e-002
2.167596e+003, 1.403188e-002
2.169525e+003, 1.303547e-002
2.171453e+003, 1.301295e-002
2.173382e+003, 1.385451e-002
2.175310e+003, 1.438735e-002
2.177239e+003, 1.399169e-002
2.179167e+003, 1.352746e-002
2.181096e+003, 1.340076e-002
2.183024e+003, 1.365293e-002
2.184953e+003, 1.486643e-002
2.186881e+003, 1.487684e-002
2.188810e+003, 1.382950e-002
2.190738e+003, 1.312306e-002
2.192667e+003, 1.270268e-002
2.194595e+003, 1.309045e-002
2.196523e+003, 1.374317e-002
2.198452e+003, 1.463731e-002
2.200380e+003, 1.496128e-002
2.202309e+003, 1.491895e-002
2.204237e+003, 1.450619e-002
2.206166e+003, 1.363308e-002
2.208094e+003, 1.300302e-002
2.210023e+003, 1.372448e-002
2.211951e+003, 1.489672e-002
2.213880e+003, 1.550675e-002
2.215808e+003, 1.498775e-002
2.217737e+003, 1.469698e-002
2.219665e+003, 1.475586e-002
2.221594e+003, 1.450134e-002
2.223522e+003, 1.467088e-002
2.225450e+003, 1.411617e-002
2.227379e+003, 1.355584e-002
2.229307e+003, 1.445970e-002
2.231236e+003, 1.497389e-002
2.233164e+003, 1.433837e-002
2.235093e+003, 1.411754e-002
2.237021e+003, 1.471899e-002
2.238950e+003, 1.523604e-002
2.240878e+003, 1.473921e-002
2.242807e+003, 1.394711e-002
2.244735e+003, 1.415358e-002
2.246664e+003, 1.463007e-002
2.248592e+003, 1.483679e-002
2.250521e+003, 1.484025e-002
2.252449e+003, 1.497868e-002
2.254377e+003, 1.489281e-002
2.256306e+003, 1.370754e-002
2.258234e+003, 1.344302e-002
2.260163e+003, 1.416385e-002
2.262091e+003, 1.448306e-002
2.264020e+003, 1.453108e-002
2.265948e+003, 1.436359e-002
2.267877e+003, 1.419823e-002
2.269805e+003, 1.445254e-002
2.271734e+003, 1.495450e-002
2.273662e+003, 1.523434e-002
2.275591e+003, 1.535645e-002
2.277519e+003, 1.540881e-002
2.279448e+003, 1.519018e-002
2.281376e+003, 1.539601e-002
2.283304e+003, 1.579885e-002
2.285233e+003, 1.575190e-002
2.287161e+003, 1.522415e-002
2.289090e+003, 1.496520e-002
2.291018e+003, 1.478335e-002
2.292947e+003, 1.473469e-002
2.294875e+003, 1.473584e-002
2.296804e+003, 1.469625e-002
2.298732e+003, 1.462312e-002
2.300661e+003, 1.500024e-002
2.302589e+003, 1.505754e-002
2.304518e+003, 1.463343e-002
2.306446e+003, 1.444212e-002
2.308375e+003, 1.445277e-002
2.310303e+003, 1.442120e-002
2.312231e+003, 1.455426e-002
2.314160e+003, 1.456783e-002
2.316088e+003, 1.442499e-002
2.318017e+003, 1.445574e-002
2.319945e+003, 1.484059e-002
2.321874e+003, 1.529721e-002
2.323802e+003, 1.523954e-002
2.325731e+003, 1.467613e-002
2.327659e+003, 1.420492e-002
2.329588e+003, 1.376453e-002
2.331516e+003, 1.351860e-002
2.333445e+003, 1.366816e-002
2.335373e+003, 1.388183e-002
2.337302e+003, 1.370118e-002
2.339230e+003, 1.340709e-002
2.341158e+003, 1.364368e-002
2.343087e+003, 1.384981e-002
2.345015e+003, 1.375037e-002
2.346944e+003, 1.412281e-002
2.348872e+003, 1.431097e-002
2.350801e+003, 1.426478e-002
2.352729e+003, 1.388221e-002
2.354658e+003, 1.357445e-002
2.356586e+003, 1.353105e-002
2.358515e+003, 1.349439e-002
2.360443e+003, 1.348920e-002
2.362372e+003, 1.376041e-002
2.364300e+003, 1.393507e-002
2.366229e+003, 1.383233e-002
2.368157e+003, 1.375174e-002
2.370085e+003, 1.375765e-002
2.372014e+003, 1.401648e-002
2.373942e+003, 1.426312e-002
2.375871e+003, 1.437376e-002
2.377799e+003, 1.430493e-002
2.379728e+003, 1.472642e-002
2.381656e+003, 1.490812e-002
2.383585e+003, 1.476647e-002
2.385513e+003, 1.480636e-002
2.387442e+003, 1.481649e-002
2.389370e+003, 1.499974e-002
2.391299e+003, 1.502017e-002
2.393227e+003, 1.489956e-002
2.395156e+003, 1.493673e-002
2.397084e+003, 1.494157e-002
2.399012e+003, 1.496785e-002
2.400941e+003, 1.495188e-002
2.402869e+003, 1.477289e-002
2.404798e+003, 1.476742e-002
2.406726e+003, 1.501008e-002
2.408655e+003, 1.535311e-002
2.410583e+003, 1.566016e-002
2.412512e+003, 1.593699e-002
2.414440e+003, 1.624065e-002
2.416369e+003, 1.621059e-002
2.418297e+003, 1.566177e-002
2.420226e+003, 1.520174e-002
2.422154e+003, 1.534150e-002
2.424083e+003, 1.589308e-002
2.426011e+003, 1.616884e-002
2.427939e+003, 1.606514e-002
2.429868e+003, 1.607909e-002
2.431796e+003, 1.635149e-002
2.433725e+003, 1.588039e-002
2.435653e+003, 1.574314e-002
2.437582e+003, 1.566471e-002
2.439510e+003, 1.582223e-002
2.441439e+003, 1.590641e-002
2.443367e+003, 1.591183e-002
2.445296e+003, 1.585348e-002
2.447224e+003, 1.547488e-002
2.449153e+003, 1.549688e-002
2.451081e+003, 1.581902e-002
2.453010e+003, 1.614531e-002
2.454938e+003, 1.620961e-002
2.456866e+003, 1.622581e-002
2.458795e+003, 1.625061e-002
2.460723e+003, 1.607994e-002
2.462652e+003, 1.583988e-002
2.464580e+003, 1.591774e-002
2.466509e+003, 1.583225e-002
2.468437e+003, 1.593675e-002
2.470366e+003, 1.576247e-002
2.472294e+003, 1.564410e-002
2.474223e+003, 1.612438e-002
2.476151e+003, 1.621374e-002
2.478080e+003, 1.578827e-002
2.480008e+003, 1.579381e-002
2.481937e+003, 1.604651e-002
2.483865e+003, 1.594531e-002
2.485793e+003, 1.570971e-002
2.487722e+003, 1.575828e-002
2.489650e+003, 1.581563e-002
2.491579e+003, 1.585962e-002
2.493507e+003, 1.580148e-002
2.495436e+003, 1.576604e-002
2.497364e+003, 1.574239e-002
2.499293e+003, 1.582696e-002
2.501221e+003, 1.606952e-002
2.503150e+003, 1.594961e-002
2.505078e+003, 1.599810e-002
2.507007e+003, 1.615930e-002
2.508935e+003, 1.608862e-002
2.510864e+003, 1.614549e-002
2.512792e+003, 1.610887e-002
2.514720e+003, 1.626459e-002
2.516649e+003, 1.648104e-002
2.518577e+003, 1.661745e-002
2.520506e+003, 1.659466e-002
2.522434e+003, 1.631457e-002
2.524363e+003, 1.584887e-002
2.526291e+003, 1.620860e-002
2.528220e+003, 1.643183e-002
2.530148e+003, 1.620791e-002
2.532077e+003, 1.595663e-002
2.534005e+003, 1.585618e-002
2.535934e+003, 1.591188e-002
2.537862e+003, 1.627407e-002
2.539791e+003, 1.641490e-002
2.541719e+003, 1.651695e-002
2.543647e+003, 1.648730e-002
2.545576e+003, 1.628478e-002
2.547504e+003, 1.613011e-002
2.549433e+003, 1.583166e-002
2.551361e+003, 1.590573e-002
2.553290e+003, 1.618305e-002
2.555218e+003, 1.660375e-002
2.557147e+003, 1.665412e-002
2.559075e+003, 1.648183e-002
2.561004e+003, 1.665893e-002
2.562932e+003, 1.680862e-002
2.564861e+003, 1.675649e-002
2.566789e+003, 1.657858e-002
2.568718e+003, 1.677505e-002
2.570646e+003, 1.722203e-002
2.572574e+003, 1.740679e-002
2.574503e+003, 1.710157e-002
2.576431e+003, 1.669070e-002
2.578360e+003, 1.675306e-002
2.580288e+003, 1.708420e-002
2.582217e+003, 1.725718e-002
2.584145e+003, 1.743406e-002
2.586074e+003, 1.747354e-002
2.588002e+003, 1.735194e-002
2.589931e+003, 1.722677e-002
2.591859e+003, 1.750447e-002
2.593788e+003, 1.785193e-002
2.595716e+003, 1.761622e-002
2.597645e+003, 1.753786e-002
2.599573e+003, 1.775684e-002
2.601501e+003, 1.768613e-002
2.603430e+003, 1.759719e-002
2.605358e+003, 1.763049e-002
2.607287e+003, 1.754228e-002
2.609215e+003, 1.750971e-002
2.611144e+003, 1.781325e-002
2.613072e+003, 1.752814e-002
2.615001e+003, 1.772930e-002
2.616929e+003, 1.816097e-002
2.618858e+003, 1.805597e-002
2.620786e+003, 1.779431e-002
2.622715e+003, 1.781271e-002
2.624643e+003, 1.791697e-002
2.626572e+003, 1.786535e-002
2.628500e+003, 1.796350e-002
2.630428e+003, 1.807814e-002
2.632357e+003, 1.826209e-002
2.634285e+003, 1.836220e-002
2.636214e+003, 1.825043e-002
2.638142e+003, 1.809000e-002
2.640071e+003, 1.803491e-002
2.641999e+003, 1.797145e-002
2.643928e+003, 1.784763e-002
2.645856e+003, 1.789822e-002
2.647785e+003, 1.801091e-002
2.649713e+003, 1.814025e-002
2.651642e+003, 1.838918e-002
2.653570e+003, 1.842384e-002
2.655499e+003, 1.798763e-002
2.657427e+003, 1.783044e-002
2.659355e+003, 1.780859e-002
2.661284e+003, 1.772006e-002
2.663212e+003, 1.778015e-002
2.665141e+003, 1.793768e-002
2.667069e+003, 1.789422e-002
2.668998e+003, 1.776914e-002
2.670926e+003, 1.766608e-002
2.672855e+003, 1.769756e-002
2.674783e+003, 1.762944e-002
2.676712e+003, 1.775382e-002
2.678640e+003, 1.756072e-002
2.680569e+003, 1.747312e-002
2.682497e+003, 1.752882e-002
2.684426e+003, 1.754063e-002
2.686354e+003, 1.754033e-002
2.688282e+003, 1.747337e-002
2.690211e+003, 1.754627e-002
2.692139e+003, 1.758321e-002
2.694068e+003, 1.764467e-002
2.695996e+003, 1.774182e-002
2.697925e+003, 1.803735e-002
2.699853e+003, 1.797596e-002
2.701782e+003, 1.796062e-002
2.703710e+003, 1.812720e-002
2.705639e+003, 1.816035e-002
2.707567e+003, 1.811145e-002
2.709496e+003, 1.784406e-002
2.711424e+003, 1.796842e-002
2.713353e+003, 1.823255e-002
2.715281e+003, 1.818988e-002
2.717209e+003, 1.817046e-002
2.719138e+003, 1.801668e-002
2.721066e+003, 1.823372e-002
2.722995e+003, 1.846528e-002
2.724923e+003, 1.835138e-002
2.726852e+003, 1.829326e-002
2.728780e+003, 1.813783e-002
2.730709e+003, 1.810529e-002
2.732637e+003, 1.826031e-002
2.734566e+003, 1.832990e-002
2.736494e+003, 1.842478e-002
2.738423e+003, 1.860468e-002
2.740351e+003, 1.854070e-002
2.742280e+003, 1.852461e-002
2.744208e+003, 1.831097e-002
2.746136e+003, 1.806387e-002
2.748065e+003, 1.836835e-002
2.749993e+003, 1.841170e-002
2.751922e+003, 1.834907e-002
2.753850e+003, 1.844209e-002
2.755779e+003, 1.856435e-002
2.757707e+003, 1.845553e-002
2.759636e+003, 1.833344e-002
2.761564e+003, 1.860347e-002
2.763493e+003, 1.882191e-002
2.765421e+003, 1.888544e-002
2.767350e+003, 1.870955e-002
2.769278e+003, 1.855068e-002
2.771207e+003, 1.871991e-002
2.773135e+003, 1.903824e-002
2.775063e+003, 1.882893e-002
2.776992e+003, 1.864970e-002
2.778920e+003, 1.872168e-002
2.780849e+003, 1.890323e-002
2.782777e+003, 1.876390e-002
2.784706e+003, 1.889472e-002
2.786634e+003, 1.920740e-002
2.788563e+003, 1.933083e-002
2.790491e+003, 1.896005e-002
2.792420e+003, 1.871646e-002
2.794348e+003, 1.859391e-002
2.796277e+003, 1.879033e-002
2.798205e+003, 1.903419e-002
2.800134e+003, 1.908419e-002
2.802062e+003, 1.899588e-002
2.803990e+003, 1.874902e-002
2.805919e+003, 1.892726e-002
2.807847e+003, 1.915706e-002
2.809776e+003, 1.919984e-002
2.811704e+003, 1.909379e-002
2.813633e+003, 1.885572e-002
2.815561e+003, 1.883987e-002
2.817490e+003, 1.915137e-002
2.819418e+003, 1.922779e-002
2.821347e+003, 1.908580e-002
2.823275e+003, 1.907180e-002
2.825204e+003, 1.925980e-002
2.827132e+003, 1.951657e-002
2.829061e+003, 1.950810e-002
2.830989e+003, 1.944880e-002
2.832917e+003, 1.940133e-002
2.834846e+003, 1.931360e-002
2.836774e+003, 1.947878e-002
2.838703e+003, 1.970256e-002
2.840631e+003, 1.973662e-002
2.842560e+003, 1.978528e-002
2.844488e+003, 1.989171e-002
2.846417e+003, 1.960566e-002
2.848345e+003, 1.938225e-002
2.850274e+003, 1.945526e-002
2.852202e+003, 1.938177e-002
2.854131e+003, 1.935109e-002
2.856059e+003, 1.967151e-002
2.857988e+003, 1.991583e-002
2.859916e+003, 1.989232e-002
2.861844e+003, 1.964514e-002
2.863773e+003, 1.944327e-002
2.865701e+003, 1.928443e-002
2.867630e+003, 1.928665e-002
2.869558e+003, 1.959400e-002
2.871487e+003, 1.949362e-002
2.873415e+003, 1.919675e-002
2.875344e+003, 1.943963e-002
2.877272e+003, 1.988530e-002
2.879201e+003, 1.976412e-002
2.881129e+003, 1.955348e-002
2.883058e+003, 1.959639e-002
2.884986e+003, 1.974118e-002
2.886915e+003, 1.960934e-002
2.888843e+003, 1.947837e-002
2.890771e+003, 1.979087e-002
2.892700e+003, 1.984322e-002
2.894628e+003, 1.983166e-002
2.896557e+003, 1.996199e-002
2.898485e+003, 2.015543e-002
2.900414e+003, 2.017961e-002
2.902342e+003, 2.024024e-002
2.904271e+003, 2.027993e-002
2.906199e+003, 2.022541e-002
2.908128e+003, 2.016210e-002
2.910056e+003, 2.017335e-002
2.911985e+003, 2.037468e-002
2.913913e+003, 1.989175e-002
2.915842e+003, 1.952872e-002
2.917770e+003, 1.967069e-002
2.919698e+003, 1.969992e-002
2.921627e+003, 1.990578e-002
2.923555e+003, 2.017835e-002
2.925484e+003, 2.003953e-002
2.927412e+003, 1.993011e-002
2.929341e+003, 2.046056e-002
2.931269e+003, 2.092123e-002
2.933198e+003, 2.055313e-002
2.935126e+003, 2.004536e-002
2.937055e+003, 1.981825e-002
2.938983e+003, 1.991726e-002
2.940912e+003, 2.004637e-002
2.942840e+003, 2.012936e-002
2.944769e+003, 2.026946e-002
2.946697e+003, 2.000921e-002
2.948625e+003, 1.997074e-002
2.950554e+003, 2.037938e-002
2.952482e+003, 2.069949e-002
2.954411e+003, 2.056940e-002
2.956339e+003, 2.010269e-002
2.958268e+003, 1.977359e-002
2.960196e+003, 1.997635e-002
2.962125e+003, 2.022187e-002
2.964053e+003, 2.020353e-002
2.965982e+003, 2.001011e-002
2.967910e+003, 1.964089e-002
2.969839e+003, 1.978895e-002
2.971767e+003, 2.018404e-002
2.973696e+003, 1.996779e-002
2.975624e+003, 1.988046e-002
2.977552e+003, 1.984227e-002
2.979481e+003, 1.994397e-002
2.981409e+003, 1.984237e-002
2.983338e+003, 1.949724e-002
2.985266e+003, 1.941931e-002
2.987195e+003, 1.947056e-002
2.989123e+003, 1.997035e-002
2.991052e+003, 2.007747e-002
2.992980e+003, 1.992580e-002
2.994909e+003, 2.006817e-002
2.996837e+003, 2.028976e-002
2.998766e+003, 2.014866e-002
3.000694e+003, 1.949974e-002
3.002623e+003, 1.952422e-002
3.004551e+003, 1.998433e-002
3.006479e+003, 2.022165e-002
3.008408e+003, 2.011519e-002
3.010336e+003, 1.991797e-002
3.012265e+003, 1.965273e-002
3.014193e+003, 1.916025e-002
3.016122e+003, 1.894777e-002
3.018050e+003, 1.939622e-002
3.019979e+003, 2.010762e-002
3.021907e+003, 2.054147e-002
3.023836e+003, 2.069283e-002
3.025764e+003, 2.046634e-002
3.027693e+003, 2.017276e-002
3.029621e+003, 2.011327e-002
3.031550e+003, 1.998628e-002
3.033478e+003, 1.990332e-002
3.035406e+003, 2.004620e-002
3.037335e+003, 1.995167e-002
3.039263e+003, 2.038115e-002
3.041192e+003, 2.070800e-002
3.043120e+003, 2.040884e-002
3.045049e+003, 2.024096e-002
3.046977e+003, 2.034260e-002
3.048906e+003, 2.061056e-002
3.050834e+003, 2.054354e-002
3.052763e+003, 2.062530e-002
3.054691e+003, 2.068152e-002
3.056620e+003, 1.984399e-002
3.058548e+003, 1.970009e-002
3.060477e+003, 1.987785e-002
3.062405e+003, 2.009065e-002
3.064333e+003, 2.027290e-002
3.066262e+003, 2.023670e-002
3.068190e+003, 2.014657e-002
3.070119e+003, 2.077181e-002
3.072047e+003, 2.123406e-002
3.073976e+003, 2.102589e-002
3.075904e+003, 2.068892e-002
3.077833e+003, 2.057122e-002
3.079761e+003, 2.069969e-002
3.081690e+003, 2.080933e-002
3.083618e+003, 2.081150e-002
3.085547e+003, 2.030319e-002
3.087475e+003, 1.973953e-002
3.089404e+003, 1.985743e-002
3.091332e+003, 2.039431e-002
3.093260e+003, 2.090634e-002
3.095189e+003, 2.052125e-002
3.097117e+003, 2.055846e-002
3.099046e+003, 2.059224e-002
3.100974e+003, 2.101006e-002
3.102903e+003, 2.125113e-002
3.104831e+003, 2.075114e-002
3.106760e+003, 2.076439e-002
3.108688e+003, 2.111540e-002
3.110617e+003, 2.109672e-002
3.112545e+003, 2.077310e-002
3.114474e+003, 2.081284e-002
3.116402e+003, 2.125363e-002
3.118331e+003, 2.172127e-002
3.120259e+003, 2.171132e-002
3.122188e+003, 2.097717e-002
3.124116e+003, 2.090144e-002
3.126044e+003, 2.142713e-002
3.127973e+003, 2.151347e-002
3.129901e+003, 2.146375e-002
3.131830e+003, 2.173385e-002
3.133758e+003, 2.180425e-002
3.135687e+003, 2.154028e-002
3.137615e+003, 2.131786e-002
3.139544e+003, 2.106992e-002
3.141472e+003, 2.093874e-002
3.143401e+003, 2.144605e-002
3.145329e+003, 2.148709e-002
3.147258e+003, 2.154680e-002
3.149186e+003, 2.188317e-002
3.151115e+003, 2.183880e-002
3.153043e+003, 2.190729e-002
3.154971e+003, 2.204023e-002
3.156900e+003, 2.221893e-002
3.158828e+003, 2.231063e-002
3.160757e+003, 2.214674e-002
3.162685e+003, 2.204657e-002
3.164614e+003, 2.208265e-002
3.166542e+003, 2.206863e-002
3.168471e+003, 2.201717e-002
3.170399e+003, 2.233665e-002
3.172328e+003, 2.215459e-002
3.174256e+003, 2.158296e-002
3.176185e+003, 2.152043e-002
3.178113e+003, 2.172940e-002
3.180042e+003, 2.176541e-002
3.181970e+003, 2.186660e-002
3.183898e+003, 2.201836e-002
3.185827e+003, 2.183935e-002
3.187755e+003, 2.176740e-002
3.189684e+003, 2.222687e-002
3.191612e+003, 2.221081e-002
3.193541e+003, 2.131923e-002
3.195469e+003, 2.131938e-002
3.197398e+003, 2.176212e-002
3.199326e+003, 2.183710e-002
3.201255e+003, 2.225290e-002
3.203183e+003, 2.210481e-002
3.205112e+003, 2.177856e-002
3.207040e+003, 2.195026e-002
3.208969e+003, 2.241593e-002
3.210897e+003, 2.248987e-002
3.212825e+003, 2.176983e-002
3.214754e+003, 2.172939e-002
3.216682e+003, 2.186901e-002
3.218611e+003, 2.173442e-002
3.220539e+003, 2.165646e-002
3.222468e+003, 2.234878e-002
3.224396e+003, 2.307763e-002
3.226325e+003, 2.315332e-002
3.228253e+003, 2.284774e-002
3.230182e+003, 2.245617e-002
3.232110e+003, 2.224385e-002
3.234039e+003, 2.207438e-002
3.235967e+003, 2.223965e-002
3.237896e+003, 2.261113e-002
3.239824e+003, 2.280596e-002
3.241752e+003, 2.285745e-002
3.243681e+003, 2.282567e-002
3.245609e+003, 2.286749e-002
3.247538e+003, 2.243664e-002
3.249466e+003, 2.233286e-002
3.251395e+003, 2.235227e-002
3.253323e+003, 2.219881e-002
3.255252e+003, 2.230535e-002
3.257180e+003, 2.249876e-002
3.259109e+003, 2.269032e-002
3.261037e+003, 2.281753e-002
3.262966e+003, 2.313050e-002
3.264894e+003, 2.301480e-002
3.266823e+003, 2.298686e-002
3.268751e+003, 2.280435e-002
3.270679e+003, 2.262944e-002
3.272608e+003, 2.273041e-002
3.274536e+003, 2.291100e-002
3.276465e+003, 2.281279e-002
3.278393e+003, 2.273200e-002
3.280322e+003, 2.290556e-002
3.282250e+003, 2.273143e-002
3.284179e+003, 2.291766e-002
3.286107e+003, 2.310022e-002
3.288036e+003, 2.292429e-002
3.289964e+003, 2.291143e-002
3.291893e+003, 2.279556e-002
3.293821e+003, 2.262193e-002
3.295750e+003, 2.236111e-002
3.297678e+003, 2.266571e-002
3.299606e+003, 2.313046e-002
3.301535e+003, 2.288548e-002
3.303463e+003, 2.242531e-002
3.305392e+003, 2.297863e-002
3.307320e+003, 2.327851e-002
3.309249e+003, 2.242774e-002
3.311177e+003, 2.262307e-002
3.313106e+003, 2.319586e-002
3.315034e+003, 2.314502e-002
3.316963e+003, 2.311029e-002
3.318891e+003, 2.330882e-002
3.320820e+003, 2.302122e-002
3.322748e+003, 2.257270e-002
3.324677e+003, 2.259537e-002
3.326605e+003, 2.314635e-002
3.328533e+003, 2.352644e-002
3.330462e+003, 2.338973e-002
3.332390e+003, 2.313223e-002
3.334319e+003, 2.322908e-002
3.336247e+003, 2.340218e-002
3.338176e+003, 2.305533e-002
3.340104e+003, 2.326963e-002
3.342033e+003, 2.321584e-002
3.343961e+003, 2.312099e-002
3.345890e+003, 2.300327e-002
3.347818e+003, 2.308319e-002
3.349747e+003, 2.310927e-002
3.351675e+003, 2.347414e-002
3.353604e+003, 2.373658e-002
3.355532e+003, 2.362350e-002
3.357460e+003, 2.351662e-002
3.359389e+003, 2.321970e-002
3.361317e+003, 2.316972e-002
3.363246e+003, 2.346374e-002
3.365174e+003, 2.352722e-002
3.367103e+003, 2.365129e-002
3.369031e+003, 2.364980e-002
3.370960e+003, 2.335584e-002
3.372888e+003, 2.304940e-002
3.374817e+003, 2.320475e-002
3.376745e+003, 2.371690e-002
3.378674e+003, 2.352141e-002
3.380602e+003, 2.327118e-002
3.382531e+003, 2.318637e-002
3.384459e+003, 2.334443e-002
3.386387e+003, 2.380941e-002
3.388316e+003, 2.369820e-002
3.390244e+003, 2.347329e-002
3.392173e+003, 2.353375e-002
3.394101e+003, 2.340388e-002
3.396030e+003, 2.311238e-002
3.397958e+003, 2.344650e-002
3.399887e+003, 2.388489e-002
3.401815e+003, 2.367915e-002
3.403744e+003, 2.350194e-002
3.405672e+003, 2.321416e-002
3.407601e+003, 2.363570e-002
3.409529e+003, 2.362262e-002
3.411458e+003, 2.273842e-002
3.413386e+003, 2.216676e-002
3.415314e+003, 2.245159e-002
3.417243e+003, 2.315993e-002
3.419171e+003, 2.313474e-002
3.421100e+003, 2.280422e-002
3.423028e+003, 2.313642e-002
3.424957e+003, 2.334407e-002
3.426885e+003, 2.335312e-002
3.428814e+003, 2.366467e-002
3.430742e+003, 2.341669e-002
3.432671e+003, 2.347405e-002
3.434599e+003, 2.360127e-002
3.436528e+003, 2.361355e-002
3.438456e+003, 2.336887e-002
3.440385e+003, 2.314458e-002
3.442313e+003, 2.320244e-002
3.444241e+003, 2.341149e-002
3.446170e+003, 2.385388e-002
3.448098e+003, 2.415228e-002
3.450027e+003, 2.409138e-002
3.451955e+003, 2.459360e-002
3.453884e+003, 2.404039e-002
3.455812e+003, 2.372103e-002
3.457741e+003, 2.347967e-002
3.459669e+003, 2.329281e-002
3.461598e+003, 2.369670e-002
3.463526e+003, 2.419793e-002
3.465455e+003, 2.401520e-002
3.467383e+003, 2.327857e-002
3.469312e+003, 2.337517e-002
3.471240e+003, 2.359429e-002
3.473168e+003, 2.372997e-002
3.475097e+003, 2.345045e-002
3.477025e+003, 2.344575e-002
3.478954e+003, 2.343269e-002
3.480882e+003, 2.417895e-002
3.482811e+003, 2.442951e-002
3.484739e+003, 2.315431e-002
3.486668e+003, 2.266966e-002
3.488596e+003, 2.276732e-002
3.490525e+003, 2.253743e-002
3.492453e+003, 2.317994e-002
3.494382e+003, 2.398821e-002
3.496310e+003, 2.373932e-002
3.498239e+003, 2.302776e-002
3.500167e+003, 2.276338e-002
3.502095e+003, 2.323328e-002
3.504024e+003, 2.390149e-002
3.505952e+003, 2.380024e-002
3.507881e+003, 2.335870e-002
3.509809e+003, 2.372898e-002
3.511738e+003, 2.386250e-002
3.513666e+003, 2.347839e-002
3.515595e+003, 2.315991e-002
3.517523e+003, 2.323102e-002
3.519452e+003, 2.362059e-002
3.521380e+003, 2.394386e-002
3.523309e+003, 2.452856e-002
3.525237e+003, 2.435525e-002
3.527166e+003, 2.386930e-002
3.529094e+003, 2.409346e-002
3.531022e+003, 2.361510e-002
3.532951e+003, 2.299802e-002
3.534879e+003, 2.324499e-002
3.536808e+003, 2.370608e-002
3.538736e+003, 2.337880e-002
3.540665e+003, 2.323427e-002
3.542593e+003, 2.370368e-002
3.544522e+003, 2.350437e-002
3.546450e+003, 2.345064e-002
3.548379e+003, 2.425738e-002
3.550307e+003, 2.422138e-002
3.552236e+003, 2.355613e-002
3.554164e+003, 2.350191e-002
3.556093e+003, 2.379910e-002
3.558021e+003, 2.356536e-002
3.559949e+003, 2.310434e-002
3.561878e+003, 2.287831e-002
3.563806e+003, 2.305410e-002
3.565735e+003, 2.318813e-002
3.567663e+003, 2.325053e-002
3.569592e+003, 2.278227e-002
3.571520e+003, 2.357300e-002
3.573449e+003, 2.401093e-002
3.575377e+003, 2.342108e-002
3.577306e+003, 2.352895e-002
3.579234e+003, 2.372243e-002
3.581163e+003, 2.336316e-002
3.583091e+003, 2.317310e-002
3.585020e+003, 2.338278e-002
3.586948e+003, 2.315233e-002
3.588876e+003, 2.258889e-002
3.590805e+003, 2.284542e-002
3.592733e+003, 2.278939e-002
3.594662e+003, 2.245643e-002
3.596590e+003, 2.276259e-002
3.598519e+003, 2.252737e-002
3.600447e+003, 2.251129e-002
3.602376e+003, 2.287195e-002
3.604304e+003, 2.302277e-002
3.606233e+003, 2.312185e-002
3.608161e+003, 2.352136e-002
3.610090e+003, 2.381682e-002
3.612018e+003, 2.359706e-002
3.613947e+003, 2.361409e-002
3.615875e+003, 2.349602e-002
3.617803e+003, 2.268373e-002
3.619732e+003, 2.288828e-002
3.621660e+003, 2.358410e-002
3.623589e+003, 2.389622e-002
3.625517e+003, 2.374412e-002
3.627446e+003, 2.352365e-002
3.629374e+003, 2.299924e-002
3.631303e+003, 2.382176e-002
3.633231e+003, 2.495875e-002
3.635160e+003, 2.491577e-002
3.637088e+003, 2.435841e-002
3.639017e+003, 2.429561e-002
3.640945e+003, 2.390824e-002
3.642874e+003, 2.324912e-002
3.644802e+003, 2.323268e-002
3.646730e+003, 2.372858e-002
3.648659e+003, 2.377225e-002
3.650587e+003, 2.359127e-002
3.652516e+003, 2.350787e-002
3.654444e+003, 2.345693e-002
3.656373e+003, 2.381614e-002
3.658301e+003, 2.344331e-002
3.660230e+003, 2.364357e-002
3.662158e+003, 2.382790e-002
3.664087e+003, 2.421359e-002
3.666015e+003, 2.397385e-002
3.667944e+003, 2.361299e-002
3.669872e+003, 2.354711e-002
3.671801e+003, 2.375303e-002
3.673729e+003, 2.450718e-002
3.675657e+003, 2.451899e-002
3.677586e+003, 2.364375e-002
3.679514e+003, 2.315580e-002
3.681443e+003, 2.273811e-002
3.683371e+003, 2.332694e-002
3.685300e+003, 2.338493e-002
3.687228e+003, 2.262411e-002
3.689157e+003, 2.320353e-002
3.691085e+003, 2.341700e-002
3.693014e+003, 2.307710e-002
3.694942e+003, 2.308747e-002
3.696871e+003, 2.339674e-002
3.698799e+003, 2.398823e-002
3.700728e+003, 2.467965e-002
3.702656e+003, 2.511357e-002
3.704584e+003, 2.423952e-002
3.706513e+003, 2.351169e-002
3.708441e+003, 2.363060e-002
3.710370e+003, 2.411061e-002
3.712298e+003, 2.406377e-002
3.714227e+003, 2.340419e-002
3.716155e+003, 2.372238e-002
3.718084e+003, 2.444601e-002
3.720012e+003, 2.466175e-002
3.721941e+003, 2.491315e-002
3.723869e+003, 2.488906e-002
3.725798e+003, 2.492533e-002
3.727726e+003, 2.498446e-002
3.729655e+003, 2.390699e-002
3.731583e+003, 2.346488e-002
3.733511e+003, 2.428667e-002
3.735440e+003, 2.492608e-002
3.737368e+003, 2.475344e-002
3.739297e+003, 2.451823e-002
3.741225e+003, 2.461654e-002
3.743154e+003, 2.405006e-002
3.745082e+003, 2.358619e-002
3.747011e+003, 2.426465e-002
3.748939e+003, 2.491330e-002
3.750868e+003, 2.539585e-002
3.752796e+003, 2.465076e-002
3.754725e+003, 2.425562e-002
3.756653e+003, 2.485003e-002
3.758582e+003, 2.459130e-002
3.760510e+003, 2.409103e-002
3.762438e+003, 2.426923e-002
3.764367e+003, 2.431822e-002
3.766295e+003, 2.443057e-002
3.768224e+003, 2.432925e-002
3.770152e+003, 2.379541e-002
3.772081e+003, 2.383266e-002
3.774009e+003, 2.508652e-002
3.775938e+003, 2.545900e-002
3.777866e+003, 2.454785e-002
3.779795e+003, 2.410733e-002
3.781723e+003, 2.428440e-002
3.783652e+003, 2.431748e-002
3.785580e+003, 2.396672e-002
3.787509e+003, 2.406803e-002
3.789437e+003, 2.458793e-002
3.791365e+003, 2.478941e-002
3.793294e+003, 2.435840e-002
3.795222e+003, 2.474256e-002
3.797151e+003, 2.544862e-002
3.799079e+003, 2.547239e-002
3.801008e+003, 2.498935e-002
3.802936e+003, 2.450061e-002
3.804865e+003, 2.388783e-002
3.806793e+003, 2.485995e-002
3.808722e+003, 2.528137e-002
3.810650e+003, 2.481831e-002
3.812579e+003, 2.412290e-002
3.814507e+003, 2.404902e-002
3.816436e+003, 2.442442e-002
3.818364e+003, 2.487940e-002
3.820292e+003, 2.518325e-002
3.822221e+003, 2.445446e-002
3.824149e+003, 2.447229e-002
3.826078e+003, 2.421189e-002
3.828006e+003, 2.436886e-002
3.829935e+003, 2.479879e-002
3.831863e+003, 2.508140e-002
3.833792e+003, 2.473888e-002
3.835720e+003, 2.416333e-002
3.837649e+003, 2.367109e-002
3.839577e+003, 2.414216e-002
3.841506e+003, 2.452157e-002
3.843434e+003, 2.417580e-002
3.845363e+003, 2.376111e-002
3.847291e+003, 2.444721e-002
3.849219e+003, 2.526464e-002
3.851148e+003, 2.542290e-002
3.853076e+003, 2.520790e-002
3.855005e+003, 2.513582e-002
3.856933e+003, 2.490426e-002
3.858862e+003, 2.501934e-002
3.860790e+003, 2.438922e-002
3.862719e+003, 2.409209e-002
3.864647e+003, 2.447138e-002
3.866576e+003, 2.435048e-002
3.868504e+003, 2.445650e-002
3.870433e+003, 2.472830e-002
3.872361e+003, 2.473293e-002
3.874290e+003, 2.506366e-002
3.876218e+003, 2.504745e-002
3.878146e+003, 2.474600e-002
3.880075e+003, 2.423104e-002
3.882003e+003, 2.488390e-002
3.883932e+003, 2.511478e-002
3.885860e+003, 2.445174e-002
3.887789e+003, 2.426026e-002
3.889717e+003, 2.513152e-002
3.891646e+003, 2.560263e-002
3.893574e+003, 2.549182e-002
3.895503e+003, 2.533855e-002
3.897431e+003, 2.562850e-002
3.899360e+003, 2.540140e-002
3.901288e+003, 2.450735e-002
3.903217e+003, 2.444285e-002
3.905145e+003, 2.497037e-002
3.907073e+003, 2.521487e-002
3.909002e+003, 2.526465e-002
3.910930e+003, 2.534775e-002
3.912859e+003, 2.574416e-002
3.914787e+003, 2.553958e-002
3.916716e+003, 2.530399e-002
3.918644e+003, 2.480441e-002
3.920573e+003, 2.469563e-002
3.922501e+003, 2.577571e-002
3.924430e+003, 2.647766e-002
3.926358e+003, 2.664447e-002
3.928287e+003, 2.696102e-002
3.930215e+003, 2.616254e-002
3.932144e+003, 2.481230e-002
3.934072e+003, 2.457876e-002
3.936000e+003, 2.527655e-002
3.937929e+003, 2.527505e-002
3.939857e+003, 2.456420e-002
3.941786e+003, 2.466779e-002
3.943714e+003, 2.556779e-002
3.945643e+003, 2.613734e-002
3.947571e+003, 2.619861e-002
3.949500e+003, 2.626324e-002
3.951428e+003, 2.564271e-002
3.953357e+003, 2.484859e-002
3.955285e+003, 2.459854e-002
3.957214e+003, 2.462198e-002
3.959142e+003, 2.486890e-002
3.961071e+003, 2.531213e-002
3.962999e+003, 2.547945e-002
3.964927e+003, 2.563748e-002
3.966856e+003, 2.531005e-002
3.968784e+003, 2.524965e-002
3.970713e+003, 2.585695e-002
3.972641e+003, 2.586312e-002
3.974570e+003, 2.588118e-002
3.976498e+003, 2.584774e-002
3.978427e+003, 2.558628e-002
3.980355e+003, 2.544316e-002
3.982284e+003, 2.487378e-002
3.984212e+003, 2.461882e-002
3.986141e+003, 2.490972e-002
3.988069e+003, 2.555145e-002
3.989998e+003, 2.629146e-002
3.991926e+003, 2.630487e-002
3.993854e+003, 2.598119e-002
3.995783e+003, 2.631057e-002
3.997711e+003, 2.585654e-002
3.999640e+003, 2.507666e-002
##END=



