##NAMES=Zircon
##RRUFFID=R050203
##IDEAL CHEMISTRY=Zr^4+^SiO_4_
##LOCALITY=Eastern Thailand
##OWNER=RRUFF
##SOURCE=Eric Van Valkenburg
##DESCRIPTION=Dark red water-worn single crystal
##STATUS=The identification of this mineral has been confirmed by X-ray diffraction and chemical analysis
##URL=rruff.info/R050203
##MEASURED CHEMISTRY=(Zr_0.99_Hf_0.01_)_Î£=1_Si_1.00_O_4_
3.741225e+002, 5.198675e-001
3.760510e+002, 5.078605e-001
3.779795e+002, 5.165351e-001
3.799079e+002, 4.825551e-001
3.818364e+002, 3.610381e-001
3.837649e+002, 3.216022e-001
3.856933e+002, 2.885785e-001
3.876218e+002, 2.624318e-001
3.895503e+002, 2.455472e-001
3.914787e+002, 2.309249e-001
3.934072e+002, 2.205725e-001
3.953357e+002, 2.166348e-001
3.972641e+002, 2.041485e-001
3.991926e+002, 1.850197e-001
4.011211e+002, 1.683494e-001
4.030495e+002, 1.587816e-001
4.049780e+002, 1.456787e-001
4.069065e+002, 1.376579e-001
4.088349e+002, 1.343373e-001
4.107634e+002, 1.332172e-001
4.126919e+002, 1.236325e-001
4.146203e+002, 1.176142e-001
4.165488e+002, 1.232547e-001
4.184773e+002, 1.351413e-001
4.204057e+002, 1.482455e-001
4.223342e+002, 1.662498e-001
4.242627e+002, 1.890926e-001
4.261911e+002, 2.150533e-001
4.281196e+002, 2.343797e-001
4.300481e+002, 2.370288e-001
4.319765e+002, 2.168159e-001
4.339050e+002, 1.870196e-001
4.358335e+002, 1.591070e-001
4.377619e+002, 1.408715e-001
4.396904e+002, 1.311295e-001
4.416189e+002, 1.182392e-001
4.435473e+002, 1.063835e-001
4.454758e+002, 9.855030e-002
4.474043e+002, 9.228294e-002
4.493327e+002, 8.499829e-002
4.512612e+002, 7.785933e-002
4.531897e+002, 7.323474e-002
4.551181e+002, 6.973726e-002
4.570466e+002, 6.544981e-002
4.589751e+002, 5.909820e-002
4.609035e+002, 5.139902e-002
4.628320e+002, 4.508024e-002
4.647605e+002, 3.998829e-002
4.666889e+002, 3.599649e-002
4.686174e+002, 3.309743e-002
4.705459e+002, 3.040699e-002
4.724743e+002, 2.808646e-002
4.744028e+002, 2.640547e-002
4.763313e+002, 2.435304e-002
4.782597e+002, 2.241191e-002
4.801882e+002, 2.147836e-002
4.821167e+002, 2.105306e-002
4.840451e+002, 2.119009e-002
4.859736e+002, 2.125979e-002
4.879021e+002, 2.171945e-002
4.898305e+002, 2.198116e-002
4.917590e+002, 2.218282e-002
4.936875e+002, 2.217671e-002
4.956159e+002, 2.209419e-002
4.975444e+002, 2.241832e-002
4.994729e+002, 2.290001e-002
5.014013e+002, 2.294737e-002
5.033298e+002, 2.310646e-002
5.052583e+002, 2.337606e-002
5.071867e+002, 2.405123e-002
5.091152e+002, 2.502407e-002
5.110437e+002, 2.618857e-002
5.129721e+002, 2.685412e-002
5.149006e+002, 2.743990e-002
5.168290e+002, 2.790297e-002
5.187575e+002, 2.836709e-002
5.206860e+002, 2.905177e-002
5.226144e+002, 2.949705e-002
5.245429e+002, 2.962852e-002
5.264714e+002, 3.003300e-002
5.283998e+002, 3.093580e-002
5.303283e+002, 3.214366e-002
5.322568e+002, 3.284898e-002
5.341852e+002, 3.333844e-002
5.361137e+002, 3.366855e-002
5.380422e+002, 3.423090e-002
5.399706e+002, 3.527606e-002
5.418991e+002, 3.631992e-002
5.438276e+002, 3.731527e-002
5.457560e+002, 3.883477e-002
5.476845e+002, 4.061343e-002
5.496130e+002, 4.198870e-002
5.515414e+002, 4.280014e-002
5.534699e+002, 4.415412e-002
5.553984e+002, 4.633297e-002
5.573268e+002, 4.797497e-002
5.592553e+002, 4.991427e-002
5.611838e+002, 5.223331e-002
5.631122e+002, 5.465977e-002
5.650407e+002, 5.742036e-002
5.669692e+002, 6.068067e-002
5.688976e+002, 6.417098e-002
5.708261e+002, 6.770658e-002
5.727546e+002, 7.205953e-002
5.746830e+002, 7.722953e-002
5.766115e+002, 8.297909e-002
5.785400e+002, 8.925665e-002
5.804684e+002, 9.656233e-002
5.823969e+002, 1.047536e-001
5.843254e+002, 1.135080e-001
5.862538e+002, 1.235210e-001
5.881823e+002, 1.352185e-001
5.901108e+002, 1.486808e-001
5.920392e+002, 1.632910e-001
5.939677e+002, 1.792559e-001
5.958962e+002, 1.970678e-001
5.978246e+002, 2.155463e-001
5.997531e+002, 2.342398e-001
6.016816e+002, 2.520578e-001
6.036100e+002, 2.671573e-001
6.055385e+002, 2.780578e-001
6.074670e+002, 2.829108e-001
6.093954e+002, 2.810909e-001
6.113239e+002, 2.738033e-001
6.132524e+002, 2.623950e-001
6.151808e+002, 2.483207e-001
6.171093e+002, 2.324436e-001
6.190378e+002, 2.161987e-001
6.209662e+002, 1.994177e-001
6.228947e+002, 1.835154e-001
6.248232e+002, 1.688939e-001
6.267516e+002, 1.544559e-001
6.286801e+002, 1.408271e-001
6.306086e+002, 1.288499e-001
6.325370e+002, 1.181717e-001
6.344655e+002, 1.091973e-001
6.363940e+002, 1.016838e-001
6.383224e+002, 9.540508e-002
6.402509e+002, 9.068070e-002
6.421794e+002, 8.710147e-002
6.441078e+002, 8.472872e-002
6.460363e+002, 8.347445e-002
6.479648e+002, 8.263347e-002
6.498932e+002, 8.202972e-002
6.518217e+002, 8.114648e-002
6.537502e+002, 7.989633e-002
6.556786e+002, 7.860374e-002
6.576071e+002, 7.778479e-002
6.595356e+002, 7.704204e-002
6.614641e+002, 7.652117e-002
6.633925e+002, 7.658706e-002
6.653210e+002, 7.722484e-002
6.672495e+002, 7.833670e-002
6.691779e+002, 7.954586e-002
6.711064e+002, 8.064604e-002
6.730349e+002, 8.171725e-002
6.749633e+002, 8.264357e-002
6.768918e+002, 8.392335e-002
6.788203e+002, 8.555632e-002
6.807487e+002, 8.722834e-002
6.826772e+002, 8.899876e-002
6.846057e+002, 9.077561e-002
6.865341e+002, 9.258167e-002
6.884626e+002, 9.409906e-002
6.903911e+002, 9.558401e-002
6.923195e+002, 9.723736e-002
6.942480e+002, 9.930193e-002
6.961765e+002, 1.016729e-001
6.981049e+002, 1.037738e-001
7.000334e+002, 1.054813e-001
7.019619e+002, 1.072704e-001
7.038903e+002, 1.094984e-001
7.058188e+002, 1.116682e-001
7.077473e+002, 1.135920e-001
7.096757e+002, 1.159423e-001
7.116042e+002, 1.186564e-001
7.135327e+002, 1.209421e-001
7.154611e+002, 1.232702e-001
7.173896e+002, 1.260127e-001
7.193181e+002, 1.286124e-001
7.212465e+002, 1.312788e-001
7.231750e+002, 1.340552e-001
7.251035e+002, 1.366085e-001
7.270319e+002, 1.393389e-001
7.289604e+002, 1.422999e-001
7.308889e+002, 1.454430e-001
7.328173e+002, 1.489020e-001
7.347458e+002, 1.528726e-001
7.366743e+002, 1.569389e-001
7.386027e+002, 1.606032e-001
7.405312e+002, 1.639632e-001
7.424597e+002, 1.676452e-001
7.443881e+002, 1.719442e-001
7.463166e+002, 1.759471e-001
7.482451e+002, 1.794492e-001
7.501735e+002, 1.832079e-001
7.521020e+002, 1.875884e-001
7.540305e+002, 1.921858e-001
7.559589e+002, 1.968690e-001
7.578874e+002, 2.018672e-001
7.598159e+002, 2.066850e-001
7.617443e+002, 2.115079e-001
7.636728e+002, 2.165609e-001
7.656013e+002, 2.217373e-001
7.675297e+002, 2.271203e-001
7.694582e+002, 2.321565e-001
7.713867e+002, 2.372683e-001
7.733151e+002, 2.425898e-001
7.752436e+002, 2.477947e-001
7.771721e+002, 2.531709e-001
7.791005e+002, 2.586703e-001
7.810290e+002, 2.641278e-001
7.829575e+002, 2.697138e-001
7.848859e+002, 2.757522e-001
7.868144e+002, 2.816361e-001
7.887429e+002, 2.872720e-001
7.906713e+002, 2.932898e-001
7.925998e+002, 2.994661e-001
7.945283e+002, 3.053004e-001
7.964567e+002, 3.115060e-001
7.983852e+002, 3.180050e-001
8.003137e+002, 3.242077e-001
8.022421e+002, 3.304560e-001
8.041706e+002, 3.369743e-001
8.060991e+002, 3.434792e-001
8.080275e+002, 3.497020e-001
8.099560e+002, 3.557177e-001
8.118845e+002, 3.618805e-001
8.138129e+002, 3.680066e-001
8.157414e+002, 3.738600e-001
8.176699e+002, 3.799096e-001
8.195983e+002, 3.859484e-001
8.215268e+002, 3.920392e-001
8.234553e+002, 3.980746e-001
8.253837e+002, 4.045610e-001
8.273122e+002, 4.113470e-001
8.292407e+002, 4.178544e-001
8.311691e+002, 4.241091e-001
8.330976e+002, 4.305376e-001
8.350261e+002, 4.368948e-001
8.369545e+002, 4.428504e-001
8.388830e+002, 4.490200e-001
8.408115e+002, 4.552529e-001
8.427399e+002, 4.609909e-001
8.446684e+002, 4.666870e-001
8.465969e+002, 4.722671e-001
8.485253e+002, 4.775833e-001
8.504538e+002, 4.821346e-001
8.523823e+002, 4.862690e-001
8.543107e+002, 4.897169e-001
8.562392e+002, 4.931902e-001
8.581677e+002, 4.959853e-001
8.600961e+002, 4.973941e-001
8.620246e+002, 4.981168e-001
8.639531e+002, 4.989900e-001
8.658815e+002, 4.994746e-001
8.678100e+002, 4.992961e-001
8.697385e+002, 4.991460e-001
8.716669e+002, 4.987298e-001
8.735954e+002, 4.969562e-001
8.755239e+002, 4.947240e-001
8.774523e+002, 4.917157e-001
8.793808e+002, 4.879489e-001
8.813093e+002, 4.833972e-001
8.832377e+002, 4.787749e-001
8.851662e+002, 4.733309e-001
8.870947e+002, 4.674129e-001
8.890231e+002, 4.612447e-001
8.909516e+002, 4.550380e-001
8.928801e+002, 4.486328e-001
8.948085e+002, 4.419104e-001
8.967370e+002, 4.352989e-001
8.986655e+002, 4.284931e-001
9.005939e+002, 4.216292e-001
9.025224e+002, 4.149071e-001
9.044509e+002, 4.079853e-001
9.063793e+002, 4.013661e-001
9.083078e+002, 3.948142e-001
9.102363e+002, 3.880952e-001
9.121647e+002, 3.814755e-001
9.140932e+002, 3.748069e-001
9.160217e+002, 3.679449e-001
9.179501e+002, 3.616697e-001
9.198786e+002, 3.557689e-001
9.218071e+002, 3.501046e-001
9.237355e+002, 3.441567e-001
9.256640e+002, 3.380055e-001
9.275925e+002, 3.317489e-001
9.295209e+002, 3.256093e-001
9.314494e+002, 3.198566e-001
9.333779e+002, 3.147722e-001
9.353063e+002, 3.096982e-001
9.372348e+002, 3.044866e-001
9.391633e+002, 2.993937e-001
9.410917e+002, 2.946616e-001
9.430202e+002, 2.905407e-001
9.449487e+002, 2.871318e-001
9.468771e+002, 2.839542e-001
9.488056e+002, 2.807260e-001
9.507341e+002, 2.773226e-001
9.526625e+002, 2.735071e-001
9.545910e+002, 2.697536e-001
9.565195e+002, 2.663612e-001
9.584479e+002, 2.628475e-001
9.603764e+002, 2.596935e-001
9.623049e+002, 2.569237e-001
9.642333e+002, 2.541001e-001
9.661618e+002, 2.515745e-001
9.680903e+002, 2.492450e-001
9.700187e+002, 2.472450e-001
9.719472e+002, 2.455229e-001
9.738757e+002, 2.433339e-001
9.758041e+002, 2.404408e-001
9.777326e+002, 2.371270e-001
9.796611e+002, 2.330298e-001
9.815895e+002, 2.286164e-001
9.835180e+002, 2.242420e-001
9.854465e+002, 2.195200e-001
9.873749e+002, 2.146622e-001
9.893034e+002, 2.094986e-001
9.912319e+002, 2.040356e-001
9.931603e+002, 1.986147e-001
9.950888e+002, 1.935225e-001
9.970173e+002, 1.882020e-001
9.989457e+002, 1.824714e-001
1.000874e+003, 1.770612e-001
1.002803e+003, 1.717277e-001
1.004731e+003, 1.665157e-001
1.006660e+003, 1.613085e-001
1.008588e+003, 1.561356e-001
1.010517e+003, 1.512459e-001
1.012445e+003, 1.466312e-001
1.014373e+003, 1.421199e-001
1.016302e+003, 1.376251e-001
1.018230e+003, 1.333063e-001
1.020159e+003, 1.289736e-001
1.022087e+003, 1.248560e-001
1.024016e+003, 1.210665e-001
1.025944e+003, 1.177462e-001
1.027873e+003, 1.146905e-001
1.029801e+003, 1.117745e-001
1.031730e+003, 1.092474e-001
1.033658e+003, 1.069751e-001
1.035587e+003, 1.049395e-001
1.037515e+003, 1.028456e-001
1.039443e+003, 1.006551e-001
1.041372e+003, 9.835666e-002
1.043300e+003, 9.582660e-002
1.045229e+003, 9.322270e-002
1.047157e+003, 9.085149e-002
1.049086e+003, 8.803836e-002
1.051014e+003, 8.519113e-002
1.052943e+003, 8.251905e-002
1.054871e+003, 7.943921e-002
1.056800e+003, 7.610129e-002
1.058728e+003, 7.277406e-002
1.060657e+003, 6.937708e-002
1.062585e+003, 6.591836e-002
1.064514e+003, 6.220803e-002
1.066442e+003, 5.868125e-002
1.068370e+003, 5.535321e-002
1.070299e+003, 5.204257e-002
1.072227e+003, 4.896612e-002
1.074156e+003, 4.576483e-002
1.076084e+003, 4.279520e-002
1.078013e+003, 4.005710e-002
1.079941e+003, 3.724139e-002
1.081870e+003, 3.452801e-002
1.083798e+003, 3.197442e-002
1.085727e+003, 2.955591e-002
1.087655e+003, 2.733130e-002
1.089584e+003, 2.536404e-002
1.091512e+003, 2.380692e-002
1.093441e+003, 2.227578e-002
1.095369e+003, 2.089123e-002
1.097297e+003, 1.980009e-002
1.099226e+003, 1.871496e-002
1.101154e+003, 1.792852e-002
1.103083e+003, 1.747150e-002
1.105011e+003, 1.708122e-002
1.106940e+003, 1.672181e-002
1.108868e+003, 1.642420e-002
1.110797e+003, 1.612826e-002
1.112725e+003, 1.585842e-002
1.114654e+003, 1.562325e-002
1.116582e+003, 1.538907e-002
1.118511e+003, 1.533478e-002
1.120439e+003, 1.512112e-002
1.122368e+003, 1.462796e-002
1.124296e+003, 1.429634e-002
1.126224e+003, 1.409378e-002
1.128153e+003, 1.400105e-002
1.130081e+003, 1.386935e-002
1.132010e+003, 1.365193e-002
1.133938e+003, 1.343570e-002
1.135867e+003, 1.326338e-002
1.137795e+003, 1.316757e-002
1.139724e+003, 1.305742e-002
1.141652e+003, 1.284572e-002
1.143581e+003, 1.284350e-002
1.145509e+003, 1.288943e-002
1.147438e+003, 1.311698e-002
1.149366e+003, 1.353956e-002
1.151295e+003, 1.380394e-002
1.153223e+003, 1.393698e-002
1.155151e+003, 1.422187e-002
1.157080e+003, 1.458362e-002
1.159008e+003, 1.466063e-002
1.160937e+003, 1.457347e-002
1.162865e+003, 1.454275e-002
1.164794e+003, 1.423534e-002
1.166722e+003, 1.412748e-002
1.168651e+003, 1.401220e-002
1.170579e+003, 1.350089e-002
1.172508e+003, 1.296231e-002
1.174436e+003, 1.263303e-002
1.176365e+003, 1.237984e-002
1.178293e+003, 1.214416e-002
1.180222e+003, 1.188200e-002
1.182150e+003, 1.168851e-002
1.184078e+003, 1.139160e-002
1.186007e+003, 1.120031e-002
1.187935e+003, 1.104554e-002
1.189864e+003, 1.064885e-002
1.191792e+003, 1.045549e-002
1.193721e+003, 1.053182e-002
1.195649e+003, 1.062853e-002
1.197578e+003, 1.059780e-002
1.199506e+003, 1.051006e-002
1.201435e+003, 1.061231e-002
1.203363e+003, 1.060802e-002
1.205292e+003, 1.052412e-002
1.207220e+003, 1.050843e-002
1.209149e+003, 1.054578e-002
1.211077e+003, 1.071370e-002
1.213005e+003, 1.084304e-002
1.214934e+003, 1.082338e-002
1.216862e+003, 1.074603e-002
1.218791e+003, 1.079108e-002
1.220719e+003, 1.101419e-002
1.222648e+003, 1.097050e-002
1.224576e+003, 1.079403e-002
1.226505e+003, 1.067953e-002
1.228433e+003, 1.060306e-002
1.230362e+003, 1.058390e-002
1.232290e+003, 1.055901e-002
1.234219e+003, 1.062350e-002
1.236147e+003, 1.074866e-002
1.238076e+003, 1.072240e-002
1.240004e+003, 1.068441e-002
1.241932e+003, 1.076042e-002
1.243861e+003, 1.085391e-002
1.245789e+003, 1.095005e-002
1.247718e+003, 1.105611e-002
1.249646e+003, 1.097089e-002
1.251575e+003, 1.092871e-002
1.253503e+003, 1.099865e-002
1.255432e+003, 1.109945e-002
1.257360e+003, 1.116204e-002
1.259289e+003, 1.123372e-002
1.261217e+003, 1.149514e-002
1.263146e+003, 1.173446e-002
1.265074e+003, 1.169838e-002
1.267003e+003, 1.157479e-002
1.268931e+003, 1.159108e-002
1.270859e+003, 1.187754e-002
1.272788e+003, 1.211769e-002
1.274716e+003, 1.209323e-002
1.276645e+003, 1.227013e-002
1.278573e+003, 1.249777e-002
1.280502e+003, 1.242594e-002
1.282430e+003, 1.209484e-002
1.284359e+003, 1.186349e-002
1.286287e+003, 1.190155e-002
1.288216e+003, 1.197495e-002
1.290144e+003, 1.195702e-002
1.292073e+003, 1.188953e-002
1.294001e+003, 1.187049e-002
1.295930e+003, 1.186638e-002
1.297858e+003, 1.195875e-002
1.299786e+003, 1.203235e-002
1.301715e+003, 1.223312e-002
1.303643e+003, 1.245543e-002
1.305572e+003, 1.259623e-002
1.307500e+003, 1.267114e-002
1.309429e+003, 1.275185e-002
1.311357e+003, 1.262024e-002
1.313286e+003, 1.257500e-002
1.315214e+003, 1.259240e-002
1.317143e+003, 1.265950e-002
1.319071e+003, 1.283091e-002
1.321000e+003, 1.278589e-002
1.322928e+003, 1.270466e-002
1.324857e+003, 1.264734e-002
1.326785e+003, 1.267757e-002
1.328714e+003, 1.279645e-002
1.330642e+003, 1.271045e-002
1.332570e+003, 1.266230e-002
1.334499e+003, 1.261270e-002
1.336427e+003, 1.256246e-002
1.338356e+003, 1.254552e-002
1.340284e+003, 1.249018e-002
1.342213e+003, 1.252478e-002
1.344141e+003, 1.257185e-002
1.346070e+003, 1.236235e-002
1.347998e+003, 1.227341e-002
1.349927e+003, 1.232199e-002
1.351855e+003, 1.231804e-002
1.353784e+003, 1.226489e-002
1.355712e+003, 1.236250e-002
1.357641e+003, 1.241757e-002
1.359569e+003, 1.256184e-002
1.361497e+003, 1.272170e-002
1.363426e+003, 1.291408e-002
1.365354e+003, 1.318708e-002
1.367283e+003, 1.341294e-002
1.369211e+003, 1.346870e-002
1.371140e+003, 1.359015e-002
1.373068e+003, 1.369538e-002
1.374997e+003, 1.376287e-002
1.376925e+003, 1.385921e-002
1.378854e+003, 1.411549e-002
1.380782e+003, 1.420049e-002
1.382711e+003, 1.430107e-002
1.384639e+003, 1.421329e-002
1.386568e+003, 1.429721e-002
1.388496e+003, 1.436383e-002
1.390424e+003, 1.430961e-002
1.392353e+003, 1.436470e-002
1.394281e+003, 1.459729e-002
1.396210e+003, 1.462416e-002
1.398138e+003, 1.461166e-002
1.400067e+003, 1.478818e-002
1.401995e+003, 1.487742e-002
1.403924e+003, 1.484479e-002
1.405852e+003, 1.492460e-002
1.407781e+003, 1.503968e-002
1.409709e+003, 1.507771e-002
1.411638e+003, 1.516603e-002
1.413566e+003, 1.532710e-002
1.415495e+003, 1.521751e-002
1.417423e+003, 1.527079e-002
1.419351e+003, 1.541659e-002
1.421280e+003, 1.539514e-002
1.423208e+003, 1.543803e-002
1.425137e+003, 1.555390e-002
1.427065e+003, 1.557252e-002
1.428994e+003, 1.568131e-002
1.430922e+003, 1.578212e-002
1.432851e+003, 1.581425e-002
1.434779e+003, 1.569028e-002
1.436708e+003, 1.571416e-002
1.438636e+003, 1.562781e-002
1.440565e+003, 1.574895e-002
1.442493e+003, 1.605232e-002
1.444422e+003, 1.634252e-002
1.446350e+003, 1.642170e-002
1.448278e+003, 1.647152e-002
1.450207e+003, 1.651324e-002
1.452135e+003, 1.684215e-002
1.454064e+003, 1.697690e-002
1.455992e+003, 1.704392e-002
1.457921e+003, 1.701831e-002
1.459849e+003, 1.688934e-002
1.461778e+003, 1.701194e-002
1.463706e+003, 1.713393e-002
1.465635e+003, 1.702969e-002
1.467563e+003, 1.674821e-002
1.469492e+003, 1.638309e-002
1.471420e+003, 1.616973e-002
1.473349e+003, 1.597951e-002
1.475277e+003, 1.551252e-002
1.477205e+003, 1.513802e-002
1.479134e+003, 1.508307e-002
1.481062e+003, 1.495118e-002
1.482991e+003, 1.461331e-002
1.484919e+003, 1.457067e-002
1.486848e+003, 1.467102e-002
1.488776e+003, 1.455755e-002
1.490705e+003, 1.451811e-002
1.492633e+003, 1.459668e-002
1.494562e+003, 1.466391e-002
1.496490e+003, 1.473274e-002
1.498419e+003, 1.480861e-002
1.500347e+003, 1.488840e-002
1.502276e+003, 1.508249e-002
1.504204e+003, 1.538102e-002
1.506132e+003, 1.561511e-002
1.508061e+003, 1.559984e-002
1.509989e+003, 1.562594e-002
1.511918e+003, 1.582923e-002
1.513846e+003, 1.601037e-002
1.515775e+003, 1.616582e-002
1.517703e+003, 1.608698e-002
1.519632e+003, 1.628256e-002
1.521560e+003, 1.655616e-002
1.523489e+003, 1.652653e-002
1.525417e+003, 1.663560e-002
1.527346e+003, 1.668730e-002
1.529274e+003, 1.666748e-002
1.531203e+003, 1.682253e-002
1.533131e+003, 1.712058e-002
1.535059e+003, 1.721691e-002
1.536988e+003, 1.739852e-002
1.538916e+003, 1.762141e-002
1.540845e+003, 1.754977e-002
1.542773e+003, 1.759194e-002
1.544702e+003, 1.763952e-002
1.546630e+003, 1.762313e-002
1.548559e+003, 1.768930e-002
1.550487e+003, 1.766787e-002
1.552416e+003, 1.769682e-002
1.554344e+003, 1.792202e-002
1.556273e+003, 1.821585e-002
1.558201e+003, 1.847423e-002
1.560130e+003, 1.841884e-002
1.562058e+003, 1.815777e-002
1.563986e+003, 1.810328e-002
1.565915e+003, 1.813701e-002
1.567843e+003, 1.818992e-002
1.569772e+003, 1.823713e-002
1.571700e+003, 1.829527e-002
1.573629e+003, 1.857768e-002
1.575557e+003, 1.885873e-002
1.577486e+003, 1.889536e-002
1.579414e+003, 1.875343e-002
1.581343e+003, 1.870940e-002
1.583271e+003, 1.880117e-002
1.585200e+003, 1.892723e-002
1.587128e+003, 1.897236e-002
1.589057e+003, 1.908072e-002
1.590985e+003, 1.935088e-002
1.592913e+003, 1.950836e-002
1.594842e+003, 1.960025e-002
1.596770e+003, 1.977756e-002
1.598699e+003, 1.999616e-002
1.600627e+003, 1.982347e-002
1.602556e+003, 1.978464e-002
1.604484e+003, 1.985549e-002
1.606413e+003, 1.964817e-002
1.608341e+003, 1.963175e-002
1.610270e+003, 1.997633e-002
1.612198e+003, 2.005583e-002
1.614127e+003, 2.013821e-002
1.616055e+003, 2.035804e-002
1.617984e+003, 2.019841e-002
1.619912e+003, 1.995607e-002
1.621840e+003, 2.007414e-002
1.623769e+003, 1.998880e-002
1.625697e+003, 1.991590e-002
1.627626e+003, 2.011773e-002
1.629554e+003, 2.024640e-002
1.631483e+003, 2.030040e-002
1.633411e+003, 2.036912e-002
1.635340e+003, 2.028555e-002
1.637268e+003, 2.021922e-002
1.639197e+003, 2.017710e-002
1.641125e+003, 2.023440e-002
1.643054e+003, 2.021880e-002
1.644982e+003, 2.027007e-002
1.646911e+003, 2.039826e-002
1.648839e+003, 2.043496e-002
1.650767e+003, 2.058950e-002
1.652696e+003, 2.097088e-002
1.654624e+003, 2.062034e-002
1.656553e+003, 2.044359e-002
1.658481e+003, 2.042708e-002
1.660410e+003, 2.028938e-002
1.662338e+003, 2.036042e-002
1.664267e+003, 2.034201e-002
1.666195e+003, 2.045076e-002
1.668124e+003, 2.090223e-002
1.670052e+003, 2.085434e-002
1.671981e+003, 2.053510e-002
1.673909e+003, 2.052775e-002
1.675838e+003, 2.062943e-002
1.677766e+003, 2.077819e-002
1.679694e+003, 2.102172e-002
1.681623e+003, 2.094057e-002
1.683551e+003, 2.092027e-002
1.685480e+003, 2.110039e-002
1.687408e+003, 2.124735e-002
1.689337e+003, 2.127152e-002
1.691265e+003, 2.122583e-002
1.693194e+003, 2.145928e-002
1.695122e+003, 2.188297e-002
1.697051e+003, 2.183384e-002
1.698979e+003, 2.200687e-002
1.700908e+003, 2.229092e-002
1.702836e+003, 2.210648e-002
1.704765e+003, 2.225636e-002
1.706693e+003, 2.225864e-002
1.708621e+003, 2.245142e-002
1.710550e+003, 2.278451e-002
1.712478e+003, 2.307927e-002
1.714407e+003, 2.354884e-002
1.716335e+003, 2.412212e-002
1.718264e+003, 2.454573e-002
1.720192e+003, 2.494623e-002
1.722121e+003, 2.588197e-002
1.724049e+003, 2.696775e-002
1.725978e+003, 2.816266e-002
1.727906e+003, 2.972287e-002
1.729835e+003, 3.133593e-002
1.731763e+003, 3.249670e-002
1.733692e+003, 3.303779e-002
1.735620e+003, 3.259526e-002
1.737548e+003, 3.180094e-002
1.739477e+003, 3.085193e-002
1.741405e+003, 2.911577e-002
1.743334e+003, 2.721784e-002
1.745262e+003, 2.574089e-002
1.747191e+003, 2.459087e-002
1.749119e+003, 2.396260e-002
1.751048e+003, 2.328153e-002
1.752976e+003, 2.238669e-002
1.754905e+003, 2.189088e-002
1.756833e+003, 2.180807e-002
1.758762e+003, 2.192718e-002
1.760690e+003, 2.207485e-002
1.762619e+003, 2.202449e-002
1.764547e+003, 2.226085e-002
1.766475e+003, 2.240576e-002
1.768404e+003, 2.231313e-002
1.770332e+003, 2.238221e-002
1.772261e+003, 2.282996e-002
1.774189e+003, 2.302735e-002
1.776118e+003, 2.290741e-002
1.778046e+003, 2.291395e-002
1.779975e+003, 2.324288e-002
1.781903e+003, 2.376410e-002
1.783832e+003, 2.417053e-002
1.785760e+003, 2.413117e-002
1.787689e+003, 2.432156e-002
1.789617e+003, 2.463027e-002
1.791546e+003, 2.501325e-002
1.793474e+003, 2.530410e-002
1.795402e+003, 2.522224e-002
1.797331e+003, 2.496360e-002
1.799259e+003, 2.474033e-002
1.801188e+003, 2.469140e-002
1.803116e+003, 2.467855e-002
1.805045e+003, 2.469476e-002
1.806973e+003, 2.470706e-002
1.808902e+003, 2.462649e-002
1.810830e+003, 2.462117e-002
1.812759e+003, 2.447277e-002
1.814687e+003, 2.428124e-002
1.816616e+003, 2.407591e-002
1.818544e+003, 2.453949e-002
1.820473e+003, 2.501838e-002
1.822401e+003, 2.505461e-002
1.824329e+003, 2.493433e-002
1.826258e+003, 2.467193e-002
1.828186e+003, 2.484478e-002
1.830115e+003, 2.508136e-002
1.832043e+003, 2.502604e-002
1.833972e+003, 2.502555e-002
1.835900e+003, 2.497773e-002
1.837829e+003, 2.489628e-002
1.839757e+003, 2.472049e-002
1.841686e+003, 2.461286e-002
1.843614e+003, 2.488435e-002
1.845543e+003, 2.512292e-002
1.847471e+003, 2.488450e-002
1.849400e+003, 2.465256e-002
1.851328e+003, 2.475393e-002
1.853256e+003, 2.504940e-002
1.855185e+003, 2.527524e-002
1.857113e+003, 2.573644e-002
1.859042e+003, 2.577131e-002
1.860970e+003, 2.565717e-002
1.862899e+003, 2.557373e-002
1.864827e+003, 2.557909e-002
1.866756e+003, 2.578354e-002
1.868684e+003, 2.608424e-002
1.870613e+003, 2.611033e-002
1.872541e+003, 2.575932e-002
1.874470e+003, 2.594382e-002
1.876398e+003, 2.636130e-002
1.878327e+003, 2.623844e-002
1.880255e+003, 2.589925e-002
1.882183e+003, 2.586512e-002
1.884112e+003, 2.570555e-002
1.886040e+003, 2.562824e-002
1.887969e+003, 2.572809e-002
1.889897e+003, 2.588264e-002
1.891826e+003, 2.629607e-002
1.893754e+003, 2.614187e-002
1.895683e+003, 2.560879e-002
1.897611e+003, 2.542860e-002
1.899540e+003, 2.598267e-002
1.901468e+003, 2.599839e-002
1.903397e+003, 2.588646e-002
1.905325e+003, 2.611308e-002
1.907254e+003, 2.619489e-002
1.909182e+003, 2.628190e-002
1.911110e+003, 2.632074e-002
1.913039e+003, 2.569457e-002
1.914967e+003, 2.589765e-002
1.916896e+003, 2.621733e-002
1.918824e+003, 2.622421e-002
1.920753e+003, 2.607766e-002
1.922681e+003, 2.606086e-002
1.924610e+003, 2.565150e-002
1.926538e+003, 2.546502e-002
1.928467e+003, 2.524721e-002
1.930395e+003, 2.528867e-002
1.932324e+003, 2.495953e-002
1.934252e+003, 2.500253e-002
1.936181e+003, 2.571033e-002
1.938109e+003, 2.590526e-002
1.940037e+003, 2.559918e-002
1.941966e+003, 2.555731e-002
1.943894e+003, 2.523640e-002
1.945823e+003, 2.557364e-002
1.947751e+003, 2.554398e-002
1.949680e+003, 2.464543e-002
1.951608e+003, 2.475636e-002
1.953537e+003, 2.452380e-002
1.955465e+003, 2.384709e-002
1.957394e+003, 2.360124e-002
1.959322e+003, 2.323671e-002
1.961251e+003, 2.316121e-002
1.963179e+003, 2.364458e-002
1.965108e+003, 2.335765e-002
1.967036e+003, 2.219550e-002
1.968964e+003, 2.281004e-002
1.970893e+003, 2.319053e-002
1.972821e+003, 2.329275e-002
1.974750e+003, 2.382053e-002
1.976678e+003, 2.477366e-002
1.978607e+003, 2.626782e-002
1.980535e+003, 2.657413e-002
1.982464e+003, 2.608182e-002
1.984392e+003, 2.602641e-002
1.986321e+003, 2.567301e-002
1.988249e+003, 2.542433e-002
1.990178e+003, 2.581736e-002
1.992106e+003, 2.655710e-002
1.994035e+003, 2.700184e-002
1.995963e+003, 2.669219e-002
1.997891e+003, 2.549029e-002
1.999820e+003, 2.486811e-002
2.001748e+003, 2.463290e-002
2.003677e+003, 2.398171e-002
2.005605e+003, 2.414388e-002
2.007534e+003, 2.571984e-002
2.009462e+003, 2.553713e-002
2.011391e+003, 2.527250e-002
2.013319e+003, 2.605110e-002
2.015248e+003, 2.720670e-002
2.017176e+003, 2.686918e-002
2.019105e+003, 2.602885e-002
2.021033e+003, 2.661444e-002
2.022962e+003, 2.731707e-002
2.024890e+003, 2.652444e-002
2.026818e+003, 2.676941e-002
2.028747e+003, 2.750809e-002
2.030675e+003, 2.718693e-002
2.032604e+003, 2.694601e-002
2.034532e+003, 2.754480e-002
2.036461e+003, 2.710345e-002
2.038389e+003, 2.741950e-002
2.040318e+003, 2.790920e-002
2.042246e+003, 2.822585e-002
2.044175e+003, 2.937721e-002
2.046103e+003, 3.137500e-002
2.048031e+003, 3.192338e-002
2.049960e+003, 3.126697e-002
2.051888e+003, 3.019995e-002
2.053817e+003, 2.956425e-002
2.055745e+003, 2.954547e-002
2.057674e+003, 3.026860e-002
2.059602e+003, 3.087334e-002
2.061531e+003, 3.104940e-002
2.063459e+003, 3.213409e-002
2.065388e+003, 3.179195e-002
2.067316e+003, 3.089389e-002
2.069245e+003, 3.138033e-002
2.071173e+003, 3.182035e-002
2.073102e+003, 3.191261e-002
2.075030e+003, 3.171650e-002
2.076958e+003, 3.122341e-002
2.078887e+003, 3.133898e-002
2.080815e+003, 3.204099e-002
2.082744e+003, 3.249486e-002
2.084672e+003, 3.250246e-002
2.086601e+003, 3.143780e-002
2.088529e+003, 3.163660e-002
2.090458e+003, 3.207315e-002
2.092386e+003, 3.128871e-002
2.094315e+003, 3.128012e-002
2.096243e+003, 3.256581e-002
2.098172e+003, 3.332055e-002
2.100100e+003, 3.328008e-002
2.102029e+003, 3.288274e-002
2.103957e+003, 3.274012e-002
2.105885e+003, 3.280449e-002
2.107814e+003, 3.329946e-002
2.109742e+003, 3.407511e-002
2.111671e+003, 3.386345e-002
2.113599e+003, 3.302134e-002
2.115528e+003, 3.265445e-002
2.117456e+003, 3.210122e-002
2.119385e+003, 3.251914e-002
2.121313e+003, 3.290422e-002
2.123242e+003, 3.270676e-002
2.125170e+003, 3.209472e-002
2.127099e+003, 3.122927e-002
2.129027e+003, 3.064900e-002
2.130956e+003, 3.013849e-002
2.132884e+003, 3.071745e-002
2.134813e+003, 3.212551e-002
2.136741e+003, 3.227540e-002
2.138669e+003, 3.202482e-002
2.140598e+003, 3.108182e-002
2.142526e+003, 3.038722e-002
2.144455e+003, 3.023693e-002
2.146383e+003, 3.104112e-002
2.148312e+003, 3.100167e-002
2.150240e+003, 3.082153e-002
2.152169e+003, 3.055890e-002
2.154097e+003, 3.088781e-002
2.156026e+003, 2.975577e-002
2.157954e+003, 3.016908e-002
2.159883e+003, 3.439239e-002
2.161811e+003, 3.655255e-002
2.163740e+003, 3.608714e-002
2.165668e+003, 3.586052e-002
2.167596e+003, 3.519569e-002
2.169525e+003, 3.441134e-002
2.171453e+003, 3.406157e-002
2.173382e+003, 3.419627e-002
2.175310e+003, 3.318992e-002
2.177239e+003, 3.389797e-002
2.179167e+003, 3.501643e-002
2.181096e+003, 3.494340e-002
2.183024e+003, 3.527259e-002
2.184953e+003, 3.695422e-002
2.186881e+003, 3.696627e-002
2.188810e+003, 3.676598e-002
2.190738e+003, 3.678540e-002
2.192667e+003, 3.574983e-002
2.194595e+003, 3.585677e-002
2.196523e+003, 3.725640e-002
2.198452e+003, 3.769238e-002
2.200380e+003, 3.745116e-002
2.202309e+003, 3.711607e-002
2.204237e+003, 3.720802e-002
2.206166e+003, 3.659376e-002
2.208094e+003, 3.611540e-002
2.210023e+003, 3.695342e-002
2.211951e+003, 3.724787e-002
2.213880e+003, 3.739512e-002
2.215808e+003, 3.690688e-002
2.217737e+003, 3.611899e-002
2.219665e+003, 3.580837e-002
2.221594e+003, 3.656361e-002
2.223522e+003, 3.754742e-002
2.225450e+003, 3.789258e-002
2.227379e+003, 3.827601e-002
2.229307e+003, 3.818759e-002
2.231236e+003, 3.828730e-002
2.233164e+003, 3.858307e-002
2.235093e+003, 3.842313e-002
2.237021e+003, 3.814333e-002
2.238950e+003, 3.800371e-002
2.240878e+003, 3.750925e-002
2.242807e+003, 3.771671e-002
2.244735e+003, 3.883407e-002
2.246664e+003, 3.902059e-002
2.248592e+003, 3.821184e-002
2.250521e+003, 3.825718e-002
2.252449e+003, 3.897909e-002
2.254377e+003, 3.913147e-002
2.256306e+003, 3.868242e-002
2.258234e+003, 3.875658e-002
2.260163e+003, 3.842592e-002
2.262091e+003, 3.852153e-002
2.264020e+003, 3.924193e-002
2.265948e+003, 3.950761e-002
2.267877e+003, 3.934476e-002
2.269805e+003, 3.911486e-002
2.271734e+003, 3.866608e-002
2.273662e+003, 3.935904e-002
2.275591e+003, 3.999091e-002
2.277519e+003, 4.044985e-002
2.279448e+003, 4.089434e-002
2.281376e+003, 4.106760e-002
2.283304e+003, 4.118117e-002
2.285233e+003, 4.098559e-002
2.287161e+003, 4.097587e-002
2.289090e+003, 4.128868e-002
2.291018e+003, 4.099711e-002
2.292947e+003, 4.115157e-002
2.294875e+003, 4.145471e-002
2.296804e+003, 4.094458e-002
2.298732e+003, 4.096619e-002
2.300661e+003, 4.140116e-002
2.302589e+003, 4.144040e-002
2.304518e+003, 4.156895e-002
2.306446e+003, 4.187462e-002
2.308375e+003, 4.176944e-002
2.310303e+003, 4.207659e-002
2.312231e+003, 4.216820e-002
2.314160e+003, 4.220457e-002
2.316088e+003, 4.187934e-002
2.318017e+003, 4.192366e-002
2.319945e+003, 4.258036e-002
2.321874e+003, 4.308206e-002
2.323802e+003, 4.336087e-002
2.325731e+003, 4.265246e-002
2.327659e+003, 4.185655e-002
2.329588e+003, 4.199863e-002
2.331516e+003, 4.199410e-002
2.333445e+003, 4.175172e-002
2.335373e+003, 4.206341e-002
2.337302e+003, 4.233607e-002
2.339230e+003, 4.231371e-002
2.341158e+003, 4.221564e-002
2.343087e+003, 4.203687e-002
2.345015e+003, 4.161001e-002
2.346944e+003, 4.142213e-002
2.348872e+003, 4.144628e-002
2.350801e+003, 4.182180e-002
2.352729e+003, 4.237106e-002
2.354658e+003, 4.285740e-002
2.356586e+003, 4.250344e-002
2.358515e+003, 4.168341e-002
2.360443e+003, 4.149626e-002
2.362372e+003, 4.204755e-002
2.364300e+003, 4.232977e-002
2.366229e+003, 4.240858e-002
2.368157e+003, 4.237184e-002
2.370085e+003, 4.227231e-002
2.372014e+003, 4.227412e-002
2.373942e+003, 4.225915e-002
2.375871e+003, 4.217013e-002
2.377799e+003, 4.219378e-002
2.379728e+003, 4.208427e-002
2.381656e+003, 4.199591e-002
2.383585e+003, 4.217148e-002
2.385513e+003, 4.251479e-002
2.387442e+003, 4.240707e-002
2.389370e+003, 4.242326e-002
2.391299e+003, 4.240641e-002
2.393227e+003, 4.262152e-002
2.395156e+003, 4.247465e-002
2.397084e+003, 4.200428e-002
2.399012e+003, 4.216959e-002
2.400941e+003, 4.226636e-002
2.402869e+003, 4.235935e-002
2.404798e+003, 4.332797e-002
2.406726e+003, 4.390639e-002
2.408655e+003, 4.355720e-002
2.410583e+003, 4.302749e-002
2.412512e+003, 4.285629e-002
2.414440e+003, 4.310834e-002
2.416369e+003, 4.318007e-002
2.418297e+003, 4.292075e-002
2.420226e+003, 4.334743e-002
2.422154e+003, 4.368962e-002
2.424083e+003, 4.371218e-002
2.426011e+003, 4.352024e-002
2.427939e+003, 4.362778e-002
2.429868e+003, 4.394148e-002
2.431796e+003, 4.395241e-002
2.433725e+003, 4.390497e-002
2.435653e+003, 4.368170e-002
2.437582e+003, 4.371013e-002
2.439510e+003, 4.432991e-002
2.441439e+003, 4.422629e-002
2.443367e+003, 4.448906e-002
2.445296e+003, 4.460327e-002
2.447224e+003, 4.414842e-002
2.449153e+003, 4.425114e-002
2.451081e+003, 4.456304e-002
2.453010e+003, 4.447674e-002
2.454938e+003, 4.476141e-002
2.456866e+003, 4.471041e-002
2.458795e+003, 4.470973e-002
2.460723e+003, 4.503340e-002
2.462652e+003, 4.474431e-002
2.464580e+003, 4.427282e-002
2.466509e+003, 4.452170e-002
2.468437e+003, 4.501522e-002
2.470366e+003, 4.503964e-002
2.472294e+003, 4.474116e-002
2.474223e+003, 4.447670e-002
2.476151e+003, 4.475494e-002
2.478080e+003, 4.481384e-002
2.480008e+003, 4.457385e-002
2.481937e+003, 4.460115e-002
2.483865e+003, 4.476988e-002
2.485793e+003, 4.508370e-002
2.487722e+003, 4.529341e-002
2.489650e+003, 4.507048e-002
2.491579e+003, 4.472477e-002
2.493507e+003, 4.520732e-002
2.495436e+003, 4.556569e-002
2.497364e+003, 4.566806e-002
2.499293e+003, 4.543871e-002
2.501221e+003, 4.527546e-002
2.503150e+003, 4.514003e-002
2.505078e+003, 4.497375e-002
2.507007e+003, 4.497807e-002
2.508935e+003, 4.524012e-002
2.510864e+003, 4.579682e-002
2.512792e+003, 4.611371e-002
2.514720e+003, 4.565325e-002
2.516649e+003, 4.561923e-002
2.518577e+003, 4.628082e-002
2.520506e+003, 4.667378e-002
2.522434e+003, 4.652975e-002
2.524363e+003, 4.579673e-002
2.526291e+003, 4.561433e-002
2.528220e+003, 4.561859e-002
2.530148e+003, 4.530003e-002
2.532077e+003, 4.566675e-002
2.534005e+003, 4.610202e-002
2.535934e+003, 4.627135e-002
2.537862e+003, 4.633951e-002
2.539791e+003, 4.719679e-002
2.541719e+003, 4.744079e-002
2.543647e+003, 4.714382e-002
2.545576e+003, 4.682401e-002
2.547504e+003, 4.731353e-002
2.549433e+003, 4.771309e-002
2.551361e+003, 4.735834e-002
2.553290e+003, 4.719267e-002
2.555218e+003, 4.759466e-002
2.557147e+003, 4.738659e-002
2.559075e+003, 4.747215e-002
2.561004e+003, 4.807582e-002
2.562932e+003, 4.790260e-002
2.564861e+003, 4.739270e-002
2.566789e+003, 4.761436e-002
2.568718e+003, 4.752311e-002
2.570646e+003, 4.771444e-002
2.572574e+003, 4.810285e-002
2.574503e+003, 4.827980e-002
2.576431e+003, 4.795084e-002
2.578360e+003, 4.782070e-002
2.580288e+003, 4.813427e-002
2.582217e+003, 4.796903e-002
2.584145e+003, 4.763084e-002
2.586074e+003, 4.831723e-002
2.588002e+003, 4.907665e-002
2.589931e+003, 4.865012e-002
2.591859e+003, 4.779462e-002
2.593788e+003, 4.792290e-002
2.595716e+003, 4.851706e-002
2.597645e+003, 4.847879e-002
2.599573e+003, 4.834243e-002
2.601501e+003, 4.852900e-002
2.603430e+003, 4.875517e-002
2.605358e+003, 4.901203e-002
2.607287e+003, 4.886051e-002
2.609215e+003, 4.875710e-002
2.611144e+003, 4.913442e-002
2.613072e+003, 4.920823e-002
2.615001e+003, 4.927233e-002
2.616929e+003, 4.957466e-002
2.618858e+003, 4.977127e-002
2.620786e+003, 5.000617e-002
2.622715e+003, 4.999356e-002
2.624643e+003, 4.978410e-002
2.626572e+003, 4.951452e-002
2.628500e+003, 4.984989e-002
2.630428e+003, 5.020845e-002
2.632357e+003, 5.046074e-002
2.634285e+003, 5.012849e-002
2.636214e+003, 4.977776e-002
2.638142e+003, 5.000865e-002
2.640071e+003, 5.045009e-002
2.641999e+003, 5.069525e-002
2.643928e+003, 5.071193e-002
2.645856e+003, 5.069358e-002
2.647785e+003, 5.036283e-002
2.649713e+003, 5.058389e-002
2.651642e+003, 5.110316e-002
2.653570e+003, 5.083780e-002
2.655499e+003, 5.087584e-002
2.657427e+003, 5.078341e-002
2.659355e+003, 5.046093e-002
2.661284e+003, 5.040330e-002
2.663212e+003, 5.051660e-002
2.665141e+003, 5.049719e-002
2.667069e+003, 5.016778e-002
2.668998e+003, 5.002731e-002
2.670926e+003, 5.029790e-002
2.672855e+003, 5.044262e-002
2.674783e+003, 5.045161e-002
2.676712e+003, 5.048197e-002
2.678640e+003, 5.052733e-002
2.680569e+003, 5.068745e-002
2.682497e+003, 5.063777e-002
2.684426e+003, 5.077980e-002
2.686354e+003, 5.079323e-002
2.688282e+003, 5.046513e-002
2.690211e+003, 5.046364e-002
2.692139e+003, 5.092740e-002
2.694068e+003, 5.109181e-002
2.695996e+003, 5.100941e-002
2.697925e+003, 5.103777e-002
2.699853e+003, 5.124713e-002
2.701782e+003, 5.138718e-002
2.703710e+003, 5.148217e-002
2.705639e+003, 5.181088e-002
2.707567e+003, 5.176550e-002
2.709496e+003, 5.196318e-002
2.711424e+003, 5.206683e-002
2.713353e+003, 5.171734e-002
2.715281e+003, 5.168096e-002
2.717209e+003, 5.190817e-002
2.719138e+003, 5.188842e-002
2.721066e+003, 5.197111e-002
2.722995e+003, 5.194091e-002
2.724923e+003, 5.180280e-002
2.726852e+003, 5.184135e-002
2.728780e+003, 5.215519e-002
2.730709e+003, 5.243327e-002
2.732637e+003, 5.228398e-002
2.734566e+003, 5.227334e-002
2.736494e+003, 5.248295e-002
2.738423e+003, 5.259760e-002
2.740351e+003, 5.238678e-002
2.742280e+003, 5.226262e-002
2.744208e+003, 5.245320e-002
2.746136e+003, 5.253989e-002
2.748065e+003, 5.287218e-002
2.749993e+003, 5.299939e-002
2.751922e+003, 5.307306e-002
2.753850e+003, 5.330344e-002
2.755779e+003, 5.345810e-002
2.757707e+003, 5.329258e-002
2.759636e+003, 5.295134e-002
2.761564e+003, 5.288306e-002
2.763493e+003, 5.325266e-002
2.765421e+003, 5.370628e-002
2.767350e+003, 5.380242e-002
2.769278e+003, 5.385526e-002
2.771207e+003, 5.395413e-002
2.773135e+003, 5.349937e-002
2.775063e+003, 5.383710e-002
2.776992e+003, 5.460684e-002
2.778920e+003, 5.468706e-002
2.780849e+003, 5.459968e-002
2.782777e+003, 5.459414e-002
2.784706e+003, 5.458004e-002
2.786634e+003, 5.472642e-002
2.788563e+003, 5.501537e-002
2.790491e+003, 5.469711e-002
2.792420e+003, 5.438030e-002
2.794348e+003, 5.434717e-002
2.796277e+003, 5.446830e-002
2.798205e+003, 5.489177e-002
2.800134e+003, 5.512278e-002
2.802062e+003, 5.513781e-002
2.803990e+003, 5.487317e-002
2.805919e+003, 5.501254e-002
2.807847e+003, 5.560137e-002
2.809776e+003, 5.602852e-002
2.811704e+003, 5.550293e-002
2.813633e+003, 5.556948e-002
2.815561e+003, 5.594200e-002
2.817490e+003, 5.583101e-002
2.819418e+003, 5.562362e-002
2.821347e+003, 5.585881e-002
2.823275e+003, 5.623345e-002
2.825204e+003, 5.652229e-002
2.827132e+003, 5.680808e-002
2.829061e+003, 5.718707e-002
2.830989e+003, 5.705065e-002
2.832917e+003, 5.674080e-002
2.834846e+003, 5.699388e-002
2.836774e+003, 5.735176e-002
2.838703e+003, 5.790287e-002
2.840631e+003, 5.841985e-002
2.842560e+003, 5.838653e-002
2.844488e+003, 5.847585e-002
2.846417e+003, 5.871733e-002
2.848345e+003, 5.915275e-002
2.850274e+003, 5.942553e-002
2.852202e+003, 5.969352e-002
2.854131e+003, 5.978925e-002
2.856059e+003, 5.960115e-002
2.857988e+003, 5.974672e-002
2.859916e+003, 6.053918e-002
2.861844e+003, 6.086020e-002
2.863773e+003, 6.103705e-002
2.865701e+003, 6.130415e-002
2.867630e+003, 6.116606e-002
2.869558e+003, 6.096504e-002
2.871487e+003, 6.110233e-002
2.873415e+003, 6.127486e-002
2.875344e+003, 6.076543e-002
2.877272e+003, 6.055420e-002
2.879201e+003, 6.082711e-002
2.881129e+003, 6.083368e-002
2.883058e+003, 6.083739e-002
2.884986e+003, 6.104107e-002
2.886915e+003, 6.105265e-002
2.888843e+003, 6.080986e-002
2.890771e+003, 6.127280e-002
2.892700e+003, 6.165167e-002
2.894628e+003, 6.186333e-002
2.896557e+003, 6.225986e-002
2.898485e+003, 6.262770e-002
2.900414e+003, 6.303092e-002
2.902342e+003, 6.320760e-002
2.904271e+003, 6.327156e-002
2.906199e+003, 6.351021e-002
2.908128e+003, 6.328356e-002
2.910056e+003, 6.308021e-002
2.911985e+003, 6.366779e-002
2.913913e+003, 6.450503e-002
2.915842e+003, 6.506814e-002
2.917770e+003, 6.538814e-002
2.919698e+003, 6.546018e-002
2.921627e+003, 6.601829e-002
2.923555e+003, 6.644356e-002
2.925484e+003, 6.600293e-002
2.927412e+003, 6.559810e-002
2.929341e+003, 6.589551e-002
2.931269e+003, 6.630421e-002
2.933198e+003, 6.583284e-002
2.935126e+003, 6.523304e-002
2.937055e+003, 6.531872e-002
2.938983e+003, 6.487719e-002
2.940912e+003, 6.461777e-002
2.942840e+003, 6.472085e-002
2.944769e+003, 6.491508e-002
2.946697e+003, 6.540348e-002
2.948625e+003, 6.616048e-002
2.950554e+003, 6.630660e-002
2.952482e+003, 6.643854e-002
2.954411e+003, 6.722404e-002
2.956339e+003, 6.803190e-002
2.958268e+003, 6.784263e-002
2.960196e+003, 6.751300e-002
2.962125e+003, 6.683467e-002
2.964053e+003, 6.538474e-002
2.965982e+003, 6.478421e-002
2.967910e+003, 6.445162e-002
2.969839e+003, 6.285003e-002
2.971767e+003, 6.231657e-002
2.973696e+003, 6.273460e-002
2.975624e+003, 6.158400e-002
2.977552e+003, 6.051980e-002
2.979481e+003, 6.079872e-002
2.981409e+003, 6.047377e-002
2.983338e+003, 6.021587e-002
2.985266e+003, 6.026795e-002
2.987195e+003, 6.019626e-002
2.989123e+003, 6.024206e-002
2.991052e+003, 5.981293e-002
2.992980e+003, 5.924643e-002
2.994909e+003, 5.958501e-002
2.996837e+003, 5.936300e-002
2.998766e+003, 5.955284e-002
3.000694e+003, 5.968116e-002
3.002623e+003, 5.948708e-002
3.004551e+003, 5.943995e-002
3.006479e+003, 5.950364e-002
3.008408e+003, 5.948892e-002
3.010336e+003, 5.960733e-002
3.012265e+003, 6.006167e-002
3.014193e+003, 6.032432e-002
3.016122e+003, 6.030798e-002
3.018050e+003, 6.008049e-002
3.019979e+003, 5.942714e-002
3.021907e+003, 5.969980e-002
3.023836e+003, 6.009655e-002
3.025764e+003, 6.005973e-002
3.027693e+003, 5.990984e-002
3.029621e+003, 6.005181e-002
3.031550e+003, 5.993990e-002
3.033478e+003, 6.006124e-002
3.035406e+003, 6.036420e-002
3.037335e+003, 6.022188e-002
3.039263e+003, 6.019581e-002
3.041192e+003, 5.987768e-002
3.043120e+003, 6.003372e-002
3.045049e+003, 6.049702e-002
3.046977e+003, 6.034712e-002
3.048906e+003, 6.056021e-002
3.050834e+003, 6.124405e-002
3.052763e+003, 6.126285e-002
3.054691e+003, 6.117499e-002
3.056620e+003, 6.134969e-002
3.058548e+003, 6.114654e-002
3.060477e+003, 6.087528e-002
3.062405e+003, 6.148611e-002
3.064333e+003, 6.213493e-002
3.066262e+003, 6.221618e-002
3.068190e+003, 6.224030e-002
3.070119e+003, 6.155299e-002
3.072047e+003, 6.109563e-002
3.073976e+003, 6.166946e-002
3.075904e+003, 6.228945e-002
3.077833e+003, 6.206473e-002
3.079761e+003, 6.225712e-002
3.081690e+003, 6.181545e-002
3.083618e+003, 6.207136e-002
3.085547e+003, 6.254406e-002
3.087475e+003, 6.241081e-002
3.089404e+003, 6.249579e-002
3.091332e+003, 6.220110e-002
3.093260e+003, 6.154079e-002
3.095189e+003, 6.223349e-002
3.097117e+003, 6.242489e-002
3.099046e+003, 6.208391e-002
3.100974e+003, 6.220013e-002
3.102903e+003, 6.265664e-002
3.104831e+003, 6.253576e-002
3.106760e+003, 6.278035e-002
3.108688e+003, 6.329443e-002
3.110617e+003, 6.330150e-002
3.112545e+003, 6.330486e-002
3.114474e+003, 6.271937e-002
3.116402e+003, 6.255954e-002
3.118331e+003, 6.226403e-002
3.120259e+003, 6.206517e-002
3.122188e+003, 6.265856e-002
3.124116e+003, 6.304725e-002
3.126044e+003, 6.339133e-002
3.127973e+003, 6.361723e-002
3.129901e+003, 6.359439e-002
3.131830e+003, 6.345787e-002
3.133758e+003, 6.391194e-002
3.135687e+003, 6.427255e-002
3.137615e+003, 6.439534e-002
3.139544e+003, 6.464717e-002
3.141472e+003, 6.426019e-002
3.143401e+003, 6.455601e-002
3.145329e+003, 6.470598e-002
3.147258e+003, 6.441832e-002
3.149186e+003, 6.490480e-002
3.151115e+003, 6.458133e-002
3.153043e+003, 6.474736e-002
3.154971e+003, 6.561215e-002
3.156900e+003, 6.581083e-002
3.158828e+003, 6.542997e-002
3.160757e+003, 6.514174e-002
3.162685e+003, 6.524610e-002
3.164614e+003, 6.545017e-002
3.166542e+003, 6.546705e-002
3.168471e+003, 6.480201e-002
3.170399e+003, 6.482834e-002
3.172328e+003, 6.489940e-002
3.174256e+003, 6.503367e-002
3.176185e+003, 6.552316e-002
3.178113e+003, 6.547659e-002
3.180042e+003, 6.588925e-002
3.181970e+003, 6.539056e-002
3.183898e+003, 6.513567e-002
3.185827e+003, 6.542477e-002
3.187755e+003, 6.539317e-002
3.189684e+003, 6.527752e-002
3.191612e+003, 6.545289e-002
3.193541e+003, 6.571155e-002
3.195469e+003, 6.538648e-002
3.197398e+003, 6.539717e-002
3.199326e+003, 6.638056e-002
3.201255e+003, 6.657078e-002
3.203183e+003, 6.532005e-002
3.205112e+003, 6.496765e-002
3.207040e+003, 6.541140e-002
3.208969e+003, 6.558023e-002
3.210897e+003, 6.576495e-002
3.212825e+003, 6.606014e-002
3.214754e+003, 6.618869e-002
3.216682e+003, 6.637570e-002
3.218611e+003, 6.689457e-002
3.220539e+003, 6.657962e-002
3.222468e+003, 6.628460e-002
3.224396e+003, 6.580157e-002
3.226325e+003, 6.600508e-002
3.228253e+003, 6.628842e-002
3.230182e+003, 6.645068e-002
3.232110e+003, 6.625333e-002
3.234039e+003, 6.633465e-002
3.235967e+003, 6.592814e-002
3.237896e+003, 6.610978e-002
3.239824e+003, 6.664655e-002
3.241752e+003, 6.676225e-002
3.243681e+003, 6.689551e-002
3.245609e+003, 6.743787e-002
3.247538e+003, 6.706261e-002
3.249466e+003, 6.743421e-002
3.251395e+003, 6.745920e-002
3.253323e+003, 6.702542e-002
3.255252e+003, 6.756072e-002
3.257180e+003, 6.731300e-002
3.259109e+003, 6.720892e-002
3.261037e+003, 6.748790e-002
3.262966e+003, 6.739821e-002
3.264894e+003, 6.798917e-002
3.266823e+003, 6.811711e-002
3.268751e+003, 6.745411e-002
3.270679e+003, 6.728504e-002
3.272608e+003, 6.760852e-002
3.274536e+003, 6.783065e-002
3.276465e+003, 6.777724e-002
3.278393e+003, 6.738633e-002
3.280322e+003, 6.725025e-002
3.282250e+003, 6.691235e-002
3.284179e+003, 6.721845e-002
3.286107e+003, 6.754648e-002
3.288036e+003, 6.833575e-002
3.289964e+003, 6.861828e-002
3.291893e+003, 6.718402e-002
3.293821e+003, 6.712066e-002
3.295750e+003, 6.771445e-002
3.297678e+003, 6.764375e-002
3.299606e+003, 6.769845e-002
3.301535e+003, 6.737565e-002
3.303463e+003, 6.715208e-002
3.305392e+003, 6.720667e-002
3.307320e+003, 6.754863e-002
3.309249e+003, 6.793674e-002
3.311177e+003, 6.820444e-002
3.313106e+003, 6.824543e-002
3.315034e+003, 6.871391e-002
3.316963e+003, 6.845799e-002
3.318891e+003, 6.849595e-002
3.320820e+003, 6.874115e-002
3.322748e+003, 6.857970e-002
3.324677e+003, 6.889979e-002
3.326605e+003, 6.881941e-002
3.328533e+003, 6.851234e-002
3.330462e+003, 6.883091e-002
3.332390e+003, 6.883696e-002
3.334319e+003, 6.839558e-002
3.336247e+003, 6.868016e-002
3.338176e+003, 6.893396e-002
3.340104e+003, 6.914952e-002
3.342033e+003, 6.941791e-002
3.343961e+003, 6.993283e-002
3.345890e+003, 7.029474e-002
3.347818e+003, 7.021557e-002
3.349747e+003, 7.033267e-002
3.351675e+003, 7.031138e-002
3.353604e+003, 6.969706e-002
3.355532e+003, 6.886628e-002
3.357460e+003, 6.835279e-002
3.359389e+003, 6.851920e-002
3.361317e+003, 6.896201e-002
3.363246e+003, 6.953032e-002
3.365174e+003, 7.009323e-002
3.367103e+003, 6.916340e-002
3.369031e+003, 6.879344e-002
3.370960e+003, 6.936898e-002
3.372888e+003, 7.013854e-002
3.374817e+003, 6.921469e-002
3.376745e+003, 6.926820e-002
3.378674e+003, 6.909606e-002
3.380602e+003, 6.890163e-002
3.382531e+003, 6.936621e-002
3.384459e+003, 6.909119e-002
3.386387e+003, 6.878331e-002
3.388316e+003, 6.856180e-002
3.390244e+003, 6.920493e-002
3.392173e+003, 6.952635e-002
3.394101e+003, 6.960031e-002
3.396030e+003, 6.970368e-002
3.397958e+003, 6.908440e-002
3.399887e+003, 6.853099e-002
3.401815e+003, 6.865133e-002
3.403744e+003, 6.929279e-002
3.405672e+003, 6.933856e-002
3.407601e+003, 6.926163e-002
3.409529e+003, 6.953371e-002
3.411458e+003, 6.962114e-002
3.413386e+003, 6.924791e-002
3.415314e+003, 6.956642e-002
3.417243e+003, 6.935938e-002
3.419171e+003, 6.916136e-002
3.421100e+003, 6.955918e-002
3.423028e+003, 6.898819e-002
3.424957e+003, 6.875581e-002
3.426885e+003, 6.928800e-002
3.428814e+003, 7.013825e-002
3.430742e+003, 6.961527e-002
3.432671e+003, 6.847393e-002
3.434599e+003, 6.825349e-002
3.436528e+003, 6.888411e-002
3.438456e+003, 7.035782e-002
3.440385e+003, 7.095589e-002
3.442313e+003, 7.104650e-002
3.444241e+003, 7.151337e-002
3.446170e+003, 7.039250e-002
3.448098e+003, 6.975425e-002
3.450027e+003, 7.037819e-002
3.451955e+003, 7.026361e-002
3.453884e+003, 6.969409e-002
3.455812e+003, 6.819399e-002
3.457741e+003, 6.853396e-002
3.459669e+003, 6.946275e-002
3.461598e+003, 6.935576e-002
3.463526e+003, 6.938335e-002
3.465455e+003, 6.931869e-002
3.467383e+003, 6.970414e-002
3.469312e+003, 6.960505e-002
3.471240e+003, 6.872906e-002
3.473168e+003, 6.799440e-002
3.475097e+003, 6.919762e-002
3.477025e+003, 7.110814e-002
3.478954e+003, 7.036372e-002
3.480882e+003, 6.875243e-002
3.482811e+003, 6.882059e-002
3.484739e+003, 6.922705e-002
3.486668e+003, 6.939925e-002
3.488596e+003, 7.046283e-002
3.490525e+003, 7.006554e-002
3.492453e+003, 6.928255e-002
3.494382e+003, 6.871859e-002
3.496310e+003, 6.829113e-002
3.498239e+003, 6.857299e-002
3.500167e+003, 6.955370e-002
3.502095e+003, 6.981456e-002
3.504024e+003, 6.986188e-002
3.505952e+003, 6.971767e-002
3.507881e+003, 6.953945e-002
3.509809e+003, 6.890359e-002
3.511738e+003, 6.875033e-002
3.513666e+003, 6.964330e-002
3.515595e+003, 7.058793e-002
3.517523e+003, 6.942710e-002
3.519452e+003, 6.852969e-002
3.521380e+003, 6.870965e-002
3.523309e+003, 6.933656e-002
3.525237e+003, 6.973069e-002
3.527166e+003, 6.993788e-002
3.529094e+003, 6.957252e-002
3.531022e+003, 6.941111e-002
3.532951e+003, 6.913477e-002
3.534879e+003, 6.849142e-002
3.536808e+003, 6.849632e-002
3.538736e+003, 6.913023e-002
3.540665e+003, 6.934658e-002
3.542593e+003, 6.927765e-002
3.544522e+003, 6.921291e-002
3.546450e+003, 6.874560e-002
3.548379e+003, 6.895068e-002
3.550307e+003, 6.954615e-002
3.552236e+003, 6.976309e-002
3.554164e+003, 6.941610e-002
3.556093e+003, 6.955150e-002
3.558021e+003, 6.902166e-002
3.559949e+003, 6.886766e-002
3.561878e+003, 6.952540e-002
3.563806e+003, 6.902982e-002
3.565735e+003, 6.916822e-002
3.567663e+003, 7.002068e-002
3.569592e+003, 7.055148e-002
3.571520e+003, 6.976597e-002
3.573449e+003, 6.931785e-002
3.575377e+003, 6.841123e-002
3.577306e+003, 6.709965e-002
3.579234e+003, 6.681241e-002
3.581163e+003, 6.663761e-002
3.583091e+003, 6.713392e-002
3.585020e+003, 6.841871e-002
3.586948e+003, 6.849340e-002
3.588876e+003, 6.827836e-002
3.590805e+003, 6.764035e-002
3.592733e+003, 6.725081e-002
3.594662e+003, 6.734747e-002
3.596590e+003, 6.750543e-002
3.598519e+003, 6.846455e-002
3.600447e+003, 6.922021e-002
3.602376e+003, 6.845962e-002
3.604304e+003, 6.797882e-002
3.606233e+003, 6.764361e-002
3.608161e+003, 6.872945e-002
3.610090e+003, 6.835255e-002
3.612018e+003, 6.702463e-002
3.613947e+003, 6.723101e-002
3.615875e+003, 6.681552e-002
3.617803e+003, 6.708558e-002
3.619732e+003, 6.801993e-002
3.621660e+003, 6.721783e-002
3.623589e+003, 6.653516e-002
3.625517e+003, 6.730659e-002
3.627446e+003, 6.654091e-002
3.629374e+003, 6.508496e-002
3.631303e+003, 6.543279e-002
3.633231e+003, 6.595650e-002
3.635160e+003, 6.460650e-002
3.637088e+003, 6.392884e-002
3.639017e+003, 6.572577e-002
3.640945e+003, 6.581052e-002
3.642874e+003, 6.527458e-002
3.644802e+003, 6.696838e-002
3.646730e+003, 6.810351e-002
3.648659e+003, 6.779362e-002
3.650587e+003, 6.675219e-002
3.652516e+003, 6.597690e-002
3.654444e+003, 6.583237e-002
3.656373e+003, 6.535576e-002
3.658301e+003, 6.492271e-002
3.660230e+003, 6.639416e-002
3.662158e+003, 6.745805e-002
3.664087e+003, 6.670072e-002
3.666015e+003, 6.578545e-002
3.667944e+003, 6.516105e-002
3.669872e+003, 6.633199e-002
3.671801e+003, 6.698210e-002
3.673729e+003, 6.729989e-002
3.675657e+003, 6.829997e-002
3.677586e+003, 6.752702e-002
3.679514e+003, 6.654770e-002
3.681443e+003, 6.611989e-002
3.683371e+003, 6.629623e-002
3.685300e+003, 6.747976e-002
3.687228e+003, 6.849279e-002
3.689157e+003, 6.770939e-002
3.691085e+003, 6.530093e-002
3.693014e+003, 6.603084e-002
3.694942e+003, 6.773868e-002
3.696871e+003, 6.732243e-002
3.698799e+003, 6.639023e-002
3.700728e+003, 6.599078e-002
3.702656e+003, 6.607004e-002
3.704584e+003, 6.704041e-002
3.706513e+003, 6.731629e-002
3.708441e+003, 6.771304e-002
3.710370e+003, 6.822454e-002
3.712298e+003, 6.819802e-002
3.714227e+003, 6.755687e-002
3.716155e+003, 6.855740e-002
3.718084e+003, 6.860827e-002
3.720012e+003, 6.855705e-002
3.721941e+003, 6.839934e-002
3.723869e+003, 6.775027e-002
3.725798e+003, 6.778020e-002
3.727726e+003, 6.725781e-002
3.729655e+003, 6.546387e-002
3.731583e+003, 6.630294e-002
3.733511e+003, 6.676718e-002
3.735440e+003, 6.755337e-002
3.737368e+003, 6.748381e-002
3.739297e+003, 6.757869e-002
3.741225e+003, 6.790976e-002
3.743154e+003, 6.810229e-002
3.745082e+003, 6.894036e-002
3.747011e+003, 6.939390e-002
3.748939e+003, 6.998945e-002
3.750868e+003, 6.955677e-002
3.752796e+003, 6.885391e-002
3.754725e+003, 6.881469e-002
3.756653e+003, 6.866527e-002
3.758582e+003, 6.864467e-002
3.760510e+003, 6.987447e-002
3.762438e+003, 7.047353e-002
3.764367e+003, 6.996123e-002
3.766295e+003, 6.947590e-002
3.768224e+003, 6.909778e-002
3.770152e+003, 6.987306e-002
3.772081e+003, 6.968825e-002
3.774009e+003, 6.808076e-002
3.775938e+003, 6.822967e-002
3.777866e+003, 7.006736e-002
3.779795e+003, 7.036979e-002
3.781723e+003, 6.897571e-002
3.783652e+003, 6.769363e-002
3.785580e+003, 6.813403e-002
3.787509e+003, 6.823519e-002
3.789437e+003, 6.861797e-002
3.791365e+003, 6.868026e-002
3.793294e+003, 6.756258e-002
3.795222e+003, 6.775598e-002
3.797151e+003, 6.765028e-002
3.799079e+003, 6.735155e-002
3.801008e+003, 6.817754e-002
3.802936e+003, 6.841660e-002
3.804865e+003, 6.870321e-002
3.806793e+003, 6.962990e-002
3.808722e+003, 6.941602e-002
3.810650e+003, 6.913953e-002
3.812579e+003, 6.937487e-002
3.814507e+003, 6.923968e-002
3.816436e+003, 7.000360e-002
3.818364e+003, 6.935851e-002
3.820292e+003, 6.919491e-002
3.822221e+003, 6.957265e-002
3.824149e+003, 6.921800e-002
3.826078e+003, 6.939777e-002
3.828006e+003, 6.959066e-002
3.829935e+003, 6.892943e-002
3.831863e+003, 6.948960e-002
3.833792e+003, 7.042451e-002
3.835720e+003, 7.007470e-002
3.837649e+003, 7.110846e-002
3.839577e+003, 7.068144e-002
3.841506e+003, 6.978431e-002
3.843434e+003, 6.911518e-002
3.845363e+003, 6.970253e-002
3.847291e+003, 7.032797e-002
3.849219e+003, 7.065935e-002
3.851148e+003, 7.118735e-002
3.853076e+003, 7.143736e-002
3.855005e+003, 7.060008e-002
3.856933e+003, 7.104547e-002
3.858862e+003, 7.179444e-002
3.860790e+003, 7.091513e-002
3.862719e+003, 7.021850e-002
3.864647e+003, 6.978028e-002
3.866576e+003, 6.877597e-002
3.868504e+003, 6.875152e-002
3.870433e+003, 6.945499e-002
3.872361e+003, 6.905320e-002
3.874290e+003, 6.951190e-002
3.876218e+003, 7.003018e-002
3.878146e+003, 7.041602e-002
3.880075e+003, 7.066874e-002
3.882003e+003, 6.963395e-002
3.883932e+003, 6.955803e-002
3.885860e+003, 6.938367e-002
3.887789e+003, 6.994461e-002
3.889717e+003, 7.114559e-002
3.891646e+003, 7.071747e-002
3.893574e+003, 7.008070e-002
3.895503e+003, 6.978732e-002
3.897431e+003, 6.935669e-002
3.899360e+003, 6.983877e-002
3.901288e+003, 6.875911e-002
3.903217e+003, 6.780493e-002
3.905145e+003, 6.894163e-002
3.907073e+003, 6.942309e-002
3.909002e+003, 7.015090e-002
3.910930e+003, 6.966739e-002
3.912859e+003, 6.945741e-002
3.914787e+003, 7.038072e-002
3.916716e+003, 7.167190e-002
3.918644e+003, 7.113171e-002
3.920573e+003, 7.031874e-002
3.922501e+003, 7.058239e-002
3.924430e+003, 7.097575e-002
3.926358e+003, 7.182460e-002
3.928287e+003, 7.221940e-002
3.930215e+003, 7.036860e-002
3.932144e+003, 7.083508e-002
3.934072e+003, 7.136745e-002
3.936000e+003, 7.209824e-002
3.937929e+003, 7.279760e-002
3.939857e+003, 7.174342e-002
3.941786e+003, 7.087781e-002
3.943714e+003, 7.053364e-002
3.945643e+003, 6.930681e-002
3.947571e+003, 7.014117e-002
3.949500e+003, 7.205302e-002
3.951428e+003, 7.139333e-002
3.953357e+003, 7.013385e-002
3.955285e+003, 6.949734e-002
3.957214e+003, 6.967267e-002
3.959142e+003, 7.095871e-002
3.961071e+003, 7.114810e-002
3.962999e+003, 7.093438e-002
3.964927e+003, 7.090866e-002
3.966856e+003, 7.053887e-002
3.968784e+003, 7.112344e-002
3.970713e+003, 7.133282e-002
3.972641e+003, 7.080001e-002
3.974570e+003, 6.981960e-002
3.976498e+003, 6.967362e-002
3.978427e+003, 7.071345e-002
3.980355e+003, 7.185192e-002
3.982284e+003, 7.155155e-002
3.984212e+003, 7.205778e-002
3.986141e+003, 7.104568e-002
3.988069e+003, 7.044107e-002
3.989998e+003, 7.114694e-002
3.991926e+003, 7.061928e-002
3.993854e+003, 7.117973e-002
3.995783e+003, 7.203656e-002
3.997711e+003, 7.250839e-002
3.999640e+003, 7.216467e-002
##END=



