##NAMES=Zircon
##RRUFFID=R050286
##IDEAL CHEMISTRY=Zr^4+^SiO_4_
##LOCALITY=Renfrew County, Ontario, Canada
##OWNER=RRUFF
##SOURCE=Marcus Origlieri
##DESCRIPTION=Brownish red prismatic crystal frozen in matrix, associated with apatite
##STATUS=The identification of this mineral has been confirmed by X-ray diffraction and chemical analysis
##URL=rruff.info/R050286
##MEASURED CHEMISTRY=Zr_1.00_Si_1.00_O_4_; trace amounts of Hf
399.1926, 0.1667542
401.1211, 0.1597123
403.0496, 0.1604802
404.9780, 0.1575216
406.9065, 0.1502017
408.8350, 0.1471792
410.7634, 0.1396955
412.6919, 0.1340738
414.6204, 0.1315139
416.5488, 0.1286969
418.4773, 0.1334558
420.4058, 0.1406246
422.3342, 0.1476356
424.2627, 0.1580123
426.1912, 0.1730954
428.1196, 0.1906088
430.0481, 0.1975609
431.9766, 0.1909315
433.9050, 0.1755250
435.8335, 0.1602047
437.7620, 0.1491988
439.6904, 0.1397033
441.6189, 0.1313530
443.5474, 0.1246791
445.4758, 0.1183738
447.4043, 0.1119770
449.3328, 0.1052742
451.2612, 9.8538123E-02
453.1897, 9.3961112E-02
455.1182, 9.0436943E-02
457.0466, 8.6141147E-02
458.9751, 8.0988638E-02
460.9036, 7.6018870E-02
462.8320, 7.0933163E-02
464.7605, 6.6078082E-02
466.6890, 6.2674552E-02
468.6174, 5.9014410E-02
470.5459, 5.4510038E-02
472.4744, 5.0898969E-02
474.4028, 4.7726620E-02
476.3313, 4.5309089E-02
478.2598, 4.3937389E-02
480.1882, 4.2474411E-02
482.1167, 4.2021058E-02
484.0452, 4.2073801E-02
485.9736, 4.2576499E-02
487.9021, 4.2978499E-02
489.8306, 4.4013340E-02
491.7590, 4.4658002E-02
493.6875, 4.5177169E-02
495.6160, 4.5103531E-02
497.5444, 4.5262940E-02
499.4729, 4.6249181E-02
501.4014, 4.6267401E-02
503.3298, 4.6795871E-02
505.2583, 4.8184320E-02
507.1868, 4.8330430E-02
509.1152, 4.8764389E-02
511.0437, 5.0100680E-02
512.9722, 5.1108241E-02
514.9006, 5.1973231E-02
516.8291, 5.2708320E-02
518.7576, 5.2969608E-02
520.6860, 5.4345571E-02
522.6145, 5.6028839E-02
524.5430, 5.7331350E-02
526.4714, 5.8568381E-02
528.3999, 5.9161399E-02
530.3284, 5.9912041E-02
532.2568, 6.1293110E-02
534.1853, 6.2477510E-02
536.1138, 6.4170808E-02
538.0422, 6.6041000E-02
539.9707, 6.7192070E-02
541.8992, 6.7938313E-02
543.8276, 7.0111237E-02
545.7561, 7.2544500E-02
547.6846, 7.4497208E-02
549.6130, 7.5958721E-02
551.5415, 7.6963462E-02
553.4700, 7.8513727E-02
555.3984, 8.0984853E-02
557.3269, 8.3147816E-02
559.2554, 8.5543133E-02
561.1838, 8.7916464E-02
563.1123, 8.9446008E-02
565.0408, 9.1622882E-02
566.9692, 9.4083257E-02
568.8977, 9.6021913E-02
570.8262, 9.8566353E-02
572.7546, 0.1018464
574.6831, 0.1044463
576.6116, 0.1074053
578.5400, 0.1106795
580.4685, 0.1142215
582.3970, 0.1182990
584.3254, 0.1233461
586.2539, 0.1289050
588.1824, 0.1344100
590.1108, 0.1400629
592.0393, 0.1466674
593.9678, 0.1542646
595.8962, 0.1624292
597.8247, 0.1714374
599.7532, 0.1815779
601.6816, 0.1914361
603.6101, 0.1996398
605.5386, 0.2058031
607.4670, 0.2088323
609.3955, 0.2084299
611.3240, 0.2042573
613.2524, 0.1976953
615.1809, 0.1900678
617.1094, 0.1806407
619.0378, 0.1709821
620.9663, 0.1618058
622.8948, 0.1524224
624.8232, 0.1434853
626.7517, 0.1354224
628.6802, 0.1276869
630.6086, 0.1206707
632.5371, 0.1150802
634.4656, 0.1102606
636.3940, 0.1060608
638.3225, 0.1032098
640.2510, 0.1013681
642.1794, 9.9712238E-02
644.1079, 9.8609239E-02
646.0364, 9.7957440E-02
647.9648, 9.6995510E-02
649.8933, 9.5913909E-02
651.8218, 9.5310643E-02
653.7502, 9.4822429E-02
655.6787, 9.4307713E-02
657.6072, 9.4021693E-02
659.5356, 9.3879662E-02
661.4641, 9.4086148E-02
663.3926, 9.4825722E-02
665.3210, 9.5111303E-02
667.2495, 9.5686227E-02
669.1780, 9.6043319E-02
671.1064, 9.6075833E-02
673.0349, 9.6748173E-02
674.9634, 9.7468019E-02
676.8918, 9.8222122E-02
678.8203, 9.8873079E-02
680.7488, 9.9372923E-02
682.6772, 0.1003627
684.6057, 0.1019914
686.5342, 0.1031326
688.4626, 0.1031899
690.3911, 0.1039670
692.3196, 0.1049598
694.2480, 0.1057508
696.1765, 0.1068990
698.1050, 0.1081529
700.0334, 0.1091487
701.9619, 0.1100051
703.8904, 0.1107355
705.8188, 0.1117265
707.7473, 0.1128395
709.6758, 0.1142214
711.6042, 0.1155779
713.5327, 0.1166416
715.4612, 0.1178626
717.3896, 0.1193872
719.3181, 0.1208498
721.2466, 0.1220233
723.1750, 0.1231238
725.1035, 0.1243380
727.0320, 0.1256493
728.9604, 0.1268628
730.8889, 0.1282232
732.8174, 0.1291992
734.7458, 0.1301150
736.6743, 0.1313685
738.6028, 0.1331536
740.5313, 0.1356274
742.4597, 0.1377134
744.3882, 0.1395530
746.3167, 0.1417361
748.2451, 0.1443660
750.1736, 0.1468473
752.1021, 0.1493536
754.0305, 0.1524473
755.9590, 0.1555037
757.8875, 0.1580447
759.8159, 0.1605063
761.7444, 0.1637165
763.6729, 0.1667773
765.6013, 0.1702052
767.5298, 0.1740355
769.4583, 0.1773875
771.3867, 0.1804338
773.3152, 0.1838413
775.2437, 0.1878120
777.1721, 0.1915756
779.1006, 0.1947101
781.0291, 0.1978195
782.9575, 0.2012664
784.8860, 0.2042891
786.8145, 0.2067176
788.7429, 0.2089188
790.6714, 0.2109935
792.5999, 0.2126780
794.5283, 0.2138150
796.4568, 0.2150071
798.3853, 0.2164970
800.3137, 0.2188107
802.2422, 0.2221881
804.1707, 0.2259822
806.0991, 0.2297966
808.0276, 0.2344581
809.9561, 0.2397023
811.8845, 0.2440200
813.8130, 0.2484458
815.7415, 0.2532335
817.6699, 0.2582335
819.5984, 0.2628160
821.5269, 0.2667881
823.4553, 0.2710743
825.3838, 0.2753924
827.3123, 0.2794052
829.2407, 0.2834717
831.1692, 0.2872658
833.0977, 0.2911358
835.0261, 0.2950207
836.9546, 0.2986500
838.8831, 0.3031031
840.8115, 0.3066260
842.7400, 0.3101201
844.6685, 0.3131759
846.5969, 0.3162485
848.5254, 0.3198218
850.4539, 0.3226182
852.3823, 0.3251060
854.3108, 0.3272444
856.2393, 0.3284288
858.1677, 0.3302898
860.0962, 0.3318496
862.0247, 0.3324697
863.9531, 0.3333492
865.8816, 0.3341264
867.8101, 0.3340975
869.7385, 0.3344486
871.6670, 0.3338282
873.5955, 0.3322620
875.5239, 0.3309306
877.4524, 0.3288122
879.3809, 0.3264932
881.3093, 0.3241803
883.2378, 0.3214916
885.1663, 0.3178753
887.0947, 0.3144350
889.0232, 0.3121339
890.9517, 0.3090855
892.8801, 0.3054606
894.8085, 0.3018505
896.7370, 0.2978618
898.6655, 0.2938096
900.5939, 0.2898946
902.5224, 0.2865488
904.4509, 0.2835439
906.3793, 0.2798745
908.3078, 0.2754867
910.2363, 0.2714780
912.1647, 0.2680719
914.0932, 0.2649361
916.0217, 0.2616306
917.9501, 0.2586395
919.8786, 0.2560588
921.8071, 0.2535357
923.7355, 0.2507309
925.6640, 0.2477352
927.5925, 0.2446020
929.5209, 0.2412431
931.4494, 0.2376433
933.3779, 0.2343105
935.3063, 0.2314067
937.2348, 0.2286534
939.1633, 0.2256551
941.0917, 0.2228305
943.0202, 0.2204010
944.9487, 0.2186700
946.8771, 0.2174627
948.8056, 0.2159079
950.7341, 0.2135426
952.6625, 0.2114145
954.5910, 0.2092739
956.5195, 0.2071614
958.4479, 0.2053525
960.3764, 0.2034091
962.3049, 0.2013534
964.2333, 0.1995330
966.1618, 0.1977072
968.0903, 0.1957644
970.0187, 0.1937246
971.9472, 0.1914474
973.8757, 0.1888787
975.8041, 0.1862903
977.7326, 0.1829534
979.6611, 0.1796456
981.5895, 0.1767387
983.5180, 0.1735563
985.4465, 0.1703913
987.3749, 0.1672202
989.3034, 0.1639819
991.2319, 0.1603976
993.1603, 0.1569704
995.0888, 0.1538998
997.0173, 0.1508673
998.9457, 0.1474575
1000.874, 0.1438608
1002.803, 0.1406644
1004.731, 0.1376688
1006.660, 0.1345484
1008.588, 0.1309862
1010.517, 0.1273010
1012.445, 0.1237454
1014.373, 0.1198759
1016.302, 0.1161766
1018.230, 0.1128304
1020.159, 0.1095904
1022.087, 0.1061027
1024.016, 0.1026624
1025.944, 9.9598743E-02
1027.873, 9.6469410E-02
1029.801, 9.3934163E-02
1031.730, 9.2088498E-02
1033.658, 9.0115972E-02
1035.587, 8.7947667E-02
1037.515, 8.5888900E-02
1039.444, 8.4379822E-02
1041.372, 8.2769103E-02
1043.301, 8.0819547E-02
1045.229, 7.9060242E-02
1047.157, 7.6831341E-02
1049.086, 7.4631847E-02
1051.014, 7.2564393E-02
1052.943, 7.0394151E-02
1054.871, 6.8043597E-02
1056.800, 6.5815307E-02
1058.728, 6.3698784E-02
1060.657, 6.1346911E-02
1062.585, 5.8828961E-02
1064.514, 5.6509040E-02
1066.442, 5.4075591E-02
1068.371, 5.1738899E-02
1070.299, 4.9444921E-02
1072.228, 4.7169689E-02
1074.156, 4.4975180E-02
1076.084, 4.2812359E-02
1078.013, 4.0943999E-02
1079.941, 3.9195709E-02
1081.870, 3.7555799E-02
1083.798, 3.5790220E-02
1085.727, 3.4022909E-02
1087.655, 3.2654129E-02
1089.584, 3.1385910E-02
1091.512, 3.0087750E-02
1093.441, 2.8752301E-02
1095.369, 2.7219400E-02
1097.298, 2.6147431E-02
1099.226, 2.5338100E-02
1101.155, 2.4123469E-02
1103.083, 2.2949770E-02
1105.011, 2.2437040E-02
1106.940, 2.2059450E-02
1108.868, 2.1437440E-02
1110.797, 2.0931151E-02
1112.725, 2.0458421E-02
1114.654, 2.0048490E-02
1116.582, 1.9571699E-02
1118.511, 1.8991919E-02
1120.439, 1.8694211E-02
1122.368, 1.8243751E-02
1124.296, 1.7831299E-02
1126.225, 1.7566770E-02
1128.153, 1.7227611E-02
1130.082, 1.6864801E-02
1132.010, 1.6476169E-02
1133.938, 1.6079230E-02
1135.867, 1.5723780E-02
1137.795, 1.5156400E-02
1139.724, 1.4788410E-02
1141.652, 1.4680110E-02
1143.581, 1.4402790E-02
1145.509, 1.4144710E-02
1147.438, 1.4023850E-02
1149.366, 1.3698220E-02
1151.295, 1.3431350E-02
1153.223, 1.3276890E-02
1155.152, 1.2911360E-02
1157.080, 1.2368500E-02
1159.009, 1.1816990E-02
1160.937, 1.1368600E-02
1162.865, 1.0843930E-02
1164.794, 1.0417790E-02
1166.722, 1.0011540E-02
1168.651, 9.6348729E-03
1170.579, 9.4908224E-03
1172.508, 9.5997201E-03
1174.436, 9.3210815E-03
1176.365, 9.1621904E-03
1178.293, 9.2065837E-03
1180.222, 8.8587832E-03
1182.150, 8.6815245E-03
1184.079, 8.7485602E-03
1186.007, 8.6814342E-03
1187.936, 8.4499437E-03
1189.864, 8.1382254E-03
1191.792, 8.0344509E-03
1193.721, 7.9176733E-03
1195.649, 7.8758011E-03
1197.578, 7.7901720E-03
1199.506, 7.7544269E-03
1201.435, 7.8321118E-03
1203.363, 7.9367319E-03
1205.292, 8.0112498E-03
1207.220, 7.9947840E-03
1209.149, 7.9870122E-03
1211.077, 7.6020472E-03
1213.006, 7.1675880E-03
1214.934, 7.1545821E-03
1216.863, 7.3321429E-03
1218.791, 7.2729280E-03
1220.719, 7.0575099E-03
1222.648, 7.0267860E-03
1224.576, 6.9677299E-03
1226.505, 6.9036470E-03
1228.433, 7.1222368E-03
1230.362, 7.1179252E-03
1232.290, 6.8694130E-03
1234.219, 6.7277900E-03
1236.147, 6.8094800E-03
1238.076, 6.8104230E-03
1240.004, 6.7233392E-03
1241.933, 6.7060879E-03
1243.861, 6.5509011E-03
1245.790, 6.7652832E-03
1247.718, 6.6866800E-03
1249.646, 6.6483058E-03
1251.575, 6.8531819E-03
1253.503, 6.7897621E-03
1255.432, 6.6549550E-03
1257.360, 6.7388611E-03
1259.289, 6.8720118E-03
1261.217, 7.0474301E-03
1263.146, 7.0573571E-03
1265.074, 7.1359011E-03
1267.003, 7.4087409E-03
1268.931, 7.7343062E-03
1270.860, 7.7171498E-03
1272.788, 7.5037400E-03
1274.717, 7.6392838E-03
1276.645, 7.9059992E-03
1278.573, 7.8466535E-03
1280.502, 7.8062932E-03
1282.430, 7.8362795E-03
1284.359, 7.8233760E-03
1286.287, 7.9512736E-03
1288.216, 8.2600210E-03
1290.144, 8.2759429E-03
1292.073, 8.0728075E-03
1294.001, 8.1183491E-03
1295.930, 8.4343031E-03
1297.858, 8.6969957E-03
1299.787, 8.8070231E-03
1301.715, 8.8670542E-03
1303.644, 8.8114385E-03
1305.572, 8.7970123E-03
1307.500, 8.8050356E-03
1309.429, 9.0455739E-03
1311.357, 9.4391303E-03
1313.286, 9.5212786E-03
1315.214, 9.5186438E-03
1317.143, 9.5509300E-03
1319.071, 9.9019278E-03
1321.000, 1.0004900E-02
1322.928, 9.9352514E-03
1324.857, 9.8195095E-03
1326.785, 9.7933337E-03
1328.714, 1.0009740E-02
1330.642, 1.0240940E-02
1332.571, 1.0249670E-02
1334.499, 1.0220540E-02
1336.427, 1.0259240E-02
1338.356, 1.0293410E-02
1340.284, 1.0251740E-02
1342.213, 1.0214210E-02
1344.141, 1.0210030E-02
1346.070, 1.0431230E-02
1347.998, 1.0409760E-02
1349.927, 9.9849850E-03
1351.855, 1.0118860E-02
1353.784, 1.0472330E-02
1355.712, 1.0703350E-02
1357.641, 1.0777630E-02
1359.569, 1.0752890E-02
1361.498, 1.0919770E-02
1363.426, 1.0840490E-02
1365.354, 1.0673940E-02
1367.283, 1.0579110E-02
1369.211, 1.0728530E-02
1371.140, 1.0788700E-02
1373.068, 1.0690200E-02
1374.997, 1.0726500E-02
1376.925, 1.1106710E-02
1378.854, 1.1471160E-02
1380.782, 1.1591590E-02
1382.711, 1.1627630E-02
1384.639, 1.1804770E-02
1386.568, 1.2099920E-02
1388.496, 1.2390000E-02
1390.424, 1.2388870E-02
1392.353, 1.2384620E-02
1394.281, 1.2529300E-02
1396.210, 1.2691830E-02
1398.138, 1.2464220E-02
1400.067, 1.2080610E-02
1401.995, 1.2229380E-02
1403.924, 1.2351620E-02
1405.852, 1.2267160E-02
1407.781, 1.2210320E-02
1409.709, 1.2397610E-02
1411.638, 1.2523450E-02
1413.566, 1.2354970E-02
1415.495, 1.2392260E-02
1417.423, 1.2603110E-02
1419.351, 1.2733020E-02
1421.280, 1.2842300E-02
1423.208, 1.3060530E-02
1425.137, 1.2850390E-02
1427.065, 1.2553240E-02
1428.994, 1.2650800E-02
1430.922, 1.2799900E-02
1432.851, 1.2676130E-02
1434.779, 1.2490760E-02
1436.708, 1.2636990E-02
1438.636, 1.2789300E-02
1440.565, 1.2887070E-02
1442.493, 1.3125090E-02
1444.422, 1.2783430E-02
1446.350, 1.2418820E-02
1448.278, 1.2443510E-02
1450.207, 1.2566830E-02
1452.135, 1.2525970E-02
1454.064, 1.2428590E-02
1455.992, 1.2173350E-02
1457.921, 1.2110390E-02
1459.849, 1.2370760E-02
1461.778, 1.2636560E-02
1463.706, 1.2416400E-02
1465.635, 1.2135310E-02
1467.563, 1.2100130E-02
1469.492, 1.2310140E-02
1471.420, 1.2601610E-02
1473.349, 1.2966250E-02
1475.277, 1.3378620E-02
1477.205, 1.3689700E-02
1479.134, 1.3816920E-02
1481.062, 1.3790410E-02
1482.991, 1.3465180E-02
1484.919, 1.3401860E-02
1486.848, 1.3533650E-02
1488.776, 1.3510150E-02
1490.705, 1.3658600E-02
1492.633, 1.3774520E-02
1494.562, 1.3647050E-02
1496.490, 1.3723460E-02
1498.419, 1.3837440E-02
1500.347, 1.3682110E-02
1502.276, 1.3634890E-02
1504.204, 1.3824940E-02
1506.132, 1.3906030E-02
1508.061, 1.3836660E-02
1509.989, 1.3752520E-02
1511.918, 1.3902030E-02
1513.846, 1.3838870E-02
1515.775, 1.3879630E-02
1517.703, 1.3854150E-02
1519.632, 1.3941180E-02
1521.560, 1.4008920E-02
1523.489, 1.4071640E-02
1525.417, 1.4163080E-02
1527.346, 1.4304200E-02
1529.274, 1.4242950E-02
1531.203, 1.4260180E-02
1533.131, 1.4359520E-02
1535.059, 1.4220960E-02
1536.988, 1.4250170E-02
1538.916, 1.4211320E-02
1540.845, 1.4289060E-02
1542.773, 1.4273620E-02
1544.702, 1.4394680E-02
1546.630, 1.4582890E-02
1548.559, 1.4533910E-02
1550.487, 1.4410750E-02
1552.416, 1.4352640E-02
1554.344, 1.4320490E-02
1556.273, 1.4516680E-02
1558.201, 1.4750820E-02
1560.130, 1.4745570E-02
1562.058, 1.4865310E-02
1563.986, 1.4757130E-02
1565.915, 1.4913150E-02
1567.843, 1.5235910E-02
1569.772, 1.5081160E-02
1571.700, 1.4916410E-02
1573.629, 1.4832710E-02
1575.557, 1.4634960E-02
1577.486, 1.4743980E-02
1579.414, 1.5135390E-02
1581.343, 1.5123760E-02
1583.271, 1.5136420E-02
1585.200, 1.5420950E-02
1587.128, 1.5763700E-02
1589.057, 1.5806450E-02
1590.985, 1.5494810E-02
1592.913, 1.5241490E-02
1594.842, 1.5076030E-02
1596.770, 1.4970880E-02
1598.699, 1.5177400E-02
1600.627, 1.5536320E-02
1602.556, 1.5444660E-02
1604.484, 1.5372700E-02
1606.413, 1.5266580E-02
1608.341, 1.5215240E-02
1610.270, 1.5466960E-02
1612.198, 1.5649449E-02
1614.127, 1.5528780E-02
1616.055, 1.5630061E-02
1617.984, 1.6141970E-02
1619.912, 1.6152371E-02
1621.840, 1.5610570E-02
1623.769, 1.5542340E-02
1625.697, 1.5778949E-02
1627.626, 1.6050180E-02
1629.554, 1.5954981E-02
1631.483, 1.5726149E-02
1633.411, 1.5912430E-02
1635.340, 1.6459400E-02
1637.268, 1.6725710E-02
1639.197, 1.6318699E-02
1641.125, 1.6171839E-02
1643.054, 1.6520111E-02
1644.982, 1.6766110E-02
1646.911, 1.6530460E-02
1648.839, 1.6657511E-02
1650.767, 1.6890209E-02
1652.696, 1.6826630E-02
1654.624, 1.6922539E-02
1656.553, 1.6736221E-02
1658.481, 1.6483760E-02
1660.410, 1.6308190E-02
1662.338, 1.6599581E-02
1664.267, 1.6907910E-02
1666.195, 1.6426619E-02
1668.124, 1.6109580E-02
1670.052, 1.6299600E-02
1671.981, 1.6727841E-02
1673.909, 1.7048910E-02
1675.838, 1.6922129E-02
1677.766, 1.6388699E-02
1679.694, 1.6365420E-02
1681.623, 1.6972629E-02
1683.551, 1.7255340E-02
1685.480, 1.7176710E-02
1687.408, 1.6775090E-02
1689.337, 1.6898740E-02
1691.265, 1.6921580E-02
1693.194, 1.6811769E-02
1695.122, 1.6820749E-02
1697.051, 1.7130980E-02
1698.979, 1.7222650E-02
1700.908, 1.6903240E-02
1702.836, 1.6804419E-02
1704.765, 1.6641110E-02
1706.693, 1.6172141E-02
1708.621, 1.5985319E-02
1710.550, 1.6158290E-02
1712.478, 1.6177431E-02
1714.407, 1.6324829E-02
1716.335, 1.6253160E-02
1718.264, 1.6287129E-02
1720.192, 1.6222641E-02
1722.121, 1.6069340E-02
1724.049, 1.6374789E-02
1725.978, 1.6620461E-02
1727.906, 1.6468059E-02
1729.835, 1.6398739E-02
1731.763, 1.6500950E-02
1733.692, 1.6069500E-02
1735.620, 1.5280720E-02
1737.548, 1.4810570E-02
1739.477, 1.4366330E-02
1741.405, 1.4184870E-02
1743.334, 1.4731240E-02
1745.262, 1.5023950E-02
1747.191, 1.5479420E-02
1749.119, 1.5999690E-02
1751.048, 1.6477460E-02
1752.976, 1.6964780E-02
1754.905, 1.7477810E-02
1756.833, 1.7857740E-02
1758.762, 1.8632891E-02
1760.690, 1.8963160E-02
1762.619, 1.9076729E-02
1764.547, 1.9498840E-02
1766.475, 1.9902639E-02
1768.404, 2.0175220E-02
1770.332, 2.0226980E-02
1772.261, 2.0430380E-02
1774.189, 2.0743391E-02
1776.118, 2.0645579E-02
1778.046, 2.0606089E-02
1779.975, 2.0823689E-02
1781.903, 2.1183750E-02
1783.832, 2.1652861E-02
1785.760, 2.1794990E-02
1787.689, 2.1913379E-02
1789.617, 2.2180010E-02
1791.546, 2.2348739E-02
1793.474, 2.2272689E-02
1795.402, 2.1727361E-02
1797.331, 2.1768151E-02
1799.259, 2.2124460E-02
1801.188, 2.2086039E-02
1803.116, 2.2116389E-02
1805.045, 2.2082210E-02
1806.973, 2.1900199E-02
1808.902, 2.1783810E-02
1810.830, 2.2149781E-02
1812.759, 2.2493949E-02
1814.687, 2.2064000E-02
1816.616, 2.2137960E-02
1818.544, 2.2866379E-02
1820.473, 2.3065250E-02
1822.401, 2.2418709E-02
1824.329, 2.1907890E-02
1826.258, 2.1717580E-02
1828.186, 2.1402029E-02
1830.115, 2.1843409E-02
1832.043, 2.2564180E-02
1833.972, 2.2809319E-02
1835.900, 2.2809461E-02
1837.829, 2.2650590E-02
1839.757, 2.2737451E-02
1841.686, 2.3028350E-02
1843.614, 2.2878271E-02
1845.543, 2.2038860E-02
1847.471, 2.1778099E-02
1849.400, 2.2796290E-02
1851.328, 2.3868021E-02
1853.256, 2.3536570E-02
1855.185, 2.3225300E-02
1857.113, 2.3657151E-02
1859.042, 2.4451129E-02
1860.970, 2.4281200E-02
1862.899, 2.3267491E-02
1864.827, 2.3189900E-02
1866.756, 2.3963509E-02
1868.684, 2.3692150E-02
1870.613, 2.3932330E-02
1872.541, 2.3947800E-02
1874.470, 2.3037130E-02
1876.398, 2.2510219E-02
1878.327, 2.2829250E-02
1880.255, 2.3666641E-02
1882.183, 2.3551360E-02
1884.112, 2.3254350E-02
1886.040, 2.3884730E-02
1887.969, 2.3994431E-02
1889.897, 2.3475749E-02
1891.826, 2.3187770E-02
1893.754, 2.3732049E-02
1895.683, 2.4247190E-02
1897.611, 2.4290700E-02
1899.540, 2.4489190E-02
1901.468, 2.4548650E-02
1903.397, 2.4399901E-02
1905.325, 2.3943590E-02
1907.254, 2.2748120E-02
1909.182, 2.2216359E-02
1911.110, 2.2738671E-02
1913.039, 2.3451230E-02
1914.967, 2.4166269E-02
1916.896, 2.4185630E-02
1918.824, 2.4067750E-02
1920.753, 2.4560191E-02
1922.681, 2.4894319E-02
1924.610, 2.5569109E-02
1926.538, 2.5711430E-02
1928.467, 2.5104320E-02
1930.395, 2.4099059E-02
1932.324, 2.4324071E-02
1934.252, 2.3962740E-02
1936.181, 2.3705021E-02
1938.109, 2.3656899E-02
1940.037, 2.4512021E-02
1941.966, 2.5436670E-02
1943.894, 2.5227441E-02
1945.823, 2.5042050E-02
1947.751, 2.4364350E-02
1949.680, 2.4326380E-02
1951.608, 2.5627621E-02
1953.537, 2.5532801E-02
1955.465, 2.4754120E-02
1957.394, 2.4851110E-02
1959.322, 2.5450271E-02
1961.251, 2.5065839E-02
1963.179, 2.5105489E-02
1965.108, 2.5872471E-02
1967.036, 2.5565170E-02
1968.964, 2.5545741E-02
1970.893, 2.4908200E-02
1972.821, 2.4766970E-02
1974.750, 2.6871121E-02
1976.678, 2.5904240E-02
1978.607, 2.5676850E-02
1980.535, 2.7997850E-02
1982.464, 2.9965460E-02
1984.392, 2.8663181E-02
1986.321, 2.6654880E-02
1988.249, 2.6343809E-02
1990.178, 2.7676489E-02
1992.106, 2.8364930E-02
1994.035, 2.6683159E-02
1995.963, 2.5240149E-02
1997.891, 2.4975140E-02
1999.820, 2.6189281E-02
2001.748, 2.5669020E-02
2003.677, 2.4332350E-02
2005.605, 2.5800200E-02
2007.534, 2.7159169E-02
2009.462, 2.6212770E-02
2011.391, 2.4820190E-02
2013.319, 2.5642680E-02
2015.248, 2.5541971E-02
2017.176, 2.5363769E-02
2019.105, 2.6693800E-02
2021.033, 2.7457250E-02
2022.962, 2.7178990E-02
2024.890, 2.5289780E-02
2026.818, 2.5146339E-02
2028.747, 2.7605740E-02
2030.675, 3.0364299E-02
2032.604, 2.9021179E-02
2034.532, 2.9013600E-02
2036.461, 2.8796250E-02
2038.389, 2.7398391E-02
2040.318, 2.8694360E-02
2042.246, 3.0746691E-02
2044.175, 3.0531390E-02
2046.103, 3.0662850E-02
2048.032, 3.1392839E-02
2049.960, 3.2462910E-02
2051.889, 3.0667290E-02
2053.817, 3.0367451E-02
2055.746, 3.1668581E-02
2057.674, 3.1391479E-02
2059.603, 2.9326409E-02
2061.531, 2.9097050E-02
2063.459, 3.0036980E-02
2065.388, 3.1138809E-02
2067.316, 3.2791819E-02
2069.245, 3.2893032E-02
2071.173, 3.1407591E-02
2073.102, 3.1941220E-02
2075.030, 3.3725500E-02
2076.959, 3.2337829E-02
2078.887, 3.1270310E-02
2080.816, 3.1660412E-02
2082.744, 3.2380700E-02
2084.673, 3.1355049E-02
2086.601, 3.0189980E-02
2088.530, 3.0442851E-02
2090.458, 3.1290770E-02
2092.386, 3.1505879E-02
2094.315, 3.1770151E-02
2096.243, 3.1284921E-02
2098.172, 3.1580251E-02
2100.100, 3.1625628E-02
2102.029, 3.1694692E-02
2103.957, 3.1348459E-02
2105.886, 3.1991631E-02
2107.814, 3.2360781E-02
2109.743, 3.2260992E-02
2111.671, 3.1707309E-02
2113.600, 3.1334870E-02
2115.528, 3.1715952E-02
2117.457, 3.2414909E-02
2119.385, 3.1474341E-02
2121.313, 3.0289071E-02
2123.242, 2.9985281E-02
2125.170, 3.0489540E-02
2127.099, 3.1176411E-02
2129.027, 3.1953741E-02
2130.956, 3.1813651E-02
2132.884, 3.1380512E-02
2134.813, 3.1522971E-02
2136.741, 3.1914379E-02
2138.670, 3.2680489E-02
2140.598, 3.3887871E-02
2142.527, 3.4043271E-02
2144.455, 3.3605140E-02
2146.384, 3.1209730E-02
2148.312, 3.0764461E-02
2150.240, 3.1105669E-02
2152.169, 3.0711289E-02
2154.097, 3.3678029E-02
2156.026, 3.4368630E-02
2157.954, 3.2448150E-02
2159.883, 3.6172461E-02
2161.811, 4.0976770E-02
2163.740, 4.0270168E-02
2165.668, 3.7997801E-02
2167.597, 3.6564209E-02
2169.525, 3.3996519E-02
2171.454, 3.3932749E-02
2173.382, 3.5936192E-02
2175.311, 3.5895899E-02
2177.239, 3.5318699E-02
2179.167, 3.6598090E-02
2181.096, 3.6906879E-02
2183.024, 3.7208259E-02
2184.953, 3.8759518E-02
2186.881, 4.0499780E-02
2188.810, 3.8886949E-02
2190.738, 3.6120780E-02
2192.667, 3.6997981E-02
2194.595, 4.0308051E-02
2196.524, 4.0597469E-02
2198.452, 3.9330561E-02
2200.381, 4.0582869E-02
2202.309, 4.0122371E-02
2204.238, 4.0055461E-02
2206.166, 3.8724340E-02
2208.094, 3.7703142E-02
2210.023, 3.8361341E-02
2211.951, 3.9256401E-02
2213.880, 3.8754798E-02
2215.808, 3.8523130E-02
2217.737, 3.8108561E-02
2219.665, 3.8668949E-02
2221.594, 3.9636120E-02
2223.522, 4.0263630E-02
2225.451, 4.1305099E-02
2227.379, 4.0343709E-02
2229.308, 3.8979881E-02
2231.236, 3.8895000E-02
2233.165, 4.0530581E-02
2235.093, 4.0613931E-02
2237.021, 3.9163530E-02
2238.950, 3.7784189E-02
2240.878, 3.8213260E-02
2242.807, 4.0633220E-02
2244.735, 4.1073650E-02
2246.664, 3.8749691E-02
2248.592, 3.7090842E-02
2250.521, 3.6552671E-02
2252.449, 3.7876070E-02
2254.378, 3.8340691E-02
2256.306, 3.8722400E-02
2258.235, 3.8789749E-02
2260.163, 3.8469609E-02
2262.092, 3.8190071E-02
2264.020, 3.8582221E-02
2265.948, 3.9928019E-02
2267.877, 3.9573230E-02
2269.805, 3.9238431E-02
2271.734, 4.1319679E-02
2273.662, 4.1417129E-02
2275.591, 3.8424172E-02
2277.519, 3.6995091E-02
2279.448, 3.8613450E-02
2281.376, 3.9681159E-02
2283.305, 4.0315330E-02
2285.233, 4.0504981E-02
2287.162, 4.0168609E-02
2289.090, 4.0855829E-02
2291.019, 4.0735949E-02
2292.947, 3.9874349E-02
2294.875, 3.9491910E-02
2296.804, 3.9971199E-02
2298.732, 4.0142410E-02
2300.661, 3.9742321E-02
2302.589, 3.9563298E-02
2304.518, 3.9207101E-02
2306.446, 4.0624361E-02
2308.375, 4.1451968E-02
2310.303, 4.0198959E-02
2312.232, 4.0170871E-02
2314.160, 4.0701550E-02
2316.089, 4.0049799E-02
2318.017, 4.0531069E-02
2319.946, 4.1020799E-02
2321.874, 4.1592240E-02
2323.802, 4.1891370E-02
2325.731, 4.0682629E-02
2327.659, 3.9876349E-02
2329.588, 3.9655771E-02
2331.516, 3.9985579E-02
2333.445, 4.0313389E-02
2335.373, 4.0489409E-02
2337.302, 4.0115330E-02
2339.230, 3.9515741E-02
2341.159, 3.9129030E-02
2343.087, 3.8835280E-02
2345.016, 3.8552482E-02
2346.944, 3.9120272E-02
2348.873, 3.9363191E-02
2350.801, 3.9233770E-02
2352.729, 3.9376952E-02
2354.658, 3.9140299E-02
2356.586, 3.9970659E-02
2358.515, 4.0994730E-02
2360.443, 4.0670451E-02
2362.372, 4.0204890E-02
2364.300, 4.0088300E-02
2366.229, 3.9468609E-02
2368.157, 3.9292131E-02
2370.086, 3.9884958E-02
2372.014, 3.9899111E-02
2373.942, 3.8986951E-02
2375.871, 3.8424179E-02
2377.799, 3.8900971E-02
2379.728, 3.9531220E-02
2381.656, 3.9846819E-02
2383.585, 3.9179500E-02
2385.513, 3.8571421E-02
2387.442, 3.9047800E-02
2389.370, 3.9827291E-02
2391.299, 4.0034819E-02
2393.227, 3.9886471E-02
2395.156, 3.9273180E-02
2397.084, 3.9405599E-02
2399.012, 3.9882790E-02
2400.941, 4.0810239E-02
2402.869, 4.1158680E-02
2404.798, 4.1198261E-02
2406.726, 4.1124050E-02
2408.655, 4.0207788E-02
2410.583, 3.9158519E-02
2412.512, 3.9694671E-02
2414.440, 4.1168071E-02
2416.369, 4.1226439E-02
2418.297, 4.1579992E-02
2420.226, 4.2184219E-02
2422.154, 4.2565338E-02
2424.083, 4.3020342E-02
2426.011, 4.2635959E-02
2427.939, 4.2571601E-02
2429.868, 4.2256910E-02
2431.796, 4.1584529E-02
2433.725, 4.1365981E-02
2435.653, 4.0927209E-02
2437.582, 4.0715009E-02
2439.510, 4.2181481E-02
2441.439, 4.3130942E-02
2443.367, 4.2201329E-02
2445.296, 4.1770440E-02
2447.224, 4.2444050E-02
2449.153, 4.3232732E-02
2451.081, 4.3130688E-02
2453.010, 4.2581279E-02
2454.938, 4.1893870E-02
2456.866, 4.1364651E-02
2458.795, 4.1136470E-02
2460.723, 4.1197032E-02
2462.652, 4.1802671E-02
2464.580, 4.2748641E-02
2466.509, 4.3292470E-02
2468.437, 4.3255549E-02
2470.366, 4.2777181E-02
2472.294, 4.3057229E-02
2474.223, 4.3124009E-02
2476.151, 4.1857529E-02
2478.080, 4.2117320E-02
2480.008, 4.2606760E-02
2481.937, 4.3082990E-02
2483.865, 4.2730141E-02
2485.793, 4.2321831E-02
2487.722, 4.2581249E-02
2489.650, 4.2603280E-02
2491.579, 4.2217299E-02
2493.507, 4.2843230E-02
2495.436, 4.3164399E-02
2497.364, 4.2062480E-02
2499.293, 4.2043831E-02
2501.221, 4.3873269E-02
2503.150, 4.4305708E-02
2505.078, 4.3568488E-02
2507.007, 4.3370251E-02
2508.935, 4.4113658E-02
2510.864, 4.4640958E-02
2512.792, 4.3828141E-02
2514.720, 4.3093469E-02
2516.649, 4.3158788E-02
2518.577, 4.4212472E-02
2520.506, 4.3590229E-02
2522.434, 4.3227829E-02
2524.363, 4.3894749E-02
2526.291, 4.4106562E-02
2528.220, 4.4406671E-02
2530.148, 4.4062279E-02
2532.077, 4.3041758E-02
2534.005, 4.2384550E-02
2535.934, 4.3043111E-02
2537.862, 4.3525029E-02
2539.791, 4.4277679E-02
2541.719, 4.4489279E-02
2543.647, 4.5133051E-02
2545.576, 4.5147669E-02
2547.504, 4.6012141E-02
2549.433, 4.5719430E-02
2551.361, 4.4487670E-02
2553.290, 4.5555770E-02
2555.218, 4.6191178E-02
2557.147, 4.5576919E-02
2559.075, 4.5444239E-02
2561.004, 4.5536119E-02
2562.932, 4.6002761E-02
2564.861, 4.5853421E-02
2566.789, 4.6377290E-02
2568.718, 4.6328381E-02
2570.646, 4.6757542E-02
2572.574, 4.7560129E-02
2574.503, 4.7319259E-02
2576.431, 4.5854822E-02
2578.360, 4.6141680E-02
2580.288, 4.7019400E-02
2582.217, 4.7257282E-02
2584.145, 4.5924850E-02
2586.074, 4.4883981E-02
2588.002, 4.5777939E-02
2589.931, 4.5830291E-02
2591.859, 4.6051651E-02
2593.788, 4.7157761E-02
2595.716, 4.6540741E-02
2597.645, 4.6054911E-02
2599.573, 4.6645440E-02
2601.501, 4.7112409E-02
2603.430, 4.6826761E-02
2605.358, 4.6723519E-02
2607.287, 4.7403101E-02
2609.215, 4.6708539E-02
2611.144, 4.7040898E-02
2613.072, 4.8846070E-02
2615.001, 4.8708551E-02
2616.929, 4.8579391E-02
2618.858, 4.8277721E-02
2620.786, 4.7514699E-02
2622.715, 4.7320180E-02
2624.643, 4.7144499E-02
2626.572, 4.5967981E-02
2628.500, 4.5067720E-02
2630.428, 4.6513598E-02
2632.357, 4.7368869E-02
2634.285, 4.7705300E-02
2636.214, 4.7170281E-02
2638.142, 4.6659838E-02
2640.071, 4.7045421E-02
2641.999, 4.7116451E-02
2643.928, 4.6669740E-02
2645.856, 4.6692550E-02
2647.785, 4.7016621E-02
2649.713, 4.7590241E-02
2651.642, 4.7494762E-02
2653.570, 4.7139961E-02
2655.499, 4.6815149E-02
2657.427, 4.6988081E-02
2659.355, 4.7106441E-02
2661.284, 4.7307588E-02
2663.212, 4.6998750E-02
2665.141, 4.6882048E-02
2667.069, 4.6984989E-02
2668.998, 4.6246730E-02
2670.926, 4.6157740E-02
2672.855, 4.6861619E-02
2674.783, 4.6863690E-02
2676.712, 4.6728410E-02
2678.640, 4.6258640E-02
2680.569, 4.6176050E-02
2682.497, 4.6608292E-02
2684.426, 4.6543390E-02
2686.354, 4.6388891E-02
2688.282, 4.7006451E-02
2690.211, 4.7184110E-02
2692.139, 4.6457700E-02
2694.068, 4.6862852E-02
2695.996, 4.8026931E-02
2697.925, 4.8345748E-02
2699.853, 4.8044652E-02
2701.782, 4.7952790E-02
2703.710, 4.8377071E-02
2705.639, 4.8384480E-02
2707.567, 4.7881279E-02
2709.496, 4.7736261E-02
2711.424, 4.7952320E-02
2713.353, 4.8672870E-02
2715.281, 4.9285371E-02
2717.209, 4.9518790E-02
2719.138, 4.8632368E-02
2721.066, 4.7552321E-02
2722.995, 4.7663640E-02
2724.923, 4.8643570E-02
2726.852, 4.9463332E-02
2728.780, 4.9556632E-02
2730.709, 4.8788551E-02
2732.637, 4.8349820E-02
2734.566, 4.8196498E-02
2736.494, 4.9026351E-02
2738.423, 4.9411491E-02
2740.351, 4.8769660E-02
2742.280, 4.7879700E-02
2744.208, 4.8412990E-02
2746.136, 4.9898729E-02
2748.065, 5.0177541E-02
2749.993, 4.9408428E-02
2751.922, 4.9556188E-02
2753.850, 5.0706141E-02
2755.779, 5.0246689E-02
2757.707, 4.9616739E-02
2759.636, 4.8845869E-02
2761.564, 4.8574291E-02
2763.493, 4.8842639E-02
2765.421, 4.9334850E-02
2767.350, 5.0127968E-02
2769.278, 5.0137501E-02
2771.207, 4.9101848E-02
2773.135, 4.9357198E-02
2775.063, 4.9973238E-02
2776.992, 4.9959209E-02
2778.920, 5.0851490E-02
2780.849, 5.0892379E-02
2782.777, 4.9778569E-02
2784.706, 4.9630530E-02
2786.634, 5.0136231E-02
2788.563, 5.0223708E-02
2790.491, 5.0142489E-02
2792.420, 5.0411008E-02
2794.348, 5.0682690E-02
2796.277, 5.0553370E-02
2798.205, 4.9709670E-02
2800.134, 4.9834412E-02
2802.062, 4.9659070E-02
2803.990, 4.9863331E-02
2805.919, 5.0327849E-02
2807.847, 5.0889820E-02
2809.776, 5.1463891E-02
2811.704, 5.1577330E-02
2813.633, 5.1134609E-02
2815.561, 4.9809720E-02
2817.490, 4.9716461E-02
2819.418, 5.0209470E-02
2821.347, 5.0113391E-02
2823.275, 5.0329760E-02
2825.204, 5.1286299E-02
2827.132, 5.1598102E-02
2829.061, 5.1023740E-02
2830.989, 5.1359851E-02
2832.917, 5.1149879E-02
2834.846, 5.0698750E-02
2836.774, 5.1792592E-02
2838.703, 5.2041192E-02
2840.631, 4.9623929E-02
2842.560, 4.9720060E-02
2844.488, 5.1263090E-02
2846.417, 5.1478989E-02
2848.345, 5.1577799E-02
2850.274, 5.1582780E-02
2852.202, 5.1430129E-02
2854.131, 5.1082648E-02
2856.059, 5.1116839E-02
2857.988, 5.2306749E-02
2859.916, 5.2844401E-02
2861.844, 5.2540530E-02
2863.773, 5.2783299E-02
2865.701, 5.2470680E-02
2867.630, 5.1626671E-02
2869.558, 5.0905619E-02
2871.487, 5.0507572E-02
2873.415, 5.1458269E-02
2875.344, 5.1424149E-02
2877.272, 5.1986352E-02
2879.201, 5.2218489E-02
2881.129, 5.1918302E-02
2883.058, 5.1865730E-02
2884.986, 5.1298391E-02
2886.915, 5.2325480E-02
2888.843, 5.3560410E-02
2890.771, 5.2973621E-02
2892.700, 5.0901301E-02
2894.628, 5.0447971E-02
2896.557, 5.1673099E-02
2898.485, 5.3058919E-02
2900.414, 5.2586470E-02
2902.342, 5.1720209E-02
2904.271, 5.1450718E-02
2906.199, 5.1161751E-02
2908.128, 5.2004471E-02
2910.056, 5.3980350E-02
2911.985, 5.3155940E-02
2913.913, 5.2434511E-02
2915.842, 5.2229978E-02
2917.770, 5.2604511E-02
2919.698, 5.3242650E-02
2921.627, 5.3294931E-02
2923.555, 5.2280679E-02
2925.484, 5.1282529E-02
2927.412, 5.1752761E-02
2929.341, 5.3551640E-02
2931.269, 5.2931380E-02
2933.198, 5.1869661E-02
2935.126, 5.1824000E-02
2937.055, 5.1443201E-02
2938.983, 5.2167870E-02
2940.912, 5.2700210E-02
2942.840, 5.3038139E-02
2944.769, 5.2913081E-02
2946.697, 5.2131660E-02
2948.625, 5.2838370E-02
2950.554, 5.3430319E-02
2952.482, 5.3191122E-02
2954.411, 5.3027231E-02
2956.339, 5.3542528E-02
2958.268, 5.4452252E-02
2960.196, 5.4865740E-02
2962.125, 5.5199120E-02
2964.053, 5.4188199E-02
2965.982, 5.3259850E-02
2967.910, 5.4237481E-02
2969.839, 5.4389279E-02
2971.767, 5.4167509E-02
2973.696, 5.2971300E-02
2975.624, 5.3548768E-02
2977.552, 5.4640912E-02
2979.481, 5.4123539E-02
2981.409, 5.4348908E-02
2983.338, 5.4579228E-02
2985.266, 5.5879701E-02
2987.195, 5.7556778E-02
2989.123, 5.7480250E-02
2991.052, 5.6931011E-02
2992.980, 5.7369839E-02
2994.909, 5.6387790E-02
2996.837, 5.5752192E-02
2998.766, 5.4793000E-02
3000.694, 5.4784279E-02
3002.623, 5.6948081E-02
3004.551, 5.8651660E-02
3006.479, 5.7429999E-02
3008.408, 5.4996431E-02
3010.336, 5.5079799E-02
3012.265, 5.6898221E-02
3014.193, 5.6807499E-02
3016.122, 5.6926280E-02
3018.050, 5.7384409E-02
3019.979, 5.7062160E-02
3021.907, 5.6043260E-02
3023.836, 5.6414519E-02
3025.764, 5.5357840E-02
3027.693, 5.4522701E-02
3029.621, 5.5691112E-02
3031.550, 5.5868991E-02
3033.478, 5.5184059E-02
3035.406, 5.6082841E-02
3037.335, 5.6038059E-02
3039.263, 5.6385770E-02
3041.192, 5.6343380E-02
3043.120, 5.5888422E-02
3045.049, 5.4736391E-02
3046.977, 5.5282511E-02
3048.906, 5.6863669E-02
3050.834, 5.6491330E-02
3052.763, 5.7331949E-02
3054.691, 5.8704711E-02
3056.620, 5.8339652E-02
3058.548, 5.8003481E-02
3060.477, 5.8033351E-02
3062.405, 5.7812590E-02
3064.333, 5.7093080E-02
3066.262, 5.7114121E-02
3068.190, 5.7259139E-02
3070.119, 5.6037579E-02
3072.047, 5.7447411E-02
3073.976, 5.7358019E-02
3075.904, 5.7078190E-02
3077.833, 5.6808289E-02
3079.761, 5.6382991E-02
3081.690, 5.7216410E-02
3083.618, 5.6449581E-02
3085.547, 5.7000671E-02
3087.475, 5.8073651E-02
3089.404, 5.7688352E-02
3091.332, 5.7499491E-02
3093.260, 5.8004249E-02
3095.189, 5.7756361E-02
3097.117, 5.8938980E-02
3099.046, 5.8061540E-02
3100.974, 5.7491221E-02
3102.903, 5.9583481E-02
3104.831, 5.9581399E-02
3106.760, 5.7820119E-02
3108.688, 5.7138570E-02
3110.617, 5.7844099E-02
3112.545, 5.8864150E-02
3114.474, 5.9616849E-02
3116.402, 5.8692899E-02
3118.331, 5.8039330E-02
3120.259, 5.8755782E-02
3122.188, 5.9321791E-02
3124.116, 5.8733549E-02
3126.044, 5.9587561E-02
3127.973, 6.0703289E-02
3129.901, 5.9699129E-02
3131.830, 5.9939679E-02
3133.758, 6.0475931E-02
3135.687, 5.9865650E-02
3137.615, 5.8369651E-02
3139.544, 5.6070510E-02
3141.472, 5.6437969E-02
3143.401, 5.8823150E-02
3145.329, 5.9687991E-02
3147.258, 6.0193479E-02
3149.186, 5.9733171E-02
3151.115, 5.8791298E-02
3153.043, 5.8683220E-02
3154.971, 5.9723560E-02
3156.900, 6.0371511E-02
3158.828, 6.0188781E-02
3160.757, 5.9224751E-02
3162.685, 5.9003141E-02
3164.614, 5.9899729E-02
3166.542, 6.0644720E-02
3168.471, 6.0310200E-02
3170.399, 5.8808461E-02
3172.328, 5.9586879E-02
3174.256, 6.0107179E-02
3176.185, 5.8734670E-02
3178.113, 5.8524221E-02
3180.042, 6.0149040E-02
3181.970, 5.9844069E-02
3183.898, 6.0023341E-02
3185.827, 6.1317470E-02
3187.755, 6.1770219E-02
3189.684, 5.9680041E-02
3191.612, 5.8720618E-02
3193.541, 5.7619281E-02
3195.469, 5.7422429E-02
3197.398, 5.8666691E-02
3199.326, 5.8863759E-02
3201.255, 5.9497491E-02
3203.183, 5.9214890E-02
3205.112, 5.8820531E-02
3207.040, 5.9730232E-02
3208.969, 6.1574612E-02
3210.897, 6.0597979E-02
3212.825, 5.9397031E-02
3214.754, 6.0540281E-02
3216.682, 6.1729532E-02
3218.611, 6.0398210E-02
3220.539, 5.9176348E-02
3222.468, 5.9580080E-02
3224.396, 5.9810512E-02
3226.325, 5.8496989E-02
3228.253, 5.8684081E-02
3230.182, 5.9366260E-02
3232.110, 6.1573919E-02
3234.039, 6.2960550E-02
3235.967, 6.2139060E-02
3237.896, 6.0891271E-02
3239.824, 6.1228339E-02
3241.752, 6.1497040E-02
3243.681, 6.1856888E-02
3245.609, 6.1049368E-02
3247.538, 6.1181039E-02
3249.466, 6.0974970E-02
3251.395, 6.1692219E-02
3253.323, 6.2538140E-02
3255.252, 6.1226010E-02
3257.180, 5.9427019E-02
3259.109, 5.9684880E-02
3261.037, 6.1213531E-02
3262.966, 6.0683921E-02
3264.894, 6.1695229E-02
3266.823, 6.2430769E-02
3268.751, 6.0822159E-02
3270.679, 6.0203250E-02
3272.608, 6.2025741E-02
3274.536, 6.3310571E-02
3276.465, 6.1573520E-02
3278.393, 6.0416192E-02
3280.322, 6.1050732E-02
3282.250, 6.3338973E-02
3284.179, 6.3955918E-02
3286.107, 6.2754139E-02
3288.036, 6.2956274E-02
3289.964, 6.2271561E-02
3291.893, 6.0671221E-02
3293.821, 6.0960259E-02
3295.750, 6.1295800E-02
3297.678, 6.2022150E-02
3299.606, 6.3412070E-02
3301.535, 6.2665530E-02
3303.463, 6.2304370E-02
3305.392, 6.1018750E-02
3307.320, 6.0037050E-02
3309.249, 6.1535761E-02
3311.177, 6.3145190E-02
3313.106, 6.3231990E-02
3315.034, 6.3450947E-02
3316.963, 6.3382998E-02
3318.891, 6.3469261E-02
3320.820, 6.2902823E-02
3322.748, 6.2373761E-02
3324.677, 6.2180039E-02
3326.605, 6.2541813E-02
3328.533, 6.2311929E-02
3330.462, 6.2377419E-02
3332.390, 6.0718391E-02
3334.319, 5.9905808E-02
3336.247, 5.9786890E-02
3338.176, 5.9049021E-02
3340.104, 6.1049730E-02
3342.033, 6.3223213E-02
3343.961, 6.2865570E-02
3345.890, 6.3471392E-02
3347.818, 6.3687943E-02
3349.747, 6.2588893E-02
3351.675, 6.1696339E-02
3353.604, 6.1570361E-02
3355.532, 6.1810382E-02
3357.460, 6.2237900E-02
3359.389, 6.2271439E-02
3361.317, 6.2940553E-02
3363.246, 6.3661300E-02
3365.174, 6.5650083E-02
3367.103, 6.7180477E-02
3369.031, 6.6194303E-02
3370.960, 6.4676046E-02
3372.888, 6.5106846E-02
3374.817, 6.4827889E-02
3376.745, 6.4752787E-02
3378.674, 6.3999861E-02
3380.602, 6.3629739E-02
3382.531, 6.4092122E-02
3384.459, 6.2729843E-02
3386.387, 6.0622741E-02
3388.316, 5.9553381E-02
3390.244, 6.2590793E-02
3392.173, 6.5075651E-02
3394.101, 6.5137453E-02
3396.030, 6.5977953E-02
3397.958, 6.6017881E-02
3399.887, 6.4957798E-02
3401.815, 6.4814210E-02
3403.744, 6.4124428E-02
3405.672, 6.4072616E-02
3407.601, 6.4136602E-02
3409.529, 6.3625127E-02
3411.458, 6.5450102E-02
3413.386, 6.3118108E-02
3415.314, 6.1865661E-02
3417.243, 6.3736796E-02
3419.171, 6.3696273E-02
3421.100, 6.4501248E-02
3423.028, 6.4833649E-02
3424.957, 6.4313367E-02
3426.885, 6.5649383E-02
3428.814, 6.5303683E-02
3430.742, 6.4343072E-02
3432.671, 6.5511078E-02
3434.599, 6.7290522E-02
3436.528, 6.7079373E-02
3438.456, 6.7249879E-02
3440.385, 6.6724159E-02
3442.313, 6.5880187E-02
3444.241, 6.6357851E-02
3446.170, 6.5975852E-02
3448.098, 6.4849213E-02
3450.027, 6.4477161E-02
3451.955, 6.6126063E-02
3453.884, 6.7438379E-02
3455.812, 6.4871959E-02
3457.741, 6.2777281E-02
3459.669, 6.2139150E-02
3461.598, 6.3955382E-02
3463.526, 6.6984937E-02
3465.455, 6.8459362E-02
3467.383, 6.6721067E-02
3469.312, 6.2890992E-02
3471.240, 6.3836887E-02
3473.168, 6.7229539E-02
3475.097, 6.7875087E-02
3477.025, 6.5771647E-02
3478.954, 6.4543113E-02
3480.882, 6.7336157E-02
3482.811, 6.7830712E-02
3484.739, 6.6063628E-02
3486.668, 6.4984538E-02
3488.596, 6.4696059E-02
3490.525, 6.6720217E-02
3492.453, 6.6847168E-02
3494.382, 6.5934166E-02
3496.310, 6.5907769E-02
3498.239, 6.6398613E-02
3500.167, 6.6998221E-02
3502.095, 6.7626417E-02
3504.024, 6.8736561E-02
3505.952, 6.8564877E-02
3507.881, 6.6414811E-02
3509.809, 6.6792712E-02
3511.738, 6.8550229E-02
3513.666, 7.0770778E-02
3515.595, 7.0440687E-02
3517.523, 6.8201080E-02
3519.452, 6.7205518E-02
3521.380, 6.9492362E-02
3523.309, 6.7590512E-02
3525.237, 6.5645590E-02
3527.166, 6.7964770E-02
3529.094, 6.7889839E-02
3531.022, 6.7879617E-02
3532.951, 6.6661313E-02
3534.879, 6.8295732E-02
3536.808, 6.9530360E-02
3538.736, 6.8122521E-02
3540.665, 6.8248801E-02
3542.593, 6.8917438E-02
3544.522, 6.8253413E-02
3546.450, 6.7164928E-02
3548.379, 6.7089327E-02
3550.307, 6.6757843E-02
3552.236, 6.4254694E-02
3554.164, 6.5615848E-02
3556.093, 7.0061982E-02
3558.021, 7.0241481E-02
3559.949, 6.6652171E-02
3561.878, 6.5480843E-02
3563.806, 6.9731154E-02
3565.735, 7.3014103E-02
3567.663, 7.1713619E-02
3569.592, 6.8745323E-02
3571.520, 6.8687953E-02
3573.449, 6.8259127E-02
3575.377, 6.7030691E-02
3577.306, 6.7561723E-02
3579.234, 6.8348333E-02
3581.163, 6.8634033E-02
3583.091, 6.9363497E-02
3585.020, 6.7957051E-02
3586.948, 6.6359252E-02
3588.876, 6.6752963E-02
3590.805, 6.8152227E-02
3592.733, 7.0127681E-02
3594.662, 7.0951737E-02
3596.590, 6.9019258E-02
3598.519, 6.7294747E-02
3600.447, 6.7755699E-02
3602.376, 6.7721203E-02
3604.304, 6.6388763E-02
3606.233, 6.5713957E-02
3608.161, 6.7282736E-02
3610.090, 6.6511661E-02
3612.018, 6.6320822E-02
3613.947, 6.6165507E-02
3615.875, 6.3960493E-02
3617.803, 6.3479789E-02
3619.732, 6.3266508E-02
3621.660, 6.5638103E-02
3623.589, 6.8062812E-02
3625.517, 6.6197798E-02
3627.446, 6.6443369E-02
3629.374, 6.7495547E-02
3631.303, 6.7708120E-02
3633.231, 6.6790067E-02
3635.160, 6.6265322E-02
3637.088, 6.9083668E-02
3639.017, 6.7044482E-02
3640.945, 6.6416457E-02
3642.874, 6.8848968E-02
3644.802, 7.0848577E-02
3646.730, 6.8820387E-02
3648.659, 6.6348143E-02
3650.587, 6.5095179E-02
3652.516, 6.5343574E-02
3654.444, 6.8541363E-02
3656.373, 7.2580889E-02
3658.301, 7.2662823E-02
3660.230, 7.4153237E-02
3662.158, 7.3421292E-02
3664.087, 6.9651283E-02
3666.015, 6.6689707E-02
3667.944, 6.6021711E-02
3669.872, 6.7750476E-02
3671.801, 6.7402393E-02
3673.729, 6.4534336E-02
3675.657, 6.5109439E-02
3677.586, 6.7341693E-02
3679.514, 6.8373293E-02
3681.443, 7.1394347E-02
3683.371, 7.0347883E-02
3685.300, 6.8796523E-02
3687.228, 6.5382481E-02
3689.157, 6.4161688E-02
3691.085, 6.7000903E-02
3693.014, 6.5741807E-02
3694.942, 6.7798838E-02
3696.871, 6.7797422E-02
3698.799, 6.6681087E-02
3700.728, 6.5572932E-02
3702.656, 6.5402783E-02
3704.584, 6.7578606E-02
3706.513, 6.9031373E-02
3708.441, 6.7241520E-02
3710.370, 6.4735770E-02
3712.298, 6.7785017E-02
3714.227, 6.9481313E-02
3716.155, 6.7326829E-02
3718.084, 6.6335961E-02
3720.012, 6.9093414E-02
3721.941, 7.0090607E-02
3723.869, 7.2034203E-02
3725.798, 7.3167697E-02
3727.726, 7.2936028E-02
3729.655, 7.1452923E-02
3731.583, 7.0283547E-02
3733.511, 7.2016492E-02
3735.440, 7.2514012E-02
3737.368, 7.1482547E-02
3739.297, 7.2203219E-02
3741.225, 7.4521422E-02
3743.154, 7.3059373E-02
3745.082, 7.1392544E-02
3747.011, 6.9611847E-02
3748.939, 6.9689929E-02
3750.868, 7.0501164E-02
3752.796, 6.9587208E-02
3754.725, 6.9390453E-02
3756.653, 6.9435827E-02
3758.582, 7.0536003E-02
3760.510, 7.1854211E-02
3762.438, 7.5506464E-02
3764.367, 7.6102123E-02
3766.295, 7.2959907E-02
3768.224, 7.1200170E-02
3770.152, 7.3166557E-02
3772.081, 7.4766420E-02
3774.009, 7.3172383E-02
3775.938, 7.1348406E-02
3777.866, 7.4602567E-02
3779.795, 7.8163281E-02
3781.723, 7.4932888E-02
3783.652, 7.1687452E-02
3785.580, 7.1687832E-02
3787.509, 7.2796479E-02
3789.437, 7.0848279E-02
3791.365, 7.0189647E-02
3793.294, 7.4991137E-02
3795.222, 7.5285532E-02
3797.151, 7.4857637E-02
3799.079, 7.4354373E-02
3801.008, 7.2920613E-02
3802.936, 6.7958169E-02
3804.865, 6.6557288E-02
3806.793, 6.8864264E-02
3808.722, 6.9444850E-02
3810.650, 6.9935016E-02
3812.579, 7.0434727E-02
3814.507, 7.0033751E-02
3816.436, 6.9070071E-02
3818.364, 7.0193261E-02
3820.292, 7.0375293E-02
3822.221, 6.9208048E-02
3824.149, 7.1143582E-02
3826.078, 7.0951737E-02
3828.006, 7.0329890E-02
3829.935, 7.1839407E-02
3831.863, 7.4689880E-02
3833.792, 7.4956410E-02
3835.720, 7.4107341E-02
3837.649, 7.5532027E-02
3839.577, 7.4492857E-02
3841.506, 7.3070407E-02
3843.434, 7.3127851E-02
3845.363, 7.2507061E-02
3847.291, 7.0742853E-02
3849.219, 7.0302822E-02
3851.148, 7.3502071E-02
3853.076, 7.5859182E-02
3855.005, 7.3393509E-02
3856.933, 7.3999129E-02
3858.862, 7.2975941E-02
3860.790, 7.1865693E-02
3862.719, 7.3994420E-02
3864.647, 7.5730473E-02
3866.576, 7.6829299E-02
3868.504, 7.6560497E-02
3870.433, 7.5122342E-02
3872.361, 7.4178047E-02
3874.290, 7.3216483E-02
3876.218, 7.3634610E-02
3878.146, 7.2332419E-02
3880.075, 7.0512697E-02
3882.003, 7.1012817E-02
3883.932, 7.3096290E-02
3885.860, 7.1160592E-02
3887.789, 7.1701869E-02
3889.717, 7.2820559E-02
3891.646, 7.2025687E-02
3893.574, 7.2627313E-02
3895.503, 7.5365730E-02
3897.431, 7.4081160E-02
3899.360, 7.0794053E-02
3901.288, 7.0068367E-02
3903.217, 7.2290309E-02
3905.145, 7.3575921E-02
3907.073, 7.5217403E-02
3909.002, 7.3325753E-02
3910.930, 7.3885359E-02
3912.859, 7.1625389E-02
3914.787, 6.9662184E-02
3916.716, 7.0494249E-02
3918.644, 6.9305427E-02
3920.573, 6.9844984E-02
3922.501, 7.1623772E-02
3924.430, 7.0099168E-02
3926.358, 7.1743988E-02
3928.287, 7.3360682E-02
3930.215, 7.2573870E-02
3932.144, 7.2923139E-02
3934.072, 7.5624347E-02
3936.000, 7.6327316E-02
3937.929, 7.6312743E-02
3939.857, 7.5896583E-02
3941.786, 7.5164407E-02
3943.714, 7.6002017E-02
3945.643, 7.5777493E-02
3947.571, 7.4040502E-02
3949.500, 7.4052364E-02
3951.428, 7.3709331E-02
3953.357, 7.3277444E-02
3955.285, 7.2231010E-02
3957.214, 7.1271382E-02
3959.142, 7.2405294E-02
3961.071, 7.4467883E-02
3962.999, 7.4057862E-02
3964.927, 7.1342677E-02
3966.856, 7.2420523E-02
3968.784, 7.7461474E-02
3970.713, 7.7171758E-02
3972.641, 7.2224967E-02
3974.570, 7.1039103E-02
3976.498, 7.4140683E-02
3978.427, 7.1824521E-02
3980.355, 7.1988434E-02
3982.284, 7.4838020E-02
3984.212, 7.5949281E-02
3986.141, 7.8600287E-02
3988.069, 7.7236317E-02
3989.998, 7.3593780E-02
3991.926, 7.4468367E-02
3993.854, 7.5715713E-02
3995.783, 7.4978769E-02
3997.711, 7.6162867E-02
3999.640, 7.6199614E-02
##END=



